# Temperatura_=_70.36
# Concentracion g/m^3_=_28200.0
# C_Vs_to_Am_M_A/Vsm_=_65563218390.804596
# pendiente_HvsI_1/m_=_3716.3
# ordenada_HvsI_A/m_=_1297.0
# frecuencia_Hz_=_302286.40632332425

Tiempo_(s)	Campo_(V.s)	Magnetizacion_(V.s)	Campo_(kA/m)	Magnetizacion_(A/m)
0.000000e+00	-6.910247e-06	-2.607833e-08	-4.951971e+01	-1.707279e+03
1.000000e-08	-6.907699e-06	-2.607062e-08	-4.950146e+01	-1.706884e+03
2.000000e-08	-6.902798e-06	-2.606080e-08	-4.946634e+01	-1.706311e+03
3.000000e-08	-6.895759e-06	-2.604869e-08	-4.941590e+01	-1.705555e+03
4.000000e-08	-6.886416e-06	-2.603421e-08	-4.934894e+01	-1.704609e+03
5.000000e-08	-6.874565e-06	-2.601724e-08	-4.926401e+01	-1.703469e+03
6.000000e-08	-6.860114e-06	-2.599817e-08	-4.916046e+01	-1.702133e+03
7.000000e-08	-6.843208e-06	-2.597886e-08	-4.903931e+01	-1.700605e+03
8.000000e-08	-6.824250e-06	-2.596156e-08	-4.890346e+01	-1.698901e+03
9.000000e-08	-6.803139e-06	-2.595580e-08	-4.875217e+01	-1.697044e+03
1.000000e-07	-6.779435e-06	-2.592540e-08	-4.858230e+01	-1.695068e+03
1.100000e-07	-6.752975e-06	-2.587505e-08	-4.839269e+01	-1.693006e+03
1.200000e-07	-6.723931e-06	-2.582576e-08	-4.818455e+01	-1.690890e+03
1.300000e-07	-6.692633e-06	-2.577466e-08	-4.796027e+01	-1.688737e+03
1.400000e-07	-6.659150e-06	-2.571686e-08	-4.772033e+01	-1.686546e+03
1.500000e-07	-6.623793e-06	-2.568995e-08	-4.746695e+01	-1.684290e+03
1.600000e-07	-6.586706e-06	-2.568006e-08	-4.720118e+01	-1.681918e+03
1.700000e-07	-6.547470e-06	-2.560449e-08	-4.692001e+01	-1.679363e+03
1.800000e-07	-6.505950e-06	-2.556516e-08	-4.662247e+01	-1.676552e+03
1.900000e-07	-6.462005e-06	-2.551387e-08	-4.630756e+01	-1.673416e+03
2.000000e-07	-6.415650e-06	-2.543060e-08	-4.597537e+01	-1.669908e+03
2.100000e-07	-6.366886e-06	-2.537154e-08	-4.562592e+01	-1.666007e+03
2.200000e-07	-6.315382e-06	-2.530297e-08	-4.525684e+01	-1.661723e+03
2.300000e-07	-6.261295e-06	-2.525107e-08	-4.486924e+01	-1.657095e+03
2.400000e-07	-6.204874e-06	-2.517821e-08	-4.446493e+01	-1.652177e+03
2.500000e-07	-6.146064e-06	-2.510129e-08	-4.404348e+01	-1.647026e+03
2.600000e-07	-6.084991e-06	-2.503003e-08	-4.360583e+01	-1.641688e+03
2.700000e-07	-6.021711e-06	-2.493469e-08	-4.315235e+01	-1.636188e+03
2.800000e-07	-5.956134e-06	-2.483923e-08	-4.268242e+01	-1.630521e+03
2.900000e-07	-5.888351e-06	-2.474908e-08	-4.219668e+01	-1.624657e+03
3.000000e-07	-5.818419e-06	-2.466239e-08	-4.169554e+01	-1.618548e+03
3.100000e-07	-5.746312e-06	-2.457219e-08	-4.117881e+01	-1.612143e+03
3.200000e-07	-5.671917e-06	-2.446137e-08	-4.064568e+01	-1.605394e+03
3.300000e-07	-5.595137e-06	-2.434981e-08	-4.009547e+01	-1.598276e+03
3.400000e-07	-5.515996e-06	-2.423064e-08	-3.952834e+01	-1.590781e+03
3.500000e-07	-5.434685e-06	-2.411183e-08	-3.894565e+01	-1.582925e+03
3.600000e-07	-5.351609e-06	-2.398986e-08	-3.835032e+01	-1.574734e+03
3.700000e-07	-5.266820e-06	-2.386774e-08	-3.774271e+01	-1.566236e+03
3.800000e-07	-5.180273e-06	-2.374199e-08	-3.712250e+01	-1.557448e+03
3.900000e-07	-5.092003e-06	-2.359201e-08	-3.648995e+01	-1.548370e+03
4.000000e-07	-5.001865e-06	-2.344097e-08	-3.584400e+01	-1.538978e+03
4.100000e-07	-4.909892e-06	-2.328741e-08	-3.518491e+01	-1.529235e+03
4.200000e-07	-4.816305e-06	-2.313371e-08	-3.451426e+01	-1.519091e+03
4.300000e-07	-4.721115e-06	-2.297333e-08	-3.383212e+01	-1.508500e+03
4.400000e-07	-4.624185e-06	-2.280509e-08	-3.313750e+01	-1.497427e+03
4.500000e-07	-4.525482e-06	-2.263060e-08	-3.243018e+01	-1.485855e+03
4.600000e-07	-4.425149e-06	-2.244781e-08	-3.171119e+01	-1.473784e+03
4.700000e-07	-4.323267e-06	-2.225848e-08	-3.098109e+01	-1.461223e+03
4.800000e-07	-4.219885e-06	-2.205755e-08	-3.024024e+01	-1.448184e+03
4.900000e-07	-4.115021e-06	-2.185207e-08	-2.948877e+01	-1.434669e+03
5.000000e-07	-4.008581e-06	-2.163456e-08	-2.872601e+01	-1.420661e+03
5.100000e-07	-3.900630e-06	-2.140578e-08	-2.795242e+01	-1.406123e+03
5.200000e-07	-3.791317e-06	-2.116775e-08	-2.716907e+01	-1.390998e+03
5.300000e-07	-3.680658e-06	-2.092420e-08	-2.637607e+01	-1.375222e+03
5.400000e-07	-3.568707e-06	-2.067314e-08	-2.557381e+01	-1.358727e+03
5.500000e-07	-3.455396e-06	-2.040998e-08	-2.476181e+01	-1.341459e+03
5.600000e-07	-3.340544e-06	-2.013661e-08	-2.393877e+01	-1.323377e+03
5.700000e-07	-3.224183e-06	-1.985028e-08	-2.310491e+01	-1.304458e+03
5.800000e-07	-3.106482e-06	-1.954899e-08	-2.226145e+01	-1.284685e+03
5.900000e-07	-2.987649e-06	-1.922918e-08	-2.140987e+01	-1.264041e+03
6.000000e-07	-2.867815e-06	-1.889810e-08	-2.055113e+01	-1.242492e+03
6.100000e-07	-2.746955e-06	-1.855429e-08	-1.968503e+01	-1.219979e+03
6.200000e-07	-2.625009e-06	-1.819285e-08	-1.881115e+01	-1.196414e+03
6.300000e-07	-2.501956e-06	-1.781295e-08	-1.792934e+01	-1.171681e+03
6.400000e-07	-2.377919e-06	-1.741322e-08	-1.704047e+01	-1.145649e+03
6.500000e-07	-2.253111e-06	-1.699010e-08	-1.614608e+01	-1.118181e+03
6.600000e-07	-2.127610e-06	-1.654439e-08	-1.524673e+01	-1.089145e+03
6.700000e-07	-2.001429e-06	-1.607856e-08	-1.434249e+01	-1.058424e+03
6.800000e-07	-1.874586e-06	-1.558836e-08	-1.343353e+01	-1.025913e+03
6.900000e-07	-1.747093e-06	-1.506883e-08	-1.251989e+01	-9.915118e+02
7.000000e-07	-1.618934e-06	-1.451440e-08	-1.160149e+01	-9.551143e+02
7.100000e-07	-1.490197e-06	-1.392552e-08	-1.067895e+01	-9.165952e+02
7.200000e-07	-1.361068e-06	-1.329962e-08	-9.753585e+00	-8.758072e+02
7.300000e-07	-1.231530e-06	-1.263727e-08	-8.825305e+00	-8.325878e+02
7.400000e-07	-1.101542e-06	-1.193761e-08	-7.893789e+00	-7.867795e+02
7.500000e-07	-9.711478e-07	-1.119719e-08	-6.959370e+00	-7.382625e+02
7.600000e-07	-8.403841e-07	-1.041582e-08	-6.022300e+00	-6.869919e+02
7.700000e-07	-7.092885e-07	-9.593349e-09	-5.082852e+00	-6.330323e+02
7.800000e-07	-5.778878e-07	-8.736159e-09	-4.141218e+00	-5.765780e+02
7.900000e-07	-4.462639e-07	-7.848021e-09	-3.197984e+00	-5.179527e+02
8.000000e-07	-3.144758e-07	-6.931666e-09	-2.253574e+00	-4.575820e+02
8.100000e-07	-1.825249e-07	-5.994292e-09	-1.307997e+00	-3.959424e+02
8.200000e-07	-5.042531e-08	-5.041339e-09	-3.613542e-01	-3.334933e+02
8.300000e-07	8.176277e-08	-4.078507e-09	5.859225e-01	-2.706058e+02
8.400000e-07	2.139479e-07	-3.113522e-09	1.533178e+00	-2.075017e+02
8.500000e-07	3.460336e-07	-2.148473e-09	2.479721e+00	-1.442197e+02
8.600000e-07	4.780034e-07	-1.181588e-09	3.425434e+00	-8.061504e+01
8.700000e-07	6.098715e-07	-2.080810e-10	4.370417e+00	-1.639938e+01
8.800000e-07	7.415274e-07	7.785735e-10	5.313881e+00	4.878741e+01
8.900000e-07	8.728714e-07	1.786225e-09	6.255108e+00	1.152838e+02
9.000000e-07	1.003836e-06	2.819686e-09	7.193620e+00	1.833100e+02
9.100000e-07	1.134314e-06	3.877104e-09	8.128637e+00	2.528869e+02
9.200000e-07	1.264316e-06	4.957509e-09	9.060253e+00	3.237864e+02
9.300000e-07	1.393877e-06	6.054139e-09	9.988698e+00	3.955243e+02
9.400000e-07	1.522956e-06	7.154106e-09	1.091370e+01	4.673957e+02
9.500000e-07	1.651523e-06	8.240965e-09	1.183503e+01	5.385497e+02
9.600000e-07	1.779504e-06	9.298208e-09	1.275216e+01	6.080855e+02
9.700000e-07	1.906826e-06	1.031468e-08	1.366456e+01	6.751556e+02
9.800000e-07	2.033406e-06	1.128119e-08	1.457165e+01	7.390563e+02
9.900000e-07	2.159208e-06	1.219293e-08	1.547316e+01	7.992909e+02
1.000000e-06	2.284256e-06	1.304542e-08	1.636927e+01	8.555975e+02
1.010000e-06	2.408573e-06	1.383904e-08	1.726015e+01	9.079400e+02
1.020000e-06	2.532020e-06	1.457718e-08	1.814478e+01	9.564689e+02
1.030000e-06	2.654387e-06	1.526356e-08	1.902167e+01	1.001462e+03
1.040000e-06	2.775727e-06	1.590079e-08	1.989122e+01	1.043262e+03
1.050000e-06	2.896040e-06	1.649325e-08	2.075340e+01	1.082213e+03
1.060000e-06	3.015261e-06	1.704501e-08	2.160775e+01	1.118626e+03
1.070000e-06	3.133423e-06	1.755965e-08	2.245451e+01	1.152751e+03
1.080000e-06	3.250514e-06	1.804158e-08	2.329360e+01	1.184780e+03
1.090000e-06	3.366385e-06	1.849588e-08	2.412395e+01	1.214858e+03
1.100000e-06	3.480783e-06	1.892571e-08	2.494374e+01	1.243102e+03
1.110000e-06	3.593714e-06	1.932991e-08	2.575302e+01	1.269624e+03
1.120000e-06	3.705345e-06	1.970895e-08	2.655298e+01	1.294540e+03
1.130000e-06	3.815722e-06	2.006701e-08	2.734395e+01	1.317980e+03
1.140000e-06	3.924882e-06	2.040723e-08	2.812621e+01	1.340082e+03
1.150000e-06	4.032807e-06	2.072871e-08	2.889961e+01	1.360981e+03
1.160000e-06	4.139235e-06	2.103220e-08	2.966229e+01	1.380796e+03
1.170000e-06	4.244080e-06	2.131804e-08	3.041362e+01	1.399626e+03
1.180000e-06	4.347428e-06	2.158631e-08	3.115423e+01	1.417542e+03
1.190000e-06	4.449247e-06	2.183966e-08	3.188388e+01	1.434590e+03
1.200000e-06	4.549533e-06	2.208325e-08	3.260254e+01	1.450800e+03
1.210000e-06	4.648160e-06	2.231711e-08	3.330931e+01	1.466194e+03
1.220000e-06	4.745021e-06	2.254026e-08	3.400343e+01	1.480799e+03
1.230000e-06	4.840133e-06	2.275248e-08	3.468501e+01	1.494648e+03
1.240000e-06	4.933482e-06	2.295361e-08	3.535397e+01	1.507789e+03
1.250000e-06	5.025124e-06	2.314268e-08	3.601068e+01	1.520276e+03
1.260000e-06	5.114956e-06	2.332182e-08	3.665443e+01	1.532167e+03
1.270000e-06	5.202851e-06	2.349314e-08	3.728430e+01	1.543513e+03
1.280000e-06	5.288863e-06	2.365567e-08	3.790067e+01	1.554354e+03
1.290000e-06	5.373091e-06	2.381203e-08	3.850426e+01	1.564715e+03
1.300000e-06	5.455444e-06	2.396359e-08	3.909441e+01	1.574608e+03
1.310000e-06	5.535776e-06	2.410932e-08	3.967008e+01	1.584035e+03
1.320000e-06	5.614113e-06	2.424761e-08	4.023146e+01	1.592990e+03
1.330000e-06	5.690376e-06	2.437936e-08	4.077797e+01	1.601474e+03
1.340000e-06	5.764357e-06	2.450591e-08	4.130812e+01	1.609489e+03
1.350000e-06	5.836065e-06	2.462352e-08	4.182199e+01	1.617050e+03
1.360000e-06	5.905698e-06	2.473280e-08	4.232099e+01	1.624177e+03
1.370000e-06	5.973300e-06	2.483489e-08	4.280543e+01	1.630899e+03
1.380000e-06	6.038735e-06	2.492812e-08	4.327435e+01	1.637244e+03
1.390000e-06	6.101991e-06	2.501655e-08	4.372765e+01	1.643242e+03
1.400000e-06	6.163216e-06	2.510238e-08	4.416639e+01	1.648917e+03
1.410000e-06	6.222371e-06	2.518516e-08	4.459031e+01	1.654290e+03
1.420000e-06	6.279263e-06	2.526373e-08	4.499800e+01	1.659377e+03
1.430000e-06	6.333841e-06	2.533812e-08	4.538912e+01	1.664193e+03
1.440000e-06	6.385989e-06	2.540885e-08	4.576281e+01	1.668747e+03
1.450000e-06	6.435472e-06	2.547507e-08	4.611742e+01	1.673051e+03
1.460000e-06	6.482413e-06	2.553558e-08	4.645381e+01	1.677111e+03
1.470000e-06	6.527195e-06	2.559356e-08	4.677472e+01	1.680932e+03
1.480000e-06	6.569724e-06	2.565019e-08	4.707949e+01	1.684516e+03
1.490000e-06	6.609778e-06	2.570278e-08	4.736652e+01	1.687859e+03
1.500000e-06	6.647526e-06	2.574991e-08	4.763703e+01	1.690954e+03
1.510000e-06	6.683100e-06	2.579157e-08	4.789195e+01	1.693791e+03
1.520000e-06	6.716284e-06	2.583243e-08	4.812976e+01	1.696363e+03
1.530000e-06	6.746979e-06	2.586945e-08	4.834972e+01	1.698664e+03
1.540000e-06	6.775399e-06	2.589890e-08	4.855338e+01	1.700695e+03
1.550000e-06	6.801338e-06	2.592243e-08	4.873926e+01	1.702464e+03
1.560000e-06	6.824672e-06	2.594342e-08	4.890648e+01	1.703985e+03
1.570000e-06	6.845690e-06	2.596336e-08	4.905710e+01	1.705275e+03
1.580000e-06	6.864403e-06	2.598052e-08	4.919120e+01	1.706352e+03
1.590000e-06	6.880591e-06	2.599492e-08	4.930720e+01	1.707234e+03
1.600000e-06	6.894138e-06	2.600658e-08	4.940428e+01	1.707933e+03
1.610000e-06	6.904944e-06	2.601658e-08	4.948171e+01	1.708460e+03
1.620000e-06	6.913067e-06	2.602341e-08	4.953993e+01	1.708819e+03
1.630000e-06	6.918726e-06	2.602674e-08	4.958048e+01	1.709010e+03
1.640000e-06	6.921947e-06	2.602836e-08	4.960357e+01	1.709033e+03
1.650000e-06	6.922692e-06	2.602831e-08	4.960890e+01	1.708886e+03
1.660000e-06	6.921025e-06	2.602243e-08	4.959696e+01	1.708566e+03
1.670000e-06	6.917180e-06	2.601269e-08	4.956940e+01	1.708069e+03
1.680000e-06	6.911016e-06	2.600173e-08	4.952523e+01	1.707392e+03
1.690000e-06	6.902426e-06	2.598959e-08	4.946367e+01	1.706528e+03
1.700000e-06	6.891649e-06	2.597574e-08	4.938644e+01	1.705472e+03
1.710000e-06	6.878477e-06	2.595974e-08	4.929205e+01	1.704219e+03
1.720000e-06	6.862874e-06	2.594050e-08	4.918023e+01	1.702772e+03
1.730000e-06	6.845206e-06	2.590744e-08	4.905363e+01	1.701141e+03
1.740000e-06	6.825428e-06	2.585377e-08	4.891190e+01	1.699346e+03
1.750000e-06	6.802833e-06	2.582131e-08	4.874998e+01	1.697416e+03
1.760000e-06	6.776996e-06	2.580452e-08	4.856483e+01	1.695386e+03
1.770000e-06	6.748213e-06	2.578081e-08	4.835856e+01	1.693290e+03
1.780000e-06	6.717037e-06	2.576774e-08	4.813515e+01	1.691152e+03
1.790000e-06	6.684075e-06	2.574868e-08	4.789894e+01	1.688979e+03
1.800000e-06	6.649711e-06	2.570074e-08	4.765268e+01	1.686756e+03
1.810000e-06	6.613503e-06	2.568406e-08	4.739321e+01	1.684440e+03
1.820000e-06	6.574812e-06	2.566109e-08	4.711595e+01	1.681973e+03
1.830000e-06	6.533837e-06	2.562603e-08	4.682232e+01	1.679280e+03
1.840000e-06	6.490670e-06	2.560880e-08	4.651297e+01	1.676290e+03
1.850000e-06	6.445112e-06	2.554925e-08	4.618650e+01	1.672946e+03
1.860000e-06	6.397204e-06	2.549323e-08	4.584318e+01	1.669214e+03
1.870000e-06	6.346880e-06	2.542285e-08	4.548256e+01	1.665091e+03
1.880000e-06	6.294106e-06	2.533586e-08	4.510437e+01	1.660604e+03
1.890000e-06	6.238762e-06	2.527399e-08	4.470777e+01	1.655803e+03
1.900000e-06	6.180937e-06	2.518506e-08	4.429339e+01	1.650745e+03
1.910000e-06	6.120915e-06	2.512427e-08	4.386327e+01	1.645483e+03
1.920000e-06	6.058497e-06	2.506325e-08	4.341597e+01	1.640050e+03
1.930000e-06	5.993794e-06	2.495541e-08	4.295230e+01	1.634457e+03
1.940000e-06	5.927014e-06	2.487538e-08	4.247374e+01	1.628682e+03
1.950000e-06	5.857961e-06	2.477043e-08	4.197890e+01	1.622684e+03
1.960000e-06	5.786481e-06	2.467210e-08	4.146667e+01	1.616412e+03
1.970000e-06	5.712734e-06	2.457287e-08	4.093819e+01	1.609815e+03
1.980000e-06	5.636864e-06	2.446680e-08	4.039449e+01	1.602857e+03
1.990000e-06	5.558626e-06	2.436842e-08	3.983383e+01	1.595523e+03
2.000000e-06	5.478255e-06	2.424168e-08	3.925788e+01	1.587818e+03
2.010000e-06	5.396074e-06	2.411650e-08	3.866896e+01	1.579767e+03
2.020000e-06	5.312053e-06	2.398615e-08	3.806686e+01	1.571397e+03
2.030000e-06	5.226061e-06	2.386739e-08	3.745062e+01	1.562733e+03
2.040000e-06	5.138066e-06	2.373995e-08	3.682004e+01	1.553780e+03
2.050000e-06	5.048380e-06	2.359586e-08	3.617734e+01	1.544527e+03
2.060000e-06	4.957071e-06	2.344931e-08	3.552301e+01	1.534940e+03
2.070000e-06	4.864063e-06	2.328611e-08	3.485650e+01	1.524973e+03
2.080000e-06	4.769231e-06	2.312252e-08	3.417692e+01	1.514578e+03
2.090000e-06	4.672623e-06	2.295401e-08	3.348462e+01	1.503715e+03
2.100000e-06	4.574450e-06	2.278905e-08	3.278110e+01	1.492358e+03
2.110000e-06	4.474823e-06	2.261635e-08	3.206716e+01	1.480500e+03
2.120000e-06	4.373664e-06	2.243137e-08	3.134224e+01	1.468147e+03
2.130000e-06	4.270731e-06	2.223531e-08	3.060461e+01	1.455312e+03
2.140000e-06	4.166161e-06	2.203143e-08	2.985524e+01	1.442001e+03
2.150000e-06	4.060178e-06	2.182412e-08	2.909575e+01	1.428208e+03
2.160000e-06	3.952852e-06	2.160588e-08	2.832664e+01	1.413903e+03
2.170000e-06	3.844156e-06	2.138010e-08	2.754772e+01	1.399037e+03
2.180000e-06	3.734023e-06	2.114395e-08	2.675849e+01	1.383548e+03
2.190000e-06	3.622399e-06	2.089909e-08	2.595858e+01	1.367368e+03
2.200000e-06	3.509358e-06	2.064160e-08	2.514851e+01	1.350437e+03
2.210000e-06	3.395008e-06	2.037267e-08	2.432906e+01	1.332707e+03
2.220000e-06	3.279237e-06	2.009165e-08	2.349944e+01	1.314149e+03
2.230000e-06	3.162021e-06	1.980236e-08	2.265945e+01	1.294744e+03
2.240000e-06	3.043457e-06	1.949796e-08	2.180981e+01	1.274476e+03
2.250000e-06	2.923649e-06	1.917653e-08	2.095124e+01	1.253320e+03
2.260000e-06	2.802748e-06	1.883821e-08	2.008485e+01	1.231229e+03
2.270000e-06	2.680908e-06	1.848219e-08	1.921173e+01	1.208127e+03
2.280000e-06	2.558110e-06	1.811066e-08	1.833174e+01	1.183910e+03
2.290000e-06	2.434373e-06	1.772158e-08	1.744503e+01	1.158452e+03
2.300000e-06	2.309827e-06	1.731593e-08	1.655252e+01	1.131615e+03
2.310000e-06	2.184528e-06	1.688899e-08	1.565461e+01	1.103266e+03
2.320000e-06	2.058426e-06	1.643619e-08	1.475095e+01	1.073281e+03
2.330000e-06	1.931545e-06	1.595252e-08	1.384170e+01	1.041549e+03
2.340000e-06	1.803951e-06	1.543982e-08	1.292734e+01	1.007970e+03
2.350000e-06	1.675690e-06	1.489861e-08	1.200821e+01	9.724422e+02
2.360000e-06	1.546920e-06	1.432489e-08	1.108543e+01	9.348489e+02
2.370000e-06	1.417735e-06	1.371491e-08	1.015967e+01	8.950524e+02
2.380000e-06	1.288158e-06	1.306731e-08	9.231107e+00	8.528951e+02
2.390000e-06	1.158202e-06	1.238306e-08	8.299824e+00	8.082138e+02
2.400000e-06	1.027834e-06	1.166033e-08	7.365589e+00	7.608683e+02
2.410000e-06	8.970866e-07	1.089946e-08	6.428638e+00	7.107767e+02
2.420000e-06	7.660132e-07	1.009781e-08	5.489349e+00	6.579533e+02
2.430000e-06	6.346731e-07	9.253948e-09	4.548149e+00	6.025355e+02
2.440000e-06	5.032011e-07	8.372045e-09	3.606004e+00	5.447934e+02
2.450000e-06	3.716039e-07	7.457747e-09	2.662961e+00	4.851137e+02
2.460000e-06	2.398347e-07	6.520574e-09	1.718686e+00	4.239588e+02
2.470000e-06	1.079735e-07	5.569278e-09	7.737523e-01	3.618043e+02
2.480000e-06	-2.394966e-08	4.610606e-09	-1.716264e-01	2.990675e+02
2.490000e-06	-1.559400e-07	3.647100e-09	-1.117486e+00	2.360402e+02
2.500000e-06	-2.879110e-07	2.679818e-09	-2.063207e+00	1.728417e+02
2.510000e-06	-4.197389e-07	1.710148e-09	-3.007903e+00	1.094034e+02
2.520000e-06	-5.513923e-07	7.335781e-10	-3.951348e+00	4.549129e+01
2.530000e-06	-6.829459e-07	-2.566329e-10	-4.894078e+00	-1.923453e+01
2.540000e-06	-8.142930e-07	-1.264424e-09	-5.835328e+00	-8.513387e+01
2.550000e-06	-9.453385e-07	-2.293561e-09	-6.774417e+00	-1.524889e+02
2.560000e-06	-1.076131e-06	-3.346196e-09	-7.711690e+00	-2.214142e+02
2.570000e-06	-1.206599e-06	-4.421510e-09	-8.646642e+00	-2.917918e+02
2.580000e-06	-1.336560e-06	-5.513409e-09	-9.577958e+00	-3.632453e+02
2.590000e-06	-1.465996e-06	-6.613967e-09	-1.050552e+01	-4.351574e+02
2.600000e-06	-1.595043e-06	-7.711393e-09	-1.143028e+01	-5.067289e+02
2.610000e-06	-1.723632e-06	-8.789837e-09	-1.235177e+01	-5.770676e+02
2.620000e-06	-1.851611e-06	-9.836367e-09	-1.326888e+01	-6.452909e+02
2.630000e-06	-1.978813e-06	-1.083650e-08	-1.418043e+01	-7.106241e+02
2.640000e-06	-2.105152e-06	-1.178051e-08	-1.508579e+01	-7.724761e+02
2.650000e-06	-2.230683e-06	-1.266593e-08	-1.598536e+01	-8.304833e+02
2.660000e-06	-2.355378e-06	-1.349239e-08	-1.687894e+01	-8.845161e+02
2.670000e-06	-2.479154e-06	-1.426001e-08	-1.776594e+01	-9.346515e+02
2.680000e-06	-2.601961e-06	-1.497266e-08	-1.864598e+01	-9.811208e+02
2.690000e-06	-2.723783e-06	-1.563624e-08	-1.951898e+01	-1.024246e+03
2.700000e-06	-2.844685e-06	-1.625572e-08	-2.038538e+01	-1.064377e+03
2.710000e-06	-2.964524e-06	-1.683536e-08	-2.124416e+01	-1.101844e+03
2.720000e-06	-3.083152e-06	-1.737606e-08	-2.209426e+01	-1.136923e+03
2.730000e-06	-3.200584e-06	-1.787772e-08	-2.293580e+01	-1.169830e+03
2.740000e-06	-3.316721e-06	-1.834596e-08	-2.376805e+01	-1.200729e+03
2.750000e-06	-3.431507e-06	-1.878614e-08	-2.459062e+01	-1.229746e+03
2.760000e-06	-3.544841e-06	-1.919910e-08	-2.540279e+01	-1.256992e+03
2.770000e-06	-3.656721e-06	-1.958985e-08	-2.620453e+01	-1.282581e+03
2.780000e-06	-3.767206e-06	-1.996143e-08	-2.699628e+01	-1.306638e+03
2.790000e-06	-3.876408e-06	-2.031118e-08	-2.777884e+01	-1.329297e+03
2.800000e-06	-3.984475e-06	-2.063915e-08	-2.855326e+01	-1.350695e+03
2.810000e-06	-4.091242e-06	-2.094829e-08	-2.931836e+01	-1.370961e+03
2.820000e-06	-4.196580e-06	-2.124163e-08	-3.007323e+01	-1.390204e+03
2.830000e-06	-4.300436e-06	-2.152266e-08	-3.081748e+01	-1.408505e+03
2.840000e-06	-4.402678e-06	-2.178949e-08	-3.155016e+01	-1.425921e+03
2.850000e-06	-4.503293e-06	-2.204110e-08	-3.227118e+01	-1.442487e+03
2.860000e-06	-4.602310e-06	-2.228009e-08	-3.298074e+01	-1.458228e+03
2.870000e-06	-4.699759e-06	-2.250776e-08	-3.367908e+01	-1.473168e+03
2.880000e-06	-4.795542e-06	-2.272672e-08	-3.436547e+01	-1.487336e+03
2.890000e-06	-4.889522e-06	-2.293609e-08	-3.503894e+01	-1.500774e+03
2.900000e-06	-4.981779e-06	-2.313500e-08	-3.570007e+01	-1.513535e+03
2.910000e-06	-5.072325e-06	-2.332460e-08	-3.634894e+01	-1.525675e+03
2.920000e-06	-5.161082e-06	-2.350315e-08	-3.698498e+01	-1.537248e+03
2.930000e-06	-5.247867e-06	-2.367038e-08	-3.760689e+01	-1.548302e+03
2.940000e-06	-5.332649e-06	-2.382786e-08	-3.821445e+01	-1.558867e+03
