# Temperatura_=_90.13
# Concentracion g/m^3_=_28200.0
# C_Vs_to_Am_M_A/Vsm_=_65563218390.804596
# pendiente_HvsI_1/m_=_3716.3
# ordenada_HvsI_A/m_=_1297.0
# frecuencia_Hz_=_302286.2267370476

Tiempo_(s)	Campo_(V.s)	Magnetizacion_(V.s)	Campo_(kA/m)	Magnetizacion_(A/m)
0.000000e+00	-6.931357e-06	-2.919826e-08	-4.951703e+01	-1.912081e+03
1.000000e-08	-6.928207e-06	-2.919241e-08	-4.949453e+01	-1.911552e+03
2.000000e-08	-6.922801e-06	-2.917829e-08	-4.945591e+01	-1.910802e+03
3.000000e-08	-6.915227e-06	-2.916418e-08	-4.940181e+01	-1.909839e+03
4.000000e-08	-6.905291e-06	-2.914793e-08	-4.933082e+01	-1.908672e+03
5.000000e-08	-6.892785e-06	-2.912695e-08	-4.924148e+01	-1.907305e+03
6.000000e-08	-6.877721e-06	-2.909740e-08	-4.913386e+01	-1.905740e+03
7.000000e-08	-6.860310e-06	-2.906510e-08	-4.900948e+01	-1.903977e+03
8.000000e-08	-6.840838e-06	-2.904699e-08	-4.887037e+01	-1.902020e+03
9.000000e-08	-6.819079e-06	-2.907563e-08	-4.871493e+01	-1.899877e+03
1.000000e-07	-6.794635e-06	-2.902733e-08	-4.854030e+01	-1.897570e+03
1.100000e-07	-6.767434e-06	-2.893779e-08	-4.834598e+01	-1.895126e+03
1.200000e-07	-6.737739e-06	-2.889202e-08	-4.813384e+01	-1.892576e+03
1.300000e-07	-6.705842e-06	-2.884852e-08	-4.790597e+01	-1.889943e+03
1.400000e-07	-6.671723e-06	-2.874597e-08	-4.766223e+01	-1.887240e+03
1.500000e-07	-6.635734e-06	-2.870842e-08	-4.740513e+01	-1.884451e+03
1.600000e-07	-6.597969e-06	-2.876226e-08	-4.713534e+01	-1.881540e+03
1.700000e-07	-6.558056e-06	-2.860134e-08	-4.685020e+01	-1.878445e+03
1.800000e-07	-6.515870e-06	-2.855918e-08	-4.654883e+01	-1.875090e+03
1.900000e-07	-6.471196e-06	-2.854088e-08	-4.622968e+01	-1.871399e+03
2.000000e-07	-6.424079e-06	-2.841436e-08	-4.589308e+01	-1.867313e+03
2.100000e-07	-6.374486e-06	-2.839419e-08	-4.553879e+01	-1.862797e+03
2.200000e-07	-6.322204e-06	-2.829611e-08	-4.516529e+01	-1.857849e+03
2.300000e-07	-6.267395e-06	-2.821902e-08	-4.477375e+01	-1.852500e+03
2.400000e-07	-6.210222e-06	-2.814038e-08	-4.436531e+01	-1.846802e+03
2.500000e-07	-6.150696e-06	-2.803596e-08	-4.394006e+01	-1.840817e+03
2.600000e-07	-6.088903e-06	-2.796404e-08	-4.349861e+01	-1.834597e+03
2.700000e-07	-6.024884e-06	-2.784796e-08	-4.304127e+01	-1.828175e+03
2.800000e-07	-5.958614e-06	-2.774748e-08	-4.256784e+01	-1.821554e+03
2.900000e-07	-5.890073e-06	-2.763888e-08	-4.207818e+01	-1.814710e+03
3.000000e-07	-5.819332e-06	-2.752023e-08	-4.157282e+01	-1.807598e+03
3.100000e-07	-5.746405e-06	-2.742073e-08	-4.105183e+01	-1.800164e+03
3.200000e-07	-5.671112e-06	-2.729848e-08	-4.051395e+01	-1.792361e+03
3.300000e-07	-5.593487e-06	-2.718482e-08	-3.995940e+01	-1.784160e+03
3.400000e-07	-5.513603e-06	-2.702636e-08	-3.938872e+01	-1.775552e+03
3.500000e-07	-5.431635e-06	-2.689686e-08	-3.880315e+01	-1.766549e+03
3.600000e-07	-5.347902e-06	-2.676963e-08	-3.820497e+01	-1.757176e+03
3.700000e-07	-5.262438e-06	-2.661553e-08	-3.759441e+01	-1.747454e+03
3.800000e-07	-5.175180e-06	-2.647796e-08	-3.697105e+01	-1.737394e+03
3.900000e-07	-5.086102e-06	-2.631202e-08	-3.633469e+01	-1.726987e+03
4.000000e-07	-4.995175e-06	-2.614118e-08	-3.568511e+01	-1.716204e+03
4.100000e-07	-4.902498e-06	-2.595600e-08	-3.502304e+01	-1.705000e+03
4.200000e-07	-4.808217e-06	-2.578282e-08	-3.434950e+01	-1.693326e+03
4.300000e-07	-4.712289e-06	-2.559685e-08	-3.366420e+01	-1.681138e+03
4.400000e-07	-4.614664e-06	-2.539940e-08	-3.296677e+01	-1.668411e+03
4.500000e-07	-4.515342e-06	-2.520212e-08	-3.225722e+01	-1.655139e+03
4.600000e-07	-4.414411e-06	-2.499366e-08	-3.153618e+01	-1.641332e+03
4.700000e-07	-4.311982e-06	-2.477963e-08	-3.080444e+01	-1.627010e+03
4.800000e-07	-4.207980e-06	-2.455075e-08	-3.006146e+01	-1.612185e+03
4.900000e-07	-4.102428e-06	-2.432177e-08	-2.930740e+01	-1.596851e+03
5.000000e-07	-3.995282e-06	-2.407632e-08	-2.854196e+01	-1.580977e+03
5.100000e-07	-3.886617e-06	-2.381965e-08	-2.776567e+01	-1.564508e+03
5.200000e-07	-3.776669e-06	-2.355074e-08	-2.698020e+01	-1.547367e+03
5.300000e-07	-3.665363e-06	-2.327498e-08	-2.618505e+01	-1.529472e+03
5.400000e-07	-3.552621e-06	-2.299018e-08	-2.537963e+01	-1.510752e+03
5.500000e-07	-3.438432e-06	-2.269202e-08	-2.456387e+01	-1.491152e+03
5.600000e-07	-3.322763e-06	-2.238303e-08	-2.373754e+01	-1.470644e+03
5.700000e-07	-3.205668e-06	-2.205570e-08	-2.290102e+01	-1.449217e+03
5.800000e-07	-3.087382e-06	-2.171790e-08	-2.205600e+01	-1.426868e+03
5.900000e-07	-2.967976e-06	-2.136262e-08	-2.120297e+01	-1.403583e+03
6.000000e-07	-2.847388e-06	-2.099221e-08	-2.034150e+01	-1.379321e+03
6.100000e-07	-2.725830e-06	-2.060298e-08	-1.947310e+01	-1.354003e+03
6.200000e-07	-2.603331e-06	-2.019623e-08	-1.859798e+01	-1.327511e+03
6.300000e-07	-2.479741e-06	-1.976800e-08	-1.771507e+01	-1.299696e+03
6.400000e-07	-2.355179e-06	-1.931631e-08	-1.682520e+01	-1.270393e+03
6.500000e-07	-2.229811e-06	-1.884150e-08	-1.592958e+01	-1.239442e+03
6.600000e-07	-2.103795e-06	-1.834015e-08	-1.502933e+01	-1.206701e+03
6.700000e-07	-1.977139e-06	-1.781367e-08	-1.412452e+01	-1.172053e+03
6.800000e-07	-1.849716e-06	-1.725693e-08	-1.321421e+01	-1.135401e+03
6.900000e-07	-1.721568e-06	-1.667021e-08	-1.229873e+01	-1.096650e+03
7.000000e-07	-1.592778e-06	-1.604714e-08	-1.137867e+01	-1.055691e+03
7.100000e-07	-1.463478e-06	-1.538630e-08	-1.045497e+01	-1.012379e+03
7.200000e-07	-1.333803e-06	-1.468178e-08	-9.528575e+00	-9.665307e+02
7.300000e-07	-1.203743e-06	-1.393309e-08	-8.599439e+00	-9.179319e+02
7.400000e-07	-1.073305e-06	-1.314015e-08	-7.667604e+00	-8.663701e+02
7.500000e-07	-9.424592e-07	-1.230244e-08	-6.732849e+00	-8.116786e+02
7.600000e-07	-8.112146e-07	-1.142295e-08	-5.795249e+00	-7.537877e+02
7.700000e-07	-6.796688e-07	-1.049571e-08	-4.855497e+00	-6.927679e+02
7.800000e-07	-5.478748e-07	-9.524049e-09	-3.913972e+00	-6.288538e+02
7.900000e-07	-4.158469e-07	-8.514521e-09	-2.970776e+00	-5.624364e+02
8.000000e-07	-2.836348e-07	-7.475561e-09	-2.026263e+00	-4.940222e+02
8.100000e-07	-1.512689e-07	-6.411070e-09	-1.080652e+00	-4.241630e+02
8.200000e-07	-1.878505e-08	-5.328143e-09	-1.341988e-01	-3.533681e+02
8.300000e-07	1.137390e-07	-4.236543e-09	8.125417e-01	-2.820178e+02
8.400000e-07	2.462384e-07	-3.140815e-09	1.759106e+00	-2.102979e+02
8.500000e-07	3.786354e-07	-2.040920e-09	2.704940e+00	-1.381717e+02
8.600000e-07	5.108907e-07	-9.336469e-10	3.649760e+00	-6.539899e+01
8.700000e-07	6.429867e-07	1.863945e-10	4.593443e+00	8.397398e+00
8.800000e-07	7.748696e-07	1.326667e-09	5.535603e+00	8.362851e+01
8.900000e-07	9.064309e-07	2.493438e-09	6.475466e+00	1.606195e+02
9.000000e-07	1.037626e-06	3.690377e-09	7.412716e+00	2.394968e+02
9.100000e-07	1.168422e-06	4.915564e-09	8.347108e+00	3.201051e+02
9.200000e-07	1.298762e-06	6.165005e-09	9.278248e+00	4.019734e+02
9.300000e-07	1.428667e-06	7.426186e-09	1.020628e+01	4.843361e+02
9.400000e-07	1.558128e-06	8.680837e-09	1.113114e+01	5.662080e+02
9.500000e-07	1.687056e-06	9.907450e-09	1.205219e+01	6.464972e+02
9.600000e-07	1.815364e-06	1.108460e-08	1.296881e+01	7.241357e+02
9.700000e-07	1.942944e-06	1.220057e-08	1.388023e+01	7.982027e+02
9.800000e-07	2.069701e-06	1.324908e-08	1.478577e+01	8.680192e+02
9.900000e-07	2.195711e-06	1.423094e-08	1.568597e+01	9.331991e+02
1.000000e-06	2.321051e-06	1.514423e-08	1.658139e+01	9.936510e+02
1.010000e-06	2.445621e-06	1.599274e-08	1.747131e+01	1.049536e+03
1.020000e-06	2.569247e-06	1.678277e-08	1.835449e+01	1.101196e+03
1.030000e-06	2.691860e-06	1.751376e-08	1.923042e+01	1.149065e+03
1.040000e-06	2.813474e-06	1.819098e-08	2.009922e+01	1.193593e+03
1.050000e-06	2.933974e-06	1.882222e-08	2.096006e+01	1.235177e+03
1.060000e-06	3.053337e-06	1.941276e-08	2.181278e+01	1.274137e+03
1.070000e-06	3.171614e-06	1.996380e-08	2.265774e+01	1.310703e+03
1.080000e-06	3.288721e-06	2.047999e-08	2.349435e+01	1.345035e+03
1.090000e-06	3.404546e-06	2.096548e-08	2.432179e+01	1.377252e+03
1.100000e-06	3.519020e-06	2.142415e-08	2.513959e+01	1.407466e+03
1.110000e-06	3.632052e-06	2.185679e-08	2.594707e+01	1.435802e+03
1.120000e-06	3.743646e-06	2.226379e-08	2.674429e+01	1.462409e+03
1.130000e-06	3.853988e-06	2.264678e-08	2.753257e+01	1.487454e+03
1.140000e-06	3.963193e-06	2.300946e-08	2.831272e+01	1.511113e+03
1.150000e-06	4.071128e-06	2.335316e-08	2.908380e+01	1.533545e+03
1.160000e-06	4.177625e-06	2.367854e-08	2.984460e+01	1.554882e+03
1.170000e-06	4.282554e-06	2.398710e-08	3.059421e+01	1.575216e+03
1.180000e-06	4.385828e-06	2.427951e-08	3.133199e+01	1.594601e+03
1.190000e-06	4.487592e-06	2.455654e-08	3.205898e+01	1.613064e+03
1.200000e-06	4.587801e-06	2.481918e-08	3.277486e+01	1.630618e+03
1.210000e-06	4.686294e-06	2.506927e-08	3.347849e+01	1.647281e+03
1.220000e-06	4.783028e-06	2.530864e-08	3.416955e+01	1.663080e+03
1.230000e-06	4.877974e-06	2.553861e-08	3.484783e+01	1.678065e+03
1.240000e-06	4.971220e-06	2.575824e-08	3.551398e+01	1.692300e+03
1.250000e-06	5.062818e-06	2.596592e-08	3.616835e+01	1.705856e+03
1.260000e-06	5.152578e-06	2.616189e-08	3.680959e+01	1.718800e+03
1.270000e-06	5.240351e-06	2.634804e-08	3.743663e+01	1.731188e+03
1.280000e-06	5.326223e-06	2.652463e-08	3.805009e+01	1.743055e+03
1.290000e-06	5.410272e-06	2.669465e-08	3.865053e+01	1.754416e+03
1.300000e-06	5.492377e-06	2.685869e-08	3.923708e+01	1.765276e+03
1.310000e-06	5.572431e-06	2.701638e-08	3.980898e+01	1.775630e+03
1.320000e-06	5.650438e-06	2.716875e-08	4.036625e+01	1.785476e+03
1.330000e-06	5.726386e-06	2.731604e-08	4.090882e+01	1.794822e+03
1.340000e-06	5.800043e-06	2.745654e-08	4.143502e+01	1.803681e+03
1.350000e-06	5.871420e-06	2.758948e-08	4.194493e+01	1.812079e+03
1.360000e-06	5.940747e-06	2.771444e-08	4.244020e+01	1.820039e+03
1.370000e-06	6.008006e-06	2.783101e-08	4.292069e+01	1.827586e+03
1.380000e-06	6.073082e-06	2.793816e-08	4.338559e+01	1.834736e+03
1.390000e-06	6.136015e-06	2.803898e-08	4.383518e+01	1.841498e+03
1.400000e-06	6.196961e-06	2.813575e-08	4.427057e+01	1.847877e+03
1.410000e-06	6.255798e-06	2.822732e-08	4.469090e+01	1.853876e+03
1.420000e-06	6.312357e-06	2.831411e-08	4.509495e+01	1.859507e+03
1.430000e-06	6.366587e-06	2.839572e-08	4.548236e+01	1.864788e+03
1.440000e-06	6.418284e-06	2.847291e-08	4.585168e+01	1.869747e+03
1.450000e-06	6.467284e-06	2.854528e-08	4.620173e+01	1.874421e+03
1.460000e-06	6.513827e-06	2.861279e-08	4.653423e+01	1.878844e+03
1.470000e-06	6.558233e-06	2.867710e-08	4.685147e+01	1.883043e+03
1.480000e-06	6.600319e-06	2.873967e-08	4.715213e+01	1.887032e+03
1.490000e-06	6.639895e-06	2.879857e-08	4.743485e+01	1.890807e+03
1.500000e-06	6.677242e-06	2.885076e-08	4.770166e+01	1.894347e+03
1.510000e-06	6.712379e-06	2.889856e-08	4.795268e+01	1.897623e+03
1.520000e-06	6.745060e-06	2.894578e-08	4.818615e+01	1.900602e+03
1.530000e-06	6.775322e-06	2.899020e-08	4.840234e+01	1.903259e+03
1.540000e-06	6.803264e-06	2.902798e-08	4.860195e+01	1.905582e+03
1.550000e-06	6.828707e-06	2.905859e-08	4.878371e+01	1.907579e+03
1.560000e-06	6.851574e-06	2.908408e-08	4.894707e+01	1.909272e+03
1.570000e-06	6.872082e-06	2.910571e-08	4.909358e+01	1.910694e+03
1.580000e-06	6.890205e-06	2.912372e-08	4.922305e+01	1.911881e+03
1.590000e-06	6.905721e-06	2.913991e-08	4.933389e+01	1.912863e+03
1.600000e-06	6.918615e-06	2.915348e-08	4.942600e+01	1.913660e+03
1.610000e-06	6.928784e-06	2.916497e-08	4.949865e+01	1.914276e+03
1.620000e-06	6.936271e-06	2.917304e-08	4.955214e+01	1.914706e+03
1.630000e-06	6.941370e-06	2.917708e-08	4.958857e+01	1.914935e+03
1.640000e-06	6.944058e-06	2.917978e-08	4.960777e+01	1.914950e+03
1.650000e-06	6.944216e-06	2.918061e-08	4.960890e+01	1.914738e+03
1.660000e-06	6.942019e-06	2.916997e-08	4.959320e+01	1.914299e+03
1.670000e-06	6.937571e-06	2.915896e-08	4.956143e+01	1.913634e+03
1.680000e-06	6.930714e-06	2.914714e-08	4.951244e+01	1.912753e+03
1.690000e-06	6.921564e-06	2.913305e-08	4.944707e+01	1.911665e+03
1.700000e-06	6.910183e-06	2.911694e-08	4.936577e+01	1.910376e+03
1.710000e-06	6.896347e-06	2.909998e-08	4.926692e+01	1.908888e+03
1.720000e-06	6.880163e-06	2.908714e-08	4.915131e+01	1.907203e+03
1.730000e-06	6.861935e-06	2.903141e-08	4.902109e+01	1.905321e+03
1.740000e-06	6.841495e-06	2.893474e-08	4.887507e+01	1.903249e+03
1.750000e-06	6.818066e-06	2.893534e-08	4.870769e+01	1.901003e+03
1.760000e-06	6.791349e-06	2.893520e-08	4.851683e+01	1.898609e+03
1.770000e-06	6.761805e-06	2.887487e-08	4.830577e+01	1.896096e+03
1.780000e-06	6.730069e-06	2.888753e-08	4.807905e+01	1.893493e+03
1.790000e-06	6.696707e-06	2.888700e-08	4.784071e+01	1.890817e+03
1.800000e-06	6.661997e-06	2.873657e-08	4.759275e+01	1.888065e+03
1.810000e-06	6.625246e-06	2.878040e-08	4.733020e+01	1.885208e+03
1.820000e-06	6.585851e-06	2.876240e-08	4.704877e+01	1.882193e+03
1.830000e-06	6.544240e-06	2.865399e-08	4.675150e+01	1.878948e+03
1.840000e-06	6.500382e-06	2.870436e-08	4.643818e+01	1.875398e+03
1.850000e-06	6.454113e-06	2.853595e-08	4.610764e+01	1.871473e+03
1.860000e-06	6.405486e-06	2.850095e-08	4.576026e+01	1.867127e+03
1.870000e-06	6.354399e-06	2.844929e-08	4.539529e+01	1.862347e+03
1.880000e-06	6.300816e-06	2.829362e-08	4.501250e+01	1.857149e+03
1.890000e-06	6.244625e-06	2.829820e-08	4.461108e+01	1.851581e+03
1.900000e-06	6.186070e-06	2.814386e-08	4.419276e+01	1.845701e+03
1.910000e-06	6.125265e-06	2.808170e-08	4.375838e+01	1.839567e+03
1.920000e-06	6.062020e-06	2.801854e-08	4.330656e+01	1.833222e+03
1.930000e-06	5.996623e-06	2.787138e-08	4.283937e+01	1.826680e+03
1.940000e-06	5.929069e-06	2.783060e-08	4.235677e+01	1.819928e+03
1.950000e-06	5.859156e-06	2.766549e-08	4.185732e+01	1.812927e+03
1.960000e-06	5.786916e-06	2.757348e-08	4.134124e+01	1.805625e+03
1.970000e-06	5.712449e-06	2.743281e-08	4.080926e+01	1.797972e+03
1.980000e-06	5.635729e-06	2.731619e-08	4.026117e+01	1.789929e+03
1.990000e-06	5.556642e-06	2.722449e-08	3.969618e+01	1.781480e+03
2.000000e-06	5.475573e-06	2.705356e-08	3.911703e+01	1.772629e+03
2.010000e-06	5.392701e-06	2.694694e-08	3.852501e+01	1.763398e+03
2.020000e-06	5.307920e-06	2.676559e-08	3.791933e+01	1.753810e+03
2.030000e-06	5.221173e-06	2.662544e-08	3.729962e+01	1.743882e+03
2.040000e-06	5.132494e-06	2.646939e-08	3.666611e+01	1.733614e+03
2.050000e-06	5.042136e-06	2.630939e-08	3.602060e+01	1.722983e+03
2.060000e-06	4.950093e-06	2.615167e-08	3.536305e+01	1.711950e+03
2.070000e-06	4.856287e-06	2.595884e-08	3.469291e+01	1.700466e+03
2.080000e-06	4.760713e-06	2.578677e-08	3.401014e+01	1.688484e+03
2.090000e-06	4.663499e-06	2.558172e-08	3.331564e+01	1.675970e+03
2.100000e-06	4.564748e-06	2.539688e-08	3.261018e+01	1.662911e+03
2.110000e-06	4.464389e-06	2.518954e-08	3.189322e+01	1.649312e+03
2.120000e-06	4.362425e-06	2.498047e-08	3.116480e+01	1.635190e+03
2.130000e-06	4.258803e-06	2.475395e-08	3.042453e+01	1.620561e+03
2.140000e-06	4.153649e-06	2.451883e-08	2.967332e+01	1.605428e+03
2.150000e-06	4.047100e-06	2.428301e-08	2.891214e+01	1.589772e+03
2.160000e-06	3.939067e-06	2.403172e-08	2.814036e+01	1.573545e+03
2.170000e-06	3.829649e-06	2.377904e-08	2.735869e+01	1.556676e+03
2.180000e-06	3.718847e-06	2.351042e-08	2.656713e+01	1.539087e+03
2.190000e-06	3.606561e-06	2.323504e-08	2.576497e+01	1.520698e+03
2.200000e-06	3.492908e-06	2.293757e-08	2.495304e+01	1.501449e+03
2.210000e-06	3.377829e-06	2.263366e-08	2.413093e+01	1.481299e+03
2.220000e-06	3.261259e-06	2.231182e-08	2.329816e+01	1.460233e+03
2.230000e-06	3.143383e-06	2.198226e-08	2.245607e+01	1.438246e+03
2.240000e-06	3.024210e-06	2.163389e-08	2.160471e+01	1.415332e+03
2.250000e-06	2.903722e-06	2.126910e-08	2.074395e+01	1.391460e+03
2.260000e-06	2.782224e-06	2.088731e-08	1.987598e+01	1.366569e+03
2.270000e-06	2.659873e-06	2.048903e-08	1.900191e+01	1.340554e+03
2.280000e-06	2.536557e-06	2.007409e-08	1.812095e+01	1.313277e+03
2.290000e-06	2.412228e-06	1.963503e-08	1.723275e+01	1.284578e+03
2.300000e-06	2.287051e-06	1.917618e-08	1.633850e+01	1.254292e+03
2.310000e-06	2.161197e-06	1.869107e-08	1.543941e+01	1.222270e+03
2.320000e-06	2.034593e-06	1.817852e-08	1.453496e+01	1.188383e+03
2.330000e-06	1.907169e-06	1.763134e-08	1.362466e+01	1.152529e+03
2.340000e-06	1.779009e-06	1.705483e-08	1.270909e+01	1.114613e+03
2.350000e-06	1.650197e-06	1.644533e-08	1.178887e+01	1.074536e+03
2.360000e-06	1.520842e-06	1.579911e-08	1.086477e+01	1.032168e+03
2.370000e-06	1.391087e-06	1.511392e-08	9.937810e+00	9.873404e+02
2.380000e-06	1.261006e-06	1.438865e-08	9.008519e+00	9.398480e+02
2.390000e-06	1.130570e-06	1.361937e-08	8.076696e+00	8.894734e+02
2.400000e-06	9.997690e-07	1.280186e-08	7.142266e+00	8.360258e+02
2.410000e-06	8.686611e-07	1.193897e-08	6.205642e+00	7.793915e+02
2.420000e-06	7.372246e-07	1.103099e-08	5.266671e+00	7.195818e+02
2.430000e-06	6.054954e-07	1.007623e-08	4.325608e+00	6.567659e+02
2.440000e-06	4.735341e-07	9.078092e-09	3.382888e+00	5.912761e+02
2.450000e-06	3.413988e-07	8.045159e-09	2.438924e+00	5.235808e+02
2.460000e-06	2.091280e-07	6.985278e-09	1.493993e+00	4.542238e+02
2.470000e-06	7.665949e-08	5.906368e-09	5.476490e-01	3.837418e+02
2.480000e-06	-5.590727e-08	4.816461e-09	-3.993968e-01	3.125752e+02
2.490000e-06	-1.884031e-07	3.719625e-09	-1.345936e+00	2.409921e+02
2.500000e-06	-3.207927e-07	2.617210e-09	-2.291716e+00	1.690435e+02
2.510000e-06	-4.530714e-07	1.509109e-09	-3.236704e+00	9.656368e+01
2.520000e-06	-5.852526e-07	3.898224e-10	-4.180995e+00	2.321875e+01
2.530000e-06	-7.172765e-07	-7.488923e-10	-5.124163e+00	-5.140290e+01
2.540000e-06	-8.489651e-07	-1.913556e-09	-6.064935e+00	-1.276746e+02
2.550000e-06	-9.803011e-07	-3.105776e-09	-7.003189e+00	-2.058128e+02
2.560000e-06	-1.111301e-06	-4.323578e-09	-7.939044e+00	-2.857801e+02
2.570000e-06	-1.241866e-06	-5.565059e-09	-8.871787e+00	-3.672299e+02
2.580000e-06	-1.372007e-06	-6.822553e-09	-9.801503e+00	-4.495063e+02
2.590000e-06	-1.501767e-06	-8.083914e-09	-1.072850e+01	-5.316986e+02
2.600000e-06	-1.631087e-06	-9.331598e-09	-1.165235e+01	-6.127417e+02
2.610000e-06	-1.759863e-06	-1.054361e-08	-1.257231e+01	-6.915424e+02
2.620000e-06	-1.887991e-06	-1.170233e-08	-1.348765e+01	-7.671089e+02
2.630000e-06	-2.015338e-06	-1.279399e-08	-1.439741e+01	-8.386585e+02
2.640000e-06	-2.141840e-06	-1.381626e-08	-1.530113e+01	-9.056871e+02
2.650000e-06	-2.267581e-06	-1.476854e-08	-1.619941e+01	-9.679902e+02
2.660000e-06	-2.392522e-06	-1.565307e-08	-1.709198e+01	-1.025637e+03
2.670000e-06	-2.516495e-06	-1.647343e-08	-1.797763e+01	-1.078909e+03
2.680000e-06	-2.639482e-06	-1.723096e-08	-1.885624e+01	-1.128213e+03
2.690000e-06	-2.761494e-06	-1.793498e-08	-1.972788e+01	-1.174003e+03
2.700000e-06	-2.882455e-06	-1.859222e-08	-2.059202e+01	-1.216701e+03
2.710000e-06	-3.002310e-06	-1.920704e-08	-2.144825e+01	-1.256660e+03
2.720000e-06	-3.121081e-06	-1.978231e-08	-2.229674e+01	-1.294145e+03
2.730000e-06	-3.238689e-06	-2.032039e-08	-2.313692e+01	-1.329339e+03
2.740000e-06	-3.355028e-06	-2.082436e-08	-2.396804e+01	-1.362374e+03
2.750000e-06	-3.469961e-06	-2.129517e-08	-2.478911e+01	-1.393362e+03
2.760000e-06	-3.583404e-06	-2.173623e-08	-2.559954e+01	-1.422420e+03
2.770000e-06	-3.695426e-06	-2.215094e-08	-2.639981e+01	-1.449687e+03
2.780000e-06	-3.806031e-06	-2.254306e-08	-2.718997e+01	-1.475325e+03
2.790000e-06	-3.915277e-06	-2.291651e-08	-2.797041e+01	-1.499509e+03
2.800000e-06	-4.023288e-06	-2.327066e-08	-2.874203e+01	-1.522406e+03
2.810000e-06	-4.130031e-06	-2.360531e-08	-2.950460e+01	-1.544160e+03
2.820000e-06	-4.235362e-06	-2.392141e-08	-3.025707e+01	-1.564880e+03
2.830000e-06	-4.339134e-06	-2.422190e-08	-3.099841e+01	-1.584633e+03
2.840000e-06	-4.441215e-06	-2.450854e-08	-3.172767e+01	-1.603457e+03
2.850000e-06	-4.541626e-06	-2.478180e-08	-3.244500e+01	-1.621368e+03
2.860000e-06	-4.640484e-06	-2.504086e-08	-3.315123e+01	-1.638378e+03
2.870000e-06	-4.737846e-06	-2.528520e-08	-3.384677e+01	-1.654512e+03
2.880000e-06	-4.833542e-06	-2.551851e-08	-3.453042e+01	-1.669811e+03
2.890000e-06	-4.927439e-06	-2.574181e-08	-3.520121e+01	-1.684332e+03
2.900000e-06	-5.019570e-06	-2.595664e-08	-3.585939e+01	-1.698147e+03
2.910000e-06	-5.109898e-06	-2.616546e-08	-3.650468e+01	-1.711325e+03
2.920000e-06	-5.198359e-06	-2.636573e-08	-3.713664e+01	-1.723926e+03
2.930000e-06	-5.284841e-06	-2.655268e-08	-3.775446e+01	-1.735995e+03
2.940000e-06	-5.369373e-06	-2.672522e-08	-3.835835e+01	-1.747555e+03
