# Temperatura_=_27.08
# Concentracion g/m^3_=_28200.0
# C_Vs_to_Am_M_A/Vsm_=_65563218390.804596
# pendiente_HvsI_1/m_=_3716.3
# ordenada_HvsI_A/m_=_1297.0
# frecuencia_Hz_=_302274.25951786

Tiempo_(s)	Campo_(V.s)	Magnetizacion_(V.s)	Campo_(kA/m)	Magnetizacion_(A/m)
0.000000e+00	-6.888413e-06	-1.751464e-08	-4.951852e+01	-1.145811e+03
1.000000e-08	-6.885159e-06	-1.751017e-08	-4.949513e+01	-1.145505e+03
2.000000e-08	-6.879619e-06	-1.750148e-08	-4.945531e+01	-1.145074e+03
3.000000e-08	-6.871981e-06	-1.749347e-08	-4.940040e+01	-1.144517e+03
4.000000e-08	-6.862000e-06	-1.748343e-08	-4.932865e+01	-1.143829e+03
5.000000e-08	-6.849401e-06	-1.747078e-08	-4.923808e+01	-1.143008e+03
6.000000e-08	-6.834302e-06	-1.745299e-08	-4.912954e+01	-1.142052e+03
7.000000e-08	-6.816904e-06	-1.743207e-08	-4.900447e+01	-1.140963e+03
8.000000e-08	-6.797444e-06	-1.742233e-08	-4.886458e+01	-1.139748e+03
9.000000e-08	-6.775766e-06	-1.744305e-08	-4.870874e+01	-1.138420e+03
1.000000e-07	-6.751399e-06	-1.740919e-08	-4.853357e+01	-1.136993e+03
1.100000e-07	-6.724212e-06	-1.735299e-08	-4.833814e+01	-1.135487e+03
1.200000e-07	-6.694596e-06	-1.732382e-08	-4.812524e+01	-1.133916e+03
1.300000e-07	-6.662854e-06	-1.729095e-08	-4.789706e+01	-1.132292e+03
1.400000e-07	-6.628968e-06	-1.722113e-08	-4.765345e+01	-1.130615e+03
1.500000e-07	-6.593232e-06	-1.722210e-08	-4.739657e+01	-1.128875e+03
1.600000e-07	-6.555664e-06	-1.725560e-08	-4.712650e+01	-1.127053e+03
1.700000e-07	-6.515913e-06	-1.712724e-08	-4.684074e+01	-1.125117e+03
1.800000e-07	-6.473891e-06	-1.712030e-08	-4.653866e+01	-1.123032e+03
1.900000e-07	-6.429435e-06	-1.709773e-08	-4.621908e+01	-1.120761e+03
2.000000e-07	-6.382581e-06	-1.702441e-08	-4.588226e+01	-1.118275e+03
2.100000e-07	-6.333242e-06	-1.704319e-08	-4.552758e+01	-1.115551e+03
2.200000e-07	-6.281166e-06	-1.698146e-08	-4.515323e+01	-1.112582e+03
2.300000e-07	-6.226555e-06	-1.693156e-08	-4.476064e+01	-1.109373e+03
2.400000e-07	-6.169593e-06	-1.686741e-08	-4.435117e+01	-1.105937e+03
2.500000e-07	-6.110301e-06	-1.679971e-08	-4.392493e+01	-1.102298e+03
2.600000e-07	-6.048779e-06	-1.675452e-08	-4.348267e+01	-1.098478e+03
2.700000e-07	-5.985058e-06	-1.668585e-08	-4.302460e+01	-1.094496e+03
2.800000e-07	-5.919095e-06	-1.662289e-08	-4.255041e+01	-1.090363e+03
2.900000e-07	-5.850883e-06	-1.654558e-08	-4.206007e+01	-1.086080e+03
3.000000e-07	-5.780477e-06	-1.647470e-08	-4.155394e+01	-1.081639e+03
3.100000e-07	-5.707898e-06	-1.641057e-08	-4.103219e+01	-1.077025e+03
3.200000e-07	-5.633020e-06	-1.633932e-08	-4.049392e+01	-1.072217e+03
3.300000e-07	-5.555739e-06	-1.627762e-08	-3.993837e+01	-1.067195e+03
3.400000e-07	-5.476190e-06	-1.618002e-08	-3.936652e+01	-1.061941e+03
3.500000e-07	-5.394627e-06	-1.609535e-08	-3.878019e+01	-1.056442e+03
3.600000e-07	-5.311255e-06	-1.600979e-08	-3.818085e+01	-1.050689e+03
3.700000e-07	-5.226211e-06	-1.591374e-08	-3.756950e+01	-1.044677e+03
3.800000e-07	-5.139448e-06	-1.582918e-08	-3.694579e+01	-1.038406e+03
3.900000e-07	-5.050821e-06	-1.572692e-08	-3.630868e+01	-1.031872e+03
4.000000e-07	-4.960327e-06	-1.561932e-08	-3.565815e+01	-1.025072e+03
4.100000e-07	-4.868061e-06	-1.549914e-08	-3.499488e+01	-1.017999e+03
4.200000e-07	-4.774171e-06	-1.539101e-08	-3.431994e+01	-1.010646e+03
4.300000e-07	-4.678683e-06	-1.527610e-08	-3.363351e+01	-1.003001e+03
4.400000e-07	-4.581481e-06	-1.515127e-08	-3.293475e+01	-9.950515e+02
4.500000e-07	-4.482611e-06	-1.502504e-08	-3.222401e+01	-9.867841e+02
4.600000e-07	-4.382083e-06	-1.489254e-08	-3.150135e+01	-9.781845e+02
4.700000e-07	-4.280028e-06	-1.475906e-08	-3.076771e+01	-9.692372e+02
4.800000e-07	-4.176554e-06	-1.461598e-08	-3.002387e+01	-9.599247e+02
4.900000e-07	-4.071472e-06	-1.447284e-08	-2.926847e+01	-9.502273e+02
5.000000e-07	-3.964831e-06	-1.431533e-08	-2.850186e+01	-9.401222e+02
5.100000e-07	-3.856762e-06	-1.414954e-08	-2.772498e+01	-9.295839e+02
5.200000e-07	-3.747330e-06	-1.397818e-08	-2.693832e+01	-9.185852e+02
5.300000e-07	-3.636647e-06	-1.380261e-08	-2.614265e+01	-9.070983e+02
5.400000e-07	-3.524663e-06	-1.361962e-08	-2.533764e+01	-8.950959e+02
5.500000e-07	-3.411206e-06	-1.342466e-08	-2.452203e+01	-8.825517e+02
5.600000e-07	-3.296254e-06	-1.322461e-08	-2.369568e+01	-8.694403e+02
5.700000e-07	-3.179880e-06	-1.301322e-08	-2.285910e+01	-8.557363e+02
5.800000e-07	-3.062257e-06	-1.279517e-08	-2.201355e+01	-8.414117e+02
5.900000e-07	-2.943486e-06	-1.256705e-08	-2.115974e+01	-8.264343e+02
6.000000e-07	-2.823652e-06	-1.233087e-08	-2.029830e+01	-8.107658e+02
6.100000e-07	-2.702812e-06	-1.208091e-08	-1.942962e+01	-7.943609e+02
6.200000e-07	-2.580930e-06	-1.181644e-08	-1.855345e+01	-7.771677e+02
6.300000e-07	-2.458072e-06	-1.153831e-08	-1.767026e+01	-7.591288e+02
6.400000e-07	-2.334287e-06	-1.124409e-08	-1.678042e+01	-7.401843e+02
6.500000e-07	-2.209587e-06	-1.093673e-08	-1.588399e+01	-7.202729e+02
6.600000e-07	-2.084169e-06	-1.061381e-08	-1.498240e+01	-6.993341e+02
6.700000e-07	-1.958163e-06	-1.027581e-08	-1.407658e+01	-6.773082e+02
6.800000e-07	-1.831467e-06	-9.919180e-09	-1.316581e+01	-6.541360e+02
6.900000e-07	-1.704092e-06	-9.546919e-09	-1.225016e+01	-6.297574e+02
7.000000e-07	-1.576123e-06	-9.157790e-09	-1.133023e+01	-6.041117e+02
7.100000e-07	-1.447633e-06	-8.749121e-09	-1.040655e+01	-5.771391e+02
7.200000e-07	-1.318647e-06	-8.316027e-09	-9.479317e+00	-5.487860e+02
7.300000e-07	-1.189199e-06	-7.858760e-09	-8.548757e+00	-5.190132e+02
7.400000e-07	-1.059335e-06	-7.380339e-09	-7.615210e+00	-4.878071e+02
7.500000e-07	-9.291898e-07	-6.880064e-09	-6.679638e+00	-4.551920e+02
7.600000e-07	-7.987703e-07	-6.362766e-09	-5.742095e+00	-4.212412e+02
7.700000e-07	-6.680209e-07	-5.827392e-09	-4.802181e+00	-3.860828e+02
7.800000e-07	-5.369947e-07	-5.278661e-09	-3.860277e+00	-3.498992e+02
7.900000e-07	-4.058128e-07	-4.719014e-09	-2.917254e+00	-3.129175e+02
8.000000e-07	-2.744992e-07	-4.150493e-09	-1.973284e+00	-2.753901e+02
8.100000e-07	-1.430791e-07	-3.575256e-09	-1.028549e+00	-2.375696e+02
8.200000e-07	-1.160285e-08	-2.995920e-09	-8.340905e-02	-1.996783e+02
8.300000e-07	1.199209e-07	-2.419183e-09	8.620718e-01	-1.618804e+02
8.400000e-07	2.514429e-07	-1.846828e-09	1.807540e+00	-1.242596e+02
8.500000e-07	3.828944e-07	-1.280367e-09	2.752502e+00	-8.680765e+01
8.600000e-07	5.142025e-07	-7.158538e-10	3.696431e+00	-4.942732e+01
8.700000e-07	6.454060e-07	-1.506310e-10	4.639610e+00	-1.194927e+01
8.800000e-07	7.764550e-07	4.190430e-10	5.581678e+00	2.583810e+01
8.900000e-07	9.072251e-07	9.994483e-10	6.521741e+00	6.415073e+01
9.000000e-07	1.037674e-06	1.592511e-09	7.459494e+00	1.031684e+02
9.100000e-07	1.167782e-06	2.200404e-09	8.394796e+00	1.429982e+02
9.200000e-07	1.297441e-06	2.822454e-09	9.326871e+00	1.836482e+02
9.300000e-07	1.426542e-06	3.455613e-09	1.025494e+01	2.250142e+02
9.400000e-07	1.555107e-06	4.095793e-09	1.117915e+01	2.668832e+02
9.500000e-07	1.683092e-06	4.735450e-09	1.209919e+01	3.089509e+02
9.600000e-07	1.810419e-06	5.369937e-09	1.301450e+01	3.508507e+02
9.700000e-07	1.937096e-06	5.994760e-09	1.392514e+01	3.921902e+02
9.800000e-07	2.063128e-06	6.605689e-09	1.483114e+01	4.325876e+02
9.900000e-07	2.188415e-06	7.200108e-09	1.573179e+01	4.717044e+02
1.000000e-06	2.312927e-06	7.772110e-09	1.662687e+01	5.092694e+02
1.010000e-06	2.436673e-06	8.317308e-09	1.751644e+01	5.450927e+02
1.020000e-06	2.559594e-06	8.834033e-09	1.840008e+01	5.790678e+02
1.030000e-06	2.681522e-06	9.321156e-09	1.927658e+01	6.111649e+02
1.040000e-06	2.802274e-06	9.777977e-09	2.014462e+01	6.414169e+02
1.050000e-06	2.921864e-06	1.020782e-08	2.100431e+01	6.699016e+02
1.060000e-06	3.040378e-06	1.061397e-08	2.185627e+01	6.967244e+02
1.070000e-06	3.157898e-06	1.099738e-08	2.270108e+01	7.220017e+02
1.080000e-06	3.274321e-06	1.136062e-08	2.353801e+01	7.458492e+02
1.090000e-06	3.389445e-06	1.170448e-08	2.436560e+01	7.683741e+02
1.100000e-06	3.503122e-06	1.203068e-08	2.518278e+01	7.896711e+02
1.110000e-06	3.615286e-06	1.233879e-08	2.598910e+01	8.098224e+02
1.120000e-06	3.726152e-06	1.262728e-08	2.678607e+01	8.288994e+02
1.130000e-06	3.835884e-06	1.289897e-08	2.757490e+01	8.469651e+02
1.140000e-06	3.944337e-06	1.315710e-08	2.835454e+01	8.640776e+02
1.150000e-06	4.051436e-06	1.340256e-08	2.912443e+01	8.802919e+02
1.160000e-06	4.157064e-06	1.363591e-08	2.988376e+01	8.956619e+02
1.170000e-06	4.261132e-06	1.385663e-08	3.063187e+01	9.102409e+02
1.180000e-06	4.363681e-06	1.406505e-08	3.136906e+01	9.240814e+02
1.190000e-06	4.464713e-06	1.426344e-08	3.209535e+01	9.372343e+02
1.200000e-06	4.564263e-06	1.445185e-08	3.281098e+01	9.497475e+02
1.210000e-06	4.662124e-06	1.463182e-08	3.351447e+01	9.616640e+02
1.220000e-06	4.758132e-06	1.480473e-08	3.420464e+01	9.730213e+02
1.230000e-06	4.852403e-06	1.496957e-08	3.488232e+01	9.838491e+02
1.240000e-06	4.945061e-06	1.512630e-08	3.554841e+01	9.941700e+02
1.250000e-06	5.036073e-06	1.527586e-08	3.620266e+01	1.003999e+03
1.260000e-06	5.125196e-06	1.541982e-08	3.684334e+01	1.013345e+03
1.270000e-06	5.212335e-06	1.555571e-08	3.746976e+01	1.022216e+03
1.280000e-06	5.297584e-06	1.568221e-08	3.808258e+01	1.030615e+03
1.290000e-06	5.381045e-06	1.580213e-08	3.868255e+01	1.038552e+03
1.300000e-06	5.462596e-06	1.591732e-08	3.926879e+01	1.046040e+03
1.310000e-06	5.542074e-06	1.602731e-08	3.984014e+01	1.053098e+03
1.320000e-06	5.619548e-06	1.612928e-08	4.039707e+01	1.059752e+03
1.330000e-06	5.694939e-06	1.622554e-08	4.093903e+01	1.066036e+03
1.340000e-06	5.768032e-06	1.631742e-08	4.146448e+01	1.071984e+03
1.350000e-06	5.838930e-06	1.640336e-08	4.197413e+01	1.077631e+03
1.360000e-06	5.907816e-06	1.648639e-08	4.246934e+01	1.083008e+03
1.370000e-06	5.974603e-06	1.656544e-08	4.294944e+01	1.088141e+03
1.380000e-06	6.039135e-06	1.663904e-08	4.341335e+01	1.093048e+03
1.390000e-06	6.101494e-06	1.670830e-08	4.386163e+01	1.097740e+03
1.400000e-06	6.161901e-06	1.677439e-08	4.429587e+01	1.102218e+03
1.410000e-06	6.220202e-06	1.683842e-08	4.471498e+01	1.106482e+03
1.420000e-06	6.276220e-06	1.689955e-08	4.511767e+01	1.110525e+03
1.430000e-06	6.329967e-06	1.695775e-08	4.550404e+01	1.114344e+03
1.440000e-06	6.381161e-06	1.701246e-08	4.587205e+01	1.117933e+03
1.450000e-06	6.429671e-06	1.706412e-08	4.622078e+01	1.121292e+03
1.460000e-06	6.475815e-06	1.711226e-08	4.655249e+01	1.124419e+03
1.470000e-06	6.519839e-06	1.715653e-08	4.686897e+01	1.127319e+03
1.480000e-06	6.561536e-06	1.719587e-08	4.716871e+01	1.129995e+03
1.490000e-06	6.600773e-06	1.723115e-08	4.745077e+01	1.132452e+03
1.500000e-06	6.637791e-06	1.726336e-08	4.771688e+01	1.134694e+03
1.510000e-06	6.672521e-06	1.729354e-08	4.796655e+01	1.136729e+03
1.520000e-06	6.704731e-06	1.732285e-08	4.819809e+01	1.138560e+03
1.530000e-06	6.734575e-06	1.734797e-08	4.841263e+01	1.140195e+03
1.540000e-06	6.762198e-06	1.736770e-08	4.861121e+01	1.141641e+03
1.550000e-06	6.787361e-06	1.738337e-08	4.879209e+01	1.142907e+03
1.560000e-06	6.809972e-06	1.739922e-08	4.895464e+01	1.144003e+03
1.570000e-06	6.830273e-06	1.741553e-08	4.910057e+01	1.144936e+03
1.580000e-06	6.848169e-06	1.742966e-08	4.922923e+01	1.145717e+03
1.590000e-06	6.863452e-06	1.744122e-08	4.933909e+01	1.146352e+03
1.600000e-06	6.876160e-06	1.744989e-08	4.943044e+01	1.146849e+03
1.610000e-06	6.886133e-06	1.745545e-08	4.950213e+01	1.147213e+03
1.620000e-06	6.893426e-06	1.745781e-08	4.955456e+01	1.147447e+03
1.630000e-06	6.898363e-06	1.745941e-08	4.959005e+01	1.147556e+03
1.640000e-06	6.900918e-06	1.746076e-08	4.960841e+01	1.147541e+03
1.650000e-06	6.900985e-06	1.746061e-08	4.960890e+01	1.147404e+03
1.660000e-06	6.898695e-06	1.745346e-08	4.959244e+01	1.147145e+03
1.670000e-06	6.894188e-06	1.744815e-08	4.956004e+01	1.146764e+03
1.680000e-06	6.887314e-06	1.744355e-08	4.951062e+01	1.146256e+03
1.690000e-06	6.878123e-06	1.743615e-08	4.944455e+01	1.145620e+03
1.700000e-06	6.866727e-06	1.742505e-08	4.936263e+01	1.144851e+03
1.710000e-06	6.852930e-06	1.741436e-08	4.926345e+01	1.143948e+03
1.720000e-06	6.836791e-06	1.740907e-08	4.914743e+01	1.142910e+03
1.730000e-06	6.818601e-06	1.736979e-08	4.901667e+01	1.141743e+03
1.740000e-06	6.798131e-06	1.730873e-08	4.886951e+01	1.140458e+03
1.750000e-06	6.774595e-06	1.731264e-08	4.870032e+01	1.139067e+03
1.760000e-06	6.747899e-06	1.731220e-08	4.850841e+01	1.137590e+03
1.770000e-06	6.718520e-06	1.727557e-08	4.829722e+01	1.136043e+03
1.780000e-06	6.686878e-06	1.730433e-08	4.806975e+01	1.134439e+03
1.790000e-06	6.653566e-06	1.729515e-08	4.783028e+01	1.132782e+03
1.800000e-06	6.618916e-06	1.717941e-08	4.758120e+01	1.131069e+03
1.810000e-06	6.582189e-06	1.722113e-08	4.731718e+01	1.129282e+03
1.820000e-06	6.542884e-06	1.719788e-08	4.703463e+01	1.127395e+03
1.830000e-06	6.501422e-06	1.715838e-08	4.673657e+01	1.125372e+03
1.840000e-06	6.457732e-06	1.720102e-08	4.642250e+01	1.123178e+03
1.850000e-06	6.411709e-06	1.705967e-08	4.609166e+01	1.120780e+03
1.860000e-06	6.363355e-06	1.704631e-08	4.574405e+01	1.118151e+03
1.870000e-06	6.312535e-06	1.701265e-08	4.537873e+01	1.115278e+03
1.880000e-06	6.259252e-06	1.693781e-08	4.499569e+01	1.112161e+03
1.890000e-06	6.203356e-06	1.695509e-08	4.459387e+01	1.108812e+03
1.900000e-06	6.145024e-06	1.684729e-08	4.417454e+01	1.105250e+03
1.910000e-06	6.084435e-06	1.681135e-08	4.373899e+01	1.101498e+03
1.920000e-06	6.021507e-06	1.675525e-08	4.328662e+01	1.097578e+03
1.930000e-06	5.956424e-06	1.667481e-08	4.281876e+01	1.093503e+03
1.940000e-06	5.889220e-06	1.665919e-08	4.233565e+01	1.089279e+03
1.950000e-06	5.819724e-06	1.655983e-08	4.183607e+01	1.084902e+03
1.960000e-06	5.747880e-06	1.651031e-08	4.131961e+01	1.080358e+03
1.970000e-06	5.673860e-06	1.640663e-08	4.078750e+01	1.075628e+03
1.980000e-06	5.597629e-06	1.633726e-08	4.023950e+01	1.070692e+03
1.990000e-06	5.519073e-06	1.628202e-08	3.967479e+01	1.065531e+03
2.000000e-06	5.438472e-06	1.618177e-08	3.909538e+01	1.060129e+03
2.010000e-06	5.356045e-06	1.611554e-08	3.850283e+01	1.054476e+03
2.020000e-06	5.271756e-06	1.599727e-08	3.789691e+01	1.048566e+03
2.030000e-06	5.185435e-06	1.590913e-08	3.727638e+01	1.042397e+03
2.040000e-06	5.097143e-06	1.580821e-08	3.664168e+01	1.035966e+03
2.050000e-06	5.007151e-06	1.571390e-08	3.599475e+01	1.029271e+03
2.060000e-06	4.915554e-06	1.561515e-08	3.533629e+01	1.022306e+03
2.070000e-06	4.822269e-06	1.550048e-08	3.466570e+01	1.015064e+03
2.080000e-06	4.727181e-06	1.539347e-08	3.398214e+01	1.007535e+03
2.090000e-06	4.630386e-06	1.526750e-08	3.328631e+01	9.997062e+02
2.100000e-06	4.532081e-06	1.515307e-08	3.257963e+01	9.915651e+02
2.110000e-06	4.432306e-06	1.502220e-08	3.186238e+01	9.830975e+02
2.120000e-06	4.330935e-06	1.488817e-08	3.113366e+01	9.742885e+02
2.130000e-06	4.227876e-06	1.473873e-08	3.039280e+01	9.651215e+02
2.140000e-06	4.123223e-06	1.458978e-08	2.964049e+01	9.555776e+02
2.150000e-06	4.017125e-06	1.444211e-08	2.887779e+01	9.456353e+02
2.160000e-06	3.909677e-06	1.428781e-08	2.810538e+01	9.352701e+02
2.170000e-06	3.800818e-06	1.412869e-08	2.732282e+01	9.244553e+02
2.180000e-06	3.690571e-06	1.395953e-08	2.653029e+01	9.131633e+02
2.190000e-06	3.578953e-06	1.378566e-08	2.572791e+01	9.013663e+02
2.200000e-06	3.465905e-06	1.359691e-08	2.491524e+01	8.890377e+02
2.210000e-06	3.351464e-06	1.340127e-08	2.409257e+01	8.761520e+02
2.220000e-06	3.235634e-06	1.319411e-08	2.325990e+01	8.626837e+02
2.230000e-06	3.118420e-06	1.298047e-08	2.241729e+01	8.486061e+02
2.240000e-06	2.999893e-06	1.275224e-08	2.156524e+01	8.338891e+02
2.250000e-06	2.880207e-06	1.251660e-08	2.070486e+01	8.184969e+02
2.260000e-06	2.759448e-06	1.227327e-08	1.983676e+01	8.023869e+02
2.270000e-06	2.637661e-06	1.202031e-08	1.896127e+01	7.855097e+02
2.280000e-06	2.514934e-06	1.175443e-08	1.807903e+01	7.678099e+02
2.290000e-06	2.391342e-06	1.147223e-08	1.719056e+01	7.492282e+02
2.300000e-06	2.266965e-06	1.117675e-08	1.629646e+01	7.297036e+02
2.310000e-06	2.141799e-06	1.086548e-08	1.539669e+01	7.091754e+02
2.320000e-06	2.015844e-06	1.053935e-08	1.449123e+01	6.875834e+02
2.330000e-06	1.889119e-06	1.019516e-08	1.358025e+01	6.648684e+02
2.340000e-06	1.761719e-06	9.833474e-09	1.266442e+01	6.409707e+02
2.350000e-06	1.633753e-06	9.451341e-09	1.174451e+01	6.158297e+02
2.360000e-06	1.505233e-06	9.048296e-09	1.082062e+01	5.893851e+02
2.370000e-06	1.376185e-06	8.623676e-09	9.892941e+00	5.615798e+02
2.380000e-06	1.246710e-06	8.177921e-09	8.962184e+00	5.323677e+02
2.390000e-06	1.116881e-06	7.712942e-09	8.028886e+00	5.017239e+02
2.400000e-06	9.867197e-07	7.225209e-09	7.093202e+00	4.696562e+02
2.410000e-06	8.562817e-07	6.715195e-09	6.155526e+00	4.362177e+02
2.420000e-06	7.255506e-07	6.184488e-09	5.215743e+00	4.015146e+02
2.430000e-06	5.945961e-07	5.635193e-09	4.274354e+00	3.657086e+02
2.440000e-06	4.635145e-07	5.072123e-09	3.332053e+00	3.290110e+02
2.450000e-06	3.322712e-07	4.500378e-09	2.388588e+00	2.916670e+02
2.460000e-06	2.008550e-07	3.923760e-09	1.443880e+00	2.539325e+02
2.470000e-06	6.933495e-08	3.343983e-09	4.984260e-01	2.160454e+02
2.480000e-06	-6.221019e-08	2.765439e-09	-4.472085e-01	1.781957e+02
2.490000e-06	-1.937366e-07	2.188328e-09	-1.392708e+00	1.405009e+02
2.500000e-06	-3.252396e-07	1.613260e-09	-2.338040e+00	1.029892e+02
2.510000e-06	-4.566862e-07	1.039655e-09	-3.282966e+00	6.559725e+01
2.520000e-06	-5.879896e-07	4.648072e-10	-4.226862e+00	2.818101e+01
2.530000e-06	-7.190683e-07	-1.145820e-10	-5.169144e+00	-9.458678e+00
2.540000e-06	-8.498862e-07	-7.004544e-10	-6.109551e+00	-4.754089e+01
2.550000e-06	-9.804259e-07	-1.294553e-09	-7.047958e+00	-8.626431e+01
2.560000e-06	-1.110687e-06	-1.899270e-09	-7.984360e+00	-1.257685e+02
2.570000e-06	-1.240631e-06	-2.514470e-09	-8.918485e+00	-1.661026e+02
2.580000e-06	-1.370197e-06	-3.139403e-09	-9.849890e+00	-2.072072e+02
2.590000e-06	-1.499298e-06	-3.773331e-09	-1.077795e+01	-2.489106e+02
2.600000e-06	-1.627882e-06	-4.414764e-09	-1.170231e+01	-2.909415e+02
2.610000e-06	-1.755929e-06	-5.057874e-09	-1.262279e+01	-3.329537e+02
2.620000e-06	-1.883290e-06	-5.695420e-09	-1.353835e+01	-3.745606e+02
2.630000e-06	-2.009859e-06	-6.320581e-09	-1.444821e+01	-4.153718e+02
2.640000e-06	-2.135574e-06	-6.930018e-09	-1.535194e+01	-4.550284e+02
2.650000e-06	-2.260469e-06	-7.518604e-09	-1.624976e+01	-4.932306e+02
2.660000e-06	-2.384512e-06	-8.079906e-09	-1.714147e+01	-5.297556e+02
2.670000e-06	-2.507595e-06	-8.611295e-09	-1.802627e+01	-5.644646e+02
2.680000e-06	-2.629744e-06	-9.111490e-09	-1.890436e+01	-5.972990e+02
2.690000e-06	-2.750955e-06	-9.583288e-09	-1.977571e+01	-6.282688e+02
2.700000e-06	-2.871153e-06	-1.002993e-08	-2.063977e+01	-6.574366e+02
2.710000e-06	-2.990294e-06	-1.045029e-08	-2.149624e+01	-6.848990e+02
2.720000e-06	-3.108327e-06	-1.084564e-08	-2.234473e+01	-7.107696e+02
2.730000e-06	-3.225002e-06	-1.122039e-08	-2.318347e+01	-7.351658e+02
2.740000e-06	-3.340258e-06	-1.157509e-08	-2.401201e+01	-7.581985e+02
2.750000e-06	-3.454203e-06	-1.190868e-08	-2.483112e+01	-7.799676e+02
2.760000e-06	-3.566731e-06	-1.222243e-08	-2.564005e+01	-8.005602e+02
2.770000e-06	-3.677810e-06	-1.251939e-08	-2.643856e+01	-8.200516e+02
2.780000e-06	-3.787585e-06	-1.280159e-08	-2.722770e+01	-8.385077e+02
2.790000e-06	-3.896215e-06	-1.306912e-08	-2.800860e+01	-8.559883e+02
2.800000e-06	-4.003651e-06	-1.332177e-08	-2.878092e+01	-8.725492e+02
2.810000e-06	-4.109711e-06	-1.356202e-08	-2.954335e+01	-8.882448e+02
2.820000e-06	-4.214287e-06	-1.379147e-08	-3.029511e+01	-9.031285e+02
2.830000e-06	-4.317317e-06	-1.400970e-08	-3.103577e+01	-9.172532e+02
2.840000e-06	-4.418731e-06	-1.421869e-08	-3.176479e+01	-9.306706e+02
2.850000e-06	-4.518571e-06	-1.441828e-08	-3.248251e+01	-9.434299e+02
2.860000e-06	-4.616859e-06	-1.460517e-08	-3.318907e+01	-9.555763e+02
2.870000e-06	-4.713551e-06	-1.478005e-08	-3.388416e+01	-9.671495e+02
2.880000e-06	-4.808617e-06	-1.494688e-08	-3.456756e+01	-9.781825e+02
2.890000e-06	-4.901891e-06	-1.510516e-08	-3.523807e+01	-9.887006e+02
2.900000e-06	-4.993391e-06	-1.525540e-08	-3.589583e+01	-9.987216e+02
2.910000e-06	-5.083143e-06	-1.540147e-08	-3.654103e+01	-1.008257e+03
2.920000e-06	-5.171029e-06	-1.554199e-08	-3.717281e+01	-1.017314e+03
2.930000e-06	-5.256889e-06	-1.567521e-08	-3.779004e+01	-1.025898e+03
2.940000e-06	-5.340748e-06	-1.580045e-08	-3.839287e+01	-1.034016e+03
