# Temperatura_=_85.8
# Concentracion g/m^3_=_26700.0
# C_Vs_to_Am_M_A/Vsm_=_65563218390.804596
# pendiente_HvsI_1/m_=_3716.3
# ordenada_HvsI_A/m_=_1297.0
# frecuencia_Hz_=_302185.38799333095

Tiempo_(s)	Campo_(V.s)	Magnetizacion_(V.s)	Campo_(kA/m)	Magnetizacion_(A/m)
0.000000e+00	-6.595458e-06	-2.555343e-08	-4.770664e+01	-1.672785e+03
1.000000e-08	-6.593162e-06	-2.555422e-08	-4.769003e+01	-1.672633e+03
2.000000e-08	-6.588556e-06	-2.554467e-08	-4.765672e+01	-1.672296e+03
3.000000e-08	-6.581930e-06	-2.553669e-08	-4.760879e+01	-1.671771e+03
4.000000e-08	-6.573218e-06	-2.552998e-08	-4.754578e+01	-1.671064e+03
5.000000e-08	-6.562112e-06	-2.551640e-08	-4.746544e+01	-1.670190e+03
6.000000e-08	-6.548529e-06	-2.549840e-08	-4.736719e+01	-1.669171e+03
7.000000e-08	-6.532542e-06	-2.546905e-08	-4.725156e+01	-1.668031e+03
8.000000e-08	-6.514403e-06	-2.543178e-08	-4.712035e+01	-1.666793e+03
9.000000e-08	-6.494244e-06	-2.547163e-08	-4.697453e+01	-1.665474e+03
1.000000e-07	-6.471668e-06	-2.550108e-08	-4.681124e+01	-1.664082e+03
1.100000e-07	-6.446351e-06	-2.541511e-08	-4.662811e+01	-1.662616e+03
1.200000e-07	-6.418522e-06	-2.535571e-08	-4.642682e+01	-1.661065e+03
1.300000e-07	-6.388671e-06	-2.534303e-08	-4.621090e+01	-1.659412e+03
1.400000e-07	-6.357055e-06	-2.523071e-08	-4.598222e+01	-1.657635e+03
1.500000e-07	-6.323622e-06	-2.517614e-08	-4.574038e+01	-1.655714e+03
1.600000e-07	-6.288225e-06	-2.535141e-08	-4.548435e+01	-1.653632e+03
1.700000e-07	-6.250870e-06	-2.520213e-08	-4.521415e+01	-1.651377e+03
1.800000e-07	-6.211509e-06	-2.509932e-08	-4.492944e+01	-1.648943e+03
1.900000e-07	-6.169758e-06	-2.518911e-08	-4.462745e+01	-1.646329e+03
2.000000e-07	-6.125591e-06	-2.500347e-08	-4.430797e+01	-1.643539e+03
2.100000e-07	-6.079327e-06	-2.500285e-08	-4.397333e+01	-1.640580e+03
2.200000e-07	-6.030601e-06	-2.501352e-08	-4.362088e+01	-1.637459e+03
2.300000e-07	-5.979252e-06	-2.492672e-08	-4.324947e+01	-1.634185e+03
2.400000e-07	-5.925526e-06	-2.491744e-08	-4.286086e+01	-1.630764e+03
2.500000e-07	-5.869581e-06	-2.483125e-08	-4.245619e+01	-1.627203e+03
2.600000e-07	-5.811422e-06	-2.477014e-08	-4.203551e+01	-1.623506e+03
2.700000e-07	-5.751027e-06	-2.470004e-08	-4.159866e+01	-1.619673e+03
2.800000e-07	-5.688624e-06	-2.462670e-08	-4.114728e+01	-1.615704e+03
2.900000e-07	-5.624178e-06	-2.458823e-08	-4.068112e+01	-1.611595e+03
3.000000e-07	-5.557498e-06	-2.451331e-08	-4.019881e+01	-1.607342e+03
3.100000e-07	-5.488668e-06	-2.447703e-08	-3.970094e+01	-1.602937e+03
3.200000e-07	-5.417866e-06	-2.438770e-08	-3.918882e+01	-1.598371e+03
3.300000e-07	-5.345106e-06	-2.430713e-08	-3.866253e+01	-1.593640e+03
3.400000e-07	-5.270205e-06	-2.422787e-08	-3.812075e+01	-1.588737e+03
3.500000e-07	-5.193165e-06	-2.414501e-08	-3.756349e+01	-1.583660e+03
3.600000e-07	-5.113957e-06	-2.409587e-08	-3.699056e+01	-1.578410e+03
3.700000e-07	-5.032682e-06	-2.399453e-08	-3.640268e+01	-1.572988e+03
3.800000e-07	-4.949753e-06	-2.390808e-08	-3.580284e+01	-1.567398e+03
3.900000e-07	-4.865281e-06	-2.381114e-08	-3.519183e+01	-1.561642e+03
4.000000e-07	-4.779270e-06	-2.371201e-08	-3.456969e+01	-1.555721e+03
4.100000e-07	-4.691749e-06	-2.362205e-08	-3.393662e+01	-1.549634e+03
4.200000e-07	-4.602612e-06	-2.353452e-08	-3.329188e+01	-1.543376e+03
4.300000e-07	-4.511771e-06	-2.344804e-08	-3.263480e+01	-1.536941e+03
4.400000e-07	-4.419308e-06	-2.333673e-08	-3.196599e+01	-1.530323e+03
4.500000e-07	-4.325335e-06	-2.322669e-08	-3.128626e+01	-1.523518e+03
4.600000e-07	-4.229825e-06	-2.311301e-08	-3.059541e+01	-1.516524e+03
4.700000e-07	-4.132650e-06	-2.300347e-08	-2.989252e+01	-1.509339e+03
4.800000e-07	-4.033905e-06	-2.289823e-08	-2.917827e+01	-1.501964e+03
4.900000e-07	-3.933810e-06	-2.279013e-08	-2.845426e+01	-1.494399e+03
5.000000e-07	-3.832355e-06	-2.267236e-08	-2.772041e+01	-1.486641e+03
5.100000e-07	-3.729549e-06	-2.254276e-08	-2.697679e+01	-1.478683e+03
5.200000e-07	-3.625445e-06	-2.241182e-08	-2.622378e+01	-1.470512e+03
5.300000e-07	-3.519949e-06	-2.227834e-08	-2.546069e+01	-1.462111e+03
5.400000e-07	-3.413074e-06	-2.214616e-08	-2.468764e+01	-1.453461e+03
5.500000e-07	-3.304916e-06	-2.201235e-08	-2.390530e+01	-1.444542e+03
5.600000e-07	-3.195591e-06	-2.187165e-08	-2.311453e+01	-1.435338e+03
5.700000e-07	-3.085171e-06	-2.172036e-08	-2.231584e+01	-1.425841e+03
5.800000e-07	-2.973643e-06	-2.156450e-08	-2.150912e+01	-1.416047e+03
5.900000e-07	-2.860929e-06	-2.140748e-08	-2.069383e+01	-1.405958e+03
6.000000e-07	-2.746884e-06	-2.125137e-08	-1.986892e+01	-1.395580e+03
6.100000e-07	-2.631564e-06	-2.109314e-08	-1.903478e+01	-1.384917e+03
6.200000e-07	-2.515202e-06	-2.092889e-08	-1.819310e+01	-1.373966e+03
6.300000e-07	-2.397891e-06	-2.075474e-08	-1.734456e+01	-1.362720e+03
6.400000e-07	-2.279714e-06	-2.057090e-08	-1.648976e+01	-1.351162e+03
6.500000e-07	-2.160853e-06	-2.038211e-08	-1.563000e+01	-1.339268e+03
6.600000e-07	-2.041302e-06	-2.019195e-08	-1.476526e+01	-1.327011e+03
6.700000e-07	-1.921029e-06	-2.000031e-08	-1.389529e+01	-1.314367e+03
6.800000e-07	-1.800006e-06	-1.980305e-08	-1.301991e+01	-1.301317e+03
6.900000e-07	-1.678224e-06	-1.959869e-08	-1.213902e+01	-1.287847e+03
7.000000e-07	-1.555782e-06	-1.938386e-08	-1.125337e+01	-1.273954e+03
7.100000e-07	-1.432745e-06	-1.916207e-08	-1.036341e+01	-1.259637e+03
7.200000e-07	-1.309193e-06	-1.893743e-08	-9.469727e+00	-1.244895e+03
7.300000e-07	-1.185261e-06	-1.870733e-08	-8.573295e+00	-1.229721e+03
7.400000e-07	-1.061022e-06	-1.847087e-08	-7.674645e+00	-1.214098e+03
7.500000e-07	-9.364980e-07	-1.822714e-08	-6.773930e+00	-1.197994e+03
7.600000e-07	-8.116790e-07	-1.797314e-08	-5.871083e+00	-1.181366e+03
7.700000e-07	-6.866013e-07	-1.770728e-08	-4.966364e+00	-1.164162e+03
7.800000e-07	-5.613358e-07	-1.743111e-08	-4.060286e+00	-1.146325e+03
7.900000e-07	-4.358977e-07	-1.714860e-08	-3.152960e+00	-1.127802e+03
8.000000e-07	-3.102905e-07	-1.685855e-08	-2.244411e+00	-1.108542e+03
8.100000e-07	-1.845311e-07	-1.655674e-08	-1.334761e+00	-1.088505e+03
8.200000e-07	-5.865780e-08	-1.624110e-08	-4.242869e-01	-1.067651e+03
8.300000e-07	6.725601e-08	-1.590956e-08	4.864800e-01	-1.045937e+03
8.400000e-07	1.931366e-07	-1.556306e-08	1.397006e+00	-1.023309e+03
8.500000e-07	3.189654e-07	-1.520174e-08	2.307159e+00	-9.996935e+02
8.600000e-07	4.447313e-07	-1.482524e-08	3.216856e+00	-9.749912e+02
8.700000e-07	5.703883e-07	-1.443176e-08	4.125765e+00	-9.490769e+02
8.800000e-07	6.958676e-07	-1.401699e-08	5.033389e+00	-9.218006e+02
8.900000e-07	8.210947e-07	-1.357951e-08	5.939189e+00	-8.929927e+02
9.000000e-07	9.460325e-07	-1.311409e-08	6.842896e+00	-8.624691e+02
9.100000e-07	1.070671e-06	-1.261920e-08	7.744442e+00	-8.300341e+02
9.200000e-07	1.194978e-06	-1.209093e-08	8.643582e+00	-7.954785e+02
9.300000e-07	1.318966e-06	-1.152691e-08	9.540421e+00	-7.585718e+02
9.400000e-07	1.442552e-06	-1.092486e-08	1.043435e+01	-7.190507e+02
9.500000e-07	1.565596e-06	-1.027638e-08	1.132436e+01	-6.766054e+02
9.600000e-07	1.688063e-06	-9.577172e-09	1.221020e+01	-6.308704e+02
9.700000e-07	1.809828e-06	-8.821558e-09	1.309095e+01	-5.814250e+02
9.800000e-07	1.930794e-06	-8.002507e-09	1.396593e+01	-5.278076e+02
9.900000e-07	2.050910e-06	-7.112834e-09	1.483476e+01	-4.695479e+02
1.000000e-06	2.170197e-06	-6.145282e-09	1.569759e+01	-4.062154e+02
1.010000e-06	2.288734e-06	-5.097836e-09	1.655500e+01	-3.374803e+02
1.020000e-06	2.406474e-06	-3.963379e-09	1.740665e+01	-2.631791e+02
1.030000e-06	2.523356e-06	-2.742710e-09	1.825208e+01	-1.833740e+02
1.040000e-06	2.639300e-06	-1.443253e-09	1.909073e+01	-9.839712e+01
1.050000e-06	2.754065e-06	-7.582382e-11	1.992086e+01	-8.867992e+00
1.060000e-06	2.867477e-06	1.346012e-09	2.074120e+01	8.431829e+01
1.070000e-06	2.979682e-06	2.806146e-09	2.155281e+01	1.800353e+02
1.080000e-06	3.090846e-06	4.285429e-09	2.235688e+01	2.769965e+02
1.090000e-06	3.201016e-06	5.762149e-09	2.315377e+01	3.738447e+02
1.100000e-06	3.310159e-06	7.213888e-09	2.394323e+01	4.692478e+02
1.110000e-06	3.418233e-06	8.622738e-09	2.472495e+01	5.619889e+02
1.120000e-06	3.525183e-06	9.972731e-09	2.549855e+01	6.510383e+02
1.130000e-06	3.630765e-06	1.125289e-08	2.626226e+01	7.356003e+02
1.140000e-06	3.734864e-06	1.245809e-08	2.701523e+01	8.151312e+02
1.150000e-06	3.837614e-06	1.358591e-08	2.775845e+01	8.893296e+02
1.160000e-06	3.939089e-06	1.463010e-08	2.849244e+01	9.581051e+02
1.170000e-06	4.039272e-06	1.559337e-08	2.921709e+01	1.021533e+03
1.180000e-06	4.138071e-06	1.647883e-08	2.993173e+01	1.079804e+03
1.190000e-06	4.235223e-06	1.729008e-08	3.063446e+01	1.133178e+03
1.200000e-06	4.330692e-06	1.802653e-08	3.132501e+01	1.181950e+03
1.210000e-06	4.424680e-06	1.869544e-08	3.200485e+01	1.226421e+03
1.220000e-06	4.517266e-06	1.930594e-08	3.267454e+01	1.266889e+03
1.230000e-06	4.608349e-06	1.986126e-08	3.333337e+01	1.303645e+03
1.240000e-06	4.697630e-06	2.036313e-08	3.397916e+01	1.336975e+03
1.250000e-06	4.785099e-06	2.081634e-08	3.461185e+01	1.367165e+03
1.260000e-06	4.870965e-06	2.122991e-08	3.523294e+01	1.394501e+03
1.270000e-06	4.955269e-06	2.160709e-08	3.584274e+01	1.419267e+03
1.280000e-06	5.037865e-06	2.194997e-08	3.644017e+01	1.441739e+03
1.290000e-06	5.118531e-06	2.226061e-08	3.702365e+01	1.462180e+03
1.300000e-06	5.197220e-06	2.254209e-08	3.759283e+01	1.480824e+03
1.310000e-06	5.273990e-06	2.279788e-08	3.814813e+01	1.497880e+03
1.320000e-06	5.348733e-06	2.303371e-08	3.868876e+01	1.513520e+03
1.330000e-06	5.421308e-06	2.325117e-08	3.921372e+01	1.527884e+03
1.340000e-06	5.491826e-06	2.344910e-08	3.972379e+01	1.541086e+03
1.350000e-06	5.560449e-06	2.362986e-08	4.022016e+01	1.553218e+03
1.360000e-06	5.627097e-06	2.379734e-08	4.070224e+01	1.564359e+03
1.370000e-06	5.691591e-06	2.395438e-08	4.116874e+01	1.574581e+03
1.380000e-06	5.754047e-06	2.410011e-08	4.162050e+01	1.583952e+03
1.390000e-06	5.814644e-06	2.423522e-08	4.205882e+01	1.592542e+03
1.400000e-06	5.873315e-06	2.435862e-08	4.248319e+01	1.600418e+03
1.410000e-06	5.929846e-06	2.446829e-08	4.289210e+01	1.607647e+03
1.420000e-06	5.984200e-06	2.456670e-08	4.328526e+01	1.614292e+03
1.430000e-06	6.036302e-06	2.465791e-08	4.366213e+01	1.620410e+03
1.440000e-06	6.085796e-06	2.474420e-08	4.402013e+01	1.626051e+03
1.450000e-06	6.132849e-06	2.482274e-08	4.436047e+01	1.631259e+03
1.460000e-06	6.177886e-06	2.489512e-08	4.468624e+01	1.636072e+03
1.470000e-06	6.220867e-06	2.496435e-08	4.499713e+01	1.640523e+03
1.480000e-06	6.261540e-06	2.502971e-08	4.529133e+01	1.644636e+03
1.490000e-06	6.299900e-06	2.508990e-08	4.556879e+01	1.648432e+03
1.500000e-06	6.336235e-06	2.514520e-08	4.583161e+01	1.651925e+03
1.510000e-06	6.370352e-06	2.519603e-08	4.607839e+01	1.655123e+03
1.520000e-06	6.402077e-06	2.524208e-08	4.630787e+01	1.658032e+03
1.530000e-06	6.431630e-06	2.528052e-08	4.652163e+01	1.660651e+03
1.540000e-06	6.459015e-06	2.531180e-08	4.671972e+01	1.662982e+03
1.550000e-06	6.483883e-06	2.534060e-08	4.689960e+01	1.665029e+03
1.560000e-06	6.506275e-06	2.536733e-08	4.706156e+01	1.666801e+03
1.570000e-06	6.526577e-06	2.539036e-08	4.720841e+01	1.668312e+03
1.580000e-06	6.544669e-06	2.541037e-08	4.733927e+01	1.669584e+03
1.590000e-06	6.560261e-06	2.542774e-08	4.745205e+01	1.670641e+03
1.600000e-06	6.573346e-06	2.544162e-08	4.754670e+01	1.671508e+03
1.610000e-06	6.583854e-06	2.545270e-08	4.762271e+01	1.672208e+03
1.620000e-06	6.591737e-06	2.546265e-08	4.767973e+01	1.672757e+03
1.630000e-06	6.597300e-06	2.547131e-08	4.771997e+01	1.673160e+03
1.640000e-06	6.600629e-06	2.547707e-08	4.774404e+01	1.673417e+03
1.650000e-06	6.601556e-06	2.548325e-08	4.775075e+01	1.673517e+03
1.660000e-06	6.600156e-06	2.547996e-08	4.774062e+01	1.673448e+03
1.670000e-06	6.596676e-06	2.546965e-08	4.771545e+01	1.673198e+03
1.680000e-06	6.591002e-06	2.546675e-08	4.767441e+01	1.672760e+03
1.690000e-06	6.583078e-06	2.546020e-08	4.761709e+01	1.672136e+03
1.700000e-06	6.573079e-06	2.545119e-08	4.754477e+01	1.671337e+03
1.710000e-06	6.560880e-06	2.544444e-08	4.745653e+01	1.670382e+03
1.720000e-06	6.546284e-06	2.544784e-08	4.735095e+01	1.669295e+03
1.730000e-06	6.529532e-06	2.544916e-08	4.722978e+01	1.668100e+03
1.740000e-06	6.510868e-06	2.533544e-08	4.709478e+01	1.666817e+03
1.750000e-06	6.489648e-06	2.528126e-08	4.694129e+01	1.665459e+03
1.760000e-06	6.465208e-06	2.533596e-08	4.676451e+01	1.664028e+03
1.770000e-06	6.438043e-06	2.530721e-08	4.656802e+01	1.662518e+03
1.780000e-06	6.408707e-06	2.530768e-08	4.635583e+01	1.660915e+03
1.790000e-06	6.377441e-06	2.540564e-08	4.612967e+01	1.659198e+03
1.800000e-06	6.344782e-06	2.520918e-08	4.589344e+01	1.657346e+03
1.810000e-06	6.310433e-06	2.516698e-08	4.564498e+01	1.655341e+03
1.820000e-06	6.273701e-06	2.529405e-08	4.537929e+01	1.653167e+03
1.830000e-06	6.234695e-06	2.509109e-08	4.509715e+01	1.650817e+03
1.840000e-06	6.193508e-06	2.521735e-08	4.479924e+01	1.648286e+03
1.850000e-06	6.150226e-06	2.517130e-08	4.448616e+01	1.645577e+03
1.860000e-06	6.104976e-06	2.494997e-08	4.415886e+01	1.642696e+03
1.870000e-06	6.057377e-06	2.504693e-08	4.381456e+01	1.639649e+03
1.880000e-06	6.007491e-06	2.488232e-08	4.345372e+01	1.636445e+03
1.890000e-06	5.955210e-06	2.488904e-08	4.307557e+01	1.633092e+03
1.900000e-06	5.900258e-06	2.487895e-08	4.267809e+01	1.629596e+03
1.910000e-06	5.843093e-06	2.473548e-08	4.226459e+01	1.625961e+03
1.920000e-06	5.783835e-06	2.482823e-08	4.183597e+01	1.622191e+03
1.930000e-06	5.722449e-06	2.467109e-08	4.139194e+01	1.618285e+03
1.940000e-06	5.658913e-06	2.461953e-08	4.093237e+01	1.614242e+03
1.950000e-06	5.593187e-06	2.453881e-08	4.045696e+01	1.610057e+03
1.960000e-06	5.525408e-06	2.442991e-08	3.996670e+01	1.605723e+03
1.970000e-06	5.455422e-06	2.446658e-08	3.946047e+01	1.601233e+03
1.980000e-06	5.383305e-06	2.432091e-08	3.893883e+01	1.596579e+03
1.990000e-06	5.309248e-06	2.430195e-08	3.840316e+01	1.591756e+03
2.000000e-06	5.233245e-06	2.419735e-08	3.785340e+01	1.586760e+03
2.010000e-06	5.155108e-06	2.409962e-08	3.728822e+01	1.581590e+03
2.020000e-06	5.074924e-06	2.404964e-08	3.670823e+01	1.576248e+03
2.030000e-06	4.993003e-06	2.393441e-08	3.611568e+01	1.570736e+03
2.040000e-06	4.909417e-06	2.391339e-08	3.551108e+01	1.565057e+03
2.050000e-06	4.824161e-06	2.378853e-08	3.489440e+01	1.559213e+03
2.060000e-06	4.737000e-06	2.369627e-08	3.426394e+01	1.553203e+03
2.070000e-06	4.648108e-06	2.358557e-08	3.362096e+01	1.547025e+03
2.080000e-06	4.557755e-06	2.349372e-08	3.296741e+01	1.540673e+03
2.090000e-06	4.465936e-06	2.341442e-08	3.230326e+01	1.534141e+03
2.100000e-06	4.372547e-06	2.330057e-08	3.162775e+01	1.527423e+03
2.110000e-06	4.277427e-06	2.321909e-08	3.093973e+01	1.520517e+03
2.120000e-06	4.180760e-06	2.309812e-08	3.024051e+01	1.513420e+03
2.130000e-06	4.082717e-06	2.298847e-08	2.953134e+01	1.506133e+03
2.140000e-06	3.983376e-06	2.285427e-08	2.881278e+01	1.498657e+03
2.150000e-06	3.882633e-06	2.274198e-08	2.808408e+01	1.490989e+03
2.160000e-06	3.780246e-06	2.262955e-08	2.734349e+01	1.483125e+03
2.170000e-06	3.676330e-06	2.251560e-08	2.659184e+01	1.475055e+03
2.180000e-06	3.571120e-06	2.239420e-08	2.583083e+01	1.466764e+03
2.190000e-06	3.464736e-06	2.225895e-08	2.506133e+01	1.458231e+03
2.200000e-06	3.357200e-06	2.212800e-08	2.428349e+01	1.449439e+03
2.210000e-06	3.248539e-06	2.198744e-08	2.349752e+01	1.440369e+03
2.220000e-06	3.138575e-06	2.185551e-08	2.270212e+01	1.431009e+03
2.230000e-06	3.027292e-06	2.171381e-08	2.189718e+01	1.421353e+03
2.240000e-06	2.914806e-06	2.156704e-08	2.108354e+01	1.411400e+03
2.250000e-06	2.801230e-06	2.140105e-08	2.026202e+01	1.401156e+03
2.260000e-06	2.686625e-06	2.123341e-08	1.943305e+01	1.390625e+03
2.270000e-06	2.570956e-06	2.106788e-08	1.859638e+01	1.379808e+03
2.280000e-06	2.454157e-06	2.090897e-08	1.775154e+01	1.368701e+03
2.290000e-06	2.336268e-06	2.074574e-08	1.689882e+01	1.357291e+03
2.300000e-06	2.217448e-06	2.057090e-08	1.603937e+01	1.345556e+03
2.310000e-06	2.097709e-06	2.038509e-08	1.517327e+01	1.333470e+03
2.320000e-06	1.977193e-06	2.018922e-08	1.430155e+01	1.321009e+03
2.330000e-06	1.856077e-06	1.999290e-08	1.342548e+01	1.308150e+03
2.340000e-06	1.734373e-06	1.979227e-08	1.254517e+01	1.294875e+03
2.350000e-06	1.612103e-06	1.958982e-08	1.166076e+01	1.281179e+03
2.360000e-06	1.489375e-06	1.937736e-08	1.077303e+01	1.267059e+03
2.370000e-06	1.366245e-06	1.915516e-08	9.882401e+00	1.252514e+03
2.380000e-06	1.242731e-06	1.892274e-08	8.988996e+00	1.237543e+03
2.390000e-06	1.118834e-06	1.868517e-08	8.092812e+00	1.222131e+03
2.400000e-06	9.945802e-07	1.844441e-08	7.194054e+00	1.206255e+03
2.410000e-06	8.699335e-07	1.819730e-08	6.292452e+00	1.189877e+03
2.420000e-06	7.449010e-07	1.794281e-08	5.388061e+00	1.172947e+03
2.430000e-06	6.196067e-07	1.767673e-08	4.481774e+00	1.155411e+03
2.440000e-06	4.941099e-07	1.739650e-08	3.574024e+00	1.137213e+03
2.450000e-06	3.684528e-07	1.710066e-08	2.665114e+00	1.118301e+03
2.460000e-06	2.426527e-07	1.679480e-08	1.755169e+00	1.098630e+03
2.470000e-06	1.166934e-07	1.648461e-08	8.440734e-01	1.078160e+03
2.480000e-06	-9.399134e-09	1.616762e-08	-6.798635e-02	1.056851e+03
2.490000e-06	-1.355359e-07	1.583548e-08	-9.803657e-01	1.034655e+03
2.500000e-06	-2.615612e-07	1.548018e-08	-1.891939e+00	1.011509e+03
2.510000e-06	-3.874826e-07	1.510471e-08	-2.802761e+00	9.873248e+02
2.520000e-06	-5.133253e-07	1.471384e-08	-3.713014e+00	9.619905e+02
2.530000e-06	-6.390005e-07	1.430665e-08	-4.622055e+00	9.353666e+02
2.540000e-06	-7.644305e-07	1.387717e-08	-5.529322e+00	9.072919e+02
2.550000e-06	-8.895571e-07	1.342294e-08	-6.434395e+00	8.775885e+02
2.560000e-06	-1.014384e-06	1.294411e-08	-7.337297e+00	8.460661e+02
2.570000e-06	-1.138851e-06	1.243398e-08	-8.237599e+00	8.125221e+02
2.580000e-06	-1.262830e-06	1.188853e-08	-9.134376e+00	7.767375e+02
2.590000e-06	-1.386289e-06	1.130642e-08	-1.002738e+01	7.384657e+02
2.600000e-06	-1.509316e-06	1.068395e-08	-1.091727e+01	6.974199e+02
2.610000e-06	-1.631907e-06	1.001366e-08	-1.180401e+01	6.532614e+02
2.620000e-06	-1.753899e-06	9.287532e-09	-1.268640e+01	6.055942e+02
2.630000e-06	-1.875184e-06	8.498242e-09	-1.356369e+01	5.539727e+02
2.640000e-06	-1.995853e-06	7.639156e-09	-1.443652e+01	4.979257e+02
2.650000e-06	-2.115889e-06	6.706231e-09	-1.530477e+01	4.369971e+02
2.660000e-06	-2.235054e-06	5.697293e-09	-1.616672e+01	3.708022e+02
2.670000e-06	-2.353213e-06	4.609497e-09	-1.702139e+01	2.990925e+02
2.680000e-06	-2.470315e-06	3.438282e-09	-1.786842e+01	2.218186e+02
2.690000e-06	-2.586293e-06	2.183621e-09	-1.870732e+01	1.391834e+02
2.700000e-06	-2.701225e-06	8.522569e-10	-1.953865e+01	5.167259e+01
2.710000e-06	-2.815093e-06	-5.452644e-10	-2.036229e+01	-3.994314e+01
2.720000e-06	-2.927753e-06	-1.990992e-09	-2.117719e+01	-1.346374e+02
2.730000e-06	-3.039186e-06	-3.464411e-09	-2.198321e+01	-2.311877e+02
2.740000e-06	-3.149425e-06	-4.947512e-09	-2.278060e+01	-3.282577e+02
2.750000e-06	-3.258582e-06	-6.422194e-09	-2.357016e+01	-4.244920e+02
2.760000e-06	-3.366747e-06	-7.865319e-09	-2.435255e+01	-5.186098e+02
2.770000e-06	-3.473884e-06	-9.256926e-09	-2.512750e+01	-6.094871e+02
2.780000e-06	-3.579894e-06	-1.058286e-08	-2.589429e+01	-6.962155e+02
2.790000e-06	-3.684732e-06	-1.183371e-08	-2.665261e+01	-7.781339e+02
2.800000e-06	-3.788225e-06	-1.300584e-08	-2.740121e+01	-8.548313e+02
2.810000e-06	-3.890209e-06	-1.409859e-08	-2.813888e+01	-9.261241e+02
2.820000e-06	-3.990732e-06	-1.511305e-08	-2.886599e+01	-9.920168e+02
2.830000e-06	-4.089887e-06	-1.604730e-08	-2.958321e+01	-1.052653e+03
2.840000e-06	-4.187704e-06	-1.690316e-08	-3.029074e+01	-1.108265e+03
2.850000e-06	-4.284157e-06	-1.768450e-08	-3.098841e+01	-1.159137e+03
2.860000e-06	-4.379077e-06	-1.839692e-08	-3.167499e+01	-1.205567e+03
2.870000e-06	-4.472310e-06	-1.904715e-08	-3.234937e+01	-1.247857e+03
2.880000e-06	-4.563995e-06	-1.964061e-08	-3.301255e+01	-1.286300e+03
2.890000e-06	-4.654097e-06	-2.017874e-08	-3.366428e+01	-1.321185e+03
2.900000e-06	-4.742562e-06	-2.066300e-08	-3.430417e+01	-1.352798e+03
2.910000e-06	-4.829258e-06	-2.110176e-08	-3.493127e+01	-1.381423e+03
2.920000e-06	-4.914078e-06	-2.150159e-08	-3.554479e+01	-1.407347e+03
2.930000e-06	-4.997224e-06	-2.186339e-08	-3.614621e+01	-1.430851e+03
2.940000e-06	-5.078687e-06	-2.219143e-08	-3.673545e+01	-1.452204e+03
