# Temperatura_=_73.63
# Concentracion g/m^3_=_28200.0
# C_Vs_to_Am_M_A/Vsm_=_65563218390.804596
# pendiente_HvsI_1/m_=_3716.3
# ordenada_HvsI_A/m_=_1297.0
# frecuencia_Hz_=_301945.19523804385

Tiempo_(s)	Campo_(V.s)	Magnetizacion_(V.s)	Campo_(kA/m)	Magnetizacion_(A/m)
0.000000e+00	-5.847065e-06	-2.234196e-08	-4.194373e+01	-1.463352e+03
1.000000e-08	-5.845346e-06	-2.233668e-08	-4.193140e+01	-1.463055e+03
2.000000e-08	-5.841596e-06	-2.232808e-08	-4.190449e+01	-1.462608e+03
3.000000e-08	-5.836050e-06	-2.231671e-08	-4.186471e+01	-1.461997e+03
4.000000e-08	-5.828808e-06	-2.230600e-08	-4.181276e+01	-1.461204e+03
5.000000e-08	-5.819671e-06	-2.229115e-08	-4.174722e+01	-1.460213e+03
6.000000e-08	-5.808338e-06	-2.227212e-08	-4.166592e+01	-1.459010e+03
7.000000e-08	-5.794836e-06	-2.225117e-08	-4.156906e+01	-1.457593e+03
8.000000e-08	-5.779189e-06	-2.222556e-08	-4.145682e+01	-1.455971e+03
9.000000e-08	-5.761428e-06	-2.221449e-08	-4.132942e+01	-1.454162e+03
1.000000e-07	-5.741619e-06	-2.222843e-08	-4.118731e+01	-1.452195e+03
1.100000e-07	-5.719605e-06	-2.217551e-08	-4.102940e+01	-1.450101e+03
1.200000e-07	-5.695344e-06	-2.210006e-08	-4.085536e+01	-1.447909e+03
1.300000e-07	-5.668926e-06	-2.205899e-08	-4.066585e+01	-1.445641e+03
1.400000e-07	-5.640780e-06	-2.198030e-08	-4.046395e+01	-1.443303e+03
1.500000e-07	-5.611242e-06	-2.192341e-08	-4.025206e+01	-1.440887e+03
1.600000e-07	-5.580114e-06	-2.200204e-08	-4.002876e+01	-1.438366e+03
1.700000e-07	-5.547163e-06	-2.192213e-08	-3.979239e+01	-1.435704e+03
1.800000e-07	-5.512332e-06	-2.182975e-08	-3.954253e+01	-1.432856e+03
1.900000e-07	-5.475535e-06	-2.185279e-08	-3.927857e+01	-1.429779e+03
2.000000e-07	-5.436832e-06	-2.171097e-08	-3.900094e+01	-1.426436e+03
2.100000e-07	-5.396312e-06	-2.165641e-08	-3.871026e+01	-1.422804e+03
2.200000e-07	-5.353724e-06	-2.165386e-08	-3.840476e+01	-1.418876e+03
2.300000e-07	-5.309027e-06	-2.156729e-08	-3.808413e+01	-1.414662e+03
2.400000e-07	-5.262277e-06	-2.151608e-08	-3.774877e+01	-1.410182e+03
2.500000e-07	-5.213317e-06	-2.143707e-08	-3.739756e+01	-1.405464e+03
2.600000e-07	-5.162027e-06	-2.135750e-08	-3.702963e+01	-1.400534e+03
2.700000e-07	-5.108525e-06	-2.128273e-08	-3.664583e+01	-1.395414e+03
2.800000e-07	-5.053179e-06	-2.116224e-08	-3.624881e+01	-1.390112e+03
2.900000e-07	-4.996020e-06	-2.110733e-08	-3.583878e+01	-1.384624e+03
3.000000e-07	-4.936882e-06	-2.102311e-08	-3.541456e+01	-1.378936e+03
3.100000e-07	-4.875925e-06	-2.092234e-08	-3.497728e+01	-1.373023e+03
3.200000e-07	-4.813272e-06	-2.083684e-08	-3.452785e+01	-1.366859e+03
3.300000e-07	-4.748859e-06	-2.073294e-08	-3.406578e+01	-1.360421e+03
3.400000e-07	-4.682560e-06	-2.062720e-08	-3.359019e+01	-1.353692e+03
3.500000e-07	-4.614467e-06	-2.050708e-08	-3.310173e+01	-1.346662e+03
3.600000e-07	-4.544777e-06	-2.040683e-08	-3.260181e+01	-1.339332e+03
3.700000e-07	-4.473605e-06	-2.028767e-08	-3.209126e+01	-1.331705e+03
3.800000e-07	-4.400853e-06	-2.016733e-08	-3.156938e+01	-1.323787e+03
3.900000e-07	-4.326236e-06	-2.004634e-08	-3.103411e+01	-1.315580e+03
4.000000e-07	-4.249840e-06	-1.990258e-08	-3.048609e+01	-1.307079e+03
4.100000e-07	-4.171804e-06	-1.977253e-08	-2.992630e+01	-1.298271e+03
4.200000e-07	-4.092067e-06	-1.963930e-08	-2.935431e+01	-1.289135e+03
4.300000e-07	-4.010774e-06	-1.949529e-08	-2.877116e+01	-1.279648e+03
4.400000e-07	-3.928207e-06	-1.934178e-08	-2.817886e+01	-1.269784e+03
4.500000e-07	-3.844453e-06	-1.917862e-08	-2.757805e+01	-1.259524e+03
4.600000e-07	-3.759505e-06	-1.901849e-08	-2.696868e+01	-1.248854e+03
4.700000e-07	-3.673405e-06	-1.884694e-08	-2.635105e+01	-1.237765e+03
4.800000e-07	-3.586201e-06	-1.867230e-08	-2.572550e+01	-1.226257e+03
4.900000e-07	-3.497707e-06	-1.849689e-08	-2.509069e+01	-1.214327e+03
5.000000e-07	-3.407764e-06	-1.831051e-08	-2.444548e+01	-1.201971e+03
5.100000e-07	-3.316455e-06	-1.810893e-08	-2.379048e+01	-1.189176e+03
5.200000e-07	-3.223904e-06	-1.789785e-08	-2.312657e+01	-1.175920e+03
5.300000e-07	-3.130230e-06	-1.768647e-08	-2.245460e+01	-1.162166e+03
5.400000e-07	-3.035488e-06	-1.746596e-08	-2.177498e+01	-1.147872e+03
5.500000e-07	-2.939686e-06	-1.723966e-08	-2.108774e+01	-1.132987e+03
5.600000e-07	-2.842730e-06	-1.700408e-08	-2.039223e+01	-1.117461e+03
5.700000e-07	-2.744540e-06	-1.675577e-08	-1.968787e+01	-1.101248e+03
5.800000e-07	-2.645185e-06	-1.649601e-08	-1.897515e+01	-1.084308e+03
5.900000e-07	-2.544855e-06	-1.622397e-08	-1.825544e+01	-1.066607e+03
6.000000e-07	-2.443676e-06	-1.594035e-08	-1.752963e+01	-1.048119e+03
6.100000e-07	-2.341656e-06	-1.564472e-08	-1.679779e+01	-1.028813e+03
6.200000e-07	-2.238847e-06	-1.533967e-08	-1.606030e+01	-1.008657e+03
6.300000e-07	-2.135234e-06	-1.501949e-08	-1.531703e+01	-9.876078e+02
6.400000e-07	-2.030751e-06	-1.468243e-08	-1.456753e+01	-9.656088e+02
6.500000e-07	-1.925486e-06	-1.432720e-08	-1.381241e+01	-9.425892e+02
6.600000e-07	-1.819454e-06	-1.395581e-08	-1.305179e+01	-9.184645e+02
6.700000e-07	-1.712666e-06	-1.356918e-08	-1.228575e+01	-8.931400e+02
6.800000e-07	-1.605230e-06	-1.316301e-08	-1.151507e+01	-8.665138e+02
6.900000e-07	-1.497246e-06	-1.273639e-08	-1.074045e+01	-8.384816e+02
7.000000e-07	-1.388832e-06	-1.228463e-08	-9.962741e+00	-8.089395e+02
7.100000e-07	-1.280049e-06	-1.180568e-08	-9.182393e+00	-7.777876e+02
7.200000e-07	-1.170876e-06	-1.129925e-08	-8.399237e+00	-7.449338e+02
7.300000e-07	-1.061290e-06	-1.076997e-08	-7.613132e+00	-7.102980e+02
7.400000e-07	-9.513350e-07	-1.021784e-08	-6.824370e+00	-6.738191e+02
7.500000e-07	-8.411100e-07	-9.638127e-09	-6.033675e+00	-6.354641e+02
7.600000e-07	-7.306487e-07	-9.027664e-09	-5.241284e+00	-5.952388e+02
7.700000e-07	-6.199744e-07	-8.384648e-09	-4.447366e+00	-5.531984e+02
7.800000e-07	-5.091370e-07	-7.715425e-09	-3.652277e+00	-5.094555e+02
7.900000e-07	-3.981465e-07	-7.025359e-09	-2.856091e+00	-4.641830e+02
8.000000e-07	-2.870282e-07	-6.317547e-09	-2.058988e+00	-4.176077e+02
8.100000e-07	-1.757772e-07	-5.595592e-09	-1.260932e+00	-3.699950e+02
8.200000e-07	-6.444221e-08	-4.862732e-09	-4.622741e-01	-3.216239e+02
8.300000e-07	4.691713e-08	-4.121945e-09	3.365584e-01	-2.727555e+02
8.400000e-07	1.583208e-07	-3.375973e-09	1.135709e+00	-2.235989e+02
8.500000e-07	2.697170e-07	-2.624905e-09	1.934806e+00	-1.742820e+02
8.600000e-07	3.809862e-07	-1.870650e-09	2.732992e+00	-1.248312e+02
8.700000e-07	4.921356e-07	-1.115910e-09	3.530318e+00	-7.516785e+01
8.800000e-07	6.031770e-07	-3.551781e-10	4.326870e+00	-2.512205e+01
8.900000e-07	7.140766e-07	4.173636e-10	5.122405e+00	2.553561e+01
9.000000e-07	8.247842e-07	1.205322e-09	5.916562e+00	7.704801e+01
9.100000e-07	9.352271e-07	2.007515e-09	6.708821e+00	1.296184e+02
9.200000e-07	1.045455e-06	2.824339e-09	7.499534e+00	1.833589e+02
9.300000e-07	1.155389e-06	3.655887e-09	8.288148e+00	2.382488e+02
9.400000e-07	1.264861e-06	4.501335e-09	9.073439e+00	2.941116e+02
9.500000e-07	1.373853e-06	5.360920e-09	9.855292e+00	3.506140e+02
9.600000e-07	1.482433e-06	6.227647e-09	1.063418e+01	4.072880e+02
9.700000e-07	1.590557e-06	7.089288e-09	1.140981e+01	4.635732e+02
9.800000e-07	1.698174e-06	7.931933e-09	1.218179e+01	5.188718e+02
9.900000e-07	1.805122e-06	8.745900e-09	1.294898e+01	5.726076e+02
1.000000e-06	1.911296e-06	9.527776e-09	1.371062e+01	6.242805e+02
1.010000e-06	2.016698e-06	1.027213e-08	1.446672e+01	6.735070e+02
1.020000e-06	2.121218e-06	1.097611e-08	1.521649e+01	7.200427e+02
1.030000e-06	2.224841e-06	1.164115e-08	1.595982e+01	7.637848e+02
1.040000e-06	2.327616e-06	1.226463e-08	1.669708e+01	8.047565e+02
1.050000e-06	2.429561e-06	1.284590e-08	1.742838e+01	8.430776e+02
1.060000e-06	2.530694e-06	1.338998e-08	1.815385e+01	8.789299e+02
1.070000e-06	2.631033e-06	1.390005e-08	1.887363e+01	9.125210e+02
1.080000e-06	2.730461e-06	1.437844e-08	1.958687e+01	9.440559e+02
1.090000e-06	2.828905e-06	1.482866e-08	2.029305e+01	9.737173e+02
1.100000e-06	2.926301e-06	1.525346e-08	2.099172e+01	1.001657e+03
1.110000e-06	3.022451e-06	1.565332e-08	2.168145e+01	1.027998e+03
1.120000e-06	3.117404e-06	1.603067e-08	2.236259e+01	1.052840e+03
1.130000e-06	3.211363e-06	1.638550e-08	2.303660e+01	1.076271e+03
1.140000e-06	3.304334e-06	1.672102e-08	2.370353e+01	1.098378e+03
1.150000e-06	3.396260e-06	1.704030e-08	2.436296e+01	1.119249e+03
1.160000e-06	3.487066e-06	1.734169e-08	2.501435e+01	1.138978e+03
1.170000e-06	3.576578e-06	1.762744e-08	2.565646e+01	1.157661e+03
1.180000e-06	3.664632e-06	1.789672e-08	2.628811e+01	1.175388e+03
1.190000e-06	3.751354e-06	1.815267e-08	2.691021e+01	1.192241e+03
1.200000e-06	3.836889e-06	1.839628e-08	2.752380e+01	1.208287e+03
1.210000e-06	3.921213e-06	1.862687e-08	2.812869e+01	1.223578e+03
1.220000e-06	4.004278e-06	1.884645e-08	2.872455e+01	1.238151e+03
1.230000e-06	4.085843e-06	1.905741e-08	2.930966e+01	1.252037e+03
1.240000e-06	4.165824e-06	1.925935e-08	2.988340e+01	1.265260e+03
1.250000e-06	4.244286e-06	1.944941e-08	3.044625e+01	1.277844e+03
1.260000e-06	4.321235e-06	1.962893e-08	3.099824e+01	1.289821e+03
1.270000e-06	4.396578e-06	1.980123e-08	3.153871e+01	1.301223e+03
1.280000e-06	4.470132e-06	1.996669e-08	3.206635e+01	1.312086e+03
1.290000e-06	4.541879e-06	2.012440e-08	3.258102e+01	1.322446e+03
1.300000e-06	4.611922e-06	2.027462e-08	3.308347e+01	1.332332e+03
1.310000e-06	4.680356e-06	2.041979e-08	3.357438e+01	1.341763e+03
1.320000e-06	4.747194e-06	2.055902e-08	3.405384e+01	1.350753e+03
1.330000e-06	4.812232e-06	2.069114e-08	3.452039e+01	1.359303e+03
1.340000e-06	4.875434e-06	2.081565e-08	3.497377e+01	1.367415e+03
1.350000e-06	4.936991e-06	2.093287e-08	3.541534e+01	1.375087e+03
1.360000e-06	4.996946e-06	2.104176e-08	3.584543e+01	1.382326e+03
1.370000e-06	5.055206e-06	2.114404e-08	3.626335e+01	1.389145e+03
1.380000e-06	5.111575e-06	2.124238e-08	3.666772e+01	1.395568e+03
1.390000e-06	5.166034e-06	2.133564e-08	3.705838e+01	1.401626e+03
1.400000e-06	5.218513e-06	2.142232e-08	3.743483e+01	1.407358e+03
1.410000e-06	5.268839e-06	2.150381e-08	3.779584e+01	1.412799e+03
1.420000e-06	5.317029e-06	2.158328e-08	3.814153e+01	1.417979e+03
1.430000e-06	5.363285e-06	2.165883e-08	3.847334e+01	1.422922e+03
1.440000e-06	5.407764e-06	2.173053e-08	3.879242e+01	1.427636e+03
1.450000e-06	5.450442e-06	2.179879e-08	3.909857e+01	1.432123e+03
1.460000e-06	5.491108e-06	2.186347e-08	3.939029e+01	1.436373e+03
1.470000e-06	5.529740e-06	2.192476e-08	3.966740e+01	1.440375e+03
1.480000e-06	5.566552e-06	2.198264e-08	3.993147e+01	1.444115e+03
1.490000e-06	5.601557e-06	2.203529e-08	4.018258e+01	1.447585e+03
1.500000e-06	5.634464e-06	2.208403e-08	4.041864e+01	1.450781e+03
1.510000e-06	5.665265e-06	2.212997e-08	4.063959e+01	1.453707e+03
1.520000e-06	5.694223e-06	2.217072e-08	4.084732e+01	1.456370e+03
1.530000e-06	5.721243e-06	2.220695e-08	4.104115e+01	1.458782e+03
1.540000e-06	5.746064e-06	2.223969e-08	4.121920e+01	1.460951e+03
1.550000e-06	5.768713e-06	2.226856e-08	4.138167e+01	1.462887e+03
1.560000e-06	5.789409e-06	2.229371e-08	4.153013e+01	1.464595e+03
1.570000e-06	5.808148e-06	2.231601e-08	4.166456e+01	1.466077e+03
1.580000e-06	5.824718e-06	2.233644e-08	4.178342e+01	1.467335e+03
1.590000e-06	5.839086e-06	2.235279e-08	4.188649e+01	1.468372e+03
1.600000e-06	5.851330e-06	2.236358e-08	4.197432e+01	1.469192e+03
1.610000e-06	5.861276e-06	2.237151e-08	4.204567e+01	1.469807e+03
1.620000e-06	5.868925e-06	2.237927e-08	4.210054e+01	1.470228e+03
1.630000e-06	5.874489e-06	2.238741e-08	4.214046e+01	1.470472e+03
1.640000e-06	5.878093e-06	2.239400e-08	4.216631e+01	1.470554e+03
1.650000e-06	5.879486e-06	2.239801e-08	4.217630e+01	1.470488e+03
1.660000e-06	5.878708e-06	2.239750e-08	4.217071e+01	1.470278e+03
1.670000e-06	5.876142e-06	2.238743e-08	4.215231e+01	1.469922e+03
1.680000e-06	5.871799e-06	2.237608e-08	4.212116e+01	1.469412e+03
1.690000e-06	5.865382e-06	2.236437e-08	4.207512e+01	1.468730e+03
1.700000e-06	5.856925e-06	2.235172e-08	4.201446e+01	1.467860e+03
1.710000e-06	5.846759e-06	2.233860e-08	4.194154e+01	1.466786e+03
1.720000e-06	5.834730e-06	2.232481e-08	4.185525e+01	1.465498e+03
1.730000e-06	5.820559e-06	2.230886e-08	4.175359e+01	1.463998e+03
1.740000e-06	5.804387e-06	2.226368e-08	4.163758e+01	1.462298e+03
1.750000e-06	5.786119e-06	2.217853e-08	4.150653e+01	1.460422e+03
1.760000e-06	5.765174e-06	2.217336e-08	4.135629e+01	1.458401e+03
1.770000e-06	5.741411e-06	2.218105e-08	4.118582e+01	1.456264e+03
1.780000e-06	5.715442e-06	2.215754e-08	4.099953e+01	1.454040e+03
1.790000e-06	5.688081e-06	2.219869e-08	4.080326e+01	1.451743e+03
1.800000e-06	5.659790e-06	2.208402e-08	4.060031e+01	1.449375e+03
1.810000e-06	5.629909e-06	2.195799e-08	4.038597e+01	1.446921e+03
1.820000e-06	5.597613e-06	2.203763e-08	4.015429e+01	1.444348e+03
1.830000e-06	5.563437e-06	2.196465e-08	3.990913e+01	1.441618e+03
1.840000e-06	5.527535e-06	2.195465e-08	3.965159e+01	1.438684e+03
1.850000e-06	5.489403e-06	2.200074e-08	3.937805e+01	1.435505e+03
1.860000e-06	5.449245e-06	2.181275e-08	3.908998e+01	1.432049e+03
1.870000e-06	5.407189e-06	2.178215e-08	3.878829e+01	1.428300e+03
1.880000e-06	5.363393e-06	2.173167e-08	3.847412e+01	1.424257e+03
1.890000e-06	5.317868e-06	2.161197e-08	3.814755e+01	1.419934e+03
1.900000e-06	5.270098e-06	2.160741e-08	3.780487e+01	1.415356e+03
1.910000e-06	5.220248e-06	2.148858e-08	3.744727e+01	1.410551e+03
1.920000e-06	5.168352e-06	2.147934e-08	3.707500e+01	1.405544e+03
1.930000e-06	5.114185e-06	2.141727e-08	3.668644e+01	1.400350e+03
1.940000e-06	5.058069e-06	2.124471e-08	3.628389e+01	1.394976e+03
1.950000e-06	5.000122e-06	2.123562e-08	3.586821e+01	1.389410e+03
1.960000e-06	4.940411e-06	2.110249e-08	3.543988e+01	1.383636e+03
1.970000e-06	4.878899e-06	2.101360e-08	3.499862e+01	1.377627e+03
1.980000e-06	4.815444e-06	2.093627e-08	3.454343e+01	1.371357e+03
1.990000e-06	4.750174e-06	2.081469e-08	3.407522e+01	1.364805e+03
2.000000e-06	4.683293e-06	2.076345e-08	3.359545e+01	1.357958e+03
2.010000e-06	4.614858e-06	2.061027e-08	3.310453e+01	1.350808e+03
2.020000e-06	4.544583e-06	2.050626e-08	3.260042e+01	1.343360e+03
2.030000e-06	4.472494e-06	2.038740e-08	3.208329e+01	1.335617e+03
2.040000e-06	4.398841e-06	2.026807e-08	3.155494e+01	1.327585e+03
2.050000e-06	4.323595e-06	2.016886e-08	3.101517e+01	1.319263e+03
2.060000e-06	4.246648e-06	2.000097e-08	3.046319e+01	1.310642e+03
2.070000e-06	4.167938e-06	1.988189e-08	2.989856e+01	1.301706e+03
2.080000e-06	4.087684e-06	1.972680e-08	2.932287e+01	1.292434e+03
2.090000e-06	4.006059e-06	1.958294e-08	2.873733e+01	1.282801e+03
2.100000e-06	3.923119e-06	1.943624e-08	2.814236e+01	1.272783e+03
2.110000e-06	3.838900e-06	1.927675e-08	2.753822e+01	1.262362e+03
2.120000e-06	3.753232e-06	1.913077e-08	2.692368e+01	1.251527e+03
2.130000e-06	3.666132e-06	1.894052e-08	2.629888e+01	1.240272e+03
2.140000e-06	3.577753e-06	1.876212e-08	2.566489e+01	1.228597e+03
2.150000e-06	3.488094e-06	1.857311e-08	2.502173e+01	1.216500e+03
2.160000e-06	3.397213e-06	1.839030e-08	2.436980e+01	1.203973e+03
2.170000e-06	3.305278e-06	1.819628e-08	2.371030e+01	1.191000e+03
2.180000e-06	3.212201e-06	1.799487e-08	2.304262e+01	1.177552e+03
2.190000e-06	3.117808e-06	1.778727e-08	2.236549e+01	1.163590e+03
2.200000e-06	3.022160e-06	1.756349e-08	2.167936e+01	1.149069e+03
2.210000e-06	2.925388e-06	1.733725e-08	2.098518e+01	1.133937e+03
2.220000e-06	2.827619e-06	1.709588e-08	2.028383e+01	1.118145e+03
2.230000e-06	2.728902e-06	1.684943e-08	1.957569e+01	1.101650e+03
2.240000e-06	2.629299e-06	1.658899e-08	1.886119e+01	1.084414e+03
2.250000e-06	2.528782e-06	1.631696e-08	1.814014e+01	1.066406e+03
2.260000e-06	2.427258e-06	1.602593e-08	1.741186e+01	1.047599e+03
2.270000e-06	2.324711e-06	1.572174e-08	1.667624e+01	1.027962e+03
2.280000e-06	2.221167e-06	1.541040e-08	1.593347e+01	1.007460e+03
2.290000e-06	2.116754e-06	1.508927e-08	1.518447e+01	9.860447e+02
2.300000e-06	2.011589e-06	1.475573e-08	1.443007e+01	9.636530e+02
2.310000e-06	1.905735e-06	1.440174e-08	1.367073e+01	9.402089e+02
2.320000e-06	1.799307e-06	1.402770e-08	1.290727e+01	9.156237e+02
2.330000e-06	1.692370e-06	1.363086e-08	1.214016e+01	8.897992e+02
2.340000e-06	1.584950e-06	1.321395e-08	1.136959e+01	8.626322e+02
2.350000e-06	1.477056e-06	1.277862e-08	1.059561e+01	8.340180e+02
2.360000e-06	1.368677e-06	1.232439e-08	9.818158e+00	8.038541e+02
2.370000e-06	1.259886e-06	1.184323e-08	9.037748e+00	7.720430e+02
2.380000e-06	1.150786e-06	1.133251e-08	8.255125e+00	7.384968e+02
2.390000e-06	1.041415e-06	1.079284e-08	7.470553e+00	7.031419e+02
2.400000e-06	9.316740e-07	1.022502e-08	6.683332e+00	6.659270e+02
2.410000e-06	8.215129e-07	9.629814e-09	5.893096e+00	6.268331e+02
2.420000e-06	7.110356e-07	9.003487e-09	5.100590e+00	5.858840e+02
2.430000e-06	6.003307e-07	8.349461e-09	4.306452e+00	5.431570e+02
2.440000e-06	4.894558e-07	7.669606e-09	3.511095e+00	4.987884e+02
2.450000e-06	3.783864e-07	6.967284e-09	2.714342e+00	4.529734e+02
2.460000e-06	2.671179e-07	6.245688e-09	1.916162e+00	4.059565e+02
2.470000e-06	1.557149e-07	5.509796e-09	1.117016e+00	3.580119e+02
2.480000e-06	4.417172e-08	4.765804e-09	3.168644e-01	3.094154e+02
2.490000e-06	-6.735415e-08	4.019115e-09	-4.831628e-01	2.604118e+02
2.500000e-06	-1.787648e-07	3.268994e-09	-1.282364e+00	2.111813e+02
2.510000e-06	-2.901456e-07	2.513149e-09	-2.081350e+00	1.618135e+02
2.520000e-06	-4.014594e-07	1.753548e-09	-2.879855e+00	1.122932e+02
2.530000e-06	-5.126354e-07	9.882474e-10	-3.677373e+00	6.250308e+01
2.540000e-06	-6.235823e-07	2.170880e-10	-4.473247e+00	1.224516e+01
2.550000e-06	-7.342477e-07	-5.618269e-10	-5.267102e+00	-3.872130e+01
2.560000e-06	-8.446098e-07	-1.353607e-09	-6.058781e+00	-9.063008e+01
2.570000e-06	-9.546225e-07	-2.161625e-09	-6.847953e+00	-1.436544e+02
2.580000e-06	-1.064246e-06	-2.989289e-09	-7.634331e+00	-1.978582e+02
2.590000e-06	-1.173499e-06	-3.833822e-09	-8.418054e+00	-2.531612e+02
2.600000e-06	-1.282379e-06	-4.691000e-09	-9.199104e+00	-3.093242e+02
2.610000e-06	-1.390844e-06	-5.556434e-09	-9.977171e+00	-3.659571e+02
2.620000e-06	-1.498846e-06	-6.423326e-09	-1.075192e+01	-4.225496e+02
2.630000e-06	-1.606363e-06	-7.283289e-09	-1.152319e+01	-4.785196e+02
2.640000e-06	-1.713359e-06	-8.125016e-09	-1.229073e+01	-5.332708e+02
2.650000e-06	-1.819765e-06	-8.936638e-09	-1.305402e+01	-5.862511e+02
2.660000e-06	-1.925502e-06	-9.710502e-09	-1.381252e+01	-6.370022e+02
2.670000e-06	-2.030558e-06	-1.044575e-08	-1.456614e+01	-6.851938e+02
2.680000e-06	-2.134892e-06	-1.114141e-08	-1.531457e+01	-7.306378e+02
2.690000e-06	-2.238321e-06	-1.179569e-08	-1.605652e+01	-7.732836e+02
2.700000e-06	-2.340808e-06	-1.240943e-08	-1.679171e+01	-8.131964e+02
2.710000e-06	-2.442370e-06	-1.298478e-08	-1.752026e+01	-8.505248e+02
2.720000e-06	-2.542952e-06	-1.352276e-08	-1.824179e+01	-8.854646e+02
2.730000e-06	-2.642577e-06	-1.402545e-08	-1.895644e+01	-9.182253e+02
2.740000e-06	-2.741313e-06	-1.449660e-08	-1.966472e+01	-9.490050e+02
2.750000e-06	-2.839085e-06	-1.493945e-08	-2.036609e+01	-9.779747e+02
2.760000e-06	-2.935905e-06	-1.535592e-08	-2.106061e+01	-1.005274e+03
2.770000e-06	-3.031841e-06	-1.574997e-08	-2.174881e+01	-1.031016e+03
2.780000e-06	-3.126793e-06	-1.612304e-08	-2.242994e+01	-1.055294e+03
2.790000e-06	-3.220613e-06	-1.647269e-08	-2.310296e+01	-1.078196e+03
2.800000e-06	-3.313132e-06	-1.680098e-08	-2.376664e+01	-1.099807e+03
2.810000e-06	-3.404450e-06	-1.711189e-08	-2.442171e+01	-1.120220e+03
2.820000e-06	-3.494635e-06	-1.740756e-08	-2.506865e+01	-1.139528e+03
2.830000e-06	-3.583583e-06	-1.768893e-08	-2.570671e+01	-1.157825e+03
2.840000e-06	-3.671254e-06	-1.795610e-08	-2.633562e+01	-1.175201e+03
2.850000e-06	-3.757563e-06	-1.820876e-08	-2.695475e+01	-1.191731e+03
2.860000e-06	-3.842405e-06	-1.844870e-08	-2.756337e+01	-1.207476e+03
2.870000e-06	-3.925922e-06	-1.867770e-08	-2.816247e+01	-1.222482e+03
2.880000e-06	-4.008218e-06	-1.889786e-08	-2.875282e+01	-1.236783e+03
2.890000e-06	-4.089108e-06	-1.910836e-08	-2.933308e+01	-1.250406e+03
2.900000e-06	-4.168437e-06	-1.930855e-08	-2.990214e+01	-1.263376e+03
2.910000e-06	-4.246010e-06	-1.949959e-08	-3.045861e+01	-1.275719e+03
2.920000e-06	-4.321831e-06	-1.967980e-08	-3.100251e+01	-1.287467e+03
2.930000e-06	-4.396059e-06	-1.985019e-08	-3.153498e+01	-1.298654e+03
2.940000e-06	-4.468753e-06	-2.000944e-08	-3.205645e+01	-1.309317e+03
