# Temperatura_=_76.71
# Concentracion g/m^3_=_28200.0
# C_Vs_to_Am_M_A/Vsm_=_65563218390.804596
# pendiente_HvsI_1/m_=_3716.3
# ordenada_HvsI_A/m_=_1297.0
# frecuencia_Hz_=_301944.7790571458

Tiempo_(s)	Campo_(V.s)	Magnetizacion_(V.s)	Campo_(kA/m)	Magnetizacion_(A/m)
0.000000e+00	-5.830473e-06	-2.267446e-08	-4.192700e+01	-1.484541e+03
1.000000e-08	-5.827063e-06	-2.266759e-08	-4.190248e+01	-1.484108e+03
2.000000e-08	-5.821792e-06	-2.265658e-08	-4.186458e+01	-1.483515e+03
3.000000e-08	-5.814786e-06	-2.264750e-08	-4.181419e+01	-1.482746e+03
4.000000e-08	-5.805908e-06	-2.263142e-08	-4.175035e+01	-1.481785e+03
5.000000e-08	-5.794817e-06	-2.260759e-08	-4.167060e+01	-1.480617e+03
6.000000e-08	-5.781601e-06	-2.257990e-08	-4.157556e+01	-1.479237e+03
7.000000e-08	-5.766227e-06	-2.254156e-08	-4.146501e+01	-1.477649e+03
8.000000e-08	-5.748702e-06	-2.254606e-08	-4.133898e+01	-1.475867e+03
9.000000e-08	-5.729160e-06	-2.259812e-08	-4.119845e+01	-1.473913e+03
1.000000e-07	-5.707396e-06	-2.252645e-08	-4.104195e+01	-1.471812e+03
1.100000e-07	-5.683414e-06	-2.243476e-08	-4.086950e+01	-1.469590e+03
1.200000e-07	-5.657309e-06	-2.241173e-08	-4.068178e+01	-1.467266e+03
1.300000e-07	-5.629489e-06	-2.227944e-08	-4.048172e+01	-1.464846e+03
1.400000e-07	-5.600287e-06	-2.222281e-08	-4.027173e+01	-1.462323e+03
1.500000e-07	-5.569475e-06	-2.239620e-08	-4.005016e+01	-1.459677e+03
1.600000e-07	-5.536820e-06	-2.221930e-08	-3.981533e+01	-1.456875e+03
1.700000e-07	-5.502315e-06	-2.215059e-08	-3.956721e+01	-1.453880e+03
1.800000e-07	-5.465954e-06	-2.224404e-08	-3.930574e+01	-1.450655e+03
1.900000e-07	-5.427611e-06	-2.199090e-08	-3.903002e+01	-1.447166e+03
2.000000e-07	-5.387454e-06	-2.200474e-08	-3.874124e+01	-1.443395e+03
2.100000e-07	-5.345246e-06	-2.202799e-08	-3.843773e+01	-1.439336e+03
2.200000e-07	-5.300912e-06	-2.188142e-08	-3.811892e+01	-1.434997e+03
2.300000e-07	-5.254584e-06	-2.186193e-08	-3.778578e+01	-1.430398e+03
2.400000e-07	-5.206031e-06	-2.175656e-08	-3.743663e+01	-1.425563e+03
2.500000e-07	-5.155142e-06	-2.166121e-08	-3.707069e+01	-1.420518e+03
2.600000e-07	-5.102014e-06	-2.162563e-08	-3.668864e+01	-1.415282e+03
2.700000e-07	-5.047060e-06	-2.149815e-08	-3.629347e+01	-1.409863e+03
2.800000e-07	-4.990349e-06	-2.142940e-08	-3.588566e+01	-1.404257e+03
2.900000e-07	-4.931684e-06	-2.133620e-08	-3.546380e+01	-1.398449e+03
3.000000e-07	-4.871181e-06	-2.124640e-08	-3.502872e+01	-1.392419e+03
3.100000e-07	-4.808961e-06	-2.114873e-08	-3.458130e+01	-1.386139e+03
3.200000e-07	-4.745022e-06	-2.104697e-08	-3.412151e+01	-1.379587e+03
3.300000e-07	-4.679202e-06	-2.095138e-08	-3.364820e+01	-1.372746e+03
3.400000e-07	-4.611543e-06	-2.081173e-08	-3.316166e+01	-1.365606e+03
3.500000e-07	-4.542216e-06	-2.072410e-08	-3.266313e+01	-1.358164e+03
3.600000e-07	-4.471327e-06	-2.059427e-08	-3.215337e+01	-1.350423e+03
3.700000e-07	-4.399040e-06	-2.047442e-08	-3.163354e+01	-1.342387e+03
3.800000e-07	-4.324947e-06	-2.036636e-08	-3.110074e+01	-1.334055e+03
3.900000e-07	-4.248914e-06	-2.020425e-08	-3.055399e+01	-1.325424e+03
4.000000e-07	-4.171285e-06	-2.006299e-08	-2.999576e+01	-1.316479e+03
4.100000e-07	-4.091949e-06	-1.992851e-08	-2.942525e+01	-1.307201e+03
4.200000e-07	-4.010972e-06	-1.979100e-08	-2.884294e+01	-1.297569e+03
4.300000e-07	-3.928734e-06	-1.963455e-08	-2.825157e+01	-1.287560e+03
4.400000e-07	-3.845363e-06	-1.947065e-08	-2.765205e+01	-1.277154e+03
4.500000e-07	-3.760870e-06	-1.930730e-08	-2.704446e+01	-1.266340e+03
4.600000e-07	-3.675145e-06	-1.912628e-08	-2.642801e+01	-1.255111e+03
4.700000e-07	-3.588193e-06	-1.895276e-08	-2.580274e+01	-1.243465e+03
4.800000e-07	-3.500147e-06	-1.877551e-08	-2.516960e+01	-1.231400e+03
4.900000e-07	-3.410713e-06	-1.858652e-08	-2.452648e+01	-1.218908e+03
5.000000e-07	-3.319742e-06	-1.838404e-08	-2.387231e+01	-1.205974e+03
5.100000e-07	-3.227585e-06	-1.817143e-08	-2.320960e+01	-1.192574e+03
5.200000e-07	-3.134306e-06	-1.795640e-08	-2.253883e+01	-1.178670e+03
5.300000e-07	-3.039912e-06	-1.773234e-08	-2.186005e+01	-1.164219e+03
5.400000e-07	-2.944548e-06	-1.750387e-08	-2.117428e+01	-1.149171e+03
5.500000e-07	-2.848085e-06	-1.726589e-08	-2.048061e+01	-1.133479e+03
5.600000e-07	-2.750283e-06	-1.701169e-08	-1.977732e+01	-1.117102e+03
5.700000e-07	-2.651239e-06	-1.674635e-08	-1.906509e+01	-1.100004e+03
5.800000e-07	-2.551255e-06	-1.647240e-08	-1.834611e+01	-1.082156e+03
5.900000e-07	-2.450453e-06	-1.619017e-08	-1.762123e+01	-1.063534e+03
6.000000e-07	-2.348721e-06	-1.589291e-08	-1.688968e+01	-1.044109e+03
6.100000e-07	-2.246096e-06	-1.558418e-08	-1.615170e+01	-1.023848e+03
6.200000e-07	-2.142742e-06	-1.526038e-08	-1.540848e+01	-1.002702e+03
6.300000e-07	-2.038725e-06	-1.491973e-08	-1.466050e+01	-9.806102e+02
6.400000e-07	-1.933952e-06	-1.456490e-08	-1.390707e+01	-9.574949e+02
6.500000e-07	-1.828247e-06	-1.419321e-08	-1.314694e+01	-9.332663e+02
6.600000e-07	-1.721712e-06	-1.380255e-08	-1.238085e+01	-9.078256e+02
6.700000e-07	-1.614523e-06	-1.339114e-08	-1.161006e+01	-8.810705e+02
6.800000e-07	-1.506828e-06	-1.296121e-08	-1.083562e+01	-8.528987e+02
6.900000e-07	-1.398707e-06	-1.250761e-08	-1.005812e+01	-8.232109e+02
7.000000e-07	-1.290194e-06	-1.202694e-08	-9.277800e+00	-7.919124e+02
7.100000e-07	-1.181313e-06	-1.151859e-08	-8.494834e+00	-7.589149e+02
7.200000e-07	-1.072037e-06	-1.098551e-08	-7.709034e+00	-7.241387e+02
7.300000e-07	-9.623565e-07	-1.042861e-08	-6.920316e+00	-6.875180e+02
7.400000e-07	-8.523714e-07	-9.843092e-09	-6.129413e+00	-6.490091e+02
7.500000e-07	-7.421779e-07	-9.228603e-09	-5.337010e+00	-6.086016e+02
7.600000e-07	-6.317536e-07	-8.582914e-09	-4.542948e+00	-5.663313e+02
7.700000e-07	-5.211305e-07	-7.907867e-09	-3.747455e+00	-5.222907e+02
7.800000e-07	-4.103725e-07	-7.209904e-09	-2.950993e+00	-4.766353e+02
7.900000e-07	-2.995367e-07	-6.494710e-09	-2.153972e+00	-4.295814e+02
8.000000e-07	-1.885957e-07	-5.763658e-09	-1.356194e+00	-3.813926e+02
8.100000e-07	-7.753813e-08	-5.018277e-09	-5.575776e-01	-3.323563e+02
8.200000e-07	3.351901e-08	-4.264171e-09	2.410356e-01	-2.827510e+02
8.300000e-07	1.445694e-07	-3.503990e-09	1.039600e+00	-2.328106e+02
8.400000e-07	2.556315e-07	-2.739648e-09	1.838249e+00	-1.826901e+02
8.500000e-07	3.666437e-07	-1.973471e-09	2.636539e+00	-1.324420e+02
8.600000e-07	4.775616e-07	-1.207840e-09	3.434151e+00	-8.200746e+01
8.700000e-07	5.883890e-07	-4.348384e-10	4.231112e+00	-3.122700e+01
8.800000e-07	6.990740e-07	3.503216e-10	5.027050e+00	2.012895e+01
8.900000e-07	8.095622e-07	1.149975e-09	5.821571e+00	7.231393e+01
9.000000e-07	9.198363e-07	1.963544e-09	6.614554e+00	1.255499e+02
9.100000e-07	1.029827e-06	2.792959e-09	7.405499e+00	1.799716e+02
9.200000e-07	1.139478e-06	3.638771e-09	8.194002e+00	2.355811e+02
9.300000e-07	1.248716e-06	4.498275e-09	8.979531e+00	2.922198e+02
9.400000e-07	1.357493e-06	5.370093e-09	9.761747e+00	3.495645e+02
9.500000e-07	1.465837e-06	6.246760e-09	1.054085e+01	4.071479e+02
9.600000e-07	1.573754e-06	7.121908e-09	1.131688e+01	4.644005e+02
9.700000e-07	1.681190e-06	7.982729e-09	1.208945e+01	5.207080e+02
9.800000e-07	1.788025e-06	8.815329e-09	1.285771e+01	5.754728e+02
9.900000e-07	1.894108e-06	9.614190e-09	1.362055e+01	6.281717e+02
1.000000e-06	1.999347e-06	1.037476e-08	1.437733e+01	6.783999e+02
1.010000e-06	2.103699e-06	1.109272e-08	1.512772e+01	7.258961e+02
1.020000e-06	2.207154e-06	1.176624e-08	1.587167e+01	7.705459e+02
1.030000e-06	2.309784e-06	1.239825e-08	1.660968e+01	8.123669e+02
1.040000e-06	2.411657e-06	1.299057e-08	1.734225e+01	8.514782e+02
1.050000e-06	2.512685e-06	1.354622e-08	1.806875e+01	8.880644e+02
1.060000e-06	2.612879e-06	1.406704e-08	1.878924e+01	9.223381e+02
1.070000e-06	2.712213e-06	1.455768e-08	1.950356e+01	9.545100e+02
1.080000e-06	2.810509e-06	1.501909e-08	2.021040e+01	9.847680e+02
1.090000e-06	2.907651e-06	1.545197e-08	2.090895e+01	1.013269e+03
1.100000e-06	3.003585e-06	1.585823e-08	2.159882e+01	1.040138e+03
1.110000e-06	3.098406e-06	1.624076e-08	2.228068e+01	1.065481e+03
1.120000e-06	3.192195e-06	1.660198e-08	2.295511e+01	1.089388e+03
1.130000e-06	3.284961e-06	1.694448e-08	2.362220e+01	1.111949e+03
1.140000e-06	3.376736e-06	1.727102e-08	2.428215e+01	1.133255e+03
1.150000e-06	3.467459e-06	1.757958e-08	2.493454e+01	1.153402e+03
1.160000e-06	3.556890e-06	1.787202e-08	2.557764e+01	1.172487e+03
1.170000e-06	3.644829e-06	1.814848e-08	2.621001e+01	1.190601e+03
1.180000e-06	3.731463e-06	1.841015e-08	2.683299e+01	1.207822e+03
1.190000e-06	3.816939e-06	1.865816e-08	2.744765e+01	1.224217e+03
1.200000e-06	3.901229e-06	1.889435e-08	2.805378e+01	1.239833e+03
1.210000e-06	3.984339e-06	1.911776e-08	2.865143e+01	1.254708e+03
1.220000e-06	4.065970e-06	1.933102e-08	2.923844e+01	1.268869e+03
1.230000e-06	4.145919e-06	1.953427e-08	2.981335e+01	1.282343e+03
1.240000e-06	4.224358e-06	1.972715e-08	3.037741e+01	1.295160e+03
1.250000e-06	4.301332e-06	1.991125e-08	3.093093e+01	1.307354e+03
1.260000e-06	4.376714e-06	2.008712e-08	3.147300e+01	1.318967e+03
1.270000e-06	4.450340e-06	2.025499e-08	3.200245e+01	1.330040e+03
1.280000e-06	4.522146e-06	2.041532e-08	3.251880e+01	1.340613e+03
1.290000e-06	4.592196e-06	2.056885e-08	3.302253e+01	1.350717e+03
1.300000e-06	4.660641e-06	2.071687e-08	3.351473e+01	1.360375e+03
1.310000e-06	4.727507e-06	2.085879e-08	3.399556e+01	1.369593e+03
1.320000e-06	4.792536e-06	2.099312e-08	3.446318e+01	1.378372e+03
1.330000e-06	4.855745e-06	2.111977e-08	3.491772e+01	1.386704e+03
1.340000e-06	4.917352e-06	2.124069e-08	3.536073e+01	1.394584e+03
1.350000e-06	4.977397e-06	2.135497e-08	3.579252e+01	1.402015e+03
1.360000e-06	5.035718e-06	2.146136e-08	3.621191e+01	1.409007e+03
1.370000e-06	5.092111e-06	2.156137e-08	3.661743e+01	1.415584e+03
1.380000e-06	5.146650e-06	2.165552e-08	3.700962e+01	1.421782e+03
1.390000e-06	5.199308e-06	2.174413e-08	3.738828e+01	1.427640e+03
1.400000e-06	5.249758e-06	2.182705e-08	3.775107e+01	1.433199e+03
1.410000e-06	5.298001e-06	2.190601e-08	3.809798e+01	1.438494e+03
1.420000e-06	5.344333e-06	2.198289e-08	3.843116e+01	1.443549e+03
1.430000e-06	5.388922e-06	2.205705e-08	3.875180e+01	1.448377e+03
1.440000e-06	5.431699e-06	2.212769e-08	3.905941e+01	1.452977e+03
1.450000e-06	5.472434e-06	2.219543e-08	3.935234e+01	1.457340e+03
1.460000e-06	5.511186e-06	2.225847e-08	3.963101e+01	1.461453e+03
1.470000e-06	5.548175e-06	2.231652e-08	3.989699e+01	1.465302e+03
1.480000e-06	5.583363e-06	2.237001e-08	4.015003e+01	1.468876e+03
1.490000e-06	5.616479e-06	2.242104e-08	4.038816e+01	1.472173e+03
1.500000e-06	5.647508e-06	2.246984e-08	4.061130e+01	1.475194e+03
1.510000e-06	5.676633e-06	2.251344e-08	4.082074e+01	1.477949e+03
1.520000e-06	5.703874e-06	2.255164e-08	4.101662e+01	1.480448e+03
1.530000e-06	5.728967e-06	2.258521e-08	4.119707e+01	1.482702e+03
1.540000e-06	5.751796e-06	2.261434e-08	4.136123e+01	1.484719e+03
1.550000e-06	5.772656e-06	2.263972e-08	4.151124e+01	1.486504e+03
1.560000e-06	5.791662e-06	2.266310e-08	4.164791e+01	1.488058e+03
1.570000e-06	5.808539e-06	2.268408e-08	4.176927e+01	1.489382e+03
1.580000e-06	5.823223e-06	2.270214e-08	4.187487e+01	1.490477e+03
1.590000e-06	5.835809e-06	2.271675e-08	4.196537e+01	1.491347e+03
1.600000e-06	5.846022e-06	2.272711e-08	4.203882e+01	1.492002e+03
1.610000e-06	5.853858e-06	2.273596e-08	4.209516e+01	1.492453e+03
1.620000e-06	5.859575e-06	2.274298e-08	4.213627e+01	1.492720e+03
1.630000e-06	5.863396e-06	2.274755e-08	4.216375e+01	1.492817e+03
1.640000e-06	5.865141e-06	2.275183e-08	4.217630e+01	1.492760e+03
1.650000e-06	5.864700e-06	2.275085e-08	4.217313e+01	1.492556e+03
1.660000e-06	5.862338e-06	2.273607e-08	4.215614e+01	1.492208e+03
1.670000e-06	5.858201e-06	2.272524e-08	4.212639e+01	1.491706e+03
1.680000e-06	5.852045e-06	2.271648e-08	4.208212e+01	1.491038e+03
1.690000e-06	5.843837e-06	2.270618e-08	4.202310e+01	1.490187e+03
1.700000e-06	5.833954e-06	2.269657e-08	4.195203e+01	1.489136e+03
1.710000e-06	5.822220e-06	2.268797e-08	4.186765e+01	1.487876e+03
1.720000e-06	5.808217e-06	2.269251e-08	4.176696e+01	1.486404e+03
1.730000e-06	5.792186e-06	2.262834e-08	4.165168e+01	1.484729e+03
1.740000e-06	5.774219e-06	2.249767e-08	4.152248e+01	1.482868e+03
1.750000e-06	5.753667e-06	2.251530e-08	4.137469e+01	1.480846e+03
1.760000e-06	5.730267e-06	2.252610e-08	4.120641e+01	1.478689e+03
1.770000e-06	5.704555e-06	2.250090e-08	4.102152e+01	1.476420e+03
1.780000e-06	5.677313e-06	2.262093e-08	4.082562e+01	1.474052e+03
1.790000e-06	5.649200e-06	2.242201e-08	4.062346e+01	1.471588e+03
1.800000e-06	5.619723e-06	2.229430e-08	4.041149e+01	1.469014e+03
1.810000e-06	5.587787e-06	2.245797e-08	4.018184e+01	1.466304e+03
1.820000e-06	5.553917e-06	2.223250e-08	3.993828e+01	1.463423e+03
1.830000e-06	5.518420e-06	2.227803e-08	3.968302e+01	1.460331e+03
1.840000e-06	5.480649e-06	2.237004e-08	3.941141e+01	1.456995e+03
1.850000e-06	5.440792e-06	2.204189e-08	3.912480e+01	1.453385e+03
1.860000e-06	5.399024e-06	2.209933e-08	3.882445e+01	1.449489e+03
1.870000e-06	5.355483e-06	2.202727e-08	3.851134e+01	1.445306e+03
1.880000e-06	5.310330e-06	2.189067e-08	3.818665e+01	1.440851e+03
1.890000e-06	5.263004e-06	2.197004e-08	3.784632e+01	1.436146e+03
1.900000e-06	5.213482e-06	2.173353e-08	3.749021e+01	1.431216e+03
1.910000e-06	5.161899e-06	2.175936e-08	3.711928e+01	1.426086e+03
1.920000e-06	5.108101e-06	2.172524e-08	3.673241e+01	1.420769e+03
1.930000e-06	5.052374e-06	2.150996e-08	3.633168e+01	1.415269e+03
1.940000e-06	4.994739e-06	2.153080e-08	3.591723e+01	1.409577e+03
1.950000e-06	4.935339e-06	2.136173e-08	3.549008e+01	1.403675e+03
1.960000e-06	4.874241e-06	2.132260e-08	3.505073e+01	1.397539e+03
1.970000e-06	4.811136e-06	2.120917e-08	3.459694e+01	1.391144e+03
1.980000e-06	4.746209e-06	2.106338e-08	3.413005e+01	1.384468e+03
1.990000e-06	4.679659e-06	2.106433e-08	3.365148e+01	1.377497e+03
2.000000e-06	4.611569e-06	2.088005e-08	3.316185e+01	1.370226e+03
2.010000e-06	4.541672e-06	2.079970e-08	3.265922e+01	1.362653e+03
2.020000e-06	4.469892e-06	2.063437e-08	3.214305e+01	1.354784e+03
2.030000e-06	4.396597e-06	2.051523e-08	3.161598e+01	1.346620e+03
2.040000e-06	4.321794e-06	2.044291e-08	3.107807e+01	1.338159e+03
2.050000e-06	4.245344e-06	2.024585e-08	3.052832e+01	1.329393e+03
2.060000e-06	4.167035e-06	2.014916e-08	2.996520e+01	1.320307e+03
2.070000e-06	4.087089e-06	1.998418e-08	2.939031e+01	1.310878e+03
2.080000e-06	4.005770e-06	1.985407e-08	2.880554e+01	1.301085e+03
2.090000e-06	3.923066e-06	1.969536e-08	2.821081e+01	1.290906e+03
2.100000e-06	3.839138e-06	1.953068e-08	2.760729e+01	1.280325e+03
2.110000e-06	3.754002e-06	1.939186e-08	2.699507e+01	1.269332e+03
2.120000e-06	3.667417e-06	1.918355e-08	2.637244e+01	1.257923e+03
2.130000e-06	3.579346e-06	1.900634e-08	2.573912e+01	1.246095e+03
2.140000e-06	3.489985e-06	1.880384e-08	2.509652e+01	1.233846e+03
2.150000e-06	3.399440e-06	1.863100e-08	2.444541e+01	1.221166e+03
2.160000e-06	3.307796e-06	1.843996e-08	2.378640e+01	1.208035e+03
2.170000e-06	3.215087e-06	1.824211e-08	2.311973e+01	1.194422e+03
2.180000e-06	3.121169e-06	1.803338e-08	2.244436e+01	1.180287e+03
2.190000e-06	3.025936e-06	1.780105e-08	2.175954e+01	1.165584e+03
2.200000e-06	2.929520e-06	1.757085e-08	2.106621e+01	1.150264e+03
2.210000e-06	2.832090e-06	1.732245e-08	2.036559e+01	1.134282e+03
2.220000e-06	2.733689e-06	1.707490e-08	1.965799e+01	1.117598e+03
2.230000e-06	2.634393e-06	1.680562e-08	1.894395e+01	1.100180e+03
2.240000e-06	2.534244e-06	1.653329e-08	1.822378e+01	1.082001e+03
2.250000e-06	2.433195e-06	1.624406e-08	1.749714e+01	1.063037e+03
2.260000e-06	2.331157e-06	1.594333e-08	1.676338e+01	1.043257e+03
2.270000e-06	2.227986e-06	1.563366e-08	1.602147e+01	1.022621e+03
2.280000e-06	2.123849e-06	1.531233e-08	1.527262e+01	1.001077e+03
2.290000e-06	2.019067e-06	1.497348e-08	1.451913e+01	9.785547e+02
2.300000e-06	1.913601e-06	1.461084e-08	1.376072e+01	9.549721e+02
2.310000e-06	1.807415e-06	1.423091e-08	1.299714e+01	9.302346e+02
2.320000e-06	1.700693e-06	1.382909e-08	1.222970e+01	9.042415e+02
2.330000e-06	1.593519e-06	1.341307e-08	1.145902e+01	8.768898e+02
2.340000e-06	1.485896e-06	1.297842e-08	1.068510e+01	8.480784e+02
2.350000e-06	1.377837e-06	1.252460e-08	9.908043e+00	8.177098e+02
2.360000e-06	1.269372e-06	1.204326e-08	9.128069e+00	7.856918e+02
2.370000e-06	1.160592e-06	1.153273e-08	8.345828e+00	7.519392e+02
2.380000e-06	1.051523e-06	1.098939e-08	7.561515e+00	7.163777e+02
2.390000e-06	9.421112e-07	1.041489e-08	6.774733e+00	6.789497e+02
2.400000e-06	8.323650e-07	9.813292e-09	5.985546e+00	6.396242e+02
2.410000e-06	7.222878e-07	9.183619e-09	5.193980e+00	5.984091e+02
2.420000e-06	6.119021e-07	8.526346e-09	4.400195e+00	5.553633e+02
2.430000e-06	5.012947e-07	7.841156e-09	3.604816e+00	5.106062e+02
2.440000e-06	3.905166e-07	7.134543e-09	2.808210e+00	4.643200e+02
2.450000e-06	2.796223e-07	6.406881e-09	2.010767e+00	4.167436e+02
2.460000e-06	1.685470e-07	5.664301e-09	1.212024e+00	3.681543e+02
2.470000e-06	5.737486e-08	4.912501e-09	4.125833e-01	3.188400e+02
2.480000e-06	-5.372361e-08	4.155986e-09	-3.863271e-01	2.690646e+02
2.490000e-06	-1.647638e-07	3.392703e-09	-1.184819e+00	2.190318e+02
2.500000e-06	-2.757577e-07	2.621020e-09	-1.982977e+00	1.688549e+02
2.510000e-06	-3.867019e-07	1.847250e-09	-2.780778e+00	1.185386e+02
2.520000e-06	-4.974641e-07	1.072060e-09	-3.577270e+00	6.797853e+01
2.530000e-06	-6.080331e-07	2.938175e-10	-4.372373e+00	1.698036e+01
2.540000e-06	-7.183988e-07	-4.931103e-10	-5.166014e+00	-3.470217e+01
2.550000e-06	-8.284188e-07	-1.292868e-09	-5.957169e+00	-8.731604e+01
2.560000e-06	-9.380895e-07	-2.109444e-09	-6.745812e+00	-1.410523e+02
2.570000e-06	-1.047471e-06	-2.947934e-09	-7.532373e+00	-1.959936e+02
2.580000e-06	-1.156559e-06	-3.803991e-09	-8.316832e+00	-2.520752e+02
2.590000e-06	-1.265306e-06	-4.672826e-09	-9.098829e+00	-3.090670e+02
2.600000e-06	-1.373672e-06	-5.551474e-09	-9.878092e+00	-3.665801e+02
2.610000e-06	-1.481560e-06	-6.432093e-09	-1.065391e+01	-4.240973e+02
2.620000e-06	-1.588911e-06	-7.306885e-09	-1.142588e+01	-4.810224e+02
2.630000e-06	-1.695768e-06	-8.165379e-09	-1.219429e+01	-5.367405e+02
2.640000e-06	-1.802049e-06	-8.993309e-09	-1.295855e+01	-5.906797e+02
2.650000e-06	-1.907632e-06	-9.781512e-09	-1.371780e+01	-6.423630e+02
2.660000e-06	-2.012520e-06	-1.052891e-08	-1.447205e+01	-6.914455e+02
2.670000e-06	-2.116724e-06	-1.123607e-08	-1.522139e+01	-7.377293e+02
2.680000e-06	-2.220084e-06	-1.190113e-08	-1.596465e+01	-7.811597e+02
2.690000e-06	-2.322395e-06	-1.252629e-08	-1.670037e+01	-8.218019e+02
2.700000e-06	-2.423714e-06	-1.311434e-08	-1.742896e+01	-8.598078e+02
2.710000e-06	-2.524101e-06	-1.366575e-08	-1.815084e+01	-8.953782e+02
2.720000e-06	-2.623601e-06	-1.417928e-08	-1.886635e+01	-9.287281e+02
2.730000e-06	-2.722293e-06	-1.465728e-08	-1.957604e+01	-9.600602e+02
2.740000e-06	-2.820017e-06	-1.510718e-08	-2.027877e+01	-9.895496e+02
2.750000e-06	-2.916784e-06	-1.552998e-08	-2.097463e+01	-1.017339e+03
2.760000e-06	-3.012673e-06	-1.592854e-08	-2.166417e+01	-1.043544e+03
2.770000e-06	-3.107534e-06	-1.630763e-08	-2.234631e+01	-1.068263e+03
2.780000e-06	-3.201240e-06	-1.666454e-08	-2.302016e+01	-1.091584e+03
2.790000e-06	-3.293675e-06	-1.699887e-08	-2.368485e+01	-1.113597e+03
2.800000e-06	-3.384841e-06	-1.731503e-08	-2.434043e+01	-1.134396e+03
2.810000e-06	-3.474797e-06	-1.761619e-08	-2.498731e+01	-1.154079e+03
2.820000e-06	-3.563619e-06	-1.790377e-08	-2.562602e+01	-1.172739e+03
2.830000e-06	-3.651249e-06	-1.817787e-08	-2.625618e+01	-1.190463e+03
2.840000e-06	-3.737481e-06	-1.843780e-08	-2.687627e+01	-1.207324e+03
2.850000e-06	-3.822316e-06	-1.868367e-08	-2.748632e+01	-1.223382e+03
2.860000e-06	-3.905884e-06	-1.891650e-08	-2.808726e+01	-1.238679e+03
2.870000e-06	-3.988144e-06	-1.913728e-08	-2.867879e+01	-1.253246e+03
2.880000e-06	-4.069042e-06	-1.934818e-08	-2.926053e+01	-1.267111e+03
2.890000e-06	-4.148496e-06	-1.955116e-08	-2.983188e+01	-1.280302e+03
2.900000e-06	-4.226221e-06	-1.974647e-08	-3.039080e+01	-1.292849e+03
2.910000e-06	-4.302164e-06	-1.993247e-08	-3.093691e+01	-1.304790e+03
2.920000e-06	-4.376463e-06	-2.010908e-08	-3.147120e+01	-1.316168e+03
2.930000e-06	-4.449181e-06	-2.027566e-08	-3.199412e+01	-1.327024e+03
2.940000e-06	-4.520243e-06	-2.043338e-08	-3.250512e+01	-1.337395e+03
