# Temperatura_=_82.92
# Concentracion g/m^3_=_28200.0
# C_Vs_to_Am_M_A/Vsm_=_65563218390.804596
# pendiente_HvsI_1/m_=_3716.3
# ordenada_HvsI_A/m_=_1297.0
# frecuencia_Hz_=_301945.0963183203

Tiempo_(s)	Campo_(V.s)	Magnetizacion_(V.s)	Campo_(kA/m)	Magnetizacion_(A/m)
0.000000e+00	-5.819663e-06	-2.425600e-08	-4.194512e+01	-1.589119e+03
1.000000e-08	-5.818183e-06	-2.425493e-08	-4.193445e+01	-1.588771e+03
2.000000e-08	-5.814627e-06	-2.424822e-08	-4.190882e+01	-1.588262e+03
3.000000e-08	-5.809231e-06	-2.423557e-08	-4.186993e+01	-1.587587e+03
4.000000e-08	-5.802049e-06	-2.422292e-08	-4.181816e+01	-1.586730e+03
5.000000e-08	-5.792978e-06	-2.420493e-08	-4.175279e+01	-1.585676e+03
6.000000e-08	-5.781709e-06	-2.418322e-08	-4.167156e+01	-1.584406e+03
7.000000e-08	-5.768355e-06	-2.415728e-08	-4.157531e+01	-1.582912e+03
8.000000e-08	-5.752900e-06	-2.411675e-08	-4.146392e+01	-1.581191e+03
9.000000e-08	-5.735320e-06	-2.412169e-08	-4.133722e+01	-1.579256e+03
1.000000e-07	-5.715720e-06	-2.417143e-08	-4.119595e+01	-1.577128e+03
1.100000e-07	-5.693900e-06	-2.409043e-08	-4.103869e+01	-1.574838e+03
1.200000e-07	-5.669848e-06	-2.399475e-08	-4.086533e+01	-1.572419e+03
1.300000e-07	-5.643621e-06	-2.396716e-08	-4.067630e+01	-1.569899e+03
1.400000e-07	-5.615695e-06	-2.382724e-08	-4.047502e+01	-1.567294e+03
1.500000e-07	-5.586441e-06	-2.378802e-08	-4.026417e+01	-1.564603e+03
1.600000e-07	-5.555566e-06	-2.396381e-08	-4.004164e+01	-1.561810e+03
1.700000e-07	-5.522880e-06	-2.375422e-08	-3.980606e+01	-1.558877e+03
1.800000e-07	-5.488360e-06	-2.368871e-08	-3.955726e+01	-1.555760e+03
1.900000e-07	-5.451917e-06	-2.377028e-08	-3.929459e+01	-1.552407e+03
2.000000e-07	-5.413514e-06	-2.349930e-08	-3.901780e+01	-1.548771e+03
2.100000e-07	-5.373297e-06	-2.354245e-08	-3.872794e+01	-1.544819e+03
2.200000e-07	-5.331029e-06	-2.357126e-08	-3.842329e+01	-1.540534e+03
2.300000e-07	-5.286692e-06	-2.341551e-08	-3.810373e+01	-1.535918e+03
2.400000e-07	-5.240441e-06	-2.339291e-08	-3.777038e+01	-1.530990e+03
2.500000e-07	-5.191959e-06	-2.327190e-08	-3.742095e+01	-1.525779e+03
2.600000e-07	-5.141081e-06	-2.315781e-08	-3.705425e+01	-1.520319e+03
2.700000e-07	-5.087941e-06	-2.310633e-08	-3.667124e+01	-1.514639e+03
2.800000e-07	-5.032969e-06	-2.297941e-08	-3.627504e+01	-1.508757e+03
2.900000e-07	-4.976229e-06	-2.291722e-08	-3.586608e+01	-1.502677e+03
3.000000e-07	-4.917514e-06	-2.281581e-08	-3.544289e+01	-1.496388e+03
3.100000e-07	-4.856968e-06	-2.271556e-08	-3.500651e+01	-1.489868e+03
3.200000e-07	-4.794712e-06	-2.260553e-08	-3.455780e+01	-1.483089e+03
3.300000e-07	-4.730788e-06	-2.249462e-08	-3.409707e+01	-1.476024e+03
3.400000e-07	-4.665031e-06	-2.239212e-08	-3.362313e+01	-1.468652e+03
3.500000e-07	-4.597401e-06	-2.224655e-08	-3.313568e+01	-1.460957e+03
3.600000e-07	-4.528070e-06	-2.215504e-08	-3.263598e+01	-1.452935e+03
3.700000e-07	-4.457224e-06	-2.201240e-08	-3.212536e+01	-1.444588e+03
3.800000e-07	-4.384981e-06	-2.187746e-08	-3.160467e+01	-1.435918e+03
3.900000e-07	-4.310937e-06	-2.175657e-08	-3.107100e+01	-1.426928e+03
4.000000e-07	-4.235004e-06	-2.159023e-08	-3.052372e+01	-1.417612e+03
4.100000e-07	-4.157466e-06	-2.144642e-08	-2.996486e+01	-1.407960e+03
4.200000e-07	-4.078196e-06	-2.130128e-08	-2.939353e+01	-1.397952e+03
4.300000e-07	-3.997326e-06	-2.114943e-08	-2.881065e+01	-1.387567e+03
4.400000e-07	-3.915184e-06	-2.097577e-08	-2.821862e+01	-1.376782e+03
4.500000e-07	-3.831831e-06	-2.079588e-08	-2.761786e+01	-1.365578e+03
4.600000e-07	-3.747327e-06	-2.061788e-08	-2.700879e+01	-1.353943e+03
4.700000e-07	-3.661647e-06	-2.042512e-08	-2.639126e+01	-1.341870e+03
4.800000e-07	-3.574849e-06	-2.024385e-08	-2.576566e+01	-1.329356e+03
4.900000e-07	-3.486935e-06	-2.005842e-08	-2.513202e+01	-1.316397e+03
5.000000e-07	-3.397584e-06	-1.985782e-08	-2.448802e+01	-1.302983e+03
5.100000e-07	-3.306737e-06	-1.963906e-08	-2.383325e+01	-1.289095e+03
5.200000e-07	-3.214717e-06	-1.940806e-08	-2.317001e+01	-1.274702e+03
5.300000e-07	-3.121623e-06	-1.917624e-08	-2.249904e+01	-1.259766e+03
5.400000e-07	-3.027396e-06	-1.893723e-08	-2.181990e+01	-1.244236e+03
5.500000e-07	-2.932131e-06	-1.869290e-08	-2.113328e+01	-1.228065e+03
5.600000e-07	-2.835801e-06	-1.843636e-08	-2.043898e+01	-1.211203e+03
5.700000e-07	-2.738202e-06	-1.816198e-08	-1.973554e+01	-1.193611e+03
5.800000e-07	-2.639427e-06	-1.787522e-08	-1.902362e+01	-1.175255e+03
5.900000e-07	-2.539679e-06	-1.758156e-08	-1.830469e+01	-1.156109e+03
6.000000e-07	-2.439004e-06	-1.728468e-08	-1.757908e+01	-1.136145e+03
6.100000e-07	-2.337469e-06	-1.697314e-08	-1.684727e+01	-1.115333e+03
6.200000e-07	-2.235089e-06	-1.664553e-08	-1.610936e+01	-1.093631e+03
6.300000e-07	-2.131950e-06	-1.629574e-08	-1.536599e+01	-1.070982e+03
6.400000e-07	-2.028086e-06	-1.592554e-08	-1.461740e+01	-1.047312e+03
6.500000e-07	-1.923430e-06	-1.554118e-08	-1.386309e+01	-1.022531e+03
6.600000e-07	-1.818015e-06	-1.514349e-08	-1.310331e+01	-9.965387e+02
6.700000e-07	-1.711829e-06	-1.472973e-08	-1.233798e+01	-9.692298e+02
6.800000e-07	-1.604934e-06	-1.429195e-08	-1.156753e+01	-9.404976e+02
6.900000e-07	-1.497424e-06	-1.382997e-08	-1.079266e+01	-9.102388e+02
7.000000e-07	-1.389427e-06	-1.333983e-08	-1.001427e+01	-8.783550e+02
7.100000e-07	-1.281089e-06	-1.282445e-08	-9.233423e+00	-8.447522e+02
7.200000e-07	-1.172401e-06	-1.228401e-08	-8.450059e+00	-8.093401e+02
7.300000e-07	-1.063332e-06	-1.171825e-08	-7.663946e+00	-7.720341e+02
7.400000e-07	-9.539168e-07	-1.112385e-08	-6.875339e+00	-7.327592e+02
7.500000e-07	-8.442023e-07	-1.049493e-08	-6.084573e+00	-6.914601e+02
7.600000e-07	-7.342189e-07	-9.834310e-09	-5.291869e+00	-6.481144e+02
7.700000e-07	-6.240280e-07	-9.142238e-09	-4.497671e+00	-6.027486e+02
7.800000e-07	-5.136466e-07	-8.419581e-09	-3.702099e+00	-5.554516e+02
7.900000e-07	-4.031091e-07	-7.670291e-09	-2.905402e+00	-5.063834e+02
8.000000e-07	-2.924718e-07	-6.901283e-09	-2.107985e+00	-4.557730e+02
8.100000e-07	-1.817413e-07	-6.113332e-09	-1.309897e+00	-4.039042e+02
8.200000e-07	-7.090326e-08	-5.308394e-09	-5.110340e-01	-3.510888e+02
8.300000e-07	4.000356e-08	-4.494019e-09	2.883250e-01	-2.976296e+02
8.400000e-07	1.509086e-07	-3.673907e-09	1.087671e+00	-2.437797e+02
8.500000e-07	2.617971e-07	-2.851261e-09	1.886898e+00	-1.897050e+02
8.600000e-07	3.725925e-07	-2.025744e-09	2.685454e+00	-1.354573e+02
8.700000e-07	4.833187e-07	-1.199389e-09	3.483511e+00	-8.096698e+01
8.800000e-07	5.939385e-07	-3.663221e-10	4.280801e+00	-2.605610e+01
8.900000e-07	7.043885e-07	4.802744e-10	5.076867e+00	2.952585e+01
9.000000e-07	8.146669e-07	1.343524e-09	5.871697e+00	8.604897e+01
9.100000e-07	9.246677e-07	2.223022e-09	6.664526e+00	1.437409e+02
9.200000e-07	1.034364e-06	3.118602e-09	7.455161e+00	2.027259e+02
9.300000e-07	1.143729e-06	4.031007e-09	8.243405e+00	2.629764e+02
9.400000e-07	1.252714e-06	4.961057e-09	9.028915e+00	3.242856e+02
9.500000e-07	1.361274e-06	5.906946e-09	9.811354e+00	3.862669e+02
9.600000e-07	1.469407e-06	6.858025e-09	1.059072e+01	4.483810e+02
9.700000e-07	1.577111e-06	7.802990e-09	1.136700e+01	5.099859e+02
9.800000e-07	1.684368e-06	8.724176e-09	1.214005e+01	5.704023e+02
9.900000e-07	1.790967e-06	9.611052e-09	1.290837e+01	6.289826e+02
1.000000e-06	1.896633e-06	1.046120e-08	1.366994e+01	6.851735e+02
1.010000e-06	2.001347e-06	1.127121e-08	1.442468e+01	7.385619e+02
1.020000e-06	2.105289e-06	1.203664e-08	1.517383e+01	7.888981e+02
1.030000e-06	2.208511e-06	1.275358e-08	1.591781e+01	8.360965e+02
1.040000e-06	2.310890e-06	1.342373e-08	1.665570e+01	8.802134e+02
1.050000e-06	2.412384e-06	1.404683e-08	1.738722e+01	9.214113e+02
1.060000e-06	2.513044e-06	1.463016e-08	1.811272e+01	9.599156e+02
1.070000e-06	2.612945e-06	1.517713e-08	1.883275e+01	9.959737e+02
1.080000e-06	2.712008e-06	1.569307e-08	1.954675e+01	1.029821e+03
1.090000e-06	2.810055e-06	1.617704e-08	2.025342e+01	1.061662e+03
1.100000e-06	2.906871e-06	1.663202e-08	2.095122e+01	1.091659e+03
1.110000e-06	3.002488e-06	1.706058e-08	2.164038e+01	1.119941e+03
1.120000e-06	3.097090e-06	1.746349e-08	2.232222e+01	1.146611e+03
1.130000e-06	3.190704e-06	1.784455e-08	2.299694e+01	1.171759e+03
1.140000e-06	3.283316e-06	1.820566e-08	2.366444e+01	1.195479e+03
1.150000e-06	3.374966e-06	1.854861e-08	2.432500e+01	1.217867e+03
1.160000e-06	3.465489e-06	1.887073e-08	2.497745e+01	1.239030e+03
1.170000e-06	3.554485e-06	1.917599e-08	2.561889e+01	1.259075e+03
1.180000e-06	3.642043e-06	1.946610e-08	2.624996e+01	1.278105e+03
1.190000e-06	3.728410e-06	1.974189e-08	2.687245e+01	1.296210e+03
1.200000e-06	3.813634e-06	2.000369e-08	2.748670e+01	1.313462e+03
1.210000e-06	3.897747e-06	2.025275e-08	2.809294e+01	1.329911e+03
1.220000e-06	3.980615e-06	2.048837e-08	2.869021e+01	1.345591e+03
1.230000e-06	4.061896e-06	2.071471e-08	2.927604e+01	1.360527e+03
1.240000e-06	4.141510e-06	2.092939e-08	2.984986e+01	1.374738e+03
1.250000e-06	4.219684e-06	2.113175e-08	3.041330e+01	1.388248e+03
1.260000e-06	4.296372e-06	2.132483e-08	3.096602e+01	1.401090e+03
1.270000e-06	4.371397e-06	2.151035e-08	3.150676e+01	1.413304e+03
1.280000e-06	4.444612e-06	2.168855e-08	3.203446e+01	1.424937e+03
1.290000e-06	4.516081e-06	2.185812e-08	3.254957e+01	1.436038e+03
1.300000e-06	4.585943e-06	2.202002e-08	3.305311e+01	1.446649e+03
1.310000e-06	4.654228e-06	2.217476e-08	3.354527e+01	1.456801e+03
1.320000e-06	4.720892e-06	2.232255e-08	3.402575e+01	1.466512e+03
1.330000e-06	4.785692e-06	2.246410e-08	3.449279e+01	1.475785e+03
1.340000e-06	4.848716e-06	2.259975e-08	3.494703e+01	1.484616e+03
1.350000e-06	4.910098e-06	2.272898e-08	3.538944e+01	1.492993e+03
1.360000e-06	4.969916e-06	2.285003e-08	3.582058e+01	1.500911e+03
1.370000e-06	5.028041e-06	2.296188e-08	3.623952e+01	1.508372e+03
1.380000e-06	5.084178e-06	2.306664e-08	3.664412e+01	1.515389e+03
1.390000e-06	5.138443e-06	2.316753e-08	3.703524e+01	1.521989e+03
1.400000e-06	5.190839e-06	2.326385e-08	3.741288e+01	1.528208e+03
1.410000e-06	5.241020e-06	2.335466e-08	3.777455e+01	1.534087e+03
1.420000e-06	5.288977e-06	2.343989e-08	3.812021e+01	1.539666e+03
1.430000e-06	5.335046e-06	2.352053e-08	3.845225e+01	1.544976e+03
1.440000e-06	5.379423e-06	2.359734e-08	3.877210e+01	1.550039e+03
1.450000e-06	5.421988e-06	2.366974e-08	3.907888e+01	1.554863e+03
1.460000e-06	5.462457e-06	2.373935e-08	3.937056e+01	1.559444e+03
1.470000e-06	5.501021e-06	2.380602e-08	3.964851e+01	1.563772e+03
1.480000e-06	5.537870e-06	2.386862e-08	3.991410e+01	1.567832e+03
1.490000e-06	5.572866e-06	2.392614e-08	4.016633e+01	1.571609e+03
1.500000e-06	5.605741e-06	2.397935e-08	4.040328e+01	1.575097e+03
1.510000e-06	5.636527e-06	2.403027e-08	4.062517e+01	1.578293e+03
1.520000e-06	5.665501e-06	2.407678e-08	4.083400e+01	1.581202e+03
1.530000e-06	5.692617e-06	2.411780e-08	4.102944e+01	1.583836e+03
1.540000e-06	5.717533e-06	2.415354e-08	4.120902e+01	1.586208e+03
1.550000e-06	5.740184e-06	2.418410e-08	4.137228e+01	1.588329e+03
1.560000e-06	5.760913e-06	2.421143e-08	4.152168e+01	1.590210e+03
1.570000e-06	5.779715e-06	2.423581e-08	4.165720e+01	1.591855e+03
1.580000e-06	5.796352e-06	2.425737e-08	4.177710e+01	1.593266e+03
1.590000e-06	5.810805e-06	2.427613e-08	4.188127e+01	1.594444e+03
1.600000e-06	5.823108e-06	2.429200e-08	4.196994e+01	1.595390e+03
1.610000e-06	5.833041e-06	2.430480e-08	4.204154e+01	1.596106e+03
1.620000e-06	5.840712e-06	2.431515e-08	4.209683e+01	1.596600e+03
1.630000e-06	5.846378e-06	2.432287e-08	4.213766e+01	1.596886e+03
1.640000e-06	5.850124e-06	2.432650e-08	4.216466e+01	1.596978e+03
1.650000e-06	5.851738e-06	2.432990e-08	4.217630e+01	1.596892e+03
1.660000e-06	5.851150e-06	2.432981e-08	4.217206e+01	1.596640e+03
1.670000e-06	5.848684e-06	2.431616e-08	4.215429e+01	1.596228e+03
1.680000e-06	5.844445e-06	2.430506e-08	4.212373e+01	1.595653e+03
1.690000e-06	5.838166e-06	2.429216e-08	4.207848e+01	1.594907e+03
1.700000e-06	5.829871e-06	2.427788e-08	4.201869e+01	1.593974e+03
1.710000e-06	5.819848e-06	2.426672e-08	4.194645e+01	1.592836e+03
1.720000e-06	5.807950e-06	2.425757e-08	4.186070e+01	1.591478e+03
1.730000e-06	5.793888e-06	2.426186e-08	4.175935e+01	1.589893e+03
1.740000e-06	5.777830e-06	2.419023e-08	4.164361e+01	1.588085e+03
1.750000e-06	5.759805e-06	2.405745e-08	4.151369e+01	1.586069e+03
1.760000e-06	5.739098e-06	2.408113e-08	4.136444e+01	1.583873e+03
1.770000e-06	5.715471e-06	2.408803e-08	4.119415e+01	1.581527e+03
1.780000e-06	5.689642e-06	2.406704e-08	4.100800e+01	1.579064e+03
1.790000e-06	5.662395e-06	2.417696e-08	4.081161e+01	1.576508e+03
1.800000e-06	5.634283e-06	2.393192e-08	4.060900e+01	1.573869e+03
1.810000e-06	5.604728e-06	2.381947e-08	4.039597e+01	1.571140e+03
1.820000e-06	5.572699e-06	2.400243e-08	4.016513e+01	1.568296e+03
1.830000e-06	5.538812e-06	2.377698e-08	3.992089e+01	1.565296e+03
1.840000e-06	5.503278e-06	2.387909e-08	3.966478e+01	1.562091e+03
1.850000e-06	5.465482e-06	2.395633e-08	3.939236e+01	1.558630e+03
1.860000e-06	5.425655e-06	2.358996e-08	3.910531e+01	1.554872e+03
1.870000e-06	5.383862e-06	2.365854e-08	3.880409e+01	1.550789e+03
1.880000e-06	5.340320e-06	2.355595e-08	3.849026e+01	1.546372e+03
1.890000e-06	5.295182e-06	2.342331e-08	3.816493e+01	1.541629e+03
1.900000e-06	5.247791e-06	2.352317e-08	3.782336e+01	1.536584e+03
1.910000e-06	5.198271e-06	2.328468e-08	3.746645e+01	1.531270e+03
1.920000e-06	5.146753e-06	2.331695e-08	3.709513e+01	1.525720e+03
1.930000e-06	5.092976e-06	2.324885e-08	3.670753e+01	1.519958e+03
1.940000e-06	5.037236e-06	2.302730e-08	3.630579e+01	1.513997e+03
1.950000e-06	4.979659e-06	2.305286e-08	3.589080e+01	1.507836e+03
1.960000e-06	4.920363e-06	2.287373e-08	3.546343e+01	1.501458e+03
1.970000e-06	4.859300e-06	2.284095e-08	3.502332e+01	1.494838e+03
1.980000e-06	4.796251e-06	2.271131e-08	3.456889e+01	1.487949e+03
1.990000e-06	4.731368e-06	2.255781e-08	3.410125e+01	1.480765e+03
2.000000e-06	4.664844e-06	2.254049e-08	3.362178e+01	1.473265e+03
2.010000e-06	4.596835e-06	2.233557e-08	3.313161e+01	1.465441e+03
2.020000e-06	4.526969e-06	2.226427e-08	3.262805e+01	1.457290e+03
2.030000e-06	4.455232e-06	2.209922e-08	3.211100e+01	1.448814e+03
2.040000e-06	4.382006e-06	2.197902e-08	3.158323e+01	1.440018e+03
2.050000e-06	4.307229e-06	2.188706e-08	3.104427e+01	1.430899e+03
2.060000e-06	4.230819e-06	2.166919e-08	3.049355e+01	1.421452e+03
2.070000e-06	4.152619e-06	2.155804e-08	2.992993e+01	1.411662e+03
2.080000e-06	4.072810e-06	2.137645e-08	2.935470e+01	1.401507e+03
2.090000e-06	3.991618e-06	2.124028e-08	2.876952e+01	1.390966e+03
2.100000e-06	3.909040e-06	2.107274e-08	2.817433e+01	1.380017e+03
2.110000e-06	3.825253e-06	2.090511e-08	2.757044e+01	1.368644e+03
2.120000e-06	3.740195e-06	2.075613e-08	2.695739e+01	1.356836e+03
2.130000e-06	3.653627e-06	2.053031e-08	2.633345e+01	1.344589e+03
2.140000e-06	3.565642e-06	2.033574e-08	2.569930e+01	1.331900e+03
2.150000e-06	3.476479e-06	2.011823e-08	2.505666e+01	1.318762e+03
2.160000e-06	3.386111e-06	1.993326e-08	2.440534e+01	1.305163e+03
2.170000e-06	3.294637e-06	1.972260e-08	2.374604e+01	1.291080e+03
2.180000e-06	3.202132e-06	1.950547e-08	2.307931e+01	1.276478e+03
2.190000e-06	3.108247e-06	1.928090e-08	2.240263e+01	1.261313e+03
2.200000e-06	3.013004e-06	1.903449e-08	2.171617e+01	1.245537e+03
2.210000e-06	2.916715e-06	1.878813e-08	2.102217e+01	1.229098e+03
2.220000e-06	2.819474e-06	1.852496e-08	2.032131e+01	1.211953e+03
2.230000e-06	2.721216e-06	1.826626e-08	1.961312e+01	1.194063e+03
2.240000e-06	2.622055e-06	1.797894e-08	1.889842e+01	1.175398e+03
2.250000e-06	2.522167e-06	1.767801e-08	1.817848e+01	1.155933e+03
2.260000e-06	2.421356e-06	1.735929e-08	1.745188e+01	1.135639e+03
2.270000e-06	2.319492e-06	1.703655e-08	1.671770e+01	1.114482e+03
2.280000e-06	2.216578e-06	1.670865e-08	1.597594e+01	1.092414e+03
2.290000e-06	2.112704e-06	1.636771e-08	1.522728e+01	1.069373e+03
2.300000e-06	2.008096e-06	1.600657e-08	1.447331e+01	1.045276e+03
2.310000e-06	1.902840e-06	1.561851e-08	1.371468e+01	1.020031e+03
2.320000e-06	1.796940e-06	1.521071e-08	1.295142e+01	9.935328e+02
2.330000e-06	1.690436e-06	1.477973e-08	1.218378e+01	9.656761e+02
2.340000e-06	1.583436e-06	1.433472e-08	1.141258e+01	9.363550e+02
2.350000e-06	1.476013e-06	1.387029e-08	1.063834e+01	9.054682e+02
2.360000e-06	1.368156e-06	1.338286e-08	9.860958e+00	8.729188e+02
2.370000e-06	1.259909e-06	1.286096e-08	9.080772e+00	8.386145e+02
2.380000e-06	1.151381e-06	1.230589e-08	8.298560e+00	8.024669e+02
2.390000e-06	1.042566e-06	1.172126e-08	7.514275e+00	7.643943e+02
2.400000e-06	9.333740e-07	1.110839e-08	6.727276e+00	7.243281e+02
2.410000e-06	8.237556e-07	1.046666e-08	5.937204e+00	6.822241e+02
2.420000e-06	7.138471e-07	9.792310e-09	5.145040e+00	6.380773e+02
2.430000e-06	6.037536e-07	9.087977e-09	4.351543e+00	5.919371e+02
2.440000e-06	4.934498e-07	8.353198e-09	3.556531e+00	5.439201e+02
2.450000e-06	3.829307e-07	7.592831e-09	2.759966e+00	4.942140e+02
2.460000e-06	2.722814e-07	6.809167e-09	1.962464e+00	4.430719e+02
2.470000e-06	1.615343e-07	6.011135e-09	1.164255e+00	3.907924e+02
2.480000e-06	5.073152e-08	5.204776e-09	3.656466e-01	3.376886e+02
2.490000e-06	-6.005383e-08	4.392012e-09	-4.328369e-01	2.840487e+02
2.500000e-06	-1.708455e-07	3.569965e-09	-1.231366e+00	2.300954e+02
2.510000e-06	-2.815395e-07	2.738196e-09	-2.029191e+00	1.759521e+02
2.520000e-06	-3.921159e-07	1.901352e-09	-2.826169e+00	1.216227e+02
2.530000e-06	-5.026039e-07	1.058588e-09	-3.622509e+00	6.699225e+01
2.540000e-06	-6.129597e-07	2.116892e-10	-4.417896e+00	1.184882e+01
2.550000e-06	-7.230826e-07	-6.422149e-10	-5.211605e+00	-4.407279e+01
2.560000e-06	-8.328934e-07	-1.508955e-09	-6.003064e+00	-1.010336e+02
2.570000e-06	-9.423859e-07	-2.395606e-09	-6.792230e+00	-1.592274e+02
2.580000e-06	-1.051498e-06	-3.305701e-09	-7.578656e+00	-2.187237e+02
2.590000e-06	-1.160263e-06	-4.231715e-09	-8.362573e+00	-2.794262e+02
2.600000e-06	-1.268698e-06	-5.169491e-09	-9.144121e+00	-3.410560e+02
2.610000e-06	-1.376731e-06	-6.116288e-09	-9.922765e+00	-4.031620e+02
2.620000e-06	-1.484293e-06	-7.064471e-09	-1.069802e+01	-4.651574e+02
2.630000e-06	-1.591369e-06	-8.005217e-09	-1.146976e+01	-5.263774e+02
2.640000e-06	-1.697939e-06	-8.924372e-09	-1.223786e+01	-5.861469e+02
2.650000e-06	-1.803914e-06	-9.809088e-09	-1.300168e+01	-6.438488e+02
2.660000e-06	-1.909202e-06	-1.065127e-08	-1.376054e+01	-6.989804e+02
2.670000e-06	-2.013768e-06	-1.144660e-08	-1.451420e+01	-7.511913e+02
2.680000e-06	-2.117650e-06	-1.219455e-08	-1.526292e+01	-8.002977e+02
2.690000e-06	-2.220775e-06	-1.289663e-08	-1.600619e+01	-8.462732e+02
2.700000e-06	-2.322834e-06	-1.355492e-08	-1.674179e+01	-8.892207e+02
2.710000e-06	-2.423765e-06	-1.417243e-08	-1.746925e+01	-9.293326e+02
2.720000e-06	-2.523814e-06	-1.475210e-08	-1.819034e+01	-9.668476e+02
2.730000e-06	-2.623033e-06	-1.529686e-08	-1.890546e+01	-1.002012e+03
2.740000e-06	-2.721384e-06	-1.580723e-08	-1.961433e+01	-1.035050e+03
2.750000e-06	-2.818810e-06	-1.628432e-08	-2.031653e+01	-1.066150e+03
2.760000e-06	-2.915324e-06	-1.673126e-08	-2.101215e+01	-1.095461e+03
2.770000e-06	-3.011018e-06	-1.715023e-08	-2.170186e+01	-1.123100e+03
2.780000e-06	-3.105678e-06	-1.754563e-08	-2.238412e+01	-1.149162e+03
2.790000e-06	-3.199042e-06	-1.791976e-08	-2.305704e+01	-1.173739e+03
2.800000e-06	-3.291169e-06	-1.827412e-08	-2.372104e+01	-1.196925e+03
2.810000e-06	-3.382097e-06	-1.860993e-08	-2.437640e+01	-1.218820e+03
2.820000e-06	-3.471836e-06	-1.892814e-08	-2.502319e+01	-1.239532e+03
2.830000e-06	-3.560464e-06	-1.923226e-08	-2.566198e+01	-1.259168e+03
2.840000e-06	-3.647968e-06	-1.952291e-08	-2.629266e+01	-1.277826e+03
2.850000e-06	-3.734035e-06	-1.979827e-08	-2.691299e+01	-1.295590e+03
2.860000e-06	-3.818560e-06	-2.005589e-08	-2.752220e+01	-1.312522e+03
2.870000e-06	-3.901810e-06	-2.029788e-08	-2.812222e+01	-1.328667e+03
2.880000e-06	-3.983766e-06	-2.053034e-08	-2.871292e+01	-1.344054e+03
2.890000e-06	-4.064376e-06	-2.075474e-08	-2.929392e+01	-1.358704e+03
2.900000e-06	-4.143541e-06	-2.097107e-08	-2.986450e+01	-1.372637e+03
2.910000e-06	-4.220910e-06	-2.117919e-08	-3.042214e+01	-1.385882e+03
2.920000e-06	-4.296496e-06	-2.137764e-08	-3.096692e+01	-1.398473e+03
2.930000e-06	-4.370528e-06	-2.156283e-08	-3.150051e+01	-1.410454e+03
2.940000e-06	-4.443085e-06	-2.173406e-08	-3.202345e+01	-1.421874e+03
