# Temperatura_=_51.98
# Concentracion g/m^3_=_28200.0
# C_Vs_to_Am_M_A/Vsm_=_65563218390.804596
# pendiente_HvsI_1/m_=_3716.3
# ordenada_HvsI_A/m_=_1297.0
# frecuencia_Hz_=_301950.56288739224

Tiempo_(s)	Campo_(V.s)	Magnetizacion_(V.s)	Campo_(kA/m)	Magnetizacion_(A/m)
0.000000e+00	-5.833878e-06	-1.966959e-08	-4.193270e+01	-1.287689e+03
1.000000e-08	-5.830559e-06	-1.966562e-08	-4.190885e+01	-1.287326e+03
2.000000e-08	-5.825391e-06	-1.965525e-08	-4.187170e+01	-1.286834e+03
3.000000e-08	-5.818458e-06	-1.964665e-08	-4.182187e+01	-1.286202e+03
4.000000e-08	-5.809664e-06	-1.963413e-08	-4.175866e+01	-1.285414e+03
5.000000e-08	-5.798675e-06	-1.961638e-08	-4.167968e+01	-1.284456e+03
6.000000e-08	-5.785573e-06	-1.959551e-08	-4.158550e+01	-1.283321e+03
7.000000e-08	-5.770356e-06	-1.956227e-08	-4.147612e+01	-1.282008e+03
8.000000e-08	-5.752985e-06	-1.955588e-08	-4.135127e+01	-1.280527e+03
9.000000e-08	-5.733620e-06	-1.960758e-08	-4.121207e+01	-1.278896e+03
1.000000e-07	-5.712080e-06	-1.955680e-08	-4.105724e+01	-1.277136e+03
1.100000e-07	-5.688357e-06	-1.946802e-08	-4.088673e+01	-1.275271e+03
1.200000e-07	-5.662472e-06	-1.944844e-08	-4.070067e+01	-1.273316e+03
1.300000e-07	-5.634772e-06	-1.935432e-08	-4.050157e+01	-1.271280e+03
1.400000e-07	-5.605685e-06	-1.927319e-08	-4.029250e+01	-1.269161e+03
1.500000e-07	-5.575000e-06	-1.943508e-08	-4.007194e+01	-1.266943e+03
1.600000e-07	-5.542449e-06	-1.932218e-08	-3.983797e+01	-1.264602e+03
1.700000e-07	-5.508051e-06	-1.920100e-08	-3.959073e+01	-1.262109e+03
1.800000e-07	-5.471746e-06	-1.930811e-08	-3.932977e+01	-1.259436e+03
1.900000e-07	-5.433449e-06	-1.911170e-08	-3.905450e+01	-1.256557e+03
2.000000e-07	-5.393393e-06	-1.908806e-08	-3.876659e+01	-1.253455e+03
2.100000e-07	-5.351336e-06	-1.914774e-08	-3.846429e+01	-1.250126e+03
2.200000e-07	-5.307138e-06	-1.901195e-08	-3.814661e+01	-1.246571e+03
2.300000e-07	-5.261020e-06	-1.898712e-08	-3.781512e+01	-1.242803e+03
2.400000e-07	-5.212674e-06	-1.891554e-08	-3.746762e+01	-1.238836e+03
2.500000e-07	-5.161944e-06	-1.881779e-08	-3.710298e+01	-1.234687e+03
2.600000e-07	-5.108999e-06	-1.880342e-08	-3.672242e+01	-1.230365e+03
2.700000e-07	-5.054191e-06	-1.869103e-08	-3.632848e+01	-1.225877e+03
2.800000e-07	-4.997662e-06	-1.862360e-08	-3.592216e+01	-1.221220e+03
2.900000e-07	-4.939154e-06	-1.854968e-08	-3.550161e+01	-1.216385e+03
3.000000e-07	-4.878736e-06	-1.846926e-08	-3.506734e+01	-1.211358e+03
3.100000e-07	-4.816611e-06	-1.839797e-08	-3.462080e+01	-1.206124e+03
3.200000e-07	-4.752793e-06	-1.832036e-08	-3.416209e+01	-1.200665e+03
3.300000e-07	-4.687086e-06	-1.824244e-08	-3.368980e+01	-1.194968e+03
3.400000e-07	-4.619575e-06	-1.811271e-08	-3.320455e+01	-1.189023e+03
3.500000e-07	-4.550469e-06	-1.803363e-08	-3.270783e+01	-1.182822e+03
3.600000e-07	-4.479787e-06	-1.793184e-08	-3.219978e+01	-1.176363e+03
3.700000e-07	-4.407624e-06	-1.782548e-08	-3.168108e+01	-1.169640e+03
3.800000e-07	-4.333645e-06	-1.774542e-08	-3.114934e+01	-1.162649e+03
3.900000e-07	-4.257736e-06	-1.761428e-08	-3.060373e+01	-1.155384e+03
4.000000e-07	-4.180151e-06	-1.748722e-08	-3.004606e+01	-1.147834e+03
4.100000e-07	-4.100927e-06	-1.737345e-08	-2.947661e+01	-1.139988e+03
4.200000e-07	-4.020157e-06	-1.725698e-08	-2.889605e+01	-1.131832e+03
4.300000e-07	-3.938016e-06	-1.712808e-08	-2.830564e+01	-1.123351e+03
4.400000e-07	-3.854697e-06	-1.698428e-08	-2.770676e+01	-1.114534e+03
4.500000e-07	-3.770223e-06	-1.684640e-08	-2.709958e+01	-1.105368e+03
4.600000e-07	-3.684496e-06	-1.669139e-08	-2.648339e+01	-1.095844e+03
4.700000e-07	-3.597657e-06	-1.654092e-08	-2.585921e+01	-1.085952e+03
4.800000e-07	-3.509720e-06	-1.639303e-08	-2.522714e+01	-1.075684e+03
4.900000e-07	-3.420325e-06	-1.623512e-08	-2.458459e+01	-1.065025e+03
5.000000e-07	-3.329435e-06	-1.606375e-08	-2.393128e+01	-1.053958e+03
5.100000e-07	-3.237303e-06	-1.587794e-08	-2.326906e+01	-1.042462e+03
5.200000e-07	-3.144053e-06	-1.569437e-08	-2.259880e+01	-1.030509e+03
5.300000e-07	-3.049750e-06	-1.550251e-08	-2.192097e+01	-1.018066e+03
5.400000e-07	-2.954452e-06	-1.530394e-08	-2.123599e+01	-1.005097e+03
5.500000e-07	-2.858060e-06	-1.509526e-08	-2.054314e+01	-9.915670e+02
5.600000e-07	-2.760332e-06	-1.487456e-08	-1.984069e+01	-9.774388e+02
5.700000e-07	-2.661357e-06	-1.464440e-08	-1.912928e+01	-9.626777e+02
5.800000e-07	-2.561443e-06	-1.440855e-08	-1.841112e+01	-9.472504e+02
5.900000e-07	-2.460700e-06	-1.416901e-08	-1.768700e+01	-9.311240e+02
6.000000e-07	-2.359026e-06	-1.391396e-08	-1.695619e+01	-9.142649e+02
6.100000e-07	-2.256453e-06	-1.364580e-08	-1.621891e+01	-8.966362e+02
6.200000e-07	-2.153189e-06	-1.336256e-08	-1.547668e+01	-8.781959e+02
6.300000e-07	-2.049240e-06	-1.306464e-08	-1.472951e+01	-8.588950e+02
6.400000e-07	-1.944386e-06	-1.275276e-08	-1.397584e+01	-8.386767e+02
6.500000e-07	-1.838631e-06	-1.242759e-08	-1.321570e+01	-8.174760e+02
6.600000e-07	-1.732153e-06	-1.208583e-08	-1.245035e+01	-7.952203e+02
6.700000e-07	-1.625100e-06	-1.172505e-08	-1.168088e+01	-7.718301e+02
6.800000e-07	-1.517499e-06	-1.134710e-08	-1.090747e+01	-7.472215e+02
6.900000e-07	-1.409349e-06	-1.094807e-08	-1.013011e+01	-7.213072e+02
7.000000e-07	-1.300743e-06	-1.053100e-08	-9.349474e+00	-6.940006e+02
7.100000e-07	-1.191808e-06	-1.009203e-08	-8.566470e+00	-6.652195e+02
7.200000e-07	-1.082540e-06	-9.628953e-09	-7.781076e+00	-6.348918e+02
7.300000e-07	-9.728657e-07	-9.143498e-09	-6.992757e+00	-6.029631e+02
7.400000e-07	-8.629165e-07	-8.632903e-09	-6.202465e+00	-5.694055e+02
7.500000e-07	-7.526727e-07	-8.096405e-09	-5.410055e+00	-5.342271e+02
7.600000e-07	-6.421545e-07	-7.535865e-09	-4.615673e+00	-4.974804e+02
7.700000e-07	-5.314874e-07	-6.952167e-09	-3.820221e+00	-4.592681e+02
7.800000e-07	-4.206655e-07	-6.347056e-09	-3.023656e+00	-4.197444e+02
7.900000e-07	-3.097079e-07	-5.727742e-09	-2.226116e+00	-3.791090e+02
8.000000e-07	-1.987075e-07	-5.096705e-09	-1.428268e+00	-3.375947e+02
8.100000e-07	-8.768890e-08	-4.455167e-09	-6.302896e-01	-2.954475e+02
8.200000e-07	2.341013e-08	-3.808045e-09	1.682671e-01	-2.529012e+02
8.300000e-07	1.345374e-07	-3.159314e-09	9.670271e-01	-2.101508e+02
8.400000e-07	2.456480e-07	-2.509386e-09	1.765667e+00	-1.673276e+02
8.500000e-07	3.567199e-07	-1.855390e-09	2.564028e+00	-1.244812e+02
8.600000e-07	4.677168e-07	-1.201721e-09	3.361851e+00	-8.157205e+01
8.700000e-07	5.786224e-07	-5.470045e-10	4.159018e+00	-3.847814e+01
8.800000e-07	6.893699e-07	1.128189e-10	4.955048e+00	4.985040e+00
8.900000e-07	7.999897e-07	7.825699e-10	5.750160e+00	4.903196e+01
9.000000e-07	9.104199e-07	1.464532e-09	6.543909e+00	9.386661e+01
9.100000e-07	1.020482e-06	2.160215e-09	7.335011e+00	1.396398e+02
9.200000e-07	1.130142e-06	2.871126e-09	8.123227e+00	1.864113e+02
9.300000e-07	1.239403e-06	3.595184e-09	8.908569e+00	2.341224e+02
9.400000e-07	1.348267e-06	4.332174e-09	9.691067e+00	2.825842e+02
9.500000e-07	1.456716e-06	5.078193e-09	1.047057e+01	3.314839e+02
9.600000e-07	1.564712e-06	5.826689e-09	1.124682e+01	3.804084e+02
9.700000e-07	1.672174e-06	6.566855e-09	1.201924e+01	4.288812e+02
9.800000e-07	1.779054e-06	7.288092e-09	1.278747e+01	4.764079e+02
9.900000e-07	1.885250e-06	7.985349e-09	1.355078e+01	5.225229e+02
1.000000e-06	1.990547e-06	8.657113e-09	1.430764e+01	5.668296e+02
1.010000e-06	2.094926e-06	9.298751e-09	1.505789e+01	6.090309e+02
1.020000e-06	2.198455e-06	9.904039e-09	1.580204e+01	6.489432e+02
1.030000e-06	2.301198e-06	1.047274e-08	1.654053e+01	6.864965e+02
1.040000e-06	2.403137e-06	1.100547e-08	1.727325e+01	7.217200e+02
1.050000e-06	2.504217e-06	1.150525e-08	1.799980e+01	7.547184e+02
1.060000e-06	2.604545e-06	1.197259e-08	1.872093e+01	7.856439e+02
1.070000e-06	2.704085e-06	1.241216e-08	1.943640e+01	8.146682e+02
1.080000e-06	2.802635e-06	1.282708e-08	2.014476e+01	8.419601e+02
1.090000e-06	2.899942e-06	1.322019e-08	2.084418e+01	8.676701e+02
1.100000e-06	2.995939e-06	1.359070e-08	2.153419e+01	8.919239e+02
1.110000e-06	3.090869e-06	1.393900e-08	2.221653e+01	9.148223e+02
1.120000e-06	3.184809e-06	1.426698e-08	2.289175e+01	9.364478e+02
1.130000e-06	3.277769e-06	1.457722e-08	2.355992e+01	9.568716e+02
1.140000e-06	3.369768e-06	1.486992e-08	2.422120e+01	9.761617e+02
1.150000e-06	3.460734e-06	1.514559e-08	2.487504e+01	9.943874e+02
1.160000e-06	3.550343e-06	1.540778e-08	2.551913e+01	1.011621e+03
1.170000e-06	3.638427e-06	1.565691e-08	2.615226e+01	1.027938e+03
1.180000e-06	3.725250e-06	1.589455e-08	2.677633e+01	1.043411e+03
1.190000e-06	3.810848e-06	1.611947e-08	2.739158e+01	1.058107e+03
1.200000e-06	3.895201e-06	1.633177e-08	2.799790e+01	1.072083e+03
1.210000e-06	3.978368e-06	1.653118e-08	2.859568e+01	1.085388e+03
1.220000e-06	4.060152e-06	1.671985e-08	2.918353e+01	1.098058e+03
1.230000e-06	4.140321e-06	1.689886e-08	2.975977e+01	1.110124e+03
1.240000e-06	4.218871e-06	1.707122e-08	3.032437e+01	1.121610e+03
1.250000e-06	4.295951e-06	1.723754e-08	3.087840e+01	1.132539e+03
1.260000e-06	4.371509e-06	1.739827e-08	3.142150e+01	1.142934e+03
1.270000e-06	4.445283e-06	1.755166e-08	3.195177e+01	1.152818e+03
1.280000e-06	4.517200e-06	1.769643e-08	3.246869e+01	1.162214e+03
1.290000e-06	4.587424e-06	1.783251e-08	3.297345e+01	1.171143e+03
1.300000e-06	4.656071e-06	1.796141e-08	3.346688e+01	1.179621e+03
1.310000e-06	4.723130e-06	1.808414e-08	3.394888e+01	1.187664e+03
1.320000e-06	4.788396e-06	1.820065e-08	3.441800e+01	1.195280e+03
1.330000e-06	4.851841e-06	1.830939e-08	3.487403e+01	1.202481e+03
1.340000e-06	4.913649e-06	1.841127e-08	3.531829e+01	1.209278e+03
1.350000e-06	4.973873e-06	1.850827e-08	3.575117e+01	1.215686e+03
1.360000e-06	5.032455e-06	1.859967e-08	3.617224e+01	1.221728e+03
1.370000e-06	5.089145e-06	1.868627e-08	3.657972e+01	1.227434e+03
1.380000e-06	5.143904e-06	1.876957e-08	3.697332e+01	1.232838e+03
1.390000e-06	5.196786e-06	1.884916e-08	3.735342e+01	1.237976e+03
1.400000e-06	5.247545e-06	1.892306e-08	3.771827e+01	1.242879e+03
1.410000e-06	5.296070e-06	1.899350e-08	3.806705e+01	1.247572e+03
1.420000e-06	5.342589e-06	1.906054e-08	3.840142e+01	1.252067e+03
1.430000e-06	5.387374e-06	1.912331e-08	3.872333e+01	1.256364e+03
1.440000e-06	5.430424e-06	1.918334e-08	3.903276e+01	1.260455e+03
1.450000e-06	5.471391e-06	1.924246e-08	3.932723e+01	1.264319e+03
1.460000e-06	5.510339e-06	1.930052e-08	3.960718e+01	1.267937e+03
1.470000e-06	5.547522e-06	1.935473e-08	3.987444e+01	1.271291e+03
1.480000e-06	5.582877e-06	1.940255e-08	4.012856e+01	1.274372e+03
1.490000e-06	5.616133e-06	1.944512e-08	4.036760e+01	1.277179e+03
1.500000e-06	5.647309e-06	1.948353e-08	4.059168e+01	1.279723e+03
1.510000e-06	5.676630e-06	1.951760e-08	4.080244e+01	1.282022e+03
1.520000e-06	5.704071e-06	1.954814e-08	4.099968e+01	1.284098e+03
1.530000e-06	5.729393e-06	1.957504e-08	4.118169e+01	1.285972e+03
1.540000e-06	5.752493e-06	1.959853e-08	4.134773e+01	1.287662e+03
1.550000e-06	5.773592e-06	1.962003e-08	4.149938e+01	1.289177e+03
1.560000e-06	5.792735e-06	1.964038e-08	4.163698e+01	1.290519e+03
1.570000e-06	5.809777e-06	1.965967e-08	4.175947e+01	1.291685e+03
1.580000e-06	5.824614e-06	1.967731e-08	4.186612e+01	1.292669e+03
1.590000e-06	5.837354e-06	1.969159e-08	4.195769e+01	1.293465e+03
1.600000e-06	5.847791e-06	1.970124e-08	4.203271e+01	1.294074e+03
1.610000e-06	5.855824e-06	1.970794e-08	4.209045e+01	1.294500e+03
1.620000e-06	5.861780e-06	1.971360e-08	4.213326e+01	1.294754e+03
1.630000e-06	5.865845e-06	1.971765e-08	4.216248e+01	1.294851e+03
1.640000e-06	5.867768e-06	1.972133e-08	4.217630e+01	1.294807e+03
1.650000e-06	5.867481e-06	1.972359e-08	4.217424e+01	1.294635e+03
1.660000e-06	5.865285e-06	1.971377e-08	4.215845e+01	1.294340e+03
1.670000e-06	5.861318e-06	1.970428e-08	4.212994e+01	1.293922e+03
1.680000e-06	5.855368e-06	1.969685e-08	4.208717e+01	1.293370e+03
1.690000e-06	5.847355e-06	1.968886e-08	4.202958e+01	1.292671e+03
1.700000e-06	5.837557e-06	1.968125e-08	4.195915e+01	1.291810e+03
1.710000e-06	5.825953e-06	1.967317e-08	4.187574e+01	1.290776e+03
1.720000e-06	5.812164e-06	1.967595e-08	4.177663e+01	1.289562e+03
1.730000e-06	5.796338e-06	1.963550e-08	4.166288e+01	1.288174e+03
1.740000e-06	5.778651e-06	1.950848e-08	4.153574e+01	1.286625e+03
1.750000e-06	5.758462e-06	1.951424e-08	4.139063e+01	1.284934e+03
1.760000e-06	5.735307e-06	1.954482e-08	4.122420e+01	1.283125e+03
1.770000e-06	5.709713e-06	1.951251e-08	4.104023e+01	1.281218e+03
1.780000e-06	5.682564e-06	1.962289e-08	4.084509e+01	1.279227e+03
1.790000e-06	5.654531e-06	1.948586e-08	4.064360e+01	1.277155e+03
1.800000e-06	5.625190e-06	1.930996e-08	4.043270e+01	1.274994e+03
1.810000e-06	5.593441e-06	1.947692e-08	4.020449e+01	1.272725e+03
1.820000e-06	5.559702e-06	1.931561e-08	3.996199e+01	1.270322e+03
1.830000e-06	5.524348e-06	1.929428e-08	3.970787e+01	1.267753e+03
1.840000e-06	5.486784e-06	1.944962e-08	3.943787e+01	1.264993e+03
1.850000e-06	5.447104e-06	1.915583e-08	3.915265e+01	1.262018e+03
1.860000e-06	5.405492e-06	1.916787e-08	3.885355e+01	1.258818e+03
1.870000e-06	5.362147e-06	1.916429e-08	3.854200e+01	1.255389e+03
1.880000e-06	5.317198e-06	1.900471e-08	3.821891e+01	1.251740e+03
1.890000e-06	5.269996e-06	1.910751e-08	3.787964e+01	1.247883e+03
1.900000e-06	5.220597e-06	1.891887e-08	3.752457e+01	1.243835e+03
1.910000e-06	5.169231e-06	1.888079e-08	3.715536e+01	1.239609e+03
1.920000e-06	5.115582e-06	1.891062e-08	3.676974e+01	1.235214e+03
1.930000e-06	5.059939e-06	1.870573e-08	3.636979e+01	1.230653e+03
1.940000e-06	5.002451e-06	1.873743e-08	3.595658e+01	1.225920e+03
1.950000e-06	4.943202e-06	1.861171e-08	3.553071e+01	1.221003e+03
1.960000e-06	4.882199e-06	1.854679e-08	3.509223e+01	1.215888e+03
1.970000e-06	4.819226e-06	1.847994e-08	3.463960e+01	1.210557e+03
1.980000e-06	4.754466e-06	1.833302e-08	3.417411e+01	1.204996e+03
1.990000e-06	4.687993e-06	1.834581e-08	3.369632e+01	1.199192e+03
2.000000e-06	4.620006e-06	1.819390e-08	3.320764e+01	1.193137e+03
2.010000e-06	4.550257e-06	1.811926e-08	3.270631e+01	1.186825e+03
2.020000e-06	4.478617e-06	1.799815e-08	3.219137e+01	1.180251e+03
2.030000e-06	4.405433e-06	1.786765e-08	3.166534e+01	1.173413e+03
2.040000e-06	4.330684e-06	1.782999e-08	3.112806e+01	1.166304e+03
2.050000e-06	4.254361e-06	1.766793e-08	3.057946e+01	1.158917e+03
2.060000e-06	4.176225e-06	1.758272e-08	3.001784e+01	1.151240e+03
2.070000e-06	4.096436e-06	1.744594e-08	2.944433e+01	1.143261e+03
2.080000e-06	4.015288e-06	1.731960e-08	2.886106e+01	1.134966e+03
2.090000e-06	3.932710e-06	1.719319e-08	2.826750e+01	1.126341e+03
2.100000e-06	3.848923e-06	1.704613e-08	2.766526e+01	1.117374e+03
2.110000e-06	3.763843e-06	1.694147e-08	2.705372e+01	1.108054e+03
2.120000e-06	3.677250e-06	1.676738e-08	2.643131e+01	1.098372e+03
2.130000e-06	3.589278e-06	1.661478e-08	2.579899e+01	1.088319e+03
2.140000e-06	3.500052e-06	1.644452e-08	2.515765e+01	1.077883e+03
2.150000e-06	3.409607e-06	1.629210e-08	2.450755e+01	1.067050e+03
2.160000e-06	3.318106e-06	1.612894e-08	2.384986e+01	1.055801e+03
2.170000e-06	3.225502e-06	1.595240e-08	2.318424e+01	1.044111e+03
2.180000e-06	3.131513e-06	1.577709e-08	2.250866e+01	1.031951e+03
2.190000e-06	3.036251e-06	1.557542e-08	2.182395e+01	1.019285e+03
2.200000e-06	2.939925e-06	1.537598e-08	2.113157e+01	1.006079e+03
2.210000e-06	2.842591e-06	1.516467e-08	2.043195e+01	9.922957e+02
2.220000e-06	2.744215e-06	1.495662e-08	1.972485e+01	9.778989e+02
2.230000e-06	2.644953e-06	1.472650e-08	1.901137e+01	9.628548e+02
2.240000e-06	2.544964e-06	1.448608e-08	1.829267e+01	9.471304e+02
2.250000e-06	2.443976e-06	1.423354e-08	1.756679e+01	9.306927e+02
2.260000e-06	2.341840e-06	1.396884e-08	1.683266e+01	9.135071e+02
2.270000e-06	2.238689e-06	1.369635e-08	1.609123e+01	8.955345e+02
2.280000e-06	2.134662e-06	1.341349e-08	1.534351e+01	8.767303e+02
2.290000e-06	2.029861e-06	1.311852e-08	1.459022e+01	8.570422e+02
2.300000e-06	1.924400e-06	1.280305e-08	1.383219e+01	8.364098e+02
2.310000e-06	1.818331e-06	1.247462e-08	1.306978e+01	8.147647e+02
2.320000e-06	1.711628e-06	1.212823e-08	1.230283e+01	7.920313e+02
2.330000e-06	1.604402e-06	1.176727e-08	1.153211e+01	7.681280e+02
2.340000e-06	1.496800e-06	1.138704e-08	1.075869e+01	7.429689e+02
2.350000e-06	1.388798e-06	1.098757e-08	9.982395e+00	7.164669e+02
2.360000e-06	1.280367e-06	1.056387e-08	9.203012e+00	6.885365e+02
2.370000e-06	1.171540e-06	1.011465e-08	8.420784e+00	6.590990e+02
2.380000e-06	1.062329e-06	9.641814e-09	7.635801e+00	6.280890e+02
2.390000e-06	9.527868e-07	9.141948e-09	6.848434e+00	5.954622e+02
2.400000e-06	8.429467e-07	8.616210e-09	6.058926e+00	5.612051e+02
2.410000e-06	7.328010e-07	8.067709e-09	5.267222e+00	5.253438e+02
2.420000e-06	6.223787e-07	7.498320e-09	4.473529e+00	4.879518e+02
2.430000e-06	5.117942e-07	6.907280e-09	3.678671e+00	4.491542e+02
2.440000e-06	4.010554e-07	6.298503e-09	2.882703e+00	4.091258e+02
2.450000e-06	2.901455e-07	5.670990e-09	2.085506e+00	3.680824e+02
2.460000e-06	1.790818e-07	5.028749e-09	1.287203e+00	3.262653e+02
2.470000e-06	6.793723e-08	4.378983e-09	4.883187e-01	2.839186e+02
2.480000e-06	-4.319468e-08	3.728255e-09	-3.104744e-01	2.412626e+02
2.490000e-06	-1.543796e-07	3.077128e-09	-1.109649e+00	1.984679e+02
2.500000e-06	-2.655745e-07	2.423137e-09	-1.908895e+00	1.556324e+02
2.510000e-06	-3.765637e-07	1.767557e-09	-2.706662e+00	1.127675e+02
2.520000e-06	-4.873689e-07	1.108440e-09	-3.503107e+00	6.979684e+01
2.530000e-06	-5.980627e-07	4.453693e-10	-4.298750e+00	2.656835e+01
2.540000e-06	-7.084961e-07	-2.244304e-10	-5.092523e+00	-1.711989e+01
2.550000e-06	-8.186342e-07	-9.043392e-10	-5.884173e+00	-6.148309e+01
2.560000e-06	-9.285347e-07	-1.596459e-09	-6.674114e+00	-1.067076e+02
2.570000e-06	-1.038120e-06	-2.303389e-09	-7.461788e+00	-1.529093e+02
2.580000e-06	-1.147302e-06	-3.023032e-09	-8.246566e+00	-2.000997e+02
2.590000e-06	-1.256073e-06	-3.754953e-09	-9.028392e+00	-2.481647e+02
2.600000e-06	-1.364401e-06	-4.497950e-09	-9.807031e+00	-2.968605e+02
2.610000e-06	-1.472297e-06	-5.246915e-09	-1.058257e+01	-3.458276e+02
2.620000e-06	-1.579729e-06	-5.996063e-09	-1.135477e+01	-3.946205e+02
2.630000e-06	-1.686700e-06	-6.734350e-09	-1.212365e+01	-4.427493e+02
2.640000e-06	-1.793074e-06	-7.453270e-09	-1.288825e+01	-4.897263e+02
2.650000e-06	-1.898700e-06	-8.147972e-09	-1.364746e+01	-5.351111e+02
2.660000e-06	-2.003669e-06	-8.812293e-09	-1.440196e+01	-5.785469e+02
2.670000e-06	-2.107959e-06	-9.443483e-09	-1.515157e+01	-6.197844e+02
2.680000e-06	-2.211454e-06	-1.004082e-08	-1.589547e+01	-6.586896e+02
2.690000e-06	-2.314024e-06	-1.060398e-08	-1.663272e+01	-6.952373e+02
2.700000e-06	-2.415532e-06	-1.113187e-08	-1.736234e+01	-7.294925e+02
2.710000e-06	-2.515999e-06	-1.162302e-08	-1.808448e+01	-7.615836e+02
2.720000e-06	-2.615584e-06	-1.208259e-08	-1.880027e+01	-7.916745e+02
2.730000e-06	-2.714351e-06	-1.251597e-08	-1.951020e+01	-8.199380e+02
2.740000e-06	-2.812207e-06	-1.292380e-08	-2.021356e+01	-8.465365e+02
2.750000e-06	-2.909122e-06	-1.330925e-08	-2.091016e+01	-8.716100e+02
2.760000e-06	-3.005139e-06	-1.367284e-08	-2.160031e+01	-8.952734e+02
2.770000e-06	-3.100183e-06	-1.401352e-08	-2.228347e+01	-9.176185e+02
2.780000e-06	-3.194072e-06	-1.433294e-08	-2.295833e+01	-9.387221e+02
2.790000e-06	-3.286712e-06	-1.463536e-08	-2.362421e+01	-9.586533e+02
2.800000e-06	-3.378140e-06	-1.492274e-08	-2.428137e+01	-9.774800e+02
2.810000e-06	-3.468367e-06	-1.519337e-08	-2.492990e+01	-9.952732e+02
2.820000e-06	-3.557363e-06	-1.544912e-08	-2.556959e+01	-1.012107e+03
2.830000e-06	-3.645224e-06	-1.569351e-08	-2.620112e+01	-1.028055e+03
2.840000e-06	-3.731798e-06	-1.592702e-08	-2.682339e+01	-1.043188e+03
2.850000e-06	-3.816838e-06	-1.615056e-08	-2.743464e+01	-1.057570e+03
2.860000e-06	-3.900526e-06	-1.636371e-08	-2.803617e+01	-1.071255e+03
2.870000e-06	-3.982925e-06	-1.656654e-08	-2.862844e+01	-1.084285e+03
2.880000e-06	-4.063958e-06	-1.675741e-08	-2.921089e+01	-1.096695e+03
2.890000e-06	-4.143510e-06	-1.693592e-08	-2.978269e+01	-1.108511e+03
2.900000e-06	-4.221272e-06	-1.710538e-08	-3.034163e+01	-1.119757e+03
2.910000e-06	-4.297343e-06	-1.726659e-08	-3.088841e+01	-1.130456e+03
2.920000e-06	-4.371891e-06	-1.742071e-08	-3.142425e+01	-1.140631e+03
2.930000e-06	-4.444805e-06	-1.756621e-08	-3.194834e+01	-1.150305e+03
2.940000e-06	-4.516064e-06	-1.770588e-08	-3.246053e+01	-1.159499e+03
