# Temperatura_=_44.76
# Concentracion g/m^3_=_28200.0
# C_Vs_to_Am_M_A/Vsm_=_65563218390.804596
# pendiente_HvsI_1/m_=_3716.3
# ordenada_HvsI_A/m_=_1297.0
# frecuencia_Hz_=_301949.20844432956

Tiempo_(s)	Campo_(V.s)	Magnetizacion_(V.s)	Campo_(kA/m)	Magnetizacion_(A/m)
0.000000e+00	-5.824618e-06	-1.926326e-08	-4.193185e+01	-1.260929e+03
1.000000e-08	-5.821327e-06	-1.926146e-08	-4.190815e+01	-1.260575e+03
2.000000e-08	-5.816161e-06	-1.925126e-08	-4.187096e+01	-1.260092e+03
3.000000e-08	-5.809241e-06	-1.924086e-08	-4.182114e+01	-1.259475e+03
4.000000e-08	-5.800473e-06	-1.922600e-08	-4.175803e+01	-1.258716e+03
5.000000e-08	-5.789529e-06	-1.920727e-08	-4.167924e+01	-1.257806e+03
6.000000e-08	-5.776432e-06	-1.918807e-08	-4.158495e+01	-1.256736e+03
7.000000e-08	-5.761221e-06	-1.916050e-08	-4.147545e+01	-1.255502e+03
8.000000e-08	-5.743879e-06	-1.915340e-08	-4.135060e+01	-1.254107e+03
9.000000e-08	-5.724485e-06	-1.919283e-08	-4.121098e+01	-1.252562e+03
1.000000e-07	-5.702936e-06	-1.915437e-08	-4.105585e+01	-1.250885e+03
1.100000e-07	-5.679215e-06	-1.907920e-08	-4.088508e+01	-1.249095e+03
1.200000e-07	-5.653326e-06	-1.905488e-08	-4.069870e+01	-1.247214e+03
1.300000e-07	-5.625615e-06	-1.897092e-08	-4.049921e+01	-1.245256e+03
1.400000e-07	-5.596520e-06	-1.889274e-08	-4.028975e+01	-1.243225e+03
1.500000e-07	-5.565841e-06	-1.901332e-08	-4.006889e+01	-1.241113e+03
1.600000e-07	-5.533347e-06	-1.892447e-08	-3.983497e+01	-1.238900e+03
1.700000e-07	-5.499057e-06	-1.880983e-08	-3.958811e+01	-1.236555e+03
1.800000e-07	-5.462869e-06	-1.889599e-08	-3.932759e+01	-1.234044e+03
1.900000e-07	-5.424670e-06	-1.874920e-08	-3.905259e+01	-1.231331e+03
2.000000e-07	-5.384637e-06	-1.871566e-08	-3.876439e+01	-1.228389e+03
2.100000e-07	-5.342620e-06	-1.877116e-08	-3.846191e+01	-1.225201e+03
2.200000e-07	-5.298481e-06	-1.864986e-08	-3.814415e+01	-1.221765e+03
2.300000e-07	-5.252357e-06	-1.859146e-08	-3.781210e+01	-1.218090e+03
2.400000e-07	-5.204081e-06	-1.852196e-08	-3.746456e+01	-1.214197e+03
2.500000e-07	-5.153503e-06	-1.843729e-08	-3.710044e+01	-1.210109e+03
2.600000e-07	-5.100684e-06	-1.841904e-08	-3.672019e+01	-1.205848e+03
2.700000e-07	-5.045958e-06	-1.832662e-08	-3.632622e+01	-1.201429e+03
2.800000e-07	-4.989485e-06	-1.825998e-08	-3.591966e+01	-1.196858e+03
2.900000e-07	-4.931043e-06	-1.817938e-08	-3.549894e+01	-1.192127e+03
3.000000e-07	-4.870686e-06	-1.809384e-08	-3.506442e+01	-1.187220e+03
3.100000e-07	-4.808581e-06	-1.802916e-08	-3.461733e+01	-1.182116e+03
3.200000e-07	-4.744701e-06	-1.795612e-08	-3.415745e+01	-1.176790e+03
3.300000e-07	-4.679011e-06	-1.788222e-08	-3.368454e+01	-1.171224e+03
3.400000e-07	-4.611538e-06	-1.776325e-08	-3.319880e+01	-1.165401e+03
3.500000e-07	-4.542374e-06	-1.767078e-08	-3.270088e+01	-1.159315e+03
3.600000e-07	-4.471645e-06	-1.757258e-08	-3.219170e+01	-1.152963e+03
3.700000e-07	-4.399458e-06	-1.747451e-08	-3.167202e+01	-1.146347e+03
3.800000e-07	-4.325583e-06	-1.739525e-08	-3.114019e+01	-1.139468e+03
3.900000e-07	-4.249873e-06	-1.727265e-08	-3.059514e+01	-1.132324e+03
4.000000e-07	-4.172480e-06	-1.714385e-08	-3.003799e+01	-1.124906e+03
4.100000e-07	-4.093408e-06	-1.702525e-08	-2.946874e+01	-1.117203e+03
4.200000e-07	-4.012714e-06	-1.690482e-08	-2.888782e+01	-1.109198e+03
4.300000e-07	-3.930686e-06	-1.678020e-08	-2.829729e+01	-1.100872e+03
4.400000e-07	-3.847444e-06	-1.664427e-08	-2.769803e+01	-1.092210e+03
4.500000e-07	-3.763048e-06	-1.651084e-08	-2.709045e+01	-1.083199e+03
4.600000e-07	-3.677501e-06	-1.635955e-08	-2.647460e+01	-1.073828e+03
4.700000e-07	-3.590734e-06	-1.620961e-08	-2.584995e+01	-1.064091e+03
4.800000e-07	-3.502770e-06	-1.606461e-08	-2.521669e+01	-1.053985e+03
4.900000e-07	-3.413501e-06	-1.590580e-08	-2.457404e+01	-1.043500e+03
5.000000e-07	-3.322774e-06	-1.573345e-08	-2.392089e+01	-1.032623e+03
5.100000e-07	-3.230791e-06	-1.555088e-08	-2.325870e+01	-1.021336e+03
5.200000e-07	-3.137754e-06	-1.537158e-08	-2.258892e+01	-1.009608e+03
5.300000e-07	-3.043622e-06	-1.518443e-08	-2.191126e+01	-9.974044e+02
5.400000e-07	-2.948393e-06	-1.499267e-08	-2.122569e+01	-9.846865e+02
5.500000e-07	-2.852058e-06	-1.479076e-08	-2.053218e+01	-9.714135e+02
5.600000e-07	-2.754574e-06	-1.457482e-08	-1.983038e+01	-9.575466e+02
5.700000e-07	-2.655859e-06	-1.434934e-08	-1.911972e+01	-9.430509e+02
5.800000e-07	-2.556078e-06	-1.411692e-08	-1.840139e+01	-9.278953e+02
5.900000e-07	-2.455449e-06	-1.387925e-08	-1.767696e+01	-9.120508e+02
6.000000e-07	-2.353962e-06	-1.362642e-08	-1.694635e+01	-8.954885e+02
6.100000e-07	-2.251621e-06	-1.336120e-08	-1.620958e+01	-8.781753e+02
6.200000e-07	-2.148544e-06	-1.308217e-08	-1.546752e+01	-8.600716e+02
6.300000e-07	-2.044659e-06	-1.279152e-08	-1.471965e+01	-8.411291e+02
6.400000e-07	-1.939888e-06	-1.248941e-08	-1.396539e+01	-8.212896e+02
6.500000e-07	-1.834428e-06	-1.217408e-08	-1.320618e+01	-8.004860e+02
6.600000e-07	-1.728252e-06	-1.184127e-08	-1.244181e+01	-7.786439e+02
6.700000e-07	-1.621312e-06	-1.148585e-08	-1.167194e+01	-7.556835e+02
6.800000e-07	-1.513736e-06	-1.111178e-08	-1.089750e+01	-7.315223e+02
6.900000e-07	-1.405673e-06	-1.071848e-08	-1.011954e+01	-7.060770e+02
7.000000e-07	-1.297251e-06	-1.030703e-08	-9.339006e+00	-6.792664e+02
7.100000e-07	-1.188516e-06	-9.875457e-09	-8.556212e+00	-6.510143e+02
7.200000e-07	-1.079419e-06	-9.424220e-09	-7.770813e+00	-6.212548e+02
7.300000e-07	-9.699086e-07	-8.949993e-09	-6.982442e+00	-5.899384e+02
7.400000e-07	-8.600563e-07	-8.449135e-09	-6.191607e+00	-5.570406e+02
7.500000e-07	-7.499632e-07	-7.924149e-09	-5.399039e+00	-5.225718e+02
7.600000e-07	-6.396991e-07	-7.376583e-09	-4.605240e+00	-4.865858e+02
7.700000e-07	-5.292102e-07	-6.805781e-09	-3.809823e+00	-4.491867e+02
7.800000e-07	-4.185601e-07	-6.214356e-09	-3.013244e+00	-4.105301e+02
7.900000e-07	-3.078581e-07	-5.610504e-09	-2.216293e+00	-3.708174e+02
8.000000e-07	-1.970843e-07	-4.994540e-09	-1.418824e+00	-3.302828e+02
8.100000e-07	-8.619424e-08	-4.369468e-09	-6.205186e-01	-2.891725e+02
8.200000e-07	2.477415e-08	-3.739487e-09	1.783509e-01	-2.477187e+02
8.300000e-07	1.357482e-07	-3.107716e-09	9.772611e-01	-2.061120e+02
8.400000e-07	2.467079e-07	-2.474537e-09	1.776068e+00	-1.644771e+02
8.500000e-07	3.575888e-07	-1.838981e-09	2.574308e+00	-1.228556e+02
8.600000e-07	4.683209e-07	-1.203956e-09	3.371476e+00	-8.119981e+01
8.700000e-07	5.789493e-07	-5.662708e-10	4.167898e+00	-3.938157e+01
8.800000e-07	6.894949e-07	7.770377e-11	4.963724e+00	2.786803e+00
8.900000e-07	7.999080e-07	7.317711e-10	5.758596e+00	4.551933e+01
9.000000e-07	9.101387e-07	1.395477e-09	6.552154e+00	8.901682e+01
9.100000e-07	1.020058e-06	2.069775e-09	7.343470e+00	1.334264e+02
9.200000e-07	1.129625e-06	2.758038e-09	8.132249e+00	1.788066e+02
9.300000e-07	1.238769e-06	3.460440e-09	8.917989e+00	2.251032e+02
9.400000e-07	1.347472e-06	4.176144e-09	9.700550e+00	2.721401e+02
9.500000e-07	1.455817e-06	4.900331e-09	1.048053e+01	3.196268e+02
9.600000e-07	1.563805e-06	5.626119e-09	1.125795e+01	3.671803e+02
9.700000e-07	1.671181e-06	6.346311e-09	1.203095e+01	4.143594e+02
9.800000e-07	1.777735e-06	7.051509e-09	1.279804e+01	4.607047e+02
9.900000e-07	1.883551e-06	7.734622e-09	1.355982e+01	5.057797e+02
1.000000e-06	1.988692e-06	8.394013e-09	1.431674e+01	5.492065e+02
1.010000e-06	2.093041e-06	9.023868e-09	1.506795e+01	5.906917e+02
1.020000e-06	2.196409e-06	9.620142e-09	1.581211e+01	6.300407e+02
1.030000e-06	2.298973e-06	1.018281e-08	1.655047e+01	6.671588e+02
1.040000e-06	2.400757e-06	1.071069e-08	1.728323e+01	7.020425e+02
1.050000e-06	2.501664e-06	1.120480e-08	1.800966e+01	7.347606e+02
1.060000e-06	2.601883e-06	1.166822e-08	1.873115e+01	7.654334e+02
1.070000e-06	2.701240e-06	1.210613e-08	1.944642e+01	7.942090e+02
1.080000e-06	2.799466e-06	1.251980e-08	2.015356e+01	8.212443e+02
1.090000e-06	2.896559e-06	1.290883e-08	2.085254e+01	8.466889e+02
1.100000e-06	2.992491e-06	1.327321e-08	2.154316e+01	8.706766e+02
1.110000e-06	3.087315e-06	1.361711e-08	2.222581e+01	8.933211e+02
1.120000e-06	3.181107e-06	1.394116e-08	2.290102e+01	9.147168e+02
1.130000e-06	3.273877e-06	1.424720e-08	2.356888e+01	9.349430e+02
1.140000e-06	3.365691e-06	1.453501e-08	2.422985e+01	9.540683e+02
1.150000e-06	3.456452e-06	1.480772e-08	2.488325e+01	9.721558e+02
1.160000e-06	3.545882e-06	1.506714e-08	2.552706e+01	9.892670e+02
1.170000e-06	3.633846e-06	1.531317e-08	2.616032e+01	1.005463e+03
1.180000e-06	3.720446e-06	1.555057e-08	2.678376e+01	1.020805e+03
1.190000e-06	3.805847e-06	1.577566e-08	2.739857e+01	1.035354e+03
1.200000e-06	3.890114e-06	1.598523e-08	2.800521e+01	1.049167e+03
1.210000e-06	3.973177e-06	1.617984e-08	2.860319e+01	1.062297e+03
1.220000e-06	4.054819e-06	1.636525e-08	2.919094e+01	1.074790e+03
1.230000e-06	4.134818e-06	1.654377e-08	2.976685e+01	1.086686e+03
1.240000e-06	4.213256e-06	1.671559e-08	3.033154e+01	1.098015e+03
1.250000e-06	4.290224e-06	1.687934e-08	3.088563e+01	1.108801e+03
1.260000e-06	4.365691e-06	1.703638e-08	3.142893e+01	1.119062e+03
1.270000e-06	4.439421e-06	1.718746e-08	3.195972e+01	1.128814e+03
1.280000e-06	4.511240e-06	1.733041e-08	3.247674e+01	1.138067e+03
1.290000e-06	4.581398e-06	1.746381e-08	3.298182e+01	1.146836e+03
1.300000e-06	4.649986e-06	1.758910e-08	3.347559e+01	1.155133e+03
1.310000e-06	4.716941e-06	1.770816e-08	3.395760e+01	1.162974e+03
1.320000e-06	4.782078e-06	1.781981e-08	3.442653e+01	1.170380e+03
1.330000e-06	4.845419e-06	1.792439e-08	3.488253e+01	1.177372e+03
1.340000e-06	4.907158e-06	1.802409e-08	3.532698e+01	1.183976e+03
1.350000e-06	4.967332e-06	1.811902e-08	3.576018e+01	1.190219e+03
1.360000e-06	5.025823e-06	1.820892e-08	3.618127e+01	1.196130e+03
1.370000e-06	5.082340e-06	1.829393e-08	3.658813e+01	1.201736e+03
1.380000e-06	5.136893e-06	1.837592e-08	3.698086e+01	1.207063e+03
1.390000e-06	5.189613e-06	1.845401e-08	3.736040e+01	1.212134e+03
1.400000e-06	5.240302e-06	1.852646e-08	3.772531e+01	1.216966e+03
1.410000e-06	5.288724e-06	1.859413e-08	3.807391e+01	1.221573e+03
1.420000e-06	5.335104e-06	1.865890e-08	3.840780e+01	1.225962e+03
1.430000e-06	5.379773e-06	1.872107e-08	3.872937e+01	1.230134e+03
1.440000e-06	5.422709e-06	1.878165e-08	3.903847e+01	1.234088e+03
1.450000e-06	5.463605e-06	1.884017e-08	3.933289e+01	1.237819e+03
1.460000e-06	5.502444e-06	1.889520e-08	3.961249e+01	1.241318e+03
1.470000e-06	5.539522e-06	1.894564e-08	3.987942e+01	1.244579e+03
1.480000e-06	5.574868e-06	1.898950e-08	4.013388e+01	1.247598e+03
1.490000e-06	5.608129e-06	1.902974e-08	4.037333e+01	1.250374e+03
1.500000e-06	5.639224e-06	1.906708e-08	4.059718e+01	1.252908e+03
1.510000e-06	5.668452e-06	1.910154e-08	4.080760e+01	1.255208e+03
1.520000e-06	5.695840e-06	1.913272e-08	4.100477e+01	1.257283e+03
1.530000e-06	5.721097e-06	1.916127e-08	4.118659e+01	1.259146e+03
1.540000e-06	5.744094e-06	1.918649e-08	4.135215e+01	1.260809e+03
1.550000e-06	5.765069e-06	1.920778e-08	4.150315e+01	1.262282e+03
1.560000e-06	5.784183e-06	1.922650e-08	4.164075e+01	1.263576e+03
1.570000e-06	5.801161e-06	1.924320e-08	4.176298e+01	1.264695e+03
1.580000e-06	5.815907e-06	1.925792e-08	4.186914e+01	1.265643e+03
1.590000e-06	5.828566e-06	1.926920e-08	4.196027e+01	1.266421e+03
1.600000e-06	5.838857e-06	1.927786e-08	4.203436e+01	1.267031e+03
1.610000e-06	5.846806e-06	1.928678e-08	4.209158e+01	1.267476e+03
1.620000e-06	5.852700e-06	1.929520e-08	4.213401e+01	1.267760e+03
1.630000e-06	5.856660e-06	1.930006e-08	4.216252e+01	1.267891e+03
1.640000e-06	5.858574e-06	1.930321e-08	4.217630e+01	1.267876e+03
1.650000e-06	5.858348e-06	1.930433e-08	4.217467e+01	1.267724e+03
1.660000e-06	5.856164e-06	1.929393e-08	4.215895e+01	1.267442e+03
1.670000e-06	5.852208e-06	1.928298e-08	4.213047e+01	1.267031e+03
1.680000e-06	5.846285e-06	1.927500e-08	4.208783e+01	1.266489e+03
1.690000e-06	5.838302e-06	1.926651e-08	4.203036e+01	1.265812e+03
1.700000e-06	5.828530e-06	1.925820e-08	4.196001e+01	1.264988e+03
1.710000e-06	5.816900e-06	1.925134e-08	4.187628e+01	1.264008e+03
1.720000e-06	5.803129e-06	1.925205e-08	4.177715e+01	1.262866e+03
1.730000e-06	5.787314e-06	1.921735e-08	4.166329e+01	1.261561e+03
1.740000e-06	5.769570e-06	1.911211e-08	4.153555e+01	1.260099e+03
1.750000e-06	5.749300e-06	1.910906e-08	4.138963e+01	1.258493e+03
1.760000e-06	5.726089e-06	1.912845e-08	4.122253e+01	1.256764e+03
1.770000e-06	5.700523e-06	1.910107e-08	4.103848e+01	1.254932e+03
1.780000e-06	5.673419e-06	1.918522e-08	4.084335e+01	1.253015e+03
1.790000e-06	5.645396e-06	1.906792e-08	4.064162e+01	1.251024e+03
1.800000e-06	5.616109e-06	1.891744e-08	4.043078e+01	1.248959e+03
1.810000e-06	5.584428e-06	1.905657e-08	4.020270e+01	1.246805e+03
1.820000e-06	5.550659e-06	1.894884e-08	3.995960e+01	1.244538e+03
1.830000e-06	5.515268e-06	1.892545e-08	3.970482e+01	1.242125e+03
1.840000e-06	5.477767e-06	1.903387e-08	3.943484e+01	1.239530e+03
1.850000e-06	5.438214e-06	1.878128e-08	3.915010e+01	1.236720e+03
1.860000e-06	5.396703e-06	1.876559e-08	3.885126e+01	1.233673e+03
1.870000e-06	5.353332e-06	1.877235e-08	3.853903e+01	1.230376e+03
1.880000e-06	5.308301e-06	1.864527e-08	3.821485e+01	1.226835e+03
1.890000e-06	5.261152e-06	1.871124e-08	3.787541e+01	1.223062e+03
1.900000e-06	5.211880e-06	1.855633e-08	3.752070e+01	1.219081e+03
1.910000e-06	5.160644e-06	1.849989e-08	3.715185e+01	1.214915e+03
1.920000e-06	5.107198e-06	1.851230e-08	3.676709e+01	1.210584e+03
1.930000e-06	5.051744e-06	1.834650e-08	3.636787e+01	1.206098e+03
1.940000e-06	4.994378e-06	1.836159e-08	3.595489e+01	1.201458e+03
1.950000e-06	4.935190e-06	1.825399e-08	3.552879e+01	1.196653e+03
1.960000e-06	4.874285e-06	1.817524e-08	3.509033e+01	1.191663e+03
1.970000e-06	4.811429e-06	1.810554e-08	3.463783e+01	1.186465e+03
1.980000e-06	4.746756e-06	1.796687e-08	3.417224e+01	1.181037e+03
1.990000e-06	4.680443e-06	1.796604e-08	3.369485e+01	1.175361e+03
2.000000e-06	4.612506e-06	1.784338e-08	3.320577e+01	1.169424e+03
2.010000e-06	4.542802e-06	1.775887e-08	3.270396e+01	1.163223e+03
2.020000e-06	4.471211e-06	1.764722e-08	3.218857e+01	1.156756e+03
2.030000e-06	4.398043e-06	1.751597e-08	3.166183e+01	1.150026e+03
2.040000e-06	4.323418e-06	1.746330e-08	3.112460e+01	1.143032e+03
2.050000e-06	4.247154e-06	1.731504e-08	3.057557e+01	1.135770e+03
2.060000e-06	4.169068e-06	1.722264e-08	3.001343e+01	1.128231e+03
2.070000e-06	4.089360e-06	1.709966e-08	2.943960e+01	1.120399e+03
2.080000e-06	4.008242e-06	1.697243e-08	2.885562e+01	1.112257e+03
2.090000e-06	3.925759e-06	1.685121e-08	2.826183e+01	1.103788e+03
2.100000e-06	3.842025e-06	1.670864e-08	2.765902e+01	1.094976e+03
2.110000e-06	3.757004e-06	1.659968e-08	2.704694e+01	1.085810e+03
2.120000e-06	3.670608e-06	1.643284e-08	2.642498e+01	1.076281e+03
2.130000e-06	3.582808e-06	1.627927e-08	2.579290e+01	1.066385e+03
2.140000e-06	3.493695e-06	1.611670e-08	2.515136e+01	1.056116e+03
2.150000e-06	3.403396e-06	1.595963e-08	2.450129e+01	1.045464e+03
2.160000e-06	3.312019e-06	1.580049e-08	2.384346e+01	1.034413e+03
2.170000e-06	3.219535e-06	1.562910e-08	2.317767e+01	1.022939e+03
2.180000e-06	3.125794e-06	1.545852e-08	2.250282e+01	1.011011e+03
2.190000e-06	3.030771e-06	1.526406e-08	2.181874e+01	9.985904e+02
2.200000e-06	2.934527e-06	1.507038e-08	2.112587e+01	9.856380e+02
2.210000e-06	2.837288e-06	1.486442e-08	2.042584e+01	9.721136e+02
2.220000e-06	2.739105e-06	1.465192e-08	1.971902e+01	9.579798e+02
2.230000e-06	2.639989e-06	1.442181e-08	1.900547e+01	9.432034e+02
2.240000e-06	2.540060e-06	1.418369e-08	1.828607e+01	9.277546e+02
2.250000e-06	2.439185e-06	1.393992e-08	1.755987e+01	9.116048e+02
2.260000e-06	2.337336e-06	1.368313e-08	1.682665e+01	8.947235e+02
2.270000e-06	2.234444e-06	1.341787e-08	1.608593e+01	8.770754e+02
2.280000e-06	2.130537e-06	1.314068e-08	1.533789e+01	8.586173e+02
2.290000e-06	2.025844e-06	1.284978e-08	1.458420e+01	8.392965e+02
2.300000e-06	1.920504e-06	1.253919e-08	1.382585e+01	8.190511e+02
2.310000e-06	1.814576e-06	1.221582e-08	1.306326e+01	7.978104e+02
2.320000e-06	1.708046e-06	1.187592e-08	1.229635e+01	7.754976e+02
2.330000e-06	1.601013e-06	1.151899e-08	1.152581e+01	7.520313e+02
2.340000e-06	1.493542e-06	1.114289e-08	1.075212e+01	7.273284e+02
2.350000e-06	1.385583e-06	1.074804e-08	9.974911e+00	7.013063e+02
2.360000e-06	1.277122e-06	1.033299e-08	9.194097e+00	6.738853e+02
2.370000e-06	1.168300e-06	9.895329e-09	8.410675e+00	6.449931e+02
2.380000e-06	1.059228e-06	9.435130e-09	7.625459e+00	6.145697e+02
2.390000e-06	9.498272e-07	8.947922e-09	6.837875e+00	5.825752e+02
2.400000e-06	8.401409e-07	8.433490e-09	6.048235e+00	5.489991e+02
2.410000e-06	7.302151e-07	7.892878e-09	5.256871e+00	5.138691e+02
2.420000e-06	6.200640e-07	7.330415e-09	4.463886e+00	4.772603e+02
2.430000e-06	5.097603e-07	6.747892e-09	3.669801e+00	4.392989e+02
2.440000e-06	3.992027e-07	6.149057e-09	2.873889e+00	4.001612e+02
2.450000e-06	2.884070e-07	5.536543e-09	2.076263e+00	3.600649e+02
2.460000e-06	1.774580e-07	4.913381e-09	1.277533e+00	3.192522e+02
2.470000e-06	6.639576e-08	4.283466e-09	4.779879e-01	2.779666e+02
2.480000e-06	-4.466154e-08	3.650118e-09	-3.215217e-01	2.364258e+02
2.490000e-06	-1.557197e-07	3.015188e-09	-1.121037e+00	1.947949e+02
2.500000e-06	-2.666739e-07	2.379623e-09	-1.919805e+00	1.531644e+02
2.510000e-06	-3.774906e-07	1.744371e-09	-2.717582e+00	1.115375e+02
2.520000e-06	-4.882131e-07	1.105858e-09	-3.514682e+00	6.983051e+01
2.530000e-06	-5.987358e-07	4.643954e-10	-4.310343e+00	2.788612e+01
2.540000e-06	-7.089952e-07	-1.825828e-10	-5.104108e+00	-1.449910e+01
2.550000e-06	-8.189678e-07	-8.398862e-10	-5.895808e+00	-5.753857e+01
2.560000e-06	-9.287082e-07	-1.510426e-09	-6.685838e+00	-1.014149e+02
2.570000e-06	-1.038151e-06	-2.197039e-09	-7.473723e+00	-1.462409e+02
2.580000e-06	-1.147210e-06	-2.895965e-09	-8.258847e+00	-1.920290e+02
2.590000e-06	-1.255943e-06	-3.606084e-09	-9.041628e+00	-2.386729e+02
2.600000e-06	-1.364246e-06	-4.326100e-09	-9.821306e+00	-2.859457e+02
2.610000e-06	-1.471982e-06	-5.051861e-09	-1.059691e+01	-3.335136e+02
2.620000e-06	-1.579221e-06	-5.779566e-09	-1.136893e+01	-3.809642e+02
2.630000e-06	-1.685991e-06	-6.498546e-09	-1.213757e+01	-4.278432e+02
2.640000e-06	-1.792126e-06	-7.201247e-09	-1.290164e+01	-4.736963e+02
2.650000e-06	-1.897569e-06	-7.880933e-09	-1.366073e+01	-5.181083e+02
2.660000e-06	-2.002408e-06	-8.531501e-09	-1.441548e+01	-5.607348e+02
2.670000e-06	-2.106512e-06	-9.152630e-09	-1.516493e+01	-6.013238e+02
2.680000e-06	-2.209727e-06	-9.742756e-09	-1.590799e+01	-6.397241e+02
2.690000e-06	-2.312044e-06	-1.029933e-08	-1.664457e+01	-6.758818e+02
2.700000e-06	-2.413410e-06	-1.081950e-08	-1.737432e+01	-7.098268e+02
2.710000e-06	-2.513767e-06	-1.130509e-08	-1.809679e+01	-7.416530e+02
2.720000e-06	-2.613211e-06	-1.176133e-08	-1.881270e+01	-7.714951e+02
2.730000e-06	-2.711828e-06	-1.219079e-08	-1.952264e+01	-7.995073e+02
2.740000e-06	-2.809550e-06	-1.259457e-08	-2.022616e+01	-8.258447e+02
2.750000e-06	-2.906384e-06	-1.297667e-08	-2.092327e+01	-8.506512e+02
2.760000e-06	-3.002308e-06	-1.333787e-08	-2.161383e+01	-8.740519e+02
2.770000e-06	-3.097206e-06	-1.367660e-08	-2.229701e+01	-8.961521e+02
2.780000e-06	-3.190950e-06	-1.399301e-08	-2.297188e+01	-9.170391e+02
2.790000e-06	-3.283451e-06	-1.429179e-08	-2.363780e+01	-9.367869e+02
2.800000e-06	-3.374737e-06	-1.457745e-08	-2.429498e+01	-9.554614e+02
2.810000e-06	-3.464760e-06	-1.484805e-08	-2.494306e+01	-9.731245e+02
2.820000e-06	-3.553582e-06	-1.510342e-08	-2.558250e+01	-9.898373e+02
2.830000e-06	-3.641281e-06	-1.534619e-08	-2.621385e+01	-1.005661e+03
2.840000e-06	-3.727584e-06	-1.557779e-08	-2.683515e+01	-1.020657e+03
2.850000e-06	-3.812438e-06	-1.579903e-08	-2.744602e+01	-1.034885e+03
2.860000e-06	-3.895988e-06	-1.600994e-08	-2.804750e+01	-1.048401e+03
2.870000e-06	-3.978233e-06	-1.620994e-08	-2.863959e+01	-1.061255e+03
2.880000e-06	-4.059143e-06	-1.639758e-08	-2.922207e+01	-1.073489e+03
2.890000e-06	-4.138598e-06	-1.657369e-08	-2.979407e+01	-1.085140e+03
2.900000e-06	-4.216280e-06	-1.674111e-08	-3.035330e+01	-1.096235e+03
2.910000e-06	-4.292213e-06	-1.690080e-08	-3.089995e+01	-1.106796e+03
2.920000e-06	-4.366574e-06	-1.705363e-08	-3.143528e+01	-1.116838e+03
2.930000e-06	-4.439302e-06	-1.719899e-08	-3.195885e+01	-1.126377e+03
2.940000e-06	-4.510409e-06	-1.733775e-08	-3.247076e+01	-1.135422e+03
