# Temperatura_=_77.84
# Concentracion g/m^3_=_28200.0
# C_Vs_to_Am_M_A/Vsm_=_65563218390.804596
# pendiente_HvsI_1/m_=_3716.3
# ordenada_HvsI_A/m_=_1297.0
# frecuencia_Hz_=_301944.0821764331

Tiempo_(s)	Campo_(V.s)	Magnetizacion_(V.s)	Campo_(kA/m)	Magnetizacion_(A/m)
0.000000e+00	-5.820955e-06	-2.274014e-08	-4.194529e+01	-1.489465e+03
1.000000e-08	-5.819446e-06	-2.273816e-08	-4.193441e+01	-1.489118e+03
2.000000e-08	-5.815863e-06	-2.272849e-08	-4.190859e+01	-1.488622e+03
3.000000e-08	-5.810443e-06	-2.271601e-08	-4.186953e+01	-1.487972e+03
4.000000e-08	-5.803276e-06	-2.270308e-08	-4.181788e+01	-1.487155e+03
5.000000e-08	-5.794211e-06	-2.268518e-08	-4.175257e+01	-1.486155e+03
6.000000e-08	-5.782983e-06	-2.266591e-08	-4.167166e+01	-1.484956e+03
7.000000e-08	-5.769649e-06	-2.264246e-08	-4.157558e+01	-1.483547e+03
8.000000e-08	-5.754189e-06	-2.261536e-08	-4.146417e+01	-1.481925e+03
9.000000e-08	-5.736586e-06	-2.262928e-08	-4.133732e+01	-1.480097e+03
1.000000e-07	-5.716917e-06	-2.262886e-08	-4.119559e+01	-1.478081e+03
1.100000e-07	-5.695068e-06	-2.256055e-08	-4.103815e+01	-1.475902e+03
1.200000e-07	-5.671025e-06	-2.250255e-08	-4.086490e+01	-1.473587e+03
1.300000e-07	-5.644851e-06	-2.245256e-08	-4.067629e+01	-1.471159e+03
1.400000e-07	-5.616979e-06	-2.233582e-08	-4.047545e+01	-1.468631e+03
1.500000e-07	-5.587722e-06	-2.236555e-08	-4.026462e+01	-1.466004e+03
1.600000e-07	-5.556862e-06	-2.240773e-08	-4.004225e+01	-1.463264e+03
1.700000e-07	-5.524211e-06	-2.224656e-08	-3.980697e+01	-1.460383e+03
1.800000e-07	-5.489644e-06	-2.227989e-08	-3.955789e+01	-1.457323e+03
1.900000e-07	-5.453128e-06	-2.222301e-08	-3.929475e+01	-1.454045e+03
2.000000e-07	-5.414736e-06	-2.205990e-08	-3.901810e+01	-1.450514e+03
2.100000e-07	-5.374529e-06	-2.209274e-08	-3.872838e+01	-1.446705e+03
2.200000e-07	-5.332225e-06	-2.200512e-08	-3.842354e+01	-1.442608e+03
2.300000e-07	-5.287820e-06	-2.193702e-08	-3.810356e+01	-1.438228e+03
2.400000e-07	-5.241493e-06	-2.190999e-08	-3.776973e+01	-1.433581e+03
2.500000e-07	-5.193008e-06	-2.178908e-08	-3.742035e+01	-1.428692e+03
2.600000e-07	-5.142135e-06	-2.173475e-08	-3.705377e+01	-1.423585e+03
2.700000e-07	-5.088964e-06	-2.164587e-08	-3.667062e+01	-1.418281e+03
2.800000e-07	-5.033910e-06	-2.153062e-08	-3.627391e+01	-1.412788e+03
2.900000e-07	-4.977044e-06	-2.146386e-08	-3.586414e+01	-1.407102e+03
3.000000e-07	-4.918212e-06	-2.138034e-08	-3.544020e+01	-1.401207e+03
3.100000e-07	-4.857591e-06	-2.128743e-08	-3.500337e+01	-1.395079e+03
3.200000e-07	-4.795265e-06	-2.117953e-08	-3.455425e+01	-1.388694e+03
3.300000e-07	-4.731246e-06	-2.108321e-08	-3.409294e+01	-1.382027e+03
3.400000e-07	-4.665436e-06	-2.096157e-08	-3.361871e+01	-1.375064e+03
3.500000e-07	-4.597817e-06	-2.084439e-08	-3.313146e+01	-1.367797e+03
3.600000e-07	-4.528545e-06	-2.075037e-08	-3.263229e+01	-1.360230e+03
3.700000e-07	-4.457739e-06	-2.061601e-08	-3.212207e+01	-1.352370e+03
3.800000e-07	-4.385522e-06	-2.050479e-08	-3.160168e+01	-1.344223e+03
3.900000e-07	-4.311469e-06	-2.037205e-08	-3.106806e+01	-1.335793e+03
4.000000e-07	-4.235482e-06	-2.021575e-08	-3.052051e+01	-1.327075e+03
4.100000e-07	-4.157882e-06	-2.008680e-08	-2.996133e+01	-1.318051e+03
4.200000e-07	-4.078605e-06	-1.994763e-08	-2.939006e+01	-1.308700e+03
4.300000e-07	-3.997738e-06	-1.980353e-08	-2.880734e+01	-1.298991e+03
4.400000e-07	-3.915589e-06	-1.964110e-08	-2.821538e+01	-1.288897e+03
4.500000e-07	-3.832263e-06	-1.948367e-08	-2.761495e+01	-1.278394e+03
4.600000e-07	-3.747784e-06	-1.931471e-08	-2.700620e+01	-1.267466e+03
4.700000e-07	-3.662145e-06	-1.913930e-08	-2.638909e+01	-1.256108e+03
4.800000e-07	-3.575290e-06	-1.896368e-08	-2.576322e+01	-1.244319e+03
4.900000e-07	-3.487304e-06	-1.877497e-08	-2.512920e+01	-1.232103e+03
5.000000e-07	-3.397955e-06	-1.858218e-08	-2.448536e+01	-1.219459e+03
5.100000e-07	-3.307047e-06	-1.837582e-08	-2.383029e+01	-1.206378e+03
5.200000e-07	-3.214975e-06	-1.816817e-08	-2.316682e+01	-1.192839e+03
5.300000e-07	-3.121835e-06	-1.795127e-08	-2.249567e+01	-1.178807e+03
5.400000e-07	-3.027586e-06	-1.772770e-08	-2.181652e+01	-1.164239e+03
5.500000e-07	-2.932337e-06	-1.749726e-08	-2.113016e+01	-1.149082e+03
5.600000e-07	-2.836040e-06	-1.725678e-08	-2.043625e+01	-1.133285e+03
5.700000e-07	-2.738489e-06	-1.700196e-08	-1.973330e+01	-1.116798e+03
5.800000e-07	-2.639611e-06	-1.673489e-08	-1.902080e+01	-1.099581e+03
5.900000e-07	-2.539752e-06	-1.645889e-08	-1.830123e+01	-1.081600e+03
6.000000e-07	-2.439122e-06	-1.616994e-08	-1.757610e+01	-1.062828e+03
6.100000e-07	-2.337627e-06	-1.586998e-08	-1.684473e+01	-1.043237e+03
6.200000e-07	-2.235270e-06	-1.555935e-08	-1.610716e+01	-1.022794e+03
6.300000e-07	-2.132138e-06	-1.523564e-08	-1.536399e+01	-1.001455e+03
6.400000e-07	-2.028312e-06	-1.489447e-08	-1.461584e+01	-9.791607e+02
6.500000e-07	-1.923764e-06	-1.453717e-08	-1.386247e+01	-9.558381e+02
6.600000e-07	-1.818335e-06	-1.416115e-08	-1.310276e+01	-9.313997e+02
6.700000e-07	-1.712064e-06	-1.376683e-08	-1.233698e+01	-9.057483e+02
6.800000e-07	-1.605068e-06	-1.335573e-08	-1.156597e+01	-8.787814e+02
6.900000e-07	-1.497470e-06	-1.292424e-08	-1.079064e+01	-8.503956e+02
7.000000e-07	-1.389472e-06	-1.246736e-08	-1.001241e+01	-8.204901e+02
7.100000e-07	-1.281172e-06	-1.198315e-08	-9.232008e+00	-7.889693e+02
7.200000e-07	-1.172496e-06	-1.147366e-08	-8.448903e+00	-7.557449e+02
7.300000e-07	-1.063405e-06	-1.093761e-08	-7.662799e+00	-7.207391e+02
7.400000e-07	-9.539479e-07	-1.037693e-08	-6.874064e+00	-6.838896e+02
7.500000e-07	-8.441478e-07	-9.789323e-09	-6.082853e+00	-6.451580e+02
7.600000e-07	-7.340772e-07	-9.172401e-09	-5.289695e+00	-6.045398e+02
7.700000e-07	-6.238284e-07	-8.523298e-09	-4.495252e+00	-5.620764e+02
7.800000e-07	-5.134294e-07	-7.845989e-09	-3.699727e+00	-5.178641e+02
7.900000e-07	-4.028786e-07	-7.147755e-09	-2.903107e+00	-4.720598e+02
8.000000e-07	-2.921808e-07	-6.429449e-09	-2.105429e+00	-4.248772e+02
8.100000e-07	-1.813646e-07	-5.696323e-09	-1.306897e+00	-3.765733e+02
8.200000e-07	-7.048246e-08	-4.950263e-09	-5.078903e-01	-3.274256e+02
8.300000e-07	4.046311e-08	-4.195563e-09	2.915735e-01	-2.777003e+02
8.400000e-07	1.514224e-07	-3.434198e-09	1.091136e+00	-2.276181e+02
8.500000e-07	2.623017e-07	-2.668453e-09	1.890123e+00	-1.773220e+02
8.600000e-07	3.731104e-07	-1.899544e-09	2.688600e+00	-1.268560e+02
8.700000e-07	4.838006e-07	-1.127308e-09	3.486224e+00	-7.615752e+01
8.800000e-07	5.943622e-07	-3.474745e-10	4.282921e+00	-2.506953e+01
8.900000e-07	7.048036e-07	4.432805e-10	5.078752e+00	2.662905e+01
9.000000e-07	8.150668e-07	1.245572e-09	5.873298e+00	7.917760e+01
9.100000e-07	9.251211e-07	2.062055e-09	6.666340e+00	1.327798e+02
9.200000e-07	1.034887e-06	2.893892e-09	7.457302e+00	1.875503e+02
9.300000e-07	1.144293e-06	3.742411e-09	8.245673e+00	2.434709e+02
9.400000e-07	1.253320e-06	4.606954e-09	9.031311e+00	3.003653e+02
9.500000e-07	1.361924e-06	5.484770e-09	9.813905e+00	3.578969e+02
9.600000e-07	1.470140e-06	6.366600e-09	1.059370e+01	4.155899e+02
9.700000e-07	1.577966e-06	7.244023e-09	1.137069e+01	4.728724e+02
9.800000e-07	1.685238e-06	8.103375e-09	1.214367e+01	5.291328e+02
9.900000e-07	1.791775e-06	8.933218e-09	1.291137e+01	5.837812e+02
1.000000e-06	1.897373e-06	9.727965e-09	1.367230e+01	6.363051e+02
1.010000e-06	2.002078e-06	1.048450e-08	1.442679e+01	6.863128e+02
1.020000e-06	2.106095e-06	1.120167e-08	1.517633e+01	7.335570e+02
1.030000e-06	2.209391e-06	1.187448e-08	1.592068e+01	7.779369e+02
1.040000e-06	2.311847e-06	1.250462e-08	1.665897e+01	8.194824e+02
1.050000e-06	2.413403e-06	1.309446e-08	1.739077e+01	8.583235e+02
1.060000e-06	2.514110e-06	1.364747e-08	1.811645e+01	8.946532e+02
1.070000e-06	2.614098e-06	1.416580e-08	1.883696e+01	9.286903e+02
1.080000e-06	2.713259e-06	1.465231e-08	1.955150e+01	9.606490e+02
1.090000e-06	2.811235e-06	1.511125e-08	2.025751e+01	9.907186e+02
1.100000e-06	2.908005e-06	1.554249e-08	2.095483e+01	1.019055e+03
1.110000e-06	3.003745e-06	1.594781e-08	2.164472e+01	1.045783e+03
1.120000e-06	3.098399e-06	1.632887e-08	2.232679e+01	1.071002e+03
1.130000e-06	3.192001e-06	1.668913e-08	2.300127e+01	1.094800e+03
1.140000e-06	3.284658e-06	1.703042e-08	2.366895e+01	1.117265e+03
1.150000e-06	3.376386e-06	1.735433e-08	2.432994e+01	1.138484e+03
1.160000e-06	3.466820e-06	1.766101e-08	2.498159e+01	1.158553e+03
1.170000e-06	3.555757e-06	1.795142e-08	2.562246e+01	1.177568e+03
1.180000e-06	3.643422e-06	1.822646e-08	2.625418e+01	1.195618e+03
1.190000e-06	3.729834e-06	1.848721e-08	2.687685e+01	1.212785e+03
1.200000e-06	3.815042e-06	1.873648e-08	2.749085e+01	1.229132e+03
1.210000e-06	3.899187e-06	1.897377e-08	2.809719e+01	1.244708e+03
1.220000e-06	3.982031e-06	1.919788e-08	2.869416e+01	1.259546e+03
1.230000e-06	4.063271e-06	1.941171e-08	2.927957e+01	1.273671e+03
1.240000e-06	4.142964e-06	1.961458e-08	2.985383e+01	1.287107e+03
1.250000e-06	4.221167e-06	1.980573e-08	3.041735e+01	1.299880e+03
1.260000e-06	4.297832e-06	1.998819e-08	3.096979e+01	1.312026e+03
1.270000e-06	4.372871e-06	2.016277e-08	3.151051e+01	1.323584e+03
1.280000e-06	4.446128e-06	2.032988e-08	3.203840e+01	1.334602e+03
1.290000e-06	4.517624e-06	2.049045e-08	3.255360e+01	1.345124e+03
1.300000e-06	4.587441e-06	2.064508e-08	3.305669e+01	1.355188e+03
1.310000e-06	4.655723e-06	2.079285e-08	3.354873e+01	1.364821e+03
1.320000e-06	4.722385e-06	2.093422e-08	3.402909e+01	1.374035e+03
1.330000e-06	4.787230e-06	2.106866e-08	3.449635e+01	1.382830e+03
1.340000e-06	4.850343e-06	2.119551e-08	3.495114e+01	1.391198e+03
1.350000e-06	4.911790e-06	2.131615e-08	3.539392e+01	1.399127e+03
1.360000e-06	4.971602e-06	2.143079e-08	3.582492e+01	1.406610e+03
1.370000e-06	5.029617e-06	2.153806e-08	3.624297e+01	1.413651e+03
1.380000e-06	5.085816e-06	2.163885e-08	3.664794e+01	1.420267e+03
1.390000e-06	5.140228e-06	2.173422e-08	3.704002e+01	1.426488e+03
1.400000e-06	5.192647e-06	2.182423e-08	3.741775e+01	1.432352e+03
1.410000e-06	5.242807e-06	2.190863e-08	3.777920e+01	1.437902e+03
1.420000e-06	5.290810e-06	2.198893e-08	3.812510e+01	1.443180e+03
1.430000e-06	5.336944e-06	2.206544e-08	3.845754e+01	1.448216e+03
1.440000e-06	5.381373e-06	2.213746e-08	3.877769e+01	1.453029e+03
1.450000e-06	5.423914e-06	2.220718e-08	3.908424e+01	1.457624e+03
1.460000e-06	5.464374e-06	2.227477e-08	3.937579e+01	1.461992e+03
1.470000e-06	5.502958e-06	2.233895e-08	3.965382e+01	1.466116e+03
1.480000e-06	5.539773e-06	2.239758e-08	3.991911e+01	1.469977e+03
1.490000e-06	5.574664e-06	2.245058e-08	4.017053e+01	1.473557e+03
1.500000e-06	5.607502e-06	2.250052e-08	4.040716e+01	1.476845e+03
1.510000e-06	5.638315e-06	2.254762e-08	4.062919e+01	1.479839e+03
1.520000e-06	5.667248e-06	2.259000e-08	4.083768e+01	1.482546e+03
1.530000e-06	5.694241e-06	2.262812e-08	4.103219e+01	1.484979e+03
1.540000e-06	5.719047e-06	2.266137e-08	4.121094e+01	1.487156e+03
1.550000e-06	5.741698e-06	2.268991e-08	4.137416e+01	1.489092e+03
1.560000e-06	5.762424e-06	2.271504e-08	4.152351e+01	1.490802e+03
1.570000e-06	5.781226e-06	2.273777e-08	4.165900e+01	1.492294e+03
1.580000e-06	5.797880e-06	2.275958e-08	4.177901e+01	1.493572e+03
1.590000e-06	5.812387e-06	2.277719e-08	4.188354e+01	1.494636e+03
1.600000e-06	5.824689e-06	2.278980e-08	4.197219e+01	1.495488e+03
1.610000e-06	5.834601e-06	2.279921e-08	4.204362e+01	1.496130e+03
1.620000e-06	5.842228e-06	2.280819e-08	4.209857e+01	1.496568e+03
1.630000e-06	5.847831e-06	2.281634e-08	4.213895e+01	1.496812e+03
1.640000e-06	5.851485e-06	2.282163e-08	4.216528e+01	1.496875e+03
1.650000e-06	5.853015e-06	2.282515e-08	4.217630e+01	1.496772e+03
1.660000e-06	5.852412e-06	2.282072e-08	4.217196e+01	1.496514e+03
1.670000e-06	5.849936e-06	2.280943e-08	4.215411e+01	1.496108e+03
1.680000e-06	5.845712e-06	2.280037e-08	4.212368e+01	1.495551e+03
1.690000e-06	5.839466e-06	2.279012e-08	4.207867e+01	1.494836e+03
1.700000e-06	5.831150e-06	2.277942e-08	4.201875e+01	1.493948e+03
1.710000e-06	5.821078e-06	2.276786e-08	4.194616e+01	1.492870e+03
1.720000e-06	5.809120e-06	2.275589e-08	4.186000e+01	1.491588e+03
1.730000e-06	5.795024e-06	2.274571e-08	4.175842e+01	1.490094e+03
1.740000e-06	5.778979e-06	2.266595e-08	4.164281e+01	1.488389e+03
1.750000e-06	5.760920e-06	2.260207e-08	4.151267e+01	1.486483e+03
1.760000e-06	5.740178e-06	2.260834e-08	4.136321e+01	1.484399e+03
1.770000e-06	5.716683e-06	2.258444e-08	4.119391e+01	1.482162e+03
1.780000e-06	5.691003e-06	2.260076e-08	4.100886e+01	1.479799e+03
1.790000e-06	5.663832e-06	2.261574e-08	4.081307e+01	1.477329e+03
1.800000e-06	5.635762e-06	2.242833e-08	4.061080e+01	1.474762e+03
1.810000e-06	5.606126e-06	2.243751e-08	4.039724e+01	1.472092e+03
1.820000e-06	5.574072e-06	2.243033e-08	4.016626e+01	1.469299e+03
1.830000e-06	5.540161e-06	2.226919e-08	3.992191e+01	1.466351e+03
1.840000e-06	5.504559e-06	2.239022e-08	3.966536e+01	1.463209e+03
1.850000e-06	5.466759e-06	2.230137e-08	3.939298e+01	1.459834e+03
1.860000e-06	5.426894e-06	2.213975e-08	3.910572e+01	1.456195e+03
1.870000e-06	5.385099e-06	2.217548e-08	3.880455e+01	1.452272e+03
1.880000e-06	5.341603e-06	2.202171e-08	3.849111e+01	1.448062e+03
1.890000e-06	5.296375e-06	2.199726e-08	3.816521e+01	1.443573e+03
1.900000e-06	5.248952e-06	2.194745e-08	3.782348e+01	1.438826e+03
1.910000e-06	5.199439e-06	2.177918e-08	3.746670e+01	1.433848e+03
1.920000e-06	5.147832e-06	2.184054e-08	3.709482e+01	1.428661e+03
1.930000e-06	5.094019e-06	2.171013e-08	3.670705e+01	1.423281e+03
1.940000e-06	5.038248e-06	2.159216e-08	3.630517e+01	1.417712e+03
1.950000e-06	4.980644e-06	2.153785e-08	3.589008e+01	1.411944e+03
1.960000e-06	4.921322e-06	2.141214e-08	3.546261e+01	1.405960e+03
1.970000e-06	4.860123e-06	2.136232e-08	3.502161e+01	1.399733e+03
1.980000e-06	4.796972e-06	2.121112e-08	3.456655e+01	1.393238e+03
1.990000e-06	4.732069e-06	2.114162e-08	3.409886e+01	1.386455e+03
2.000000e-06	4.665522e-06	2.105902e-08	3.361934e+01	1.379372e+03
2.010000e-06	4.597540e-06	2.090840e-08	3.312946e+01	1.371985e+03
2.020000e-06	4.527796e-06	2.081333e-08	3.262689e+01	1.364301e+03
2.030000e-06	4.456141e-06	2.065191e-08	3.211056e+01	1.356326e+03
2.040000e-06	4.382871e-06	2.057573e-08	3.158258e+01	1.348067e+03
2.050000e-06	4.308055e-06	2.044516e-08	3.104346e+01	1.339523e+03
2.060000e-06	4.231634e-06	2.028552e-08	3.049278e+01	1.330686e+03
2.070000e-06	4.153419e-06	2.016263e-08	2.992917e+01	1.321536e+03
2.080000e-06	4.073570e-06	1.999719e-08	2.935378e+01	1.312047e+03
2.090000e-06	3.992344e-06	1.986291e-08	2.876847e+01	1.302189e+03
2.100000e-06	3.909770e-06	1.969340e-08	2.817345e+01	1.291935e+03
2.110000e-06	3.825930e-06	1.955101e-08	2.756931e+01	1.281265e+03
2.120000e-06	3.740836e-06	1.938807e-08	2.695613e+01	1.270167e+03
2.130000e-06	3.654292e-06	1.920125e-08	2.633250e+01	1.258638e+03
2.140000e-06	3.566330e-06	1.901865e-08	2.569865e+01	1.246680e+03
2.150000e-06	3.477166e-06	1.882200e-08	2.505615e+01	1.234295e+03
2.160000e-06	3.386788e-06	1.864152e-08	2.440490e+01	1.221479e+03
2.170000e-06	3.295298e-06	1.843716e-08	2.374563e+01	1.208220e+03
2.180000e-06	3.202754e-06	1.823502e-08	2.307876e+01	1.194492e+03
2.190000e-06	3.108919e-06	1.801708e-08	2.240259e+01	1.180254e+03
2.200000e-06	3.013704e-06	1.779270e-08	2.171648e+01	1.165460e+03
2.210000e-06	2.917382e-06	1.756061e-08	2.102240e+01	1.150056e+03
2.220000e-06	2.820097e-06	1.731638e-08	2.032137e+01	1.133992e+03
2.230000e-06	2.721826e-06	1.706558e-08	1.961323e+01	1.117221e+03
2.240000e-06	2.622627e-06	1.679892e-08	1.889841e+01	1.099707e+03
2.250000e-06	2.522580e-06	1.652542e-08	1.817749e+01	1.081417e+03
2.260000e-06	2.421723e-06	1.623035e-08	1.745072e+01	1.062326e+03
2.270000e-06	2.319843e-06	1.592487e-08	1.671658e+01	1.042403e+03
2.280000e-06	2.216775e-06	1.561096e-08	1.597388e+01	1.021613e+03
2.290000e-06	2.112827e-06	1.528809e-08	1.522484e+01	9.999050e+02
2.300000e-06	2.008259e-06	1.494656e-08	1.447134e+01	9.772152e+02
2.310000e-06	1.903011e-06	1.458519e-08	1.371293e+01	9.534641e+02
2.320000e-06	1.797099e-06	1.420264e-08	1.294973e+01	9.285599e+02
2.330000e-06	1.690652e-06	1.379927e-08	1.218269e+01	9.024028e+02
2.340000e-06	1.583700e-06	1.337862e-08	1.141200e+01	8.748895e+02
2.350000e-06	1.476245e-06	1.293986e-08	1.063769e+01	8.459172e+02
2.360000e-06	1.368352e-06	1.248231e-08	9.860221e+00	8.153870e+02
2.370000e-06	1.260105e-06	1.199591e-08	9.080202e+00	7.832057e+02
2.380000e-06	1.151585e-06	1.148068e-08	8.298217e+00	7.492888e+02
2.390000e-06	1.042778e-06	1.093285e-08	7.514165e+00	7.135638e+02
2.400000e-06	9.335713e-07	1.035659e-08	6.727232e+00	6.759767e+02
2.410000e-06	8.239550e-07	9.754412e-09	5.937346e+00	6.365009e+02
2.420000e-06	7.139694e-07	9.124395e-09	5.144800e+00	5.951488e+02
2.430000e-06	6.037550e-07	8.465759e-09	4.350605e+00	5.519823e+02
2.440000e-06	4.933910e-07	7.779111e-09	3.555332e+00	5.071214e+02
2.450000e-06	3.828568e-07	7.070018e-09	2.758832e+00	4.607461e+02
2.460000e-06	2.721512e-07	6.339351e-09	1.961097e+00	4.130893e+02
2.470000e-06	1.612136e-07	5.593144e-09	1.161691e+00	3.644195e+02
2.480000e-06	5.020132e-08	4.838510e-09	3.617462e-01	3.150137e+02
2.490000e-06	-6.069752e-08	4.079822e-09	-4.373809e-01	2.651243e+02
2.500000e-06	-1.715904e-07	3.314997e-09	-1.236465e+00	2.149448e+02
2.510000e-06	-2.824008e-07	2.544548e-09	-2.034955e+00	1.645815e+02
2.520000e-06	-3.930536e-07	1.771364e-09	-2.832309e+00	1.140361e+02
2.530000e-06	-5.035871e-07	9.931950e-10	-3.628804e+00	6.320651e+01
2.540000e-06	-6.139703e-07	2.087663e-10	-4.424215e+00	1.190594e+01
2.550000e-06	-7.241574e-07	-5.857203e-10	-5.218213e+00	-4.009996e+01
2.560000e-06	-8.339948e-07	-1.393434e-09	-6.009692e+00	-9.304319e+01
2.570000e-06	-9.434326e-07	-2.219482e-09	-6.798291e+00	-1.470985e+02
2.580000e-06	-1.052552e-06	-3.064314e-09	-7.584596e+00	-2.023326e+02
2.590000e-06	-1.161346e-06	-3.922907e-09	-8.368553e+00	-2.586671e+02
2.600000e-06	-1.269766e-06	-4.793030e-09	-9.149822e+00	-3.158616e+02
2.610000e-06	-1.377840e-06	-5.670501e-09	-9.928590e+00	-3.735210e+02
2.620000e-06	-1.485459e-06	-6.549894e-09	-1.070409e+01	-4.311257e+02
2.630000e-06	-1.592556e-06	-7.423375e-09	-1.147582e+01	-4.880811e+02
2.640000e-06	-1.699116e-06	-8.280654e-09	-1.224368e+01	-5.437766e+02
2.650000e-06	-1.805076e-06	-9.108332e-09	-1.300721e+01	-5.976467e+02
2.660000e-06	-1.910382e-06	-9.896709e-09	-1.376604e+01	-6.492224e+02
2.670000e-06	-2.014993e-06	-1.064334e-08	-1.451986e+01	-6.981669e+02
2.680000e-06	-2.118872e-06	-1.134698e-08	-1.526840e+01	-7.442913e+02
2.690000e-06	-2.221961e-06	-1.200830e-08	-1.601125e+01	-7.875490e+02
2.700000e-06	-2.324021e-06	-1.263040e-08	-1.674669e+01	-8.280134e+02
2.710000e-06	-2.424977e-06	-1.321319e-08	-1.747417e+01	-8.658440e+02
2.720000e-06	-2.525088e-06	-1.375776e-08	-1.819556e+01	-9.012478e+02
2.730000e-06	-2.624393e-06	-1.426761e-08	-1.891114e+01	-9.344451e+02
2.740000e-06	-2.722792e-06	-1.474477e-08	-1.962020e+01	-9.656421e+02
2.750000e-06	-2.820264e-06	-1.519267e-08	-2.032257e+01	-9.950153e+02
2.760000e-06	-2.916873e-06	-1.561431e-08	-2.101873e+01	-1.022708e+03
2.770000e-06	-3.012605e-06	-1.601460e-08	-2.170856e+01	-1.048833e+03
2.780000e-06	-3.107181e-06	-1.639347e-08	-2.239007e+01	-1.073485e+03
2.790000e-06	-3.200519e-06	-1.674870e-08	-2.306265e+01	-1.096750e+03
2.800000e-06	-3.292705e-06	-1.708144e-08	-2.372694e+01	-1.118716e+03
2.810000e-06	-3.383689e-06	-1.739575e-08	-2.438256e+01	-1.139473e+03
2.820000e-06	-3.473464e-06	-1.769608e-08	-2.502947e+01	-1.159118e+03
2.830000e-06	-3.562124e-06	-1.798325e-08	-2.566835e+01	-1.177744e+03
2.840000e-06	-3.649618e-06	-1.825720e-08	-2.629882e+01	-1.195440e+03
2.850000e-06	-3.735616e-06	-1.851647e-08	-2.691852e+01	-1.212279e+03
2.860000e-06	-3.820176e-06	-1.876132e-08	-2.752785e+01	-1.228320e+03
2.870000e-06	-3.903483e-06	-1.899331e-08	-2.812815e+01	-1.243604e+03
2.880000e-06	-3.985448e-06	-1.921515e-08	-2.871878e+01	-1.258160e+03
2.890000e-06	-4.066094e-06	-1.942785e-08	-2.929991e+01	-1.272013e+03
2.900000e-06	-4.145196e-06	-1.963058e-08	-2.986991e+01	-1.285186e+03
2.910000e-06	-4.222540e-06	-1.982471e-08	-3.042725e+01	-1.297709e+03
2.920000e-06	-4.298200e-06	-2.000947e-08	-3.097244e+01	-1.309620e+03
2.930000e-06	-4.372243e-06	-2.018463e-08	-3.150599e+01	-1.320962e+03
2.940000e-06	-4.444742e-06	-2.034954e-08	-3.202842e+01	-1.331781e+03
