# Temperatura_=_88.23
# Concentracion g/m^3_=_28200.0
# C_Vs_to_Am_M_A/Vsm_=_65563218390.804596
# pendiente_HvsI_1/m_=_3716.3
# ordenada_HvsI_A/m_=_1297.0
# frecuencia_Hz_=_301942.8912382296

Tiempo_(s)	Campo_(V.s)	Magnetizacion_(V.s)	Campo_(kA/m)	Magnetizacion_(A/m)
0.000000e+00	-5.831998e-06	-2.568433e-08	-4.193217e+01	-1.682149e+03
1.000000e-08	-5.828593e-06	-2.567797e-08	-4.190769e+01	-1.681608e+03
2.000000e-08	-5.823329e-06	-2.566471e-08	-4.186984e+01	-1.680893e+03
3.000000e-08	-5.816299e-06	-2.565063e-08	-4.181929e+01	-1.679996e+03
4.000000e-08	-5.807439e-06	-2.563084e-08	-4.175559e+01	-1.678899e+03
5.000000e-08	-5.796398e-06	-2.560661e-08	-4.167621e+01	-1.677583e+03
6.000000e-08	-5.783157e-06	-2.558118e-08	-4.158100e+01	-1.676029e+03
7.000000e-08	-5.767795e-06	-2.554614e-08	-4.147055e+01	-1.674226e+03
8.000000e-08	-5.750283e-06	-2.554180e-08	-4.134464e+01	-1.672174e+03
9.000000e-08	-5.730714e-06	-2.557732e-08	-4.120394e+01	-1.669889e+03
1.000000e-07	-5.709013e-06	-2.550805e-08	-4.104791e+01	-1.667402e+03
1.100000e-07	-5.685164e-06	-2.541157e-08	-4.087643e+01	-1.664752e+03
1.200000e-07	-5.659150e-06	-2.537317e-08	-4.068939e+01	-1.661983e+03
1.300000e-07	-5.631336e-06	-2.526023e-08	-4.048941e+01	-1.659128e+03
1.400000e-07	-5.602129e-06	-2.519952e-08	-4.027941e+01	-1.656205e+03
1.500000e-07	-5.571339e-06	-2.533286e-08	-4.005803e+01	-1.653211e+03
1.600000e-07	-5.538752e-06	-2.519091e-08	-3.982373e+01	-1.650114e+03
1.700000e-07	-5.504314e-06	-2.508956e-08	-3.957612e+01	-1.646867e+03
1.800000e-07	-5.467926e-06	-2.515548e-08	-3.931449e+01	-1.643405e+03
1.900000e-07	-5.429610e-06	-2.494490e-08	-3.903899e+01	-1.639665e+03
2.000000e-07	-5.389498e-06	-2.491752e-08	-3.875059e+01	-1.635593e+03
2.100000e-07	-5.347311e-06	-2.493190e-08	-3.844726e+01	-1.631156e+03
2.200000e-07	-5.302985e-06	-2.478084e-08	-3.812855e+01	-1.626347e+03
2.300000e-07	-5.256754e-06	-2.473112e-08	-3.779616e+01	-1.621183e+03
2.400000e-07	-5.208388e-06	-2.463465e-08	-3.744841e+01	-1.615699e+03
2.500000e-07	-5.157618e-06	-2.453224e-08	-3.708337e+01	-1.609939e+03
2.600000e-07	-5.104536e-06	-2.448010e-08	-3.670170e+01	-1.603946e+03
2.700000e-07	-5.049563e-06	-2.434837e-08	-3.630645e+01	-1.597747e+03
2.800000e-07	-4.992840e-06	-2.426630e-08	-3.589861e+01	-1.591350e+03
2.900000e-07	-4.934157e-06	-2.415923e-08	-3.547668e+01	-1.584743e+03
3.000000e-07	-4.873598e-06	-2.404830e-08	-3.504126e+01	-1.577894e+03
3.100000e-07	-4.811362e-06	-2.394594e-08	-3.459378e+01	-1.570766e+03
3.200000e-07	-4.747402e-06	-2.383395e-08	-3.413391e+01	-1.563319e+03
3.300000e-07	-4.681549e-06	-2.372541e-08	-3.366042e+01	-1.555525e+03
3.400000e-07	-4.613867e-06	-2.357436e-08	-3.317379e+01	-1.547368e+03
3.500000e-07	-4.544561e-06	-2.345370e-08	-3.267548e+01	-1.538850e+03
3.600000e-07	-4.473717e-06	-2.331123e-08	-3.216611e+01	-1.529982e+03
3.700000e-07	-4.401396e-06	-2.317572e-08	-3.164611e+01	-1.520780e+03
3.800000e-07	-4.327295e-06	-2.304983e-08	-3.111333e+01	-1.511256e+03
3.900000e-07	-4.251311e-06	-2.287955e-08	-3.056700e+01	-1.501411e+03
4.000000e-07	-4.173708e-06	-2.272253e-08	-3.000904e+01	-1.491233e+03
4.100000e-07	-4.094466e-06	-2.256570e-08	-2.943928e+01	-1.480696e+03
4.200000e-07	-4.013591e-06	-2.239767e-08	-2.885779e+01	-1.469767e+03
4.300000e-07	-3.931357e-06	-2.222096e-08	-2.826653e+01	-1.458409e+03
4.400000e-07	-3.848014e-06	-2.203780e-08	-2.766729e+01	-1.446594e+03
4.500000e-07	-3.763517e-06	-2.185725e-08	-2.705975e+01	-1.434305e+03
4.600000e-07	-3.677775e-06	-2.165868e-08	-2.644327e+01	-1.421536e+03
4.700000e-07	-3.590868e-06	-2.145936e-08	-2.581841e+01	-1.408291e+03
4.800000e-07	-3.502817e-06	-2.125383e-08	-2.518532e+01	-1.394577e+03
4.900000e-07	-3.413408e-06	-2.103415e-08	-2.454247e+01	-1.380394e+03
5.000000e-07	-3.322525e-06	-2.080366e-08	-2.388901e+01	-1.365732e+03
5.100000e-07	-3.230390e-06	-2.056569e-08	-2.322656e+01	-1.350563e+03
5.200000e-07	-3.137120e-06	-2.032714e-08	-2.255595e+01	-1.334843e+03
5.300000e-07	-3.042711e-06	-2.007713e-08	-2.187715e+01	-1.318517e+03
5.400000e-07	-2.947241e-06	-1.982024e-08	-2.119072e+01	-1.301524e+03
5.500000e-07	-2.850677e-06	-1.955029e-08	-2.049642e+01	-1.283807e+03
5.600000e-07	-2.752931e-06	-1.926522e-08	-1.979363e+01	-1.265317e+03
5.700000e-07	-2.654012e-06	-1.896878e-08	-1.908240e+01	-1.246019e+03
5.800000e-07	-2.554049e-06	-1.866086e-08	-1.836366e+01	-1.225886e+03
5.900000e-07	-2.453235e-06	-1.834094e-08	-1.763880e+01	-1.204893e+03
6.000000e-07	-2.351574e-06	-1.800449e-08	-1.690786e+01	-1.183013e+03
6.100000e-07	-2.249057e-06	-1.765535e-08	-1.617076e+01	-1.160203e+03
6.200000e-07	-2.145770e-06	-1.728859e-08	-1.542812e+01	-1.136399e+03
6.300000e-07	-2.041752e-06	-1.690648e-08	-1.468024e+01	-1.111519e+03
6.400000e-07	-1.936963e-06	-1.650944e-08	-1.392680e+01	-1.085461e+03
6.500000e-07	-1.831341e-06	-1.609205e-08	-1.316738e+01	-1.058113e+03
6.600000e-07	-1.724902e-06	-1.565208e-08	-1.240207e+01	-1.029359e+03
6.700000e-07	-1.617754e-06	-1.518821e-08	-1.163168e+01	-9.990902e+02
6.800000e-07	-1.510059e-06	-1.470064e-08	-1.085735e+01	-9.672042e+02
6.900000e-07	-1.401938e-06	-1.418618e-08	-1.007996e+01	-9.336080e+02
7.000000e-07	-1.293423e-06	-1.364482e-08	-9.299735e+00	-8.982136e+02
7.100000e-07	-1.184469e-06	-1.307578e-08	-8.516357e+00	-8.609330e+02
7.200000e-07	-1.075176e-06	-1.247752e-08	-7.730537e+00	-8.216765e+02
7.300000e-07	-9.656103e-07	-1.184789e-08	-6.942755e+00	-7.803551e+02
7.400000e-07	-8.557276e-07	-1.118512e-08	-6.152697e+00	-7.368905e+02
7.500000e-07	-7.455275e-07	-1.048872e-08	-5.360356e+00	-6.912327e+02
7.600000e-07	-6.350540e-07	-9.757035e-09	-4.566050e+00	-6.433806e+02
7.700000e-07	-5.244155e-07	-8.989493e-09	-3.770557e+00	-5.934030e+02
7.800000e-07	-4.136437e-07	-8.193712e-09	-2.974105e+00	-5.414525e+02
7.900000e-07	-3.027216e-07	-7.376331e-09	-2.176574e+00	-4.877665e+02
8.000000e-07	-1.916921e-07	-6.537539e-09	-1.378270e+00	-4.326530e+02
8.100000e-07	-8.053812e-08	-5.681228e-09	-5.790705e-01	-3.764591e+02
8.200000e-07	3.070191e-08	-4.813886e-09	2.207473e-01	-3.195273e+02
8.300000e-07	1.419506e-07	-3.941486e-09	1.020627e+00	-2.621456e+02
8.400000e-07	2.531367e-07	-3.065003e-09	1.820058e+00	-2.045025e+02
8.500000e-07	3.642200e-07	-2.182996e-09	2.618748e+00	-1.466554e+02
8.600000e-07	4.752140e-07	-1.296103e-09	3.416798e+00	-8.852132e+01
8.700000e-07	5.860880e-07	-4.020937e-10	4.213984e+00	-2.989488e+01
8.800000e-07	6.968176e-07	5.029557e-10	5.010131e+00	2.950850e+01
8.900000e-07	8.073810e-07	1.425559e-09	5.805084e+00	8.998950e+01
9.000000e-07	9.177037e-07	2.368054e-09	6.598306e+00	1.517925e+02
9.100000e-07	1.027706e-06	3.329643e-09	7.389222e+00	2.150371e+02
9.200000e-07	1.137360e-06	4.310589e-09	8.177637e+00	2.796658e+02
9.300000e-07	1.246615e-06	5.309358e-09	8.963184e+00	3.454184e+02
9.400000e-07	1.355411e-06	6.320603e-09	9.745431e+00	4.118377e+02
9.500000e-07	1.463791e-06	7.333484e-09	1.052468e+01	4.783061e+02
9.600000e-07	1.571781e-06	8.337117e-09	1.130114e+01	5.441065e+02
9.700000e-07	1.679289e-06	9.318927e-09	1.207411e+01	6.084978e+02
9.800000e-07	1.786133e-06	1.026373e-08	1.284233e+01	6.707905e+02
9.900000e-07	1.892178e-06	1.116410e-08	1.360480e+01	7.304121e+02
1.000000e-06	1.997344e-06	1.201959e-08	1.436094e+01	7.869511e+02
1.010000e-06	2.101627e-06	1.282682e-08	1.511074e+01	8.401758e+02
1.020000e-06	2.205127e-06	1.358138e-08	1.585490e+01	8.900271e+02
1.030000e-06	2.307839e-06	1.428308e-08	1.659340e+01	9.365898e+02
1.040000e-06	2.409702e-06	1.493829e-08	1.732580e+01	9.800517e+02
1.050000e-06	2.510713e-06	1.555261e-08	1.805207e+01	1.020657e+03
1.060000e-06	2.610981e-06	1.612951e-08	1.877300e+01	1.058664e+03
1.070000e-06	2.710437e-06	1.667446e-08	1.948809e+01	1.094316e+03
1.080000e-06	2.808839e-06	1.718537e-08	2.019560e+01	1.127823e+03
1.090000e-06	2.906058e-06	1.766416e-08	2.089461e+01	1.159355e+03
1.100000e-06	3.002085e-06	1.811333e-08	2.158504e+01	1.189052e+03
1.110000e-06	3.096989e-06	1.853590e-08	2.226741e+01	1.217030e+03
1.120000e-06	3.190837e-06	1.893475e-08	2.294218e+01	1.243398e+03
1.130000e-06	3.283704e-06	1.931249e-08	2.360989e+01	1.268266e+03
1.140000e-06	3.375653e-06	1.966940e-08	2.427100e+01	1.291747e+03
1.150000e-06	3.466475e-06	2.000675e-08	2.492402e+01	1.313957e+03
1.160000e-06	3.555851e-06	2.032896e-08	2.556663e+01	1.335008e+03
1.170000e-06	3.643842e-06	2.063575e-08	2.619929e+01	1.355004e+03
1.180000e-06	3.730585e-06	2.092669e-08	2.682297e+01	1.374032e+03
1.190000e-06	3.816054e-06	2.120147e-08	2.743750e+01	1.392161e+03
1.200000e-06	3.900356e-06	2.146013e-08	2.804363e+01	1.409440e+03
1.210000e-06	3.983427e-06	2.170508e-08	2.864091e+01	1.425905e+03
1.220000e-06	4.065014e-06	2.194040e-08	2.922752e+01	1.441582e+03
1.230000e-06	4.144997e-06	2.216564e-08	2.980260e+01	1.456498e+03
1.240000e-06	4.223459e-06	2.238155e-08	3.036675e+01	1.470682e+03
1.250000e-06	4.300432e-06	2.258708e-08	3.092018e+01	1.484173e+03
1.260000e-06	4.375805e-06	2.278311e-08	3.146212e+01	1.497012e+03
1.270000e-06	4.449396e-06	2.296835e-08	3.199124e+01	1.509250e+03
1.280000e-06	4.521201e-06	2.314317e-08	3.250752e+01	1.520931e+03
1.290000e-06	4.591405e-06	2.331075e-08	3.301229e+01	1.532099e+03
1.300000e-06	4.660033e-06	2.347195e-08	3.350572e+01	1.542786e+03
1.310000e-06	4.727004e-06	2.362831e-08	3.398724e+01	1.553012e+03
1.320000e-06	4.792117e-06	2.377942e-08	3.445541e+01	1.562788e+03
1.330000e-06	4.855392e-06	2.392355e-08	3.491035e+01	1.572116e+03
1.340000e-06	4.917006e-06	2.406137e-08	3.535336e+01	1.580992e+03
1.350000e-06	4.977098e-06	2.419256e-08	3.578542e+01	1.589413e+03
1.360000e-06	5.035496e-06	2.431570e-08	3.620531e+01	1.597381e+03
1.370000e-06	5.091944e-06	2.443053e-08	3.661117e+01	1.604902e+03
1.380000e-06	5.146541e-06	2.453780e-08	3.700373e+01	1.611992e+03
1.390000e-06	5.199257e-06	2.463948e-08	3.738275e+01	1.618673e+03
1.400000e-06	5.249770e-06	2.473494e-08	3.774594e+01	1.624974e+03
1.410000e-06	5.298049e-06	2.482536e-08	3.809307e+01	1.630927e+03
1.420000e-06	5.344402e-06	2.491219e-08	3.842634e+01	1.636559e+03
1.430000e-06	5.389004e-06	2.499418e-08	3.874703e+01	1.641899e+03
1.440000e-06	5.431827e-06	2.507188e-08	3.905493e+01	1.646964e+03
1.450000e-06	5.472604e-06	2.514534e-08	3.934812e+01	1.651767e+03
1.460000e-06	5.511382e-06	2.521469e-08	3.962694e+01	1.656310e+03
1.470000e-06	5.548398e-06	2.528065e-08	3.989308e+01	1.660591e+03
1.480000e-06	5.583619e-06	2.534235e-08	4.014632e+01	1.664601e+03
1.490000e-06	5.616788e-06	2.539991e-08	4.038481e+01	1.668330e+03
1.500000e-06	5.647866e-06	2.545341e-08	4.060826e+01	1.671768e+03
1.510000e-06	5.677059e-06	2.550248e-08	4.081815e+01	1.674909e+03
1.520000e-06	5.704332e-06	2.554687e-08	4.101425e+01	1.677752e+03
1.530000e-06	5.729429e-06	2.558683e-08	4.119470e+01	1.680300e+03
1.540000e-06	5.752314e-06	2.562152e-08	4.135924e+01	1.682561e+03
1.550000e-06	5.773266e-06	2.565130e-08	4.150989e+01	1.684546e+03
1.560000e-06	5.792302e-06	2.567758e-08	4.164675e+01	1.686267e+03
1.570000e-06	5.809204e-06	2.570081e-08	4.176828e+01	1.687734e+03
1.580000e-06	5.823894e-06	2.571992e-08	4.187390e+01	1.688956e+03
1.590000e-06	5.836421e-06	2.573440e-08	4.196397e+01	1.689941e+03
1.600000e-06	5.846599e-06	2.574610e-08	4.203715e+01	1.690695e+03
1.610000e-06	5.854468e-06	2.575602e-08	4.209373e+01	1.691225e+03
1.620000e-06	5.860323e-06	2.576397e-08	4.213583e+01	1.691537e+03
1.630000e-06	5.864222e-06	2.576934e-08	4.216386e+01	1.691643e+03
1.640000e-06	5.865952e-06	2.577392e-08	4.217630e+01	1.691555e+03
1.650000e-06	5.865511e-06	2.577370e-08	4.217313e+01	1.691283e+03
1.660000e-06	5.863177e-06	2.576001e-08	4.215635e+01	1.690837e+03
1.670000e-06	5.859088e-06	2.574602e-08	4.212695e+01	1.690219e+03
1.680000e-06	5.853016e-06	2.573421e-08	4.208329e+01	1.689426e+03
1.690000e-06	5.844938e-06	2.572188e-08	4.202521e+01	1.688443e+03
1.700000e-06	5.835079e-06	2.570936e-08	4.195432e+01	1.687253e+03
1.710000e-06	5.823316e-06	2.569691e-08	4.186975e+01	1.685834e+03
1.720000e-06	5.809406e-06	2.568851e-08	4.176973e+01	1.684172e+03
1.730000e-06	5.793473e-06	2.562675e-08	4.165518e+01	1.682259e+03
1.740000e-06	5.775559e-06	2.550237e-08	4.152638e+01	1.680102e+03
1.750000e-06	5.755026e-06	2.550502e-08	4.137874e+01	1.677723e+03
1.760000e-06	5.731630e-06	2.551865e-08	4.121052e+01	1.675159e+03
1.770000e-06	5.705952e-06	2.549395e-08	4.102590e+01	1.672451e+03
1.780000e-06	5.678801e-06	2.556646e-08	4.083068e+01	1.669640e+03
1.790000e-06	5.650779e-06	2.538535e-08	4.062921e+01	1.666752e+03
1.800000e-06	5.621341e-06	2.523704e-08	4.041755e+01	1.663798e+03
1.810000e-06	5.589467e-06	2.536516e-08	4.018837e+01	1.660763e+03
1.820000e-06	5.555599e-06	2.520539e-08	3.994485e+01	1.657606e+03
1.830000e-06	5.520064e-06	2.522696e-08	3.968936e+01	1.654273e+03
1.840000e-06	5.482319e-06	2.532235e-08	3.941797e+01	1.650697e+03
1.850000e-06	5.442517e-06	2.504158e-08	3.913180e+01	1.646818e+03
1.860000e-06	5.400764e-06	2.505239e-08	3.883159e+01	1.642590e+03
1.870000e-06	5.357227e-06	2.500008e-08	3.851856e+01	1.637991e+03
1.880000e-06	5.312106e-06	2.485254e-08	3.819414e+01	1.633024e+03
1.890000e-06	5.264801e-06	2.489638e-08	3.785401e+01	1.627715e+03
1.900000e-06	5.215311e-06	2.469259e-08	3.749818e+01	1.622105e+03
1.910000e-06	5.163786e-06	2.466755e-08	3.712771e+01	1.616239e+03
1.920000e-06	5.110045e-06	2.463299e-08	3.674132e+01	1.610153e+03
1.930000e-06	5.054360e-06	2.441988e-08	3.634094e+01	1.603867e+03
1.940000e-06	4.996774e-06	2.441640e-08	3.592690e+01	1.597380e+03
1.950000e-06	4.937426e-06	2.425894e-08	3.550018e+01	1.590671e+03
1.960000e-06	4.876317e-06	2.417257e-08	3.506081e+01	1.583706e+03
1.970000e-06	4.813232e-06	2.406168e-08	3.460723e+01	1.576443e+03
1.980000e-06	4.748375e-06	2.389934e-08	3.414090e+01	1.568848e+03
1.990000e-06	4.681845e-06	2.387035e-08	3.366255e+01	1.560897e+03
2.000000e-06	4.613747e-06	2.369162e-08	3.317293e+01	1.552582e+03
2.010000e-06	4.543829e-06	2.357797e-08	3.267021e+01	1.543910e+03
2.020000e-06	4.472038e-06	2.341945e-08	3.215404e+01	1.534894e+03
2.030000e-06	4.398739e-06	2.327262e-08	3.162701e+01	1.525551e+03
2.040000e-06	4.323942e-06	2.317466e-08	3.108922e+01	1.515888e+03
2.050000e-06	4.247506e-06	2.296690e-08	3.053964e+01	1.505900e+03
2.060000e-06	4.169282e-06	2.283742e-08	2.997721e+01	1.495570e+03
2.070000e-06	4.089496e-06	2.266249e-08	2.940355e+01	1.484867e+03
2.080000e-06	4.008297e-06	2.249991e-08	2.881973e+01	1.473755e+03
2.090000e-06	3.925681e-06	2.232569e-08	2.822572e+01	1.462202e+03
2.100000e-06	3.841810e-06	2.213472e-08	2.762268e+01	1.450184e+03
2.110000e-06	3.756617e-06	2.196980e-08	2.701014e+01	1.437687e+03
2.120000e-06	3.669978e-06	2.174654e-08	2.638721e+01	1.424711e+03
2.130000e-06	3.581978e-06	2.154787e-08	2.575448e+01	1.411262e+03
2.140000e-06	3.492738e-06	2.133140e-08	2.511285e+01	1.397344e+03
2.150000e-06	3.402274e-06	2.112565e-08	2.446241e+01	1.382956e+03
2.160000e-06	3.310678e-06	2.090285e-08	2.380383e+01	1.368079e+03
2.170000e-06	3.218016e-06	2.066658e-08	2.313759e+01	1.352677e+03
2.180000e-06	3.124049e-06	2.042730e-08	2.246197e+01	1.336703e+03
2.190000e-06	3.028740e-06	2.016886e-08	2.177669e+01	1.320096e+03
2.200000e-06	2.932330e-06	1.991095e-08	2.108350e+01	1.302797e+03
2.210000e-06	2.834961e-06	1.963285e-08	2.038342e+01	1.284752e+03
2.220000e-06	2.736599e-06	1.935072e-08	1.967620e+01	1.265917e+03
2.230000e-06	2.637347e-06	1.904946e-08	1.896257e+01	1.246262e+03
2.240000e-06	2.537273e-06	1.873899e-08	1.824304e+01	1.225761e+03
2.250000e-06	2.436247e-06	1.841345e-08	1.751666e+01	1.204390e+03
2.260000e-06	2.334185e-06	1.807389e-08	1.678283e+01	1.182115e+03
2.270000e-06	2.231034e-06	1.772276e-08	1.604117e+01	1.158885e+03
2.280000e-06	2.126966e-06	1.735662e-08	1.529292e+01	1.134630e+03
2.290000e-06	2.022164e-06	1.697357e-08	1.453939e+01	1.109256e+03
2.300000e-06	1.916695e-06	1.656737e-08	1.378107e+01	1.082656e+03
2.310000e-06	1.810639e-06	1.614379e-08	1.301853e+01	1.054717e+03
2.320000e-06	1.704086e-06	1.569501e-08	1.225241e+01	1.025325e+03
2.330000e-06	1.596997e-06	1.522344e-08	1.148244e+01	9.943729e+02
2.340000e-06	1.489416e-06	1.472511e-08	1.070893e+01	9.617627e+02
2.350000e-06	1.381436e-06	1.420209e-08	9.932547e+00	9.274043e+02
2.360000e-06	1.273032e-06	1.365302e-08	9.153120e+00	8.912100e+02
2.370000e-06	1.164229e-06	1.307409e-08	8.370828e+00	8.530914e+02
2.380000e-06	1.055105e-06	1.246253e-08	7.586226e+00	8.129582e+02
2.390000e-06	9.456825e-07	1.181700e-08	6.799474e+00	7.707244e+02
2.400000e-06	8.358717e-07	1.113947e-08	6.009933e+00	7.263214e+02
2.410000e-06	7.256912e-07	1.042774e-08	5.217733e+00	6.797173e+02
2.420000e-06	6.152203e-07	9.683579e-09	4.423445e+00	6.309389e+02
2.430000e-06	5.045599e-07	8.907870e-09	3.627795e+00	5.800897e+02
2.440000e-06	3.937189e-07	8.104987e-09	2.830846e+00	5.273594e+02
2.450000e-06	2.827358e-07	7.275890e-09	2.032875e+00	4.730185e+02
2.460000e-06	1.716675e-07	6.426043e-09	1.234293e+00	4.173963e+02
2.470000e-06	6.052024e-08	5.563229e-09	4.351416e-01	3.608439e+02
2.480000e-06	-5.059227e-08	4.691160e-09	-3.637593e-01	3.036866e+02
2.490000e-06	-1.616978e-07	3.812539e-09	-1.162610e+00	2.461747e+02
2.500000e-06	-2.728229e-07	2.929762e-09	-1.961602e+00	1.884431e+02
2.510000e-06	-3.838583e-07	2.044384e-09	-2.759948e+00	1.304887e+02
2.520000e-06	-4.947544e-07	1.152598e-09	-3.557293e+00	7.217230e+01
2.530000e-06	-6.054184e-07	2.502851e-10	-4.352969e+00	1.324798e+01
2.540000e-06	-7.158330e-07	-6.655353e-10	-5.146853e+00	-4.658433e+01
2.550000e-06	-8.259706e-07	-1.597585e-09	-5.938743e+00	-1.076101e+02
2.560000e-06	-9.357135e-07	-2.548208e-09	-6.727797e+00	-1.700280e+02
2.570000e-06	-1.045059e-06	-3.522493e-09	-7.513993e+00	-2.338866e+02
2.580000e-06	-1.154086e-06	-4.517360e-09	-8.297902e+00	-2.990432e+02
2.590000e-06	-1.262821e-06	-5.525835e-09	-9.079705e+00	-3.651503e+02
2.600000e-06	-1.371135e-06	-6.543400e-09	-9.858486e+00	-4.316760e+02
2.610000e-06	-1.478965e-06	-7.561645e-09	-1.063379e+01	-4.979514e+02
2.620000e-06	-1.586291e-06	-8.568168e-09	-1.140546e+01	-5.632396e+02
2.630000e-06	-1.693053e-06	-9.545510e-09	-1.217308e+01	-6.268127e+02
2.640000e-06	-1.799282e-06	-1.048121e-08	-1.293687e+01	-6.880244e+02
2.650000e-06	-1.904912e-06	-1.137041e-08	-1.369635e+01	-7.463672e+02
2.660000e-06	-2.009833e-06	-1.221288e-08	-1.445073e+01	-8.015060e+02
2.670000e-06	-2.114041e-06	-1.300715e-08	-1.519999e+01	-8.532852e+02
2.680000e-06	-2.217407e-06	-1.375058e-08	-1.594320e+01	-9.017120e+02
2.690000e-06	-2.319821e-06	-1.444665e-08	-1.667956e+01	-9.469208e+02
2.700000e-06	-2.421242e-06	-1.509710e-08	-1.740877e+01	-9.891289e+02
2.710000e-06	-2.521700e-06	-1.570477e-08	-1.813107e+01	-1.028592e+03
2.720000e-06	-2.621278e-06	-1.627460e-08	-1.884704e+01	-1.065564e+03
2.730000e-06	-2.719989e-06	-1.680859e-08	-1.955677e+01	-1.100276e+03
2.740000e-06	-2.817791e-06	-1.730805e-08	-2.025997e+01	-1.132920e+03
2.750000e-06	-2.914650e-06	-1.777512e-08	-2.095639e+01	-1.163652e+03
2.760000e-06	-3.010626e-06	-1.821437e-08	-2.164645e+01	-1.192601e+03
2.770000e-06	-3.105582e-06	-1.862976e-08	-2.232919e+01	-1.219878e+03
2.780000e-06	-3.199323e-06	-1.902267e-08	-2.300319e+01	-1.245592e+03
2.790000e-06	-3.291832e-06	-1.939433e-08	-2.366833e+01	-1.269854e+03
2.800000e-06	-3.383101e-06	-1.974694e-08	-2.432456e+01	-1.292778e+03
2.810000e-06	-3.473168e-06	-2.007915e-08	-2.497214e+01	-1.314480e+03
2.820000e-06	-3.562048e-06	-2.039358e-08	-2.561119e+01	-1.335069e+03
2.830000e-06	-3.649741e-06	-2.069336e-08	-2.624170e+01	-1.354643e+03
2.840000e-06	-3.736136e-06	-2.098036e-08	-2.686288e+01	-1.373281e+03
2.850000e-06	-3.821130e-06	-2.125482e-08	-2.747399e+01	-1.391043e+03
2.860000e-06	-3.904740e-06	-2.151439e-08	-2.807515e+01	-1.407972e+03
2.870000e-06	-3.986977e-06	-2.176028e-08	-2.866644e+01	-1.424098e+03
2.880000e-06	-4.067898e-06	-2.199465e-08	-2.924826e+01	-1.439448e+03
2.890000e-06	-4.147438e-06	-2.221845e-08	-2.982016e+01	-1.454049e+03
2.900000e-06	-4.225259e-06	-2.243198e-08	-3.037969e+01	-1.467933e+03
2.910000e-06	-4.301215e-06	-2.263625e-08	-3.092581e+01	-1.481141e+03
2.920000e-06	-4.375540e-06	-2.283099e-08	-3.146021e+01	-1.493719e+03
2.930000e-06	-4.448352e-06	-2.301540e-08	-3.198373e+01	-1.505715e+03
2.940000e-06	-4.519558e-06	-2.319077e-08	-3.249570e+01	-1.517174e+03
