# Temperatura_=_63.0
# Concentracion g/m^3_=_28200.0
# C_Vs_to_Am_M_A/Vsm_=_65563218390.804596
# pendiente_HvsI_1/m_=_3716.3
# ordenada_HvsI_A/m_=_1297.0
# frecuencia_Hz_=_301946.354866678

Tiempo_(s)	Campo_(V.s)	Magnetizacion_(V.s)	Campo_(kA/m)	Magnetizacion_(A/m)
0.000000e+00	-5.832129e-06	-2.079536e-08	-4.193064e+01	-1.361513e+03
1.000000e-08	-5.828855e-06	-2.079046e-08	-4.190710e+01	-1.361148e+03
2.000000e-08	-5.823674e-06	-2.077891e-08	-4.186985e+01	-1.360647e+03
3.000000e-08	-5.816729e-06	-2.076492e-08	-4.181992e+01	-1.359995e+03
4.000000e-08	-5.807901e-06	-2.074685e-08	-4.175645e+01	-1.359171e+03
5.000000e-08	-5.796934e-06	-2.072762e-08	-4.167760e+01	-1.358156e+03
6.000000e-08	-5.783867e-06	-2.071003e-08	-4.158366e+01	-1.356941e+03
7.000000e-08	-5.768727e-06	-2.068927e-08	-4.147481e+01	-1.355524e+03
8.000000e-08	-5.751416e-06	-2.068424e-08	-4.135035e+01	-1.353917e+03
9.000000e-08	-5.731998e-06	-2.069550e-08	-4.121074e+01	-1.352144e+03
1.000000e-07	-5.710438e-06	-2.065900e-08	-4.105573e+01	-1.350234e+03
1.100000e-07	-5.686647e-06	-2.059427e-08	-4.088469e+01	-1.348218e+03
1.200000e-07	-5.660628e-06	-2.054788e-08	-4.069762e+01	-1.346119e+03
1.300000e-07	-5.632862e-06	-2.047095e-08	-4.049799e+01	-1.343953e+03
1.400000e-07	-5.603765e-06	-2.042505e-08	-4.028879e+01	-1.341716e+03
1.500000e-07	-5.573064e-06	-2.047320e-08	-4.006807e+01	-1.339391e+03
1.600000e-07	-5.540543e-06	-2.041541e-08	-3.983425e+01	-1.336946e+03
1.700000e-07	-5.506192e-06	-2.034890e-08	-3.958729e+01	-1.334339e+03
1.800000e-07	-5.469931e-06	-2.035644e-08	-3.932658e+01	-1.331531e+03
1.900000e-07	-5.431713e-06	-2.025790e-08	-3.905181e+01	-1.328484e+03
2.000000e-07	-5.391612e-06	-2.020823e-08	-3.876350e+01	-1.325175e+03
2.100000e-07	-5.349487e-06	-2.019268e-08	-3.846064e+01	-1.321595e+03
2.200000e-07	-5.305288e-06	-2.009907e-08	-3.814286e+01	-1.317751e+03
2.300000e-07	-5.259131e-06	-2.003664e-08	-3.781102e+01	-1.313663e+03
2.400000e-07	-5.210789e-06	-1.996826e-08	-3.746345e+01	-1.309358e+03
2.500000e-07	-5.160133e-06	-1.989702e-08	-3.709926e+01	-1.304862e+03
2.600000e-07	-5.107233e-06	-1.984692e-08	-3.671893e+01	-1.300197e+03
2.700000e-07	-5.052371e-06	-1.975708e-08	-3.632450e+01	-1.295373e+03
2.800000e-07	-4.995746e-06	-1.968100e-08	-3.591739e+01	-1.290387e+03
2.900000e-07	-4.937188e-06	-1.960541e-08	-3.549637e+01	-1.285224e+03
3.000000e-07	-4.876736e-06	-1.951822e-08	-3.506175e+01	-1.279858e+03
3.100000e-07	-4.814597e-06	-1.943813e-08	-3.461500e+01	-1.274262e+03
3.200000e-07	-4.750735e-06	-1.935440e-08	-3.415586e+01	-1.268412e+03
3.300000e-07	-4.685049e-06	-1.925481e-08	-3.368360e+01	-1.262288e+03
3.400000e-07	-4.617557e-06	-1.913670e-08	-3.319836e+01	-1.255880e+03
3.500000e-07	-4.548346e-06	-1.903644e-08	-3.270076e+01	-1.249187e+03
3.600000e-07	-4.477589e-06	-1.893538e-08	-3.219205e+01	-1.242216e+03
3.700000e-07	-4.405364e-06	-1.883036e-08	-3.167278e+01	-1.234974e+03
3.800000e-07	-4.331350e-06	-1.872655e-08	-3.114065e+01	-1.227465e+03
3.900000e-07	-4.255471e-06	-1.859710e-08	-3.059511e+01	-1.219688e+03
4.000000e-07	-4.177961e-06	-1.846697e-08	-3.003784e+01	-1.211633e+03
4.100000e-07	-4.098772e-06	-1.834194e-08	-2.946851e+01	-1.203282e+03
4.200000e-07	-4.018044e-06	-1.820836e-08	-2.888810e+01	-1.194611e+03
4.300000e-07	-3.935969e-06	-1.806798e-08	-2.829802e+01	-1.185596e+03
4.400000e-07	-3.852636e-06	-1.792210e-08	-2.769889e+01	-1.176213e+03
4.500000e-07	-3.768148e-06	-1.777459e-08	-2.709145e+01	-1.166447e+03
4.600000e-07	-3.682453e-06	-1.761756e-08	-2.647534e+01	-1.156288e+03
4.700000e-07	-3.595599e-06	-1.745713e-08	-2.585090e+01	-1.145730e+03
4.800000e-07	-3.507591e-06	-1.729372e-08	-2.521815e+01	-1.134773e+03
4.900000e-07	-3.418213e-06	-1.712023e-08	-2.457556e+01	-1.123411e+03
5.000000e-07	-3.327355e-06	-1.693518e-08	-2.392233e+01	-1.111636e+03
5.100000e-07	-3.235236e-06	-1.674329e-08	-2.326003e+01	-1.099427e+03
5.200000e-07	-3.142041e-06	-1.654881e-08	-2.259000e+01	-1.086754e+03
5.300000e-07	-3.047822e-06	-1.634678e-08	-2.191260e+01	-1.073577e+03
5.400000e-07	-2.952558e-06	-1.613640e-08	-2.122770e+01	-1.059850e+03
5.500000e-07	-2.856140e-06	-1.591720e-08	-2.053449e+01	-1.045526e+03
5.600000e-07	-2.758437e-06	-1.568767e-08	-1.983205e+01	-1.030562e+03
5.700000e-07	-2.659545e-06	-1.544738e-08	-1.912105e+01	-1.014919e+03
5.800000e-07	-2.559667e-06	-1.519852e-08	-1.840297e+01	-9.985658e+02
5.900000e-07	-2.458878e-06	-1.493864e-08	-1.767833e+01	-9.814759e+02
6.000000e-07	-2.357209e-06	-1.466389e-08	-1.694737e+01	-9.636239e+02
6.100000e-07	-2.254712e-06	-1.437640e-08	-1.621046e+01	-9.449803e+02
6.200000e-07	-2.151473e-06	-1.407690e-08	-1.546822e+01	-9.255070e+02
6.300000e-07	-2.047463e-06	-1.376649e-08	-1.472043e+01	-9.051535e+02
6.400000e-07	-1.942641e-06	-1.344138e-08	-1.396680e+01	-8.838558e+02
6.500000e-07	-1.837052e-06	-1.309863e-08	-1.320766e+01	-8.615370e+02
6.600000e-07	-1.730733e-06	-1.273765e-08	-1.244326e+01	-8.381102e+02
6.700000e-07	-1.623694e-06	-1.235779e-08	-1.167370e+01	-8.134824e+02
6.800000e-07	-1.516036e-06	-1.195987e-08	-1.089969e+01	-7.875583e+02
6.900000e-07	-1.407909e-06	-1.154333e-08	-1.012229e+01	-7.602442e+02
7.000000e-07	-1.299372e-06	-1.110566e-08	-9.341954e+00	-7.314510e+02
7.100000e-07	-1.190445e-06	-1.064283e-08	-8.558815e+00	-7.010969e+02
7.200000e-07	-1.081202e-06	-1.015338e-08	-7.773403e+00	-6.691113e+02
7.300000e-07	-9.716117e-07	-9.637361e-09	-6.985494e+00	-6.354395e+02
7.400000e-07	-8.616612e-07	-9.096949e-09	-6.194994e+00	-6.000503e+02
7.500000e-07	-7.514774e-07	-8.533764e-09	-5.402818e+00	-5.629454e+02
7.600000e-07	-6.410806e-07	-7.944776e-09	-4.609109e+00	-5.241693e+02
7.700000e-07	-5.304511e-07	-7.327960e-09	-3.813728e+00	-4.838175e+02
7.800000e-07	-4.196581e-07	-6.688868e-09	-3.017171e+00	-4.420414e+02
7.900000e-07	-3.087462e-07	-6.033718e-09	-2.219760e+00	-3.990450e+02
8.000000e-07	-1.977208e-07	-5.365883e-09	-1.421533e+00	-3.550737e+02
8.100000e-07	-8.657050e-08	-4.688188e-09	-6.224067e-01	-3.103930e+02
8.200000e-07	2.463952e-08	-4.004063e-09	1.771482e-01	-2.652610e+02
8.300000e-07	1.358729e-07	-3.316249e-09	9.768712e-01	-2.198957e+02
8.400000e-07	2.470995e-07	-2.625885e-09	1.776545e+00	-1.744452e+02
8.500000e-07	3.581938e-07	-1.933662e-09	2.575268e+00	-1.289652e+02
8.600000e-07	4.691843e-07	-1.241119e-09	3.373244e+00	-8.340878e+01
8.700000e-07	5.800923e-07	-5.446980e-10	4.170628e+00	-3.763368e+01
8.800000e-07	6.908315e-07	1.610807e-10	4.966798e+00	8.573683e+00
8.900000e-07	8.013987e-07	8.779005e-10	5.761732e+00	5.545901e+01
9.000000e-07	9.117186e-07	1.606292e-09	6.554887e+00	1.032515e+02
9.100000e-07	1.021723e-06	2.348404e-09	7.345776e+00	1.521136e+02
9.200000e-07	1.131429e-06	3.107497e-09	8.134516e+00	2.020966e+02
9.300000e-07	1.240740e-06	3.882087e-09	8.920413e+00	2.531117e+02
9.400000e-07	1.349572e-06	4.671183e-09	9.702872e+00	3.049198e+02
9.500000e-07	1.458001e-06	5.470295e-09	1.048244e+01	3.571435e+02
9.600000e-07	1.566068e-06	6.269411e-09	1.125939e+01	4.092992e+02
9.700000e-07	1.673653e-06	7.058242e-09	1.203288e+01	4.608443e+02
9.800000e-07	1.780561e-06	7.823461e-09	1.280151e+01	5.112310e+02
9.900000e-07	1.886625e-06	8.561181e-09	1.356407e+01	5.599596e+02
1.000000e-06	1.991824e-06	9.268303e-09	1.432041e+01	6.066223e+02
1.010000e-06	2.096222e-06	9.939311e-09	1.507099e+01	6.509311e+02
1.020000e-06	2.199817e-06	1.057259e-08	1.581579e+01	6.927287e+02
1.030000e-06	2.302553e-06	1.116498e-08	1.655442e+01	7.319807e+02
1.040000e-06	2.404423e-06	1.171913e-08	1.728683e+01	7.687544e+02
1.050000e-06	2.505455e-06	1.223909e-08	1.801321e+01	8.031887e+02
1.060000e-06	2.605731e-06	1.272855e-08	1.873415e+01	8.354614e+02
1.070000e-06	2.705251e-06	1.319097e-08	1.944966e+01	8.657603e+02
1.080000e-06	2.803672e-06	1.362753e-08	2.015727e+01	8.942610e+02
1.090000e-06	2.900821e-06	1.403726e-08	2.085573e+01	9.211152e+02
1.100000e-06	2.996857e-06	1.442189e-08	2.154619e+01	9.464469e+02
1.110000e-06	3.091846e-06	1.478430e-08	2.222911e+01	9.703570e+02
1.120000e-06	3.185786e-06	1.512483e-08	2.290451e+01	9.929305e+02
1.130000e-06	3.278722e-06	1.544741e-08	2.357268e+01	1.014245e+03
1.140000e-06	3.370741e-06	1.575408e-08	2.423426e+01	1.034378e+03
1.150000e-06	3.461626e-06	1.604524e-08	2.488768e+01	1.053408e+03
1.160000e-06	3.551058e-06	1.631964e-08	2.553066e+01	1.071415e+03
1.170000e-06	3.639135e-06	1.657852e-08	2.616390e+01	1.088480e+03
1.180000e-06	3.725993e-06	1.682482e-08	2.678838e+01	1.104676e+03
1.190000e-06	3.811628e-06	1.705972e-08	2.740406e+01	1.120065e+03
1.200000e-06	3.896090e-06	1.728255e-08	2.801131e+01	1.134703e+03
1.210000e-06	3.979275e-06	1.749321e-08	2.860937e+01	1.148631e+03
1.220000e-06	4.060920e-06	1.769244e-08	2.919636e+01	1.161885e+03
1.230000e-06	4.140987e-06	1.788171e-08	2.977202e+01	1.174497e+03
1.240000e-06	4.219562e-06	1.806237e-08	3.033693e+01	1.186498e+03
1.250000e-06	4.296635e-06	1.823473e-08	3.089106e+01	1.197918e+03
1.260000e-06	4.372169e-06	1.840067e-08	3.143412e+01	1.208791e+03
1.270000e-06	4.445859e-06	1.856050e-08	3.196392e+01	1.219150e+03
1.280000e-06	4.517708e-06	1.871351e-08	3.248049e+01	1.229024e+03
1.290000e-06	4.587970e-06	1.885844e-08	3.298564e+01	1.238434e+03
1.300000e-06	4.656643e-06	1.899593e-08	3.347937e+01	1.247397e+03
1.310000e-06	4.723660e-06	1.912595e-08	3.396119e+01	1.255917e+03
1.320000e-06	4.788823e-06	1.924916e-08	3.442969e+01	1.263997e+03
1.330000e-06	4.852215e-06	1.936486e-08	3.488546e+01	1.271637e+03
1.340000e-06	4.913995e-06	1.947337e-08	3.532963e+01	1.278839e+03
1.350000e-06	4.974212e-06	1.957643e-08	3.576256e+01	1.285616e+03
1.360000e-06	5.032769e-06	1.967390e-08	3.618357e+01	1.291990e+03
1.370000e-06	5.089414e-06	1.976593e-08	3.659082e+01	1.297992e+03
1.380000e-06	5.144169e-06	1.985298e-08	3.698449e+01	1.303663e+03
1.390000e-06	5.197014e-06	1.993592e-08	3.736442e+01	1.309045e+03
1.400000e-06	5.247636e-06	2.001421e-08	3.772837e+01	1.314177e+03
1.410000e-06	5.296027e-06	2.008839e-08	3.807628e+01	1.319090e+03
1.420000e-06	5.342493e-06	2.016002e-08	3.841036e+01	1.323801e+03
1.430000e-06	5.387245e-06	2.022953e-08	3.873211e+01	1.328313e+03
1.440000e-06	5.430186e-06	2.029643e-08	3.904084e+01	1.332616e+03
1.450000e-06	5.471076e-06	2.036027e-08	3.933481e+01	1.336691e+03
1.460000e-06	5.509971e-06	2.041926e-08	3.961445e+01	1.340517e+03
1.470000e-06	5.547079e-06	2.047355e-08	3.988125e+01	1.344075e+03
1.480000e-06	5.582321e-06	2.052362e-08	4.013462e+01	1.347353e+03
1.490000e-06	5.615475e-06	2.056907e-08	4.037298e+01	1.350350e+03
1.500000e-06	5.646580e-06	2.061129e-08	4.059662e+01	1.353073e+03
1.510000e-06	5.675855e-06	2.065109e-08	4.080709e+01	1.355538e+03
1.520000e-06	5.703277e-06	2.068780e-08	4.100425e+01	1.357766e+03
1.530000e-06	5.728509e-06	2.072041e-08	4.118566e+01	1.359775e+03
1.540000e-06	5.751512e-06	2.074715e-08	4.135103e+01	1.361581e+03
1.550000e-06	5.772557e-06	2.076853e-08	4.150234e+01	1.363191e+03
1.560000e-06	5.791700e-06	2.078739e-08	4.163997e+01	1.364608e+03
1.570000e-06	5.808710e-06	2.080491e-08	4.176226e+01	1.365828e+03
1.580000e-06	5.823488e-06	2.082075e-08	4.186852e+01	1.366848e+03
1.590000e-06	5.836107e-06	2.083505e-08	4.195924e+01	1.367665e+03
1.600000e-06	5.846444e-06	2.084727e-08	4.203356e+01	1.368283e+03
1.610000e-06	5.854482e-06	2.085807e-08	4.209135e+01	1.368711e+03
1.620000e-06	5.860414e-06	2.086626e-08	4.213400e+01	1.368964e+03
1.630000e-06	5.864397e-06	2.087023e-08	4.216264e+01	1.369059e+03
1.640000e-06	5.866298e-06	2.087182e-08	4.217630e+01	1.369014e+03
1.650000e-06	5.866026e-06	2.086937e-08	4.217434e+01	1.368842e+03
1.660000e-06	5.863781e-06	2.086065e-08	4.215820e+01	1.368546e+03
1.670000e-06	5.859751e-06	2.085112e-08	4.212923e+01	1.368123e+03
1.680000e-06	5.853712e-06	2.084400e-08	4.208581e+01	1.367558e+03
1.690000e-06	5.845623e-06	2.083623e-08	4.202766e+01	1.366833e+03
1.700000e-06	5.835791e-06	2.082710e-08	4.195697e+01	1.365928e+03
1.710000e-06	5.824100e-06	2.081790e-08	4.187291e+01	1.364827e+03
1.720000e-06	5.810247e-06	2.080894e-08	4.177331e+01	1.363523e+03
1.730000e-06	5.794390e-06	2.076794e-08	4.165931e+01	1.362021e+03
1.740000e-06	5.776592e-06	2.068928e-08	4.153135e+01	1.360338e+03
1.750000e-06	5.756263e-06	2.066760e-08	4.138519e+01	1.358501e+03
1.760000e-06	5.733116e-06	2.066855e-08	4.121878e+01	1.356540e+03
1.770000e-06	5.707614e-06	2.065915e-08	4.103542e+01	1.354485e+03
1.780000e-06	5.680534e-06	2.069024e-08	4.084074e+01	1.352355e+03
1.790000e-06	5.652516e-06	2.060641e-08	4.063929e+01	1.350158e+03
1.800000e-06	5.623100e-06	2.050069e-08	4.042780e+01	1.347885e+03
1.810000e-06	5.591338e-06	2.053585e-08	4.019945e+01	1.345511e+03
1.820000e-06	5.557584e-06	2.047100e-08	3.995677e+01	1.343001e+03
1.830000e-06	5.522173e-06	2.044254e-08	3.970218e+01	1.340311e+03
1.840000e-06	5.484593e-06	2.046142e-08	3.943199e+01	1.337403e+03
1.850000e-06	5.444905e-06	2.030410e-08	3.914666e+01	1.334244e+03
1.860000e-06	5.403310e-06	2.026025e-08	3.884761e+01	1.330818e+03
1.870000e-06	5.359946e-06	2.024491e-08	3.853584e+01	1.327121e+03
1.880000e-06	5.314941e-06	2.015573e-08	3.821226e+01	1.323168e+03
1.890000e-06	5.267803e-06	2.014066e-08	3.787337e+01	1.318982e+03
1.900000e-06	5.218496e-06	2.002786e-08	3.751886e+01	1.314590e+03
1.910000e-06	5.167126e-06	1.996692e-08	3.714953e+01	1.310019e+03
1.920000e-06	5.113520e-06	1.993722e-08	3.676414e+01	1.305284e+03
1.930000e-06	5.057971e-06	1.981107e-08	3.636476e+01	1.300390e+03
1.940000e-06	5.000587e-06	1.977141e-08	3.595219e+01	1.295329e+03
1.950000e-06	4.941392e-06	1.968314e-08	3.552660e+01	1.290080e+03
1.960000e-06	4.880369e-06	1.958644e-08	3.508787e+01	1.284618e+03
1.970000e-06	4.817394e-06	1.950064e-08	3.463511e+01	1.278915e+03
1.980000e-06	4.752661e-06	1.939452e-08	3.416970e+01	1.272947e+03
1.990000e-06	4.686257e-06	1.934780e-08	3.369228e+01	1.266700e+03
2.000000e-06	4.618296e-06	1.923768e-08	3.320367e+01	1.260168e+03
2.010000e-06	4.548537e-06	1.912654e-08	3.270214e+01	1.253354e+03
2.020000e-06	4.476857e-06	1.900974e-08	3.218678e+01	1.246265e+03
2.030000e-06	4.403608e-06	1.888487e-08	3.166015e+01	1.238906e+03
2.040000e-06	4.328790e-06	1.879527e-08	3.112224e+01	1.231282e+03
2.050000e-06	4.252315e-06	1.866382e-08	3.057242e+01	1.223386e+03
2.060000e-06	4.174107e-06	1.855181e-08	3.001013e+01	1.215205e+03
2.070000e-06	4.094324e-06	1.842261e-08	2.943653e+01	1.206718e+03
2.080000e-06	4.013134e-06	1.828147e-08	2.885281e+01	1.197901e+03
2.090000e-06	3.930598e-06	1.814353e-08	2.825941e+01	1.188730e+03
2.100000e-06	3.846831e-06	1.799279e-08	2.765716e+01	1.179183e+03
2.110000e-06	3.761718e-06	1.785356e-08	2.704522e+01	1.169248e+03
2.120000e-06	3.675181e-06	1.768710e-08	2.642306e+01	1.158916e+03
2.130000e-06	3.587267e-06	1.752292e-08	2.579099e+01	1.148186e+03
2.140000e-06	3.498060e-06	1.735632e-08	2.514963e+01	1.137055e+03
2.150000e-06	3.407628e-06	1.718744e-08	2.449947e+01	1.125516e+03
2.160000e-06	3.316131e-06	1.701295e-08	2.384163e+01	1.113557e+03
2.170000e-06	3.223536e-06	1.682477e-08	2.317591e+01	1.101152e+03
2.180000e-06	3.129553e-06	1.663096e-08	2.250022e+01	1.088266e+03
2.190000e-06	3.034328e-06	1.642330e-08	2.181559e+01	1.074858e+03
2.200000e-06	2.938032e-06	1.621096e-08	2.112326e+01	1.060879e+03
2.210000e-06	2.840693e-06	1.598876e-08	2.042343e+01	1.046284e+03
2.220000e-06	2.742378e-06	1.575775e-08	1.971658e+01	1.031032e+03
2.230000e-06	2.643159e-06	1.551391e-08	1.900324e+01	1.015087e+03
2.240000e-06	2.543065e-06	1.526214e-08	1.828360e+01	9.984192e+02
2.250000e-06	2.442001e-06	1.500187e-08	1.755699e+01	9.810045e+02
2.260000e-06	2.339886e-06	1.472640e-08	1.682283e+01	9.628157e+02
2.270000e-06	2.236760e-06	1.443930e-08	1.608140e+01	9.438203e+02
2.280000e-06	2.132762e-06	1.413895e-08	1.533370e+01	9.239752e+02
2.290000e-06	2.027987e-06	1.382332e-08	1.458040e+01	9.032241e+02
2.300000e-06	1.922569e-06	1.349132e-08	1.382249e+01	8.814974e+02
2.310000e-06	1.816559e-06	1.314597e-08	1.306032e+01	8.587134e+02
2.320000e-06	1.709969e-06	1.278329e-08	1.229399e+01	8.347819e+02
2.330000e-06	1.602886e-06	1.239935e-08	1.152410e+01	8.096087e+02
2.340000e-06	1.495346e-06	1.199437e-08	1.075093e+01	7.830986e+02
2.350000e-06	1.387370e-06	1.157039e-08	9.974630e+00	7.551596e+02
2.360000e-06	1.278990e-06	1.112586e-08	9.195419e+00	7.257054e+02
2.370000e-06	1.170228e-06	1.065757e-08	8.413462e+00	6.946585e+02
2.380000e-06	1.061097e-06	1.016112e-08	7.628854e+00	6.619542e+02
2.390000e-06	9.516251e-07	9.634209e-09	6.841798e+00	6.275470e+02
2.400000e-06	8.418419e-07	9.078559e-09	6.052501e+00	5.914185e+02
2.410000e-06	7.317242e-07	8.495392e-09	5.260800e+00	5.535876e+02
2.420000e-06	6.212796e-07	7.889738e-09	4.466748e+00	5.141197e+02
2.430000e-06	5.106526e-07	7.264885e-09	3.671385e+00	4.731342e+02
2.440000e-06	3.998762e-07	6.621690e-09	2.874948e+00	4.308059e+02
2.450000e-06	2.888947e-07	5.959598e-09	2.077036e+00	3.873584e+02
2.460000e-06	1.777049e-07	5.282108e-09	1.277626e+00	3.430487e+02
2.470000e-06	6.642452e-08	4.594630e-09	4.775653e-01	2.981431e+02
2.480000e-06	-4.479092e-08	3.900839e-09	-3.220285e-01	2.528863e+02
2.490000e-06	-1.559948e-07	3.203486e-09	-1.121539e+00	2.074698e+02
2.500000e-06	-2.671850e-07	2.505014e-09	-1.920952e+00	1.620043e+02
2.510000e-06	-3.782822e-07	1.807450e-09	-2.719695e+00	1.165017e+02
2.520000e-06	-4.892594e-07	1.108129e-09	-3.517576e+00	7.087237e+01
2.530000e-06	-6.000321e-07	4.045841e-10	-4.313987e+00	2.493955e+01
2.540000e-06	-7.105093e-07	-3.062016e-10	-5.108273e+00	-2.152958e+01
2.550000e-06	-8.206981e-07	-1.027226e-09	-5.900486e+00	-6.877994e+01
2.560000e-06	-9.305545e-07	-1.762571e-09	-6.690309e+00	-1.170181e+02
2.570000e-06	-1.039999e-06	-2.515413e-09	-7.477174e+00	-1.663634e+02
2.580000e-06	-1.149032e-06	-3.284346e-09	-8.261071e+00	-2.168099e+02
2.590000e-06	-1.257727e-06	-4.067841e-09	-9.042546e+00	-2.682043e+02
2.600000e-06	-1.366085e-06	-4.862174e-09	-9.821594e+00	-3.202453e+02
2.610000e-06	-1.474016e-06	-5.661027e-09	-1.059758e+01	-3.725053e+02
2.620000e-06	-1.581385e-06	-6.458881e-09	-1.136952e+01	-4.244688e+02
2.630000e-06	-1.688148e-06	-7.244491e-09	-1.213710e+01	-4.755844e+02
2.640000e-06	-1.794389e-06	-8.006013e-09	-1.290093e+01	-5.253187e+02
2.650000e-06	-1.900053e-06	-8.735853e-09	-1.366061e+01	-5.732068e+02
2.660000e-06	-2.005014e-06	-9.432509e-09	-1.441523e+01	-6.188899e+02
2.670000e-06	-2.109306e-06	-1.009541e-08	-1.516506e+01	-6.621358e+02
2.680000e-06	-2.212839e-06	-1.072045e-08	-1.590942e+01	-7.028416e+02
2.690000e-06	-2.315361e-06	-1.130824e-08	-1.664650e+01	-7.410198e+02
2.700000e-06	-2.416832e-06	-1.186093e-08	-1.737604e+01	-7.767724e+02
2.710000e-06	-2.517358e-06	-1.237708e-08	-1.809878e+01	-8.102589e+02
2.720000e-06	-2.616987e-06	-1.285799e-08	-1.881507e+01	-8.416645e+02
2.730000e-06	-2.715705e-06	-1.330927e-08	-1.952482e+01	-8.711740e+02
2.740000e-06	-2.813487e-06	-1.373410e-08	-2.022783e+01	-8.989536e+02
2.750000e-06	-2.910360e-06	-1.413516e-08	-2.092430e+01	-9.251431e+02
2.760000e-06	-3.006385e-06	-1.451442e-08	-2.161468e+01	-9.498559e+02
2.770000e-06	-3.101424e-06	-1.487075e-08	-2.229798e+01	-9.731848e+02
2.780000e-06	-3.195216e-06	-1.520398e-08	-2.297231e+01	-9.952110e+02
2.790000e-06	-3.287722e-06	-1.551933e-08	-2.363739e+01	-1.016011e+03
2.800000e-06	-3.379068e-06	-1.581998e-08	-2.429413e+01	-1.035663e+03
2.810000e-06	-3.469271e-06	-1.610606e-08	-2.494265e+01	-1.054246e+03
2.820000e-06	-3.558273e-06	-1.637709e-08	-2.558254e+01	-1.071842e+03
2.830000e-06	-3.646079e-06	-1.663326e-08	-2.621383e+01	-1.088527e+03
2.840000e-06	-3.732531e-06	-1.687543e-08	-2.683539e+01	-1.104371e+03
2.850000e-06	-3.817508e-06	-1.710594e-08	-2.744633e+01	-1.119434e+03
2.860000e-06	-3.901183e-06	-1.732709e-08	-2.804792e+01	-1.133765e+03
2.870000e-06	-3.983553e-06	-1.753883e-08	-2.864013e+01	-1.147402e+03
2.880000e-06	-4.064487e-06	-1.773880e-08	-2.922201e+01	-1.160379e+03
2.890000e-06	-4.143937e-06	-1.792644e-08	-2.979322e+01	-1.172726e+03
2.900000e-06	-4.221772e-06	-1.810473e-08	-3.035283e+01	-1.184475e+03
2.910000e-06	-4.297926e-06	-1.827458e-08	-3.090034e+01	-1.195659e+03
2.920000e-06	-4.372424e-06	-1.843695e-08	-3.143595e+01	-1.206309e+03
2.930000e-06	-4.445279e-06	-1.859170e-08	-3.195975e+01	-1.216458e+03
2.940000e-06	-4.516507e-06	-1.873892e-08	-3.247185e+01	-1.226133e+03
