# Temperatura_=_71.87
# Concentracion g/m^3_=_28200.0
# C_Vs_to_Am_M_A/Vsm_=_65563218390.804596
# pendiente_HvsI_1/m_=_3716.3
# ordenada_HvsI_A/m_=_1297.0
# frecuencia_Hz_=_301948.0842723836

Tiempo_(s)	Campo_(V.s)	Magnetizacion_(V.s)	Campo_(kA/m)	Magnetizacion_(A/m)
0.000000e+00	-5.846508e-06	-2.189528e-08	-4.193992e+01	-1.434367e+03
1.000000e-08	-5.844912e-06	-2.189406e-08	-4.192847e+01	-1.434083e+03
2.000000e-08	-5.841226e-06	-2.188572e-08	-4.190203e+01	-1.433643e+03
3.000000e-08	-5.835697e-06	-2.187369e-08	-4.186237e+01	-1.433031e+03
4.000000e-08	-5.828444e-06	-2.186039e-08	-4.181033e+01	-1.432229e+03
5.000000e-08	-5.819297e-06	-2.184126e-08	-4.174472e+01	-1.431223e+03
6.000000e-08	-5.807917e-06	-2.182011e-08	-4.166308e+01	-1.430005e+03
7.000000e-08	-5.794394e-06	-2.179788e-08	-4.156608e+01	-1.428581e+03
8.000000e-08	-5.778723e-06	-2.177243e-08	-4.145366e+01	-1.426963e+03
9.000000e-08	-5.760866e-06	-2.178376e-08	-4.132556e+01	-1.425176e+03
1.000000e-07	-5.740916e-06	-2.179763e-08	-4.118245e+01	-1.423246e+03
1.100000e-07	-5.718802e-06	-2.172553e-08	-4.102382e+01	-1.421201e+03
1.200000e-07	-5.694488e-06	-2.165714e-08	-4.084940e+01	-1.419059e+03
1.300000e-07	-5.668031e-06	-2.161541e-08	-4.065961e+01	-1.416831e+03
1.400000e-07	-5.639954e-06	-2.150254e-08	-4.045820e+01	-1.414509e+03
1.500000e-07	-5.610540e-06	-2.150243e-08	-4.024720e+01	-1.412076e+03
1.600000e-07	-5.579465e-06	-2.158446e-08	-4.002428e+01	-1.409500e+03
1.700000e-07	-5.546541e-06	-2.144011e-08	-3.978811e+01	-1.406747e+03
1.800000e-07	-5.511745e-06	-2.143520e-08	-3.953850e+01	-1.403781e+03
1.900000e-07	-5.475014e-06	-2.143517e-08	-3.927501e+01	-1.400573e+03
2.000000e-07	-5.436342e-06	-2.125198e-08	-3.899759e+01	-1.397105e+03
2.100000e-07	-5.395805e-06	-2.126835e-08	-3.870680e+01	-1.393373e+03
2.200000e-07	-5.353153e-06	-2.121948e-08	-3.840084e+01	-1.389385e+03
2.300000e-07	-5.308425e-06	-2.110810e-08	-3.807998e+01	-1.385158e+03
2.400000e-07	-5.261753e-06	-2.108552e-08	-3.774518e+01	-1.380717e+03
2.500000e-07	-5.212788e-06	-2.098835e-08	-3.739393e+01	-1.376083e+03
2.600000e-07	-5.161407e-06	-2.092051e-08	-3.702534e+01	-1.371271e+03
2.700000e-07	-5.107891e-06	-2.086639e-08	-3.664145e+01	-1.366288e+03
2.800000e-07	-5.052602e-06	-2.075551e-08	-3.624483e+01	-1.361128e+03
2.900000e-07	-4.995427e-06	-2.067666e-08	-3.583469e+01	-1.355776e+03
3.000000e-07	-4.936268e-06	-2.059402e-08	-3.541031e+01	-1.350209e+03
3.100000e-07	-4.875357e-06	-2.051335e-08	-3.497336e+01	-1.344403e+03
3.200000e-07	-4.812758e-06	-2.040910e-08	-3.452431e+01	-1.338335e+03
3.300000e-07	-4.748412e-06	-2.031297e-08	-3.406272e+01	-1.331989e+03
3.400000e-07	-4.682157e-06	-2.020880e-08	-3.358744e+01	-1.325355e+03
3.500000e-07	-4.614097e-06	-2.008233e-08	-3.309922e+01	-1.318432e+03
3.600000e-07	-4.544417e-06	-1.999354e-08	-3.259937e+01	-1.311226e+03
3.700000e-07	-4.473226e-06	-1.987444e-08	-3.208868e+01	-1.303741e+03
3.800000e-07	-4.400531e-06	-1.976212e-08	-3.156720e+01	-1.295980e+03
3.900000e-07	-4.325922e-06	-1.964129e-08	-3.103199e+01	-1.287943e+03
4.000000e-07	-4.249413e-06	-1.949046e-08	-3.048316e+01	-1.279617e+03
4.100000e-07	-4.171282e-06	-1.935950e-08	-2.992268e+01	-1.270986e+03
4.200000e-07	-4.091469e-06	-1.922947e-08	-2.935014e+01	-1.262026e+03
4.300000e-07	-4.010193e-06	-1.909642e-08	-2.876711e+01	-1.252713e+03
4.400000e-07	-3.927703e-06	-1.894286e-08	-2.817537e+01	-1.243025e+03
4.500000e-07	-3.844027e-06	-1.878802e-08	-2.757513e+01	-1.232943e+03
4.600000e-07	-3.759170e-06	-1.862862e-08	-2.696640e+01	-1.222458e+03
4.700000e-07	-3.673070e-06	-1.845827e-08	-2.634876e+01	-1.211564e+03
4.800000e-07	-3.585805e-06	-1.828979e-08	-2.572277e+01	-1.200260e+03
4.900000e-07	-3.497311e-06	-1.811227e-08	-2.508796e+01	-1.188544e+03
5.000000e-07	-3.407332e-06	-1.792667e-08	-2.444249e+01	-1.176410e+03
5.100000e-07	-3.315918e-06	-1.772841e-08	-2.378674e+01	-1.163842e+03
5.200000e-07	-3.223369e-06	-1.752513e-08	-2.312283e+01	-1.150817e+03
5.300000e-07	-3.129744e-06	-1.731788e-08	-2.245121e+01	-1.137300e+03
5.400000e-07	-3.035045e-06	-1.710383e-08	-2.177189e+01	-1.123248e+03
5.500000e-07	-2.939318e-06	-1.688084e-08	-2.108520e+01	-1.108615e+03
5.600000e-07	-2.842437e-06	-1.664815e-08	-2.039022e+01	-1.093358e+03
5.700000e-07	-2.744244e-06	-1.640285e-08	-1.968583e+01	-1.077433e+03
5.800000e-07	-2.644845e-06	-1.614479e-08	-1.897279e+01	-1.060806e+03
5.900000e-07	-2.544543e-06	-1.587834e-08	-1.825328e+01	-1.043443e+03
6.000000e-07	-2.443422e-06	-1.560154e-08	-1.752788e+01	-1.025316e+03
6.100000e-07	-2.341454e-06	-1.531062e-08	-1.679642e+01	-1.006394e+03
6.200000e-07	-2.238651e-06	-1.500812e-08	-1.605896e+01	-9.866380e+02
6.300000e-07	-2.135017e-06	-1.469320e-08	-1.531554e+01	-9.660011e+02
6.400000e-07	-2.030604e-06	-1.436302e-08	-1.456653e+01	-9.444235e+02
6.500000e-07	-1.925411e-06	-1.401808e-08	-1.381193e+01	-9.218336e+02
6.600000e-07	-1.819392e-06	-1.365581e-08	-1.305141e+01	-8.981493e+02
6.700000e-07	-1.712530e-06	-1.327447e-08	-1.228483e+01	-8.732806e+02
6.800000e-07	-1.605013e-06	-1.287251e-08	-1.151356e+01	-8.471332e+02
6.900000e-07	-1.497063e-06	-1.245047e-08	-1.073918e+01	-8.196111e+02
7.000000e-07	-1.388699e-06	-1.200672e-08	-9.961830e+00	-7.906185e+02
7.100000e-07	-1.279865e-06	-1.153863e-08	-9.181113e+00	-7.600625e+02
7.200000e-07	-1.170585e-06	-1.104533e-08	-8.397191e+00	-7.278553e+02
7.300000e-07	-1.061012e-06	-1.052769e-08	-7.611166e+00	-6.939190e+02
7.400000e-07	-9.511327e-07	-9.985462e-09	-6.822949e+00	-6.581924e+02
7.500000e-07	-8.409483e-07	-9.415255e-09	-6.032542e+00	-6.206409e+02
7.600000e-07	-7.305361e-07	-8.817501e-09	-5.240500e+00	-5.812678e+02
7.700000e-07	-6.198412e-07	-8.188783e-09	-4.446430e+00	-5.401260e+02
7.800000e-07	-5.089354e-07	-7.533321e-09	-3.650847e+00	-4.973267e+02
7.900000e-07	-3.979472e-07	-6.859153e-09	-2.854674e+00	-4.530414e+02
8.000000e-07	-2.868153e-07	-6.168780e-09	-2.057469e+00	-4.074967e+02
8.100000e-07	-1.754860e-07	-5.462918e-09	-1.258848e+00	-3.609571e+02
8.200000e-07	-6.400219e-08	-4.743710e-09	-4.591196e-01	-3.137002e+02
8.300000e-07	4.752819e-08	-4.017173e-09	3.409434e-01	-2.659839e+02
8.400000e-07	1.590705e-07	-3.287169e-09	1.141092e+00	-2.180127e+02
8.500000e-07	2.705955e-07	-2.554915e-09	1.941116e+00	-1.699082e+02
8.600000e-07	3.819776e-07	-1.820250e-09	2.740116e+00	-1.216897e+02
8.700000e-07	4.931988e-07	-1.084641e-09	3.537961e+00	-7.327136e+01
8.800000e-07	6.042826e-07	-3.434911e-10	4.334820e+00	-2.447687e+01
8.900000e-07	7.151492e-07	4.092957e-10	5.130122e+00	2.492782e+01
9.000000e-07	8.257756e-07	1.178206e-09	5.923700e+00	7.518817e+01
9.100000e-07	9.361756e-07	1.962767e-09	6.715655e+00	1.265081e+02
9.200000e-07	1.046291e-06	2.761407e-09	7.505571e+00	1.789988e+02
9.300000e-07	1.156089e-06	3.574257e-09	8.293206e+00	2.326390e+02
9.400000e-07	1.265517e-06	4.400271e-09	9.078181e+00	2.872521e+02
9.500000e-07	1.374539e-06	5.239286e-09	9.860255e+00	3.425073e+02
9.600000e-07	1.483129e-06	6.084700e-09	1.063922e+01	3.979421e+02
9.700000e-07	1.591254e-06	6.926552e-09	1.141486e+01	4.530049e+02
9.800000e-07	1.698901e-06	7.752393e-09	1.218706e+01	5.071095e+02
9.900000e-07	1.805863e-06	8.551642e-09	1.295435e+01	5.596931e+02
1.000000e-06	1.911979e-06	9.317618e-09	1.371558e+01	6.102690e+02
1.010000e-06	2.017221e-06	1.004568e-08	1.447053e+01	6.584651e+02
1.020000e-06	2.121637e-06	1.073597e-08	1.521956e+01	7.040454e+02
1.030000e-06	2.225267e-06	1.138621e-08	1.596295e+01	7.469106e+02
1.040000e-06	2.328083e-06	1.199550e-08	1.670050e+01	7.870823e+02
1.050000e-06	2.430081e-06	1.256659e-08	1.743218e+01	8.246749e+02
1.060000e-06	2.531210e-06	1.310265e-08	1.815763e+01	8.598608e+02
1.070000e-06	2.631527e-06	1.360315e-08	1.887725e+01	8.928373e+02
1.080000e-06	2.731061e-06	1.407400e-08	1.959126e+01	9.237993e+02
1.090000e-06	2.829520e-06	1.451816e-08	2.029756e+01	9.529218e+02
1.100000e-06	2.926712e-06	1.493438e-08	2.099476e+01	9.803526e+02
1.110000e-06	3.022807e-06	1.532681e-08	2.168410e+01	1.006213e+03
1.120000e-06	3.117819e-06	1.569752e-08	2.236567e+01	1.030607e+03
1.130000e-06	3.211699e-06	1.604707e-08	2.303912e+01	1.053626e+03
1.140000e-06	3.304539e-06	1.637762e-08	2.370510e+01	1.075361e+03
1.150000e-06	3.396474e-06	1.669166e-08	2.436460e+01	1.095902e+03
1.160000e-06	3.487293e-06	1.699014e-08	2.501609e+01	1.115343e+03
1.170000e-06	3.576689e-06	1.727173e-08	2.565737e+01	1.133774e+03
1.180000e-06	3.664717e-06	1.753809e-08	2.628884e+01	1.151276e+03
1.190000e-06	3.751499e-06	1.779173e-08	2.691138e+01	1.167921e+03
1.200000e-06	3.837080e-06	1.803180e-08	2.752529e+01	1.183763e+03
1.210000e-06	3.921488e-06	1.825935e-08	2.813079e+01	1.198845e+03
1.220000e-06	4.004565e-06	1.847520e-08	2.872674e+01	1.213197e+03
1.230000e-06	4.086113e-06	1.868232e-08	2.931172e+01	1.226847e+03
1.240000e-06	4.166079e-06	1.887875e-08	2.988537e+01	1.239822e+03
1.250000e-06	4.244543e-06	1.906466e-08	3.044823e+01	1.252154e+03
1.260000e-06	4.321522e-06	1.924198e-08	3.100043e+01	1.263883e+03
1.270000e-06	4.396858e-06	1.941175e-08	3.154086e+01	1.275052e+03
1.280000e-06	4.470385e-06	1.957406e-08	3.206830e+01	1.285704e+03
1.290000e-06	4.542073e-06	1.972854e-08	3.258256e+01	1.295879e+03
1.300000e-06	4.612107e-06	1.987744e-08	3.308494e+01	1.305605e+03
1.310000e-06	4.680604e-06	2.002095e-08	3.357630e+01	1.314900e+03
1.320000e-06	4.747446e-06	2.015871e-08	3.405580e+01	1.323768e+03
1.330000e-06	4.812472e-06	2.028942e-08	3.452226e+01	1.332205e+03
1.340000e-06	4.875708e-06	2.041219e-08	3.497589e+01	1.340201e+03
1.350000e-06	4.937303e-06	2.052737e-08	3.541773e+01	1.347754e+03
1.360000e-06	4.997325e-06	2.063474e-08	3.584830e+01	1.354867e+03
1.370000e-06	5.055544e-06	2.073669e-08	3.626594e+01	1.361556e+03
1.380000e-06	5.111849e-06	2.083270e-08	3.666984e+01	1.367850e+03
1.390000e-06	5.166319e-06	2.092310e-08	3.706058e+01	1.373788e+03
1.400000e-06	5.218843e-06	2.100880e-08	3.743736e+01	1.379413e+03
1.410000e-06	5.269215e-06	2.109041e-08	3.779871e+01	1.384763e+03
1.420000e-06	5.317355e-06	2.116867e-08	3.814404e+01	1.389872e+03
1.430000e-06	5.363513e-06	2.124358e-08	3.847515e+01	1.394756e+03
1.440000e-06	5.407991e-06	2.131503e-08	3.879421e+01	1.399423e+03
1.450000e-06	5.450664e-06	2.138220e-08	3.910033e+01	1.403864e+03
1.460000e-06	5.491261e-06	2.144699e-08	3.939156e+01	1.408065e+03
1.470000e-06	5.529863e-06	2.150972e-08	3.966847e+01	1.412009e+03
1.480000e-06	5.566677e-06	2.156686e-08	3.993255e+01	1.415681e+03
1.490000e-06	5.601598e-06	2.161661e-08	4.018306e+01	1.419073e+03
1.500000e-06	5.634403e-06	2.166332e-08	4.041838e+01	1.422185e+03
1.510000e-06	5.665180e-06	2.170891e-08	4.063916e+01	1.425025e+03
1.520000e-06	5.694134e-06	2.175136e-08	4.084686e+01	1.427607e+03
1.530000e-06	5.721185e-06	2.178862e-08	4.104092e+01	1.429943e+03
1.540000e-06	5.746073e-06	2.182061e-08	4.121945e+01	1.432048e+03
1.550000e-06	5.768788e-06	2.184728e-08	4.138239e+01	1.433930e+03
1.560000e-06	5.789495e-06	2.187124e-08	4.153094e+01	1.435592e+03
1.570000e-06	5.808244e-06	2.189318e-08	4.166543e+01	1.437035e+03
1.580000e-06	5.824829e-06	2.191201e-08	4.178441e+01	1.438260e+03
1.590000e-06	5.839200e-06	2.192857e-08	4.188750e+01	1.439268e+03
1.600000e-06	5.851457e-06	2.194187e-08	4.197542e+01	1.440065e+03
1.610000e-06	5.861344e-06	2.195203e-08	4.204634e+01	1.440662e+03
1.620000e-06	5.868904e-06	2.196020e-08	4.210057e+01	1.441074e+03
1.630000e-06	5.874440e-06	2.196742e-08	4.214029e+01	1.441317e+03
1.640000e-06	5.878022e-06	2.197308e-08	4.216599e+01	1.441406e+03
1.650000e-06	5.879460e-06	2.197829e-08	4.217630e+01	1.441352e+03
1.660000e-06	5.878777e-06	2.197796e-08	4.217140e+01	1.441155e+03
1.670000e-06	5.876212e-06	2.196742e-08	4.215300e+01	1.440810e+03
1.680000e-06	5.871787e-06	2.195787e-08	4.212126e+01	1.440304e+03
1.690000e-06	5.865352e-06	2.194722e-08	4.207510e+01	1.439618e+03
1.700000e-06	5.856938e-06	2.193583e-08	4.201474e+01	1.438737e+03
1.710000e-06	5.846771e-06	2.192396e-08	4.194180e+01	1.437647e+03
1.720000e-06	5.834704e-06	2.191201e-08	4.185524e+01	1.436346e+03
1.730000e-06	5.820416e-06	2.190330e-08	4.175275e+01	1.434842e+03
1.740000e-06	5.804143e-06	2.183102e-08	4.163601e+01	1.433154e+03
1.750000e-06	5.785855e-06	2.174834e-08	4.150482e+01	1.431306e+03
1.760000e-06	5.764853e-06	2.176228e-08	4.135416e+01	1.429327e+03
1.770000e-06	5.741066e-06	2.175445e-08	4.118353e+01	1.427242e+03
1.780000e-06	5.715101e-06	2.175437e-08	4.099727e+01	1.425065e+03
1.790000e-06	5.687717e-06	2.179903e-08	4.080083e+01	1.422800e+03
1.800000e-06	5.659465e-06	2.163034e-08	4.059817e+01	1.420437e+03
1.810000e-06	5.629599e-06	2.158323e-08	4.038392e+01	1.417951e+03
1.820000e-06	5.597271e-06	2.163194e-08	4.015202e+01	1.415309e+03
1.830000e-06	5.563117e-06	2.146646e-08	3.990701e+01	1.412475e+03
1.840000e-06	5.527239e-06	2.153082e-08	3.964964e+01	1.409416e+03
1.850000e-06	5.489099e-06	2.150668e-08	3.937605e+01	1.406106e+03
1.860000e-06	5.448945e-06	2.129910e-08	3.908800e+01	1.402533e+03
1.870000e-06	5.406876e-06	2.134106e-08	3.878622e+01	1.398698e+03
1.880000e-06	5.363043e-06	2.124189e-08	3.847178e+01	1.394613e+03
1.890000e-06	5.317426e-06	2.117269e-08	3.814455e+01	1.390298e+03
1.900000e-06	5.269555e-06	2.116896e-08	3.780114e+01	1.385778e+03
1.910000e-06	5.219637e-06	2.098942e-08	3.744306e+01	1.381072e+03
1.920000e-06	5.167651e-06	2.101305e-08	3.707014e+01	1.376191e+03
1.930000e-06	5.113463e-06	2.092800e-08	3.668142e+01	1.371139e+03
1.940000e-06	5.057378e-06	2.079317e-08	3.627909e+01	1.365905e+03
1.950000e-06	4.999416e-06	2.076998e-08	3.586330e+01	1.360471e+03
1.960000e-06	4.939703e-06	2.063486e-08	3.543495e+01	1.354812e+03
1.970000e-06	4.878140e-06	2.058984e-08	3.499333e+01	1.348905e+03
1.980000e-06	4.814609e-06	2.046120e-08	3.453759e+01	1.342728e+03
1.990000e-06	4.749343e-06	2.036356e-08	3.406941e+01	1.336268e+03
2.000000e-06	4.682463e-06	2.031442e-08	3.358964e+01	1.329520e+03
2.010000e-06	4.614066e-06	2.015832e-08	3.309900e+01	1.322484e+03
2.020000e-06	4.543781e-06	2.007286e-08	3.259481e+01	1.315167e+03
2.030000e-06	4.471607e-06	1.992254e-08	3.207707e+01	1.307572e+03
2.040000e-06	4.397902e-06	1.982851e-08	3.154835e+01	1.299703e+03
2.050000e-06	4.322658e-06	1.972774e-08	3.100858e+01	1.291553e+03
2.060000e-06	4.245719e-06	1.956647e-08	3.045666e+01	1.283108e+03
2.070000e-06	4.166951e-06	1.945473e-08	2.989162e+01	1.274350e+03
2.080000e-06	4.086661e-06	1.929188e-08	2.931566e+01	1.265254e+03
2.090000e-06	4.005024e-06	1.916070e-08	2.873003e+01	1.255795e+03
2.100000e-06	3.922074e-06	1.900568e-08	2.813499e+01	1.245953e+03
2.110000e-06	3.837850e-06	1.886295e-08	2.753082e+01	1.235713e+03
2.120000e-06	3.752233e-06	1.871417e-08	2.691664e+01	1.225066e+03
2.130000e-06	3.665182e-06	1.852481e-08	2.629218e+01	1.214010e+03
2.140000e-06	3.576788e-06	1.835197e-08	2.565809e+01	1.202544e+03
2.150000e-06	3.487173e-06	1.816234e-08	2.501523e+01	1.190664e+03
2.160000e-06	3.396334e-06	1.798956e-08	2.436360e+01	1.178361e+03
2.170000e-06	3.304408e-06	1.779789e-08	2.370416e+01	1.165616e+03
2.180000e-06	3.211343e-06	1.760456e-08	2.303656e+01	1.152401e+03
2.190000e-06	3.116933e-06	1.739500e-08	2.235931e+01	1.138678e+03
2.200000e-06	3.021298e-06	1.717221e-08	2.167328e+01	1.124403e+03
2.210000e-06	2.924619e-06	1.694835e-08	2.097975e+01	1.109529e+03
2.220000e-06	2.826934e-06	1.671388e-08	2.027901e+01	1.094014e+03
2.230000e-06	2.728262e-06	1.647430e-08	1.957118e+01	1.077816e+03
2.240000e-06	2.628630e-06	1.621266e-08	1.885647e+01	1.060902e+03
2.250000e-06	2.528084e-06	1.594638e-08	1.813521e+01	1.043242e+03
2.260000e-06	2.426628e-06	1.566525e-08	1.740742e+01	1.024806e+03
2.270000e-06	2.324097e-06	1.537382e-08	1.667191e+01	1.005560e+03
2.280000e-06	2.220483e-06	1.507191e-08	1.592863e+01	9.854632e+02
2.290000e-06	2.116046e-06	1.475761e-08	1.517945e+01	9.644637e+02
2.300000e-06	2.010894e-06	1.442543e-08	1.442515e+01	9.424967e+02
2.310000e-06	1.905044e-06	1.407340e-08	1.366583e+01	9.194861e+02
2.320000e-06	1.798650e-06	1.370497e-08	1.290261e+01	8.953466e+02
2.330000e-06	1.691766e-06	1.331678e-08	1.213588e+01	8.699861e+02
2.340000e-06	1.584343e-06	1.291097e-08	1.136528e+01	8.433092e+02
2.350000e-06	1.476407e-06	1.248404e-08	1.059100e+01	8.152198e+02
2.360000e-06	1.367999e-06	1.203767e-08	9.813342e+00	7.856230e+02
2.370000e-06	1.259221e-06	1.156650e-08	9.033022e+00	7.544274e+02
2.380000e-06	1.150135e-06	1.106896e-08	8.250494e+00	7.215485e+02
2.390000e-06	1.040759e-06	1.054031e-08	7.465882e+00	6.869140e+02
2.400000e-06	9.310617e-07	9.981069e-09	6.678970e+00	6.504719e+02
2.410000e-06	8.210005e-07	9.394238e-09	5.889446e+00	6.122009e+02
2.420000e-06	7.105523e-07	8.780845e-09	5.097146e+00	5.721227e+02
2.430000e-06	5.997665e-07	8.141416e-09	4.302424e+00	5.303121e+02
2.440000e-06	4.887574e-07	7.476572e-09	3.506101e+00	4.869044e+02
2.450000e-06	3.776091e-07	6.792719e-09	2.708779e+00	4.420938e+02
2.460000e-06	2.663474e-07	6.089840e-09	1.910643e+00	3.961244e+02
2.470000e-06	1.549145e-07	5.375142e-09	1.111279e+00	3.492694e+02
2.480000e-06	4.337040e-08	4.651310e-09	3.111175e-01	3.018025e+02
2.490000e-06	-6.817593e-08	3.920270e-09	-4.890599e-01	2.539648e+02
2.500000e-06	-1.796440e-07	3.185100e-09	-1.288676e+00	2.059312e+02
2.510000e-06	-2.909942e-07	2.446443e-09	-2.087447e+00	1.577846e+02
2.520000e-06	-4.022658e-07	1.705845e-09	-2.885653e+00	1.095024e+02
2.530000e-06	-5.134023e-07	9.608503e-10	-3.682891e+00	6.096050e+01
2.540000e-06	-6.243390e-07	2.125273e-10	-4.478695e+00	1.195504e+01
2.550000e-06	-7.349859e-07	-5.452156e-10	-5.272421e+00	-3.775855e+01
2.560000e-06	-8.452992e-07	-1.317890e-09	-6.063753e+00	-8.841583e+01
2.570000e-06	-9.552724e-07	-2.108080e-09	-6.852645e+00	-1.401900e+02
2.580000e-06	-1.064848e-06	-2.917864e-09	-7.638683e+00	-1.931441e+02
2.590000e-06	-1.174040e-06	-3.744119e-09	-8.421974e+00	-2.471973e+02
2.600000e-06	-1.282894e-06	-4.583088e-09	-9.202839e+00	-3.021111e+02
2.610000e-06	-1.391401e-06	-5.430157e-09	-9.981216e+00	-3.574989e+02
2.620000e-06	-1.499476e-06	-6.278757e-09	-1.075649e+01	-4.128575e+02
2.630000e-06	-1.607012e-06	-7.120709e-09	-1.152790e+01	-4.676147e+02
2.640000e-06	-1.713946e-06	-7.944083e-09	-1.229499e+01	-5.211866e+02
2.650000e-06	-1.820321e-06	-8.737426e-09	-1.305807e+01	-5.730348e+02
2.660000e-06	-1.926031e-06	-9.494958e-09	-1.381638e+01	-6.227138e+02
2.670000e-06	-2.031002e-06	-1.021549e-08	-1.456939e+01	-6.699036e+02
2.680000e-06	-2.135300e-06	-1.089741e-08	-1.531757e+01	-7.144228e+02
2.690000e-06	-2.238775e-06	-1.153775e-08	-1.605985e+01	-7.562223e+02
2.700000e-06	-2.341250e-06	-1.213943e-08	-1.679496e+01	-7.953641e+02
2.710000e-06	-2.442755e-06	-1.270435e-08	-1.752310e+01	-8.319895e+02
2.720000e-06	-2.543325e-06	-1.323265e-08	-1.824454e+01	-8.662844e+02
2.730000e-06	-2.642970e-06	-1.372584e-08	-1.895934e+01	-8.984479e+02
2.740000e-06	-2.741731e-06	-1.418835e-08	-1.966780e+01	-9.286688e+02
2.750000e-06	-2.839555e-06	-1.462208e-08	-2.036954e+01	-9.571116e+02
2.760000e-06	-2.936454e-06	-1.502919e-08	-2.106465e+01	-9.839132e+02
2.770000e-06	-3.032449e-06	-1.541673e-08	-2.175327e+01	-1.009187e+03
2.780000e-06	-3.127349e-06	-1.578364e-08	-2.243403e+01	-1.033031e+03
2.790000e-06	-3.221015e-06	-1.612661e-08	-2.310594e+01	-1.055535e+03
2.800000e-06	-3.313484e-06	-1.644768e-08	-2.376927e+01	-1.076791e+03
2.810000e-06	-3.404774e-06	-1.675183e-08	-2.442414e+01	-1.096890e+03
2.820000e-06	-3.494873e-06	-1.704319e-08	-2.507047e+01	-1.115925e+03
2.830000e-06	-3.583848e-06	-1.732231e-08	-2.570873e+01	-1.133982e+03
2.840000e-06	-3.671572e-06	-1.758656e-08	-2.633801e+01	-1.151141e+03
2.850000e-06	-3.757840e-06	-1.783567e-08	-2.695686e+01	-1.167466e+03
2.860000e-06	-3.842741e-06	-1.807267e-08	-2.756589e+01	-1.183006e+03
2.870000e-06	-3.926321e-06	-1.829845e-08	-2.816546e+01	-1.197799e+03
2.880000e-06	-4.008560e-06	-1.851482e-08	-2.875540e+01	-1.211873e+03
2.890000e-06	-4.089453e-06	-1.872148e-08	-2.933568e+01	-1.225255e+03
2.900000e-06	-4.168768e-06	-1.891773e-08	-2.990465e+01	-1.237974e+03
2.910000e-06	-4.246387e-06	-1.910320e-08	-3.046145e+01	-1.250066e+03
2.920000e-06	-4.322331e-06	-1.927938e-08	-3.100623e+01	-1.261570e+03
2.930000e-06	-4.396598e-06	-1.944684e-08	-3.153899e+01	-1.272531e+03
2.940000e-06	-4.469269e-06	-1.960482e-08	-3.206030e+01	-1.282993e+03
