# Temperatura_=_26.86
# Concentracion g/m^3_=_28200.0
# C_Vs_to_Am_M_A/Vsm_=_65563218390.804596
# pendiente_HvsI_1/m_=_3716.3
# ordenada_HvsI_A/m_=_1297.0
# frecuencia_Hz_=_301953.87380645704

Tiempo_(s)	Campo_(V.s)	Magnetizacion_(V.s)	Campo_(kA/m)	Magnetizacion_(A/m)
0.000000e+00	-5.825092e-06	-1.738955e-08	-4.194127e+01	-1.137608e+03
1.000000e-08	-5.823633e-06	-1.738749e-08	-4.193077e+01	-1.137380e+03
2.000000e-08	-5.820141e-06	-1.738200e-08	-4.190562e+01	-1.137072e+03
3.000000e-08	-5.814805e-06	-1.737454e-08	-4.186720e+01	-1.136675e+03
4.000000e-08	-5.807727e-06	-1.736566e-08	-4.181624e+01	-1.136166e+03
5.000000e-08	-5.798769e-06	-1.735297e-08	-4.175174e+01	-1.135517e+03
6.000000e-08	-5.787666e-06	-1.733761e-08	-4.167180e+01	-1.134696e+03
7.000000e-08	-5.774358e-06	-1.732150e-08	-4.157598e+01	-1.133680e+03
8.000000e-08	-5.758933e-06	-1.730685e-08	-4.146492e+01	-1.132464e+03
9.000000e-08	-5.741384e-06	-1.730397e-08	-4.133856e+01	-1.131062e+03
1.000000e-07	-5.721778e-06	-1.728949e-08	-4.119740e+01	-1.129507e+03
1.100000e-07	-5.700038e-06	-1.726089e-08	-4.104087e+01	-1.127844e+03
1.200000e-07	-5.676071e-06	-1.723181e-08	-4.086830e+01	-1.126124e+03
1.300000e-07	-5.649986e-06	-1.718778e-08	-4.068049e+01	-1.124386e+03
1.400000e-07	-5.622156e-06	-1.711355e-08	-4.048011e+01	-1.122651e+03
1.500000e-07	-5.592909e-06	-1.708414e-08	-4.026953e+01	-1.120916e+03
1.600000e-07	-5.562075e-06	-1.707921e-08	-4.004752e+01	-1.119152e+03
1.700000e-07	-5.529391e-06	-1.704310e-08	-3.981219e+01	-1.117307e+03
1.800000e-07	-5.494822e-06	-1.704714e-08	-3.956329e+01	-1.115319e+03
1.900000e-07	-5.458389e-06	-1.702248e-08	-3.930097e+01	-1.113126e+03
2.000000e-07	-5.420019e-06	-1.694986e-08	-3.902470e+01	-1.110679e+03
2.100000e-07	-5.379778e-06	-1.686404e-08	-3.873496e+01	-1.107952e+03
2.200000e-07	-5.337512e-06	-1.679954e-08	-3.843064e+01	-1.104942e+03
2.300000e-07	-5.293161e-06	-1.680003e-08	-3.811131e+01	-1.101670e+03
2.400000e-07	-5.246831e-06	-1.676352e-08	-3.777773e+01	-1.098174e+03
2.500000e-07	-5.198328e-06	-1.669678e-08	-3.742850e+01	-1.094497e+03
2.600000e-07	-5.147526e-06	-1.665042e-08	-3.706273e+01	-1.090679e+03
2.700000e-07	-5.094531e-06	-1.655426e-08	-3.668116e+01	-1.086744e+03
2.800000e-07	-5.039582e-06	-1.647280e-08	-3.628551e+01	-1.082700e+03
2.900000e-07	-4.982842e-06	-1.645455e-08	-3.587698e+01	-1.078535e+03
3.000000e-07	-4.924190e-06	-1.640480e-08	-3.545468e+01	-1.074224e+03
3.100000e-07	-4.863636e-06	-1.629875e-08	-3.501869e+01	-1.069734e+03
3.200000e-07	-4.801345e-06	-1.621375e-08	-3.457018e+01	-1.065036e+03
3.300000e-07	-4.737256e-06	-1.615729e-08	-3.410874e+01	-1.060106e+03
3.400000e-07	-4.671360e-06	-1.607558e-08	-3.363428e+01	-1.054934e+03
3.500000e-07	-4.603740e-06	-1.599550e-08	-3.314741e+01	-1.049518e+03
3.600000e-07	-4.534482e-06	-1.591599e-08	-3.264875e+01	-1.043866e+03
3.700000e-07	-4.463688e-06	-1.581502e-08	-3.213902e+01	-1.037989e+03
3.800000e-07	-4.391363e-06	-1.571119e-08	-3.161827e+01	-1.031892e+03
3.900000e-07	-4.317281e-06	-1.561714e-08	-3.108487e+01	-1.025574e+03
4.000000e-07	-4.241370e-06	-1.553862e-08	-3.053831e+01	-1.019024e+03
4.100000e-07	-4.163752e-06	-1.544167e-08	-2.997945e+01	-1.012221e+03
4.200000e-07	-4.084556e-06	-1.531299e-08	-2.940923e+01	-1.005142e+03
4.300000e-07	-4.003816e-06	-1.518593e-08	-2.882789e+01	-9.977613e+02
4.400000e-07	-3.921673e-06	-1.506879e-08	-2.823646e+01	-9.900598e+02
4.500000e-07	-3.838322e-06	-1.495416e-08	-2.763632e+01	-9.820254e+02
4.600000e-07	-3.753767e-06	-1.483651e-08	-2.702752e+01	-9.736542e+02
4.700000e-07	-3.668025e-06	-1.470699e-08	-2.641016e+01	-9.649477e+02
4.800000e-07	-3.581136e-06	-1.455285e-08	-2.578455e+01	-9.559092e+02
4.900000e-07	-3.492994e-06	-1.439636e-08	-2.514992e+01	-9.465383e+02
5.000000e-07	-3.403461e-06	-1.425319e-08	-2.450528e+01	-9.368272e+02
5.100000e-07	-3.312592e-06	-1.410736e-08	-2.385101e+01	-9.267582e+02
5.200000e-07	-3.220450e-06	-1.395054e-08	-2.318758e+01	-9.163033e+02
5.300000e-07	-3.127162e-06	-1.377997e-08	-2.251590e+01	-9.054275e+02
5.400000e-07	-3.032832e-06	-1.359963e-08	-2.183671e+01	-8.940918e+02
5.500000e-07	-2.937473e-06	-1.341372e-08	-2.115011e+01	-8.822580e+02
5.600000e-07	-2.840989e-06	-1.322856e-08	-2.045542e+01	-8.698915e+02
5.700000e-07	-2.743396e-06	-1.303842e-08	-1.975274e+01	-8.569634e+02
5.800000e-07	-2.644694e-06	-1.283369e-08	-1.904207e+01	-8.434493e+02
5.900000e-07	-2.544839e-06	-1.261087e-08	-1.832311e+01	-8.293271e+02
6.000000e-07	-2.444005e-06	-1.237555e-08	-1.759709e+01	-8.145736e+02
6.100000e-07	-2.342400e-06	-1.213671e-08	-1.686552e+01	-7.991604e+02
6.200000e-07	-2.240070e-06	-1.189248e-08	-1.612874e+01	-7.830523e+02
6.300000e-07	-2.136926e-06	-1.163950e-08	-1.538609e+01	-7.662055e+02
6.400000e-07	-2.032887e-06	-1.137270e-08	-1.463700e+01	-7.485697e+02
6.500000e-07	-1.927976e-06	-1.108946e-08	-1.388163e+01	-7.300892e+02
6.600000e-07	-1.822392e-06	-1.079238e-08	-1.312141e+01	-7.107063e+02
6.700000e-07	-1.716202e-06	-1.048261e-08	-1.235683e+01	-6.903635e+02
6.800000e-07	-1.609353e-06	-1.015615e-08	-1.158751e+01	-6.690048e+02
6.900000e-07	-1.501805e-06	-9.811158e-09	-1.081315e+01	-6.465760e+02
7.000000e-07	-1.393723e-06	-9.448371e-09	-1.003495e+01	-6.230246e+02
7.100000e-07	-1.285275e-06	-9.066929e-09	-9.254113e+00	-5.982995e+02
7.200000e-07	-1.176467e-06	-8.669889e-09	-8.470686e+00	-5.723530e+02
7.300000e-07	-1.067365e-06	-8.259093e-09	-7.685142e+00	-5.451438e+02
7.400000e-07	-9.578950e-07	-7.831125e-09	-6.896944e+00	-5.166443e+02
7.500000e-07	-8.480799e-07	-7.379241e-09	-6.106264e+00	-4.868483e+02
7.600000e-07	-7.380142e-07	-6.903920e-09	-5.313779e+00	-4.557812e+02
7.700000e-07	-6.277050e-07	-6.411609e-09	-4.519542e+00	-4.235076e+02
7.800000e-07	-5.172306e-07	-5.903623e-09	-3.724114e+00	-3.901365e+02
7.900000e-07	-4.066190e-07	-5.380992e-09	-2.927699e+00	-3.558206e+02
8.000000e-07	-2.959108e-07	-4.847644e-09	-2.130588e+00	-3.207496e+02
8.100000e-07	-1.851350e-07	-4.306985e-09	-1.332991e+00	-2.851362e+02
8.200000e-07	-7.424433e-08	-3.759973e-09	-5.345670e-01	-2.491971e+02
8.300000e-07	3.673129e-08	-3.211970e-09	2.644691e-01	-2.131307e+02
8.400000e-07	1.476820e-07	-2.667742e-09	1.063326e+00	-1.770945e+02
8.500000e-07	2.586067e-07	-2.124913e-09	1.861995e+00	-1.411871e+02
8.600000e-07	3.694252e-07	-1.579966e-09	2.659900e+00	-1.054358e+02
8.700000e-07	4.801130e-07	-1.035057e-09	3.456864e+00	-6.979376e+01
8.800000e-07	5.907648e-07	-4.915733e-10	4.253568e+00	-3.414712e+01
8.900000e-07	7.013141e-07	5.515840e-11	5.049535e+00	1.668243e+00
9.000000e-07	8.116926e-07	6.071893e-10	5.844271e+00	3.784247e+01
9.100000e-07	9.218501e-07	1.164446e-09	6.637417e+00	7.456274e+01
9.200000e-07	1.031679e-06	1.730032e-09	7.428195e+00	1.119834e+02
9.300000e-07	1.141143e-06	2.307749e-09	8.216352e+00	1.501988e+02
9.400000e-07	1.250199e-06	2.898285e-09	9.001564e+00	1.892233e+02
9.500000e-07	1.358824e-06	3.500684e-09	9.783677e+00	2.289795e+02
9.600000e-07	1.467087e-06	4.114324e-09	1.056318e+01	2.692974e+02
9.700000e-07	1.574940e-06	4.734596e-09	1.133974e+01	3.099242e+02
9.800000e-07	1.682203e-06	5.355894e-09	1.211204e+01	3.505437e+02
9.900000e-07	1.788748e-06	5.969961e-09	1.287918e+01	3.908019e+02
1.000000e-06	1.894588e-06	6.570391e-09	1.364123e+01	4.303373e+02
1.010000e-06	1.999647e-06	7.153764e-09	1.439767e+01	4.688099e+02
1.020000e-06	2.103843e-06	7.716604e-09	1.514789e+01	5.059276e+02
1.030000e-06	2.207121e-06	8.256970e-09	1.589150e+01	5.414656e+02
1.040000e-06	2.309591e-06	8.769799e-09	1.662930e+01	5.752768e+02
1.050000e-06	2.411265e-06	9.253622e-09	1.736136e+01	6.072934e+02
1.060000e-06	2.512078e-06	9.710094e-09	1.808722e+01	6.375191e+02
1.070000e-06	2.612164e-06	1.014255e-08	1.880785e+01	6.660148e+02
1.080000e-06	2.711371e-06	1.055223e-08	1.952216e+01	6.928801e+02
1.090000e-06	2.809473e-06	1.093996e-08	2.022850e+01	7.182334e+02
1.100000e-06	2.906427e-06	1.130647e-08	2.092658e+01	7.421947e+02
1.110000e-06	3.002236e-06	1.165457e-08	2.161641e+01	7.648725e+02
1.120000e-06	3.096956e-06	1.198142e-08	2.229841e+01	7.863563e+02
1.130000e-06	3.190657e-06	1.228674e-08	2.297307e+01	8.067163e+02
1.140000e-06	3.283349e-06	1.257568e-08	2.364045e+01	8.260060e+02
1.150000e-06	3.375046e-06	1.285047e-08	2.430068e+01	8.442698e+02
1.160000e-06	3.465625e-06	1.311228e-08	2.495286e+01	8.615504e+02
1.170000e-06	3.554910e-06	1.336069e-08	2.559573e+01	8.778944e+02
1.180000e-06	3.642804e-06	1.359712e-08	2.622857e+01	8.933565e+02
1.190000e-06	3.729349e-06	1.382212e-08	2.685170e+01	9.079986e+02
1.200000e-06	3.814677e-06	1.403543e-08	2.746607e+01	9.218866e+02
1.210000e-06	3.898798e-06	1.423552e-08	2.807175e+01	9.350854e+02
1.220000e-06	3.981660e-06	1.442354e-08	2.866837e+01	9.476528e+02
1.230000e-06	4.063058e-06	1.460149e-08	2.925444e+01	9.596349e+02
1.240000e-06	4.142939e-06	1.477184e-08	2.982959e+01	9.710643e+02
1.250000e-06	4.221304e-06	1.493647e-08	3.039383e+01	9.819604e+02
1.260000e-06	4.298151e-06	1.509536e-08	3.094713e+01	9.923330e+02
1.270000e-06	4.373361e-06	1.524758e-08	3.148865e+01	1.002187e+03
1.280000e-06	4.446760e-06	1.539179e-08	3.201714e+01	1.011527e+03
1.290000e-06	4.518407e-06	1.552695e-08	3.253300e+01	1.020362e+03
1.300000e-06	4.588352e-06	1.565215e-08	3.303661e+01	1.028709e+03
1.310000e-06	4.656728e-06	1.577002e-08	3.352892e+01	1.036592e+03
1.320000e-06	4.723478e-06	1.588232e-08	3.400954e+01	1.044038e+03
1.330000e-06	4.788418e-06	1.598945e-08	3.447711e+01	1.051078e+03
1.340000e-06	4.851589e-06	1.609116e-08	3.493194e+01	1.057743e+03
1.350000e-06	4.913133e-06	1.618668e-08	3.537507e+01	1.064060e+03
1.360000e-06	4.973171e-06	1.627653e-08	3.580735e+01	1.070052e+03
1.370000e-06	5.031444e-06	1.636179e-08	3.622692e+01	1.075739e+03
1.380000e-06	5.087701e-06	1.644381e-08	3.663198e+01	1.081140e+03
1.390000e-06	5.142049e-06	1.652292e-08	3.702329e+01	1.086269e+03
1.400000e-06	5.194483e-06	1.659804e-08	3.740082e+01	1.091144e+03
1.410000e-06	5.244740e-06	1.666783e-08	3.776267e+01	1.095780e+03
1.420000e-06	5.292817e-06	1.673307e-08	3.810884e+01	1.100190e+03
1.430000e-06	5.339044e-06	1.679527e-08	3.844167e+01	1.104385e+03
1.440000e-06	5.383577e-06	1.685540e-08	3.876231e+01	1.108369e+03
1.450000e-06	5.426224e-06	1.691383e-08	3.906938e+01	1.112137e+03
1.460000e-06	5.466824e-06	1.696889e-08	3.936170e+01	1.115680e+03
1.470000e-06	5.505501e-06	1.701943e-08	3.964018e+01	1.118986e+03
1.480000e-06	5.542393e-06	1.706577e-08	3.990581e+01	1.122042e+03
1.490000e-06	5.577439e-06	1.710680e-08	4.015814e+01	1.124838e+03
1.500000e-06	5.610398e-06	1.714394e-08	4.039545e+01	1.127375e+03
1.510000e-06	5.641311e-06	1.717979e-08	4.061803e+01	1.129661e+03
1.520000e-06	5.670378e-06	1.721182e-08	4.082732e+01	1.131716e+03
1.530000e-06	5.697497e-06	1.723862e-08	4.102257e+01	1.133565e+03
1.540000e-06	5.722440e-06	1.726215e-08	4.120217e+01	1.135233e+03
1.550000e-06	5.745154e-06	1.728373e-08	4.136571e+01	1.136744e+03
1.560000e-06	5.765933e-06	1.730408e-08	4.151532e+01	1.138111e+03
1.570000e-06	5.784910e-06	1.732278e-08	4.165195e+01	1.139336e+03
1.580000e-06	5.801754e-06	1.733922e-08	4.177324e+01	1.140414e+03
1.590000e-06	5.816365e-06	1.735265e-08	4.187843e+01	1.141330e+03
1.600000e-06	5.828824e-06	1.736286e-08	4.196814e+01	1.142071e+03
1.610000e-06	5.838927e-06	1.737021e-08	4.204088e+01	1.142627e+03
1.620000e-06	5.846702e-06	1.737693e-08	4.209687e+01	1.142999e+03
1.630000e-06	5.852430e-06	1.738343e-08	4.213810e+01	1.143198e+03
1.640000e-06	5.856144e-06	1.738827e-08	4.216485e+01	1.143247e+03
1.650000e-06	5.857735e-06	1.739207e-08	4.217630e+01	1.143171e+03
1.660000e-06	5.857227e-06	1.739157e-08	4.217265e+01	1.142995e+03
1.670000e-06	5.854844e-06	1.738658e-08	4.215549e+01	1.142735e+03
1.680000e-06	5.850672e-06	1.737930e-08	4.212545e+01	1.142393e+03
1.690000e-06	5.844498e-06	1.737176e-08	4.208100e+01	1.141954e+03
1.700000e-06	5.836304e-06	1.736366e-08	4.202200e+01	1.141393e+03
1.710000e-06	5.826278e-06	1.735514e-08	4.194981e+01	1.140679e+03
1.720000e-06	5.814345e-06	1.734732e-08	4.186389e+01	1.139783e+03
1.730000e-06	5.800308e-06	1.733042e-08	4.176282e+01	1.138687e+03
1.740000e-06	5.784298e-06	1.728679e-08	4.164755e+01	1.137394e+03
1.750000e-06	5.766250e-06	1.725346e-08	4.151760e+01	1.135926e+03
1.760000e-06	5.745536e-06	1.723646e-08	4.136846e+01	1.134322e+03
1.770000e-06	5.722013e-06	1.721577e-08	4.119909e+01	1.132631e+03
1.780000e-06	5.696258e-06	1.722357e-08	4.101365e+01	1.130898e+03
1.790000e-06	5.669060e-06	1.722397e-08	4.081782e+01	1.129159e+03
1.800000e-06	5.640945e-06	1.716726e-08	4.061539e+01	1.127426e+03
1.810000e-06	5.611365e-06	1.714293e-08	4.040241e+01	1.125684e+03
1.820000e-06	5.579509e-06	1.710253e-08	4.017305e+01	1.123894e+03
1.830000e-06	5.545671e-06	1.707041e-08	3.992941e+01	1.121999e+03
1.840000e-06	5.510026e-06	1.708599e-08	3.967276e+01	1.119937e+03
1.850000e-06	5.472234e-06	1.705220e-08	3.940066e+01	1.117648e+03
1.860000e-06	5.432371e-06	1.704977e-08	3.911364e+01	1.115092e+03
1.870000e-06	5.390609e-06	1.701191e-08	3.881294e+01	1.112252e+03
1.880000e-06	5.347132e-06	1.691370e-08	3.849991e+01	1.109134e+03
1.890000e-06	5.301944e-06	1.685247e-08	3.817455e+01	1.105768e+03
1.900000e-06	5.254586e-06	1.675882e-08	3.783356e+01	1.102195e+03
1.910000e-06	5.205086e-06	1.674864e-08	3.747716e+01	1.098458e+03
1.920000e-06	5.153545e-06	1.677985e-08	3.710606e+01	1.094591e+03
1.930000e-06	5.099832e-06	1.665520e-08	3.671932e+01	1.090613e+03
1.940000e-06	5.044145e-06	1.655934e-08	3.631837e+01	1.086523e+03
1.950000e-06	4.986582e-06	1.652759e-08	3.590391e+01	1.082303e+03
1.960000e-06	4.927310e-06	1.646827e-08	3.547715e+01	1.077925e+03
1.970000e-06	4.866210e-06	1.637581e-08	3.503722e+01	1.073356e+03
1.980000e-06	4.803127e-06	1.630502e-08	3.458302e+01	1.068568e+03
1.990000e-06	4.738300e-06	1.626119e-08	3.411625e+01	1.063543e+03
2.000000e-06	4.671863e-06	1.615134e-08	3.363790e+01	1.058273e+03
2.010000e-06	4.603839e-06	1.605788e-08	3.314812e+01	1.052763e+03
2.020000e-06	4.534029e-06	1.599779e-08	3.264548e+01	1.047021e+03
2.030000e-06	4.462367e-06	1.592122e-08	3.212951e+01	1.041056e+03
2.040000e-06	4.389087e-06	1.581191e-08	3.160189e+01	1.034872e+03
2.050000e-06	4.314279e-06	1.567944e-08	3.106326e+01	1.028464e+03
2.060000e-06	4.237804e-06	1.559328e-08	3.051263e+01	1.021816e+03
2.070000e-06	4.159580e-06	1.550605e-08	2.994941e+01	1.014907e+03
2.080000e-06	4.079788e-06	1.540146e-08	2.937490e+01	1.007711e+03
2.090000e-06	3.998607e-06	1.528753e-08	2.879039e+01	1.000206e+03
2.100000e-06	3.916079e-06	1.515710e-08	2.819618e+01	9.923734e+02
2.110000e-06	3.832185e-06	1.502372e-08	2.759213e+01	9.842060e+02
2.120000e-06	3.746915e-06	1.489798e-08	2.697818e+01	9.757018e+02
2.130000e-06	3.660321e-06	1.478422e-08	2.635469e+01	9.668638e+02
2.140000e-06	3.572369e-06	1.464989e-08	2.572143e+01	9.576942e+02
2.150000e-06	3.483135e-06	1.450231e-08	2.507894e+01	9.481903e+02
2.160000e-06	3.392740e-06	1.434387e-08	2.442808e+01	9.383405e+02
2.170000e-06	3.301206e-06	1.418278e-08	2.376903e+01	9.281228e+02
2.180000e-06	3.208483e-06	1.402677e-08	2.310141e+01	9.175062e+02
2.190000e-06	3.114491e-06	1.387167e-08	2.242466e+01	9.064536e+02
2.200000e-06	3.019244e-06	1.370520e-08	2.173887e+01	8.949258e+02
2.210000e-06	2.922867e-06	1.351289e-08	2.104494e+01	8.828856e+02
2.220000e-06	2.825483e-06	1.330885e-08	2.034377e+01	8.703008e+02
2.230000e-06	2.727134e-06	1.310787e-08	1.963565e+01	8.571444e+02
2.240000e-06	2.627935e-06	1.291218e-08	1.892141e+01	8.433932e+02
2.250000e-06	2.527861e-06	1.270201e-08	1.820087e+01	8.290252e+02
2.260000e-06	2.426748e-06	1.247434e-08	1.747284e+01	8.140154e+02
2.270000e-06	2.324709e-06	1.223219e-08	1.673815e+01	7.983330e+02
2.280000e-06	2.221784e-06	1.197925e-08	1.599708e+01	7.819395e+02
2.290000e-06	2.117867e-06	1.171686e-08	1.524887e+01	7.647883e+02
2.300000e-06	2.013115e-06	1.144667e-08	1.449464e+01	7.468265e+02
2.310000e-06	1.907758e-06	1.116764e-08	1.373606e+01	7.279976e+02
2.320000e-06	1.801824e-06	1.086823e-08	1.297332e+01	7.082435e+02
2.330000e-06	1.695303e-06	1.054691e-08	1.220636e+01	6.875074e+02
2.340000e-06	1.588295e-06	1.021061e-08	1.143589e+01	6.657338e+02
2.350000e-06	1.480830e-06	9.866995e-09	1.066213e+01	6.428693e+02
2.360000e-06	1.372861e-06	9.507158e-09	9.884745e+00	6.188620e+02
2.370000e-06	1.264422e-06	9.124679e-09	9.103972e+00	5.936617e+02
2.380000e-06	1.155630e-06	8.719277e-09	8.320656e+00	5.672226e+02
2.390000e-06	1.046554e-06	8.295437e-09	7.535297e+00	5.395079e+02
2.400000e-06	9.371903e-07	7.854497e-09	6.747868e+00	5.104975e+02
2.410000e-06	8.275565e-07	7.392456e-09	5.958493e+00	4.801963e+02
2.420000e-06	7.176996e-07	6.910587e-09	5.167512e+00	4.486442e+02
2.430000e-06	6.075525e-07	6.408760e-09	4.374442e+00	4.159231e+02
2.440000e-06	4.971966e-07	5.888723e-09	3.579867e+00	3.821594e+02
2.450000e-06	3.867067e-07	5.356020e-09	2.784328e+00	3.475218e+02
2.460000e-06	2.760055e-07	4.816915e-09	1.987269e+00	3.122108e+02
2.470000e-06	1.650662e-07	4.273523e-09	1.188494e+00	2.764433e+02
2.480000e-06	5.397443e-08	3.724574e-09	3.886215e-01	2.404315e+02
2.490000e-06	-5.703791e-08	3.171173e-09	-4.106789e-01	2.043602e+02
2.500000e-06	-1.679523e-07	2.618355e-09	-1.209274e+00	1.683658e+02
2.510000e-06	-2.787958e-07	2.070600e-09	-2.007359e+00	1.325198e+02
2.520000e-06	-3.895278e-07	1.525720e-09	-2.804641e+00	9.682015e+01
2.530000e-06	-5.001625e-07	9.817759e-10	-3.601222e+00	6.119227e+01
2.540000e-06	-6.105881e-07	4.355803e-10	-4.396298e+00	2.550013e+01
2.550000e-06	-7.207205e-07	-1.171992e-10	-5.189263e+00	-1.043388e+01
2.560000e-06	-8.305585e-07	-6.762054e-10	-5.980108e+00	-4.680231e+01
2.570000e-06	-9.401180e-07	-1.243763e-09	-6.768947e+00	-8.378292e+01
2.580000e-06	-1.049393e-06	-1.820509e-09	-7.555737e+00	-1.215094e+02
2.590000e-06	-1.158352e-06	-2.408502e-09	-8.340254e+00	-1.600468e+02
2.600000e-06	-1.266998e-06	-3.008393e-09	-9.122519e+00	-1.993741e+02
2.610000e-06	-1.375230e-06	-3.619373e-09	-9.901799e+00	-2.393769e+02
2.620000e-06	-1.482935e-06	-4.240757e-09	-1.067728e+01	-2.798512e+02
2.630000e-06	-1.590119e-06	-4.866121e-09	-1.144902e+01	-3.205164e+02
2.640000e-06	-1.696792e-06	-5.486990e-09	-1.221708e+01	-3.610381e+02
2.650000e-06	-1.802858e-06	-6.096894e-09	-1.298076e+01	-4.010558e+02
2.660000e-06	-1.908238e-06	-6.694444e-09	-1.373951e+01	-4.402129e+02
2.670000e-06	-2.012952e-06	-7.277358e-09	-1.449346e+01	-4.781855e+02
2.680000e-06	-2.116967e-06	-7.838135e-09	-1.524238e+01	-5.147061e+02
2.690000e-06	-2.220062e-06	-8.373532e-09	-1.598468e+01	-5.495796e+02
2.700000e-06	-2.322121e-06	-8.880667e-09	-1.671951e+01	-5.826905e+02
2.710000e-06	-2.423245e-06	-9.359134e-09	-1.744762e+01	-6.140004e+02
2.720000e-06	-2.523503e-06	-9.810506e-09	-1.816948e+01	-6.435375e+02
2.730000e-06	-2.622911e-06	-1.023656e-08	-1.888523e+01	-6.713802e+02
2.740000e-06	-2.721426e-06	-1.064033e-08	-1.959455e+01	-6.976378e+02
2.750000e-06	-2.818974e-06	-1.102262e-08	-2.029691e+01	-7.224312e+02
2.760000e-06	-2.915601e-06	-1.138421e-08	-2.099263e+01	-7.458770e+02
2.770000e-06	-3.011367e-06	-1.172361e-08	-2.168216e+01	-7.680770e+02
2.780000e-06	-3.106099e-06	-1.204382e-08	-2.236424e+01	-7.891129e+02
2.790000e-06	-3.199622e-06	-1.234624e-08	-2.303761e+01	-8.090475e+02
2.800000e-06	-3.291909e-06	-1.263300e-08	-2.370209e+01	-8.279300e+02
2.810000e-06	-3.383000e-06	-1.290579e-08	-2.435795e+01	-8.458032e+02
2.820000e-06	-3.472893e-06	-1.316581e-08	-2.500519e+01	-8.627107e+02
2.830000e-06	-3.561655e-06	-1.341332e-08	-2.564429e+01	-8.787021e+02
2.840000e-06	-3.649302e-06	-1.364752e-08	-2.627535e+01	-8.938352e+02
2.850000e-06	-3.735514e-06	-1.386950e-08	-2.689609e+01	-9.081739e+02
2.860000e-06	-3.820200e-06	-1.408060e-08	-2.750583e+01	-9.217846e+02
2.870000e-06	-3.903586e-06	-1.428071e-08	-2.810623e+01	-9.347298e+02
2.880000e-06	-3.985684e-06	-1.447084e-08	-2.869734e+01	-9.470633e+02
2.890000e-06	-4.066392e-06	-1.465021e-08	-2.927844e+01	-9.588260e+02
2.900000e-06	-4.145623e-06	-1.481817e-08	-2.984892e+01	-9.700451e+02
2.910000e-06	-4.223107e-06	-1.497969e-08	-3.040681e+01	-9.807356e+02
2.920000e-06	-4.298842e-06	-1.513453e-08	-3.095211e+01	-9.909047e+02
2.930000e-06	-4.372995e-06	-1.528242e-08	-3.148602e+01	-1.000557e+03
2.940000e-06	-4.445593e-06	-1.542376e-08	-3.200873e+01	-1.009698e+03
