# Temperatura_=_69.04
# Concentracion g/m^3_=_28200.0
# C_Vs_to_Am_M_A/Vsm_=_65563218390.804596
# pendiente_HvsI_1/m_=_3716.3
# ordenada_HvsI_A/m_=_1297.0
# frecuencia_Hz_=_301948.041566891

Tiempo_(s)	Campo_(V.s)	Magnetizacion_(V.s)	Campo_(kA/m)	Magnetizacion_(A/m)
0.000000e+00	-5.834750e-06	-2.123411e-08	-4.194396e+01	-1.391476e+03
1.000000e-08	-5.833212e-06	-2.123430e-08	-4.193290e+01	-1.391167e+03
2.000000e-08	-5.829611e-06	-2.123049e-08	-4.190702e+01	-1.390728e+03
3.000000e-08	-5.824195e-06	-2.122028e-08	-4.186808e+01	-1.390150e+03
4.000000e-08	-5.817011e-06	-2.121031e-08	-4.181644e+01	-1.389417e+03
5.000000e-08	-5.807989e-06	-2.119363e-08	-4.175159e+01	-1.388512e+03
6.000000e-08	-5.796795e-06	-2.117087e-08	-4.167112e+01	-1.387416e+03
7.000000e-08	-5.783515e-06	-2.114371e-08	-4.157565e+01	-1.386122e+03
8.000000e-08	-5.768123e-06	-2.110766e-08	-4.146500e+01	-1.384628e+03
9.000000e-08	-5.750531e-06	-2.111800e-08	-4.133854e+01	-1.382948e+03
1.000000e-07	-5.730824e-06	-2.116277e-08	-4.119687e+01	-1.381104e+03
1.100000e-07	-5.708876e-06	-2.109291e-08	-4.103910e+01	-1.379124e+03
1.200000e-07	-5.684801e-06	-2.101344e-08	-4.086603e+01	-1.377038e+03
1.300000e-07	-5.658616e-06	-2.099034e-08	-4.067779e+01	-1.374866e+03
1.400000e-07	-5.630664e-06	-2.085907e-08	-4.047686e+01	-1.372620e+03
1.500000e-07	-5.601306e-06	-2.081894e-08	-4.026582e+01	-1.370293e+03
1.600000e-07	-5.570367e-06	-2.098242e-08	-4.004340e+01	-1.367864e+03
1.700000e-07	-5.537669e-06	-2.080150e-08	-3.980835e+01	-1.365300e+03
1.800000e-07	-5.503117e-06	-2.075223e-08	-3.955997e+01	-1.362558e+03
1.900000e-07	-5.466576e-06	-2.083155e-08	-3.929729e+01	-1.359598e+03
2.000000e-07	-5.428046e-06	-2.059471e-08	-3.902031e+01	-1.356386e+03
2.100000e-07	-5.387767e-06	-2.062756e-08	-3.873076e+01	-1.352902e+03
2.200000e-07	-5.345444e-06	-2.063178e-08	-3.842651e+01	-1.349140e+03
2.300000e-07	-5.300961e-06	-2.048687e-08	-3.810674e+01	-1.345111e+03
2.400000e-07	-5.254476e-06	-2.047249e-08	-3.777257e+01	-1.340837e+03
2.500000e-07	-5.205743e-06	-2.037274e-08	-3.742225e+01	-1.336345e+03
2.600000e-07	-5.154676e-06	-2.029177e-08	-3.705515e+01	-1.331661e+03
2.700000e-07	-5.101449e-06	-2.025917e-08	-3.667252e+01	-1.326804e+03
2.800000e-07	-5.046404e-06	-2.013645e-08	-3.627682e+01	-1.321778e+03
2.900000e-07	-4.989522e-06	-2.006825e-08	-3.586792e+01	-1.316578e+03
3.000000e-07	-4.930668e-06	-1.998503e-08	-3.544483e+01	-1.311183e+03
3.100000e-07	-4.870025e-06	-1.990784e-08	-3.500889e+01	-1.305570e+03
3.200000e-07	-4.807636e-06	-1.981794e-08	-3.456040e+01	-1.299711e+03
3.300000e-07	-4.743509e-06	-1.972793e-08	-3.409941e+01	-1.293585e+03
3.400000e-07	-4.677529e-06	-1.963010e-08	-3.362511e+01	-1.287177e+03
3.500000e-07	-4.609741e-06	-1.949396e-08	-3.313780e+01	-1.280482e+03
3.600000e-07	-4.540313e-06	-1.941449e-08	-3.263871e+01	-1.273504e+03
3.700000e-07	-4.469376e-06	-1.929375e-08	-3.212877e+01	-1.266249e+03
3.800000e-07	-4.396984e-06	-1.918691e-08	-3.160837e+01	-1.258726e+03
3.900000e-07	-4.322794e-06	-1.908586e-08	-3.107504e+01	-1.250935e+03
4.000000e-07	-4.246711e-06	-1.893403e-08	-3.052811e+01	-1.242871e+03
4.100000e-07	-4.168934e-06	-1.880236e-08	-2.996900e+01	-1.234520e+03
4.200000e-07	-4.089559e-06	-1.867770e-08	-2.939840e+01	-1.225859e+03
4.300000e-07	-4.008685e-06	-1.854972e-08	-2.881703e+01	-1.216865e+03
4.400000e-07	-3.926426e-06	-1.840001e-08	-2.822570e+01	-1.207511e+03
4.500000e-07	-3.842928e-06	-1.824589e-08	-2.762546e+01	-1.197779e+03
4.600000e-07	-3.758277e-06	-1.809224e-08	-2.701693e+01	-1.187654e+03
4.700000e-07	-3.672455e-06	-1.792532e-08	-2.639998e+01	-1.177132e+03
4.800000e-07	-3.585467e-06	-1.776549e-08	-2.577466e+01	-1.166210e+03
4.900000e-07	-3.497261e-06	-1.759891e-08	-2.514058e+01	-1.154887e+03
5.000000e-07	-3.407658e-06	-1.742026e-08	-2.449645e+01	-1.143157e+03
5.100000e-07	-3.316611e-06	-1.722809e-08	-2.384195e+01	-1.131007e+03
5.200000e-07	-3.224313e-06	-1.702917e-08	-2.317845e+01	-1.118412e+03
5.300000e-07	-3.130897e-06	-1.682914e-08	-2.250691e+01	-1.105338e+03
5.400000e-07	-3.036440e-06	-1.661900e-08	-2.182790e+01	-1.091743e+03
5.500000e-07	-2.940935e-06	-1.640266e-08	-2.114134e+01	-1.077581e+03
5.600000e-07	-2.844247e-06	-1.617847e-08	-2.044629e+01	-1.062808e+03
5.700000e-07	-2.746363e-06	-1.594045e-08	-1.974263e+01	-1.047383e+03
5.800000e-07	-2.647313e-06	-1.569237e-08	-1.903060e+01	-1.031272e+03
5.900000e-07	-2.547260e-06	-1.543552e-08	-1.831136e+01	-1.014447e+03
6.000000e-07	-2.446349e-06	-1.516788e-08	-1.758594e+01	-9.968792e+02
6.100000e-07	-2.344598e-06	-1.488418e-08	-1.685449e+01	-9.785412e+02
6.200000e-07	-2.242059e-06	-1.459145e-08	-1.611737e+01	-9.593967e+02
6.300000e-07	-2.138682e-06	-1.428697e-08	-1.537423e+01	-9.393996e+02
6.400000e-07	-2.034462e-06	-1.396691e-08	-1.462503e+01	-9.184912e+02
6.500000e-07	-1.929515e-06	-1.363303e-08	-1.387060e+01	-8.966014e+02
6.600000e-07	-1.823838e-06	-1.328218e-08	-1.311093e+01	-8.736503e+02
6.700000e-07	-1.717392e-06	-1.291087e-08	-1.234573e+01	-8.495521e+02
6.800000e-07	-1.610209e-06	-1.251889e-08	-1.157522e+01	-8.242176e+02
6.900000e-07	-1.502408e-06	-1.211012e-08	-1.080028e+01	-7.975578e+02
7.000000e-07	-1.394201e-06	-1.168247e-08	-1.002242e+01	-7.694844e+02
7.100000e-07	-1.285594e-06	-1.123249e-08	-9.241685e+00	-7.399113e+02
7.200000e-07	-1.176604e-06	-1.075652e-08	-8.458189e+00	-7.087558e+02
7.300000e-07	-1.067255e-06	-1.025678e-08	-7.672120e+00	-6.759420e+02
7.400000e-07	-9.575746e-07	-9.731697e-09	-6.883666e+00	-6.414069e+02
7.500000e-07	-8.475937e-07	-9.178998e-09	-6.093053e+00	-6.051100e+02
7.600000e-07	-7.373438e-07	-8.602068e-09	-5.300504e+00	-5.670455e+02
7.700000e-07	-6.268802e-07	-7.996971e-09	-4.506421e+00	-5.272556e+02
7.800000e-07	-5.162297e-07	-7.362342e-09	-3.710993e+00	-4.858399e+02
7.900000e-07	-4.054641e-07	-6.706098e-09	-2.914738e+00	-4.429606e+02
8.000000e-07	-2.945513e-07	-6.036531e-09	-2.117425e+00	-3.988379e+02
8.100000e-07	-1.834916e-07	-5.353128e-09	-1.319056e+00	-3.537346e+02
8.200000e-07	-7.233804e-08	-4.657238e-09	-5.200126e-01	-3.079311e+02
8.300000e-07	3.884521e-08	-3.955306e-09	2.792445e-01	-2.616927e+02
8.400000e-07	1.500430e-07	-3.249852e-09	1.078606e+00	-2.152343e+02
8.500000e-07	2.612338e-07	-2.541871e-09	1.877917e+00	-1.686893e+02
8.600000e-07	3.723134e-07	-1.829967e-09	2.676430e+00	-1.220883e+02
8.700000e-07	4.832319e-07	-1.117723e-09	3.473784e+00	-7.535349e+01
8.800000e-07	5.940395e-07	-4.018971e-10	4.270341e+00	-2.831226e+01
8.900000e-07	7.047108e-07	3.233043e-10	5.065917e+00	1.927193e+01
9.000000e-07	8.151851e-07	1.061642e-09	5.860079e+00	6.765371e+01
9.100000e-07	9.254384e-07	1.813121e-09	6.652650e+00	1.170528e+02
9.200000e-07	1.035420e-06	2.582494e-09	7.443268e+00	1.676023e+02
9.300000e-07	1.145062e-06	3.370604e-09	8.231444e+00	2.193065e+02
9.400000e-07	1.254272e-06	4.173304e-09	9.016516e+00	2.720174e+02
9.500000e-07	1.363093e-06	4.986995e-09	9.798794e+00	3.254320e+02
9.600000e-07	1.471518e-06	5.803970e-09	1.057822e+01	3.791135e+02
9.700000e-07	1.579476e-06	6.619543e-09	1.135430e+01	4.325310e+02
9.800000e-07	1.686970e-06	7.423149e-09	1.212703e+01	4.851127e+02
9.900000e-07	1.793867e-06	8.202281e-09	1.289548e+01	5.363030e+02
1.000000e-06	1.899916e-06	8.949320e-09	1.365783e+01	5.856150e+02
1.010000e-06	2.005090e-06	9.663162e-09	1.441388e+01	6.326703e+02
1.020000e-06	2.109412e-06	1.033985e-08	1.516382e+01	6.772218e+02
1.030000e-06	2.212852e-06	1.097427e-08	1.590741e+01	7.191566e+02
1.040000e-06	2.315495e-06	1.156776e-08	1.664528e+01	7.584822e+02
1.050000e-06	2.417361e-06	1.212399e-08	1.737755e+01	7.953001e+02
1.060000e-06	2.518378e-06	1.264809e-08	1.810373e+01	8.297723e+02
1.070000e-06	2.618598e-06	1.313970e-08	1.882418e+01	8.620885e+02
1.080000e-06	2.718010e-06	1.360281e-08	1.953881e+01	8.924388e+02
1.090000e-06	2.816350e-06	1.403841e-08	2.024575e+01	9.209944e+02
1.100000e-06	2.913465e-06	1.444717e-08	2.094387e+01	9.478997e+02
1.110000e-06	3.009372e-06	1.483228e-08	2.163331e+01	9.732723e+02
1.120000e-06	3.104169e-06	1.519544e-08	2.231477e+01	9.972094e+02
1.130000e-06	3.197958e-06	1.553906e-08	2.298900e+01	1.019797e+03
1.140000e-06	3.290744e-06	1.586412e-08	2.365600e+01	1.041118e+03
1.150000e-06	3.382519e-06	1.617110e-08	2.431574e+01	1.061256e+03
1.160000e-06	3.473136e-06	1.646089e-08	2.496715e+01	1.080300e+03
1.170000e-06	3.562401e-06	1.673534e-08	2.560884e+01	1.098337e+03
1.180000e-06	3.650314e-06	1.699553e-08	2.624082e+01	1.115452e+03
1.190000e-06	3.737004e-06	1.724382e-08	2.686400e+01	1.131718e+03
1.200000e-06	3.822538e-06	1.747944e-08	2.747888e+01	1.147197e+03
1.210000e-06	3.906864e-06	1.770422e-08	2.808507e+01	1.161938e+03
1.220000e-06	3.989873e-06	1.791677e-08	2.868179e+01	1.175976e+03
1.230000e-06	4.071364e-06	1.811867e-08	2.926760e+01	1.189340e+03
1.240000e-06	4.151268e-06	1.830955e-08	2.984200e+01	1.202055e+03
1.250000e-06	4.229702e-06	1.848915e-08	3.040583e+01	1.214149e+03
1.260000e-06	4.306682e-06	1.866112e-08	3.095922e+01	1.225652e+03
1.270000e-06	4.382101e-06	1.882709e-08	3.150138e+01	1.236601e+03
1.280000e-06	4.455681e-06	1.898711e-08	3.203032e+01	1.247030e+03
1.290000e-06	4.527406e-06	1.914023e-08	3.254592e+01	1.256974e+03
1.300000e-06	4.597453e-06	1.928608e-08	3.304947e+01	1.266461e+03
1.310000e-06	4.665862e-06	1.942481e-08	3.354123e+01	1.275510e+03
1.320000e-06	4.732675e-06	1.955767e-08	3.402153e+01	1.284130e+03
1.330000e-06	4.797617e-06	1.968357e-08	3.448838e+01	1.292324e+03
1.340000e-06	4.860727e-06	1.980219e-08	3.494205e+01	1.300089e+03
1.350000e-06	4.922296e-06	1.991377e-08	3.538465e+01	1.307424e+03
1.360000e-06	4.982315e-06	2.001708e-08	3.581611e+01	1.314337e+03
1.370000e-06	5.040601e-06	2.011487e-08	3.623511e+01	1.320841e+03
1.380000e-06	5.096949e-06	2.020841e-08	3.664017e+01	1.326963e+03
1.390000e-06	5.151431e-06	2.029786e-08	3.703182e+01	1.332738e+03
1.400000e-06	5.204012e-06	2.038327e-08	3.740981e+01	1.338206e+03
1.410000e-06	5.254398e-06	2.046338e-08	3.777202e+01	1.343404e+03
1.420000e-06	5.302584e-06	2.053931e-08	3.811841e+01	1.348364e+03
1.430000e-06	5.348856e-06	2.061080e-08	3.845104e+01	1.353109e+03
1.440000e-06	5.393433e-06	2.067772e-08	3.877149e+01	1.357645e+03
1.450000e-06	5.436244e-06	2.074331e-08	3.907924e+01	1.361967e+03
1.460000e-06	5.476930e-06	2.080780e-08	3.937172e+01	1.366063e+03
1.470000e-06	5.515576e-06	2.086804e-08	3.964953e+01	1.369913e+03
1.480000e-06	5.552480e-06	2.092294e-08	3.991482e+01	1.373499e+03
1.490000e-06	5.587574e-06	2.097286e-08	4.016710e+01	1.376810e+03
1.500000e-06	5.620533e-06	2.102020e-08	4.040403e+01	1.379841e+03
1.510000e-06	5.651358e-06	2.106488e-08	4.062562e+01	1.382597e+03
1.520000e-06	5.680352e-06	2.110519e-08	4.083404e+01	1.385091e+03
1.530000e-06	5.707473e-06	2.113925e-08	4.102901e+01	1.387340e+03
1.540000e-06	5.732374e-06	2.116852e-08	4.120802e+01	1.389362e+03
1.550000e-06	5.755067e-06	2.119350e-08	4.137115e+01	1.391169e+03
1.560000e-06	5.775869e-06	2.121491e-08	4.152069e+01	1.392773e+03
1.570000e-06	5.794774e-06	2.123492e-08	4.165659e+01	1.394175e+03
1.580000e-06	5.811541e-06	2.125419e-08	4.177712e+01	1.395374e+03
1.590000e-06	5.826087e-06	2.127192e-08	4.188169e+01	1.396369e+03
1.600000e-06	5.838448e-06	2.128546e-08	4.197055e+01	1.397157e+03
1.610000e-06	5.848401e-06	2.129462e-08	4.204210e+01	1.397743e+03
1.620000e-06	5.856096e-06	2.130255e-08	4.209741e+01	1.398134e+03
1.630000e-06	5.861789e-06	2.130949e-08	4.213833e+01	1.398345e+03
1.640000e-06	5.865490e-06	2.131348e-08	4.216494e+01	1.398393e+03
1.650000e-06	5.867070e-06	2.131588e-08	4.217630e+01	1.398295e+03
1.660000e-06	5.866542e-06	2.131398e-08	4.217250e+01	1.398063e+03
1.670000e-06	5.864152e-06	2.130141e-08	4.215532e+01	1.397702e+03
1.680000e-06	5.859963e-06	2.129202e-08	4.212521e+01	1.397209e+03
1.690000e-06	5.853708e-06	2.128351e-08	4.208024e+01	1.396571e+03
1.700000e-06	5.845414e-06	2.127402e-08	4.202062e+01	1.395772e+03
1.710000e-06	5.835404e-06	2.126492e-08	4.194866e+01	1.394792e+03
1.720000e-06	5.823513e-06	2.125677e-08	4.186318e+01	1.393618e+03
1.730000e-06	5.809424e-06	2.125946e-08	4.176190e+01	1.392243e+03
1.740000e-06	5.793331e-06	2.119024e-08	4.164621e+01	1.390673e+03
1.750000e-06	5.775256e-06	2.107377e-08	4.151628e+01	1.388925e+03
1.760000e-06	5.754536e-06	2.109576e-08	4.136733e+01	1.387023e+03
1.770000e-06	5.730927e-06	2.110077e-08	4.119762e+01	1.384997e+03
1.780000e-06	5.705079e-06	2.108922e-08	4.101180e+01	1.382873e+03
1.790000e-06	5.677809e-06	2.119963e-08	4.081577e+01	1.380671e+03
1.800000e-06	5.649695e-06	2.099101e-08	4.061367e+01	1.378393e+03
1.810000e-06	5.620111e-06	2.088749e-08	4.040100e+01	1.376029e+03
1.820000e-06	5.588050e-06	2.102833e-08	4.017052e+01	1.373550e+03
1.830000e-06	5.554096e-06	2.081144e-08	3.992644e+01	1.370920e+03
1.840000e-06	5.518423e-06	2.088909e-08	3.967000e+01	1.368097e+03
1.850000e-06	5.480473e-06	2.094707e-08	3.939719e+01	1.365040e+03
1.860000e-06	5.440522e-06	2.064546e-08	3.911000e+01	1.361722e+03
1.870000e-06	5.398720e-06	2.072310e-08	3.880949e+01	1.358127e+03
1.880000e-06	5.355161e-06	2.064119e-08	3.849636e+01	1.354257e+03
1.890000e-06	5.309892e-06	2.053413e-08	3.817094e+01	1.350127e+03
1.900000e-06	5.262335e-06	2.059462e-08	3.782907e+01	1.345763e+03
1.910000e-06	5.212654e-06	2.036041e-08	3.747194e+01	1.341192e+03
1.920000e-06	5.160940e-06	2.039809e-08	3.710018e+01	1.336437e+03
1.930000e-06	5.107011e-06	2.035519e-08	3.671250e+01	1.331513e+03
1.940000e-06	5.051170e-06	2.017459e-08	3.631108e+01	1.326419e+03
1.950000e-06	4.993441e-06	2.019072e-08	3.589609e+01	1.321144e+03
1.960000e-06	4.933987e-06	2.003244e-08	3.546870e+01	1.315665e+03
1.970000e-06	4.872766e-06	1.999617e-08	3.502860e+01	1.309958e+03
1.980000e-06	4.809532e-06	1.987427e-08	3.457403e+01	1.303995e+03
1.990000e-06	4.744461e-06	1.975541e-08	3.410626e+01	1.297758e+03
2.000000e-06	4.677782e-06	1.974805e-08	3.362693e+01	1.291236e+03
2.010000e-06	4.609634e-06	1.957749e-08	3.313703e+01	1.284428e+03
2.020000e-06	4.539661e-06	1.950207e-08	3.263402e+01	1.277340e+03
2.030000e-06	4.467777e-06	1.934018e-08	3.211727e+01	1.269978e+03
2.040000e-06	4.394378e-06	1.924199e-08	3.158963e+01	1.262348e+03
2.050000e-06	4.319473e-06	1.917224e-08	3.105117e+01	1.254450e+03
2.060000e-06	4.242858e-06	1.899670e-08	3.050041e+01	1.246274e+03
2.070000e-06	4.164446e-06	1.889955e-08	2.993673e+01	1.237803e+03
2.080000e-06	4.084451e-06	1.873901e-08	2.936168e+01	1.229014e+03
2.090000e-06	4.003028e-06	1.861487e-08	2.877636e+01	1.219880e+03
2.100000e-06	3.920251e-06	1.846371e-08	2.818130e+01	1.210378e+03
2.110000e-06	3.836211e-06	1.831975e-08	2.757717e+01	1.200492e+03
2.120000e-06	3.750903e-06	1.818818e-08	2.696392e+01	1.190211e+03
2.130000e-06	3.664216e-06	1.799778e-08	2.634076e+01	1.179530e+03
2.140000e-06	3.576106e-06	1.783013e-08	2.570736e+01	1.168450e+03
2.150000e-06	3.486761e-06	1.764189e-08	2.506510e+01	1.156967e+03
2.160000e-06	3.396227e-06	1.748059e-08	2.441428e+01	1.145073e+03
2.170000e-06	3.304558e-06	1.729756e-08	2.375530e+01	1.132751e+03
2.180000e-06	3.211744e-06	1.710949e-08	2.308809e+01	1.119971e+03
2.190000e-06	3.117659e-06	1.690897e-08	2.241175e+01	1.106696e+03
2.200000e-06	3.022325e-06	1.669193e-08	2.172643e+01	1.092883e+03
2.210000e-06	2.925855e-06	1.647656e-08	2.103294e+01	1.078485e+03
2.220000e-06	2.828426e-06	1.624675e-08	2.033256e+01	1.063459e+03
2.230000e-06	2.730010e-06	1.601409e-08	1.962508e+01	1.047767e+03
2.240000e-06	2.630671e-06	1.576081e-08	1.891097e+01	1.031378e+03
2.250000e-06	2.530485e-06	1.550438e-08	1.819076e+01	1.014263e+03
2.260000e-06	2.429359e-06	1.523128e-08	1.746380e+01	9.963955e+02
2.270000e-06	2.327217e-06	1.494506e-08	1.672954e+01	9.777444e+02
2.280000e-06	2.224015e-06	1.464992e-08	1.598766e+01	9.582700e+02
2.290000e-06	2.119848e-06	1.434500e-08	1.523884e+01	9.379215e+02
2.300000e-06	2.014934e-06	1.402368e-08	1.448465e+01	9.166354e+02
2.310000e-06	1.909409e-06	1.368390e-08	1.372606e+01	8.943375e+02
2.320000e-06	1.803276e-06	1.332895e-08	1.296312e+01	8.709451e+02
2.330000e-06	1.696637e-06	1.295288e-08	1.219653e+01	8.463708e+02
2.340000e-06	1.589530e-06	1.255794e-08	1.142657e+01	8.205252e+02
2.350000e-06	1.481876e-06	1.214270e-08	1.065269e+01	7.933193e+02
2.360000e-06	1.373700e-06	1.171147e-08	9.875046e+00	7.646658e+02
2.370000e-06	1.265136e-06	1.125728e-08	9.094619e+00	7.344795e+02
2.380000e-06	1.156229e-06	1.077551e-08	8.311721e+00	7.026800e+02
2.390000e-06	1.047014e-06	1.026200e-08	7.526612e+00	6.691954e+02
2.400000e-06	9.375252e-07	9.719665e-09	6.739538e+00	6.339702e+02
2.410000e-06	8.277617e-07	9.152277e-09	5.950487e+00	5.969761e+02
2.420000e-06	7.176415e-07	8.559530e-09	5.158872e+00	5.582247e+02
2.430000e-06	6.071136e-07	7.942754e-09	4.364325e+00	5.177796e+02
2.440000e-06	4.964003e-07	7.302622e-09	3.568447e+00	4.757651e+02
2.450000e-06	3.856204e-07	6.640399e-09	2.772089e+00	4.323672e+02
2.460000e-06	2.746447e-07	5.955464e-09	1.974324e+00	3.878251e+02
2.470000e-06	1.634513e-07	5.258645e-09	1.174994e+00	3.424123e+02
2.480000e-06	5.215612e-08	4.556317e-09	3.749320e-01	2.964072e+02
2.490000e-06	-5.919462e-08	3.849509e-09	-4.255293e-01	2.500595e+02
2.500000e-06	-1.704964e-07	3.138528e-09	-1.225639e+00	2.035555e+02
2.510000e-06	-2.816634e-07	2.425211e-09	-2.024779e+00	1.569898e+02
2.520000e-06	-3.926730e-07	1.711185e-09	-2.822788e+00	1.103501e+02
2.530000e-06	-5.035373e-07	9.928035e-10	-3.619752e+00	6.351885e+01
2.540000e-06	-6.142165e-07	2.706557e-10	-4.415386e+00	1.629355e+01
2.550000e-06	-7.245945e-07	-4.604511e-10	-5.208854e+00	-3.157543e+01
2.560000e-06	-8.346884e-07	-1.205372e-09	-6.000281e+00	-8.033550e+01
2.570000e-06	-9.444946e-07	-1.966432e-09	-6.789639e+00	-1.301781e+02
2.580000e-06	-1.053920e-06	-2.746622e-09	-7.576258e+00	-1.811899e+02
2.590000e-06	-1.162957e-06	-3.540149e-09	-8.360085e+00	-2.333172e+02
2.600000e-06	-1.271647e-06	-4.345543e-09	-9.141422e+00	-2.863498e+02
2.610000e-06	-1.379991e-06	-5.161913e-09	-9.920268e+00	-3.399288e+02
2.620000e-06	-1.487831e-06	-5.982496e-09	-1.069550e+01	-3.935745e+02
2.630000e-06	-1.595079e-06	-6.799531e-09	-1.146646e+01	-4.467333e+02
2.640000e-06	-1.701829e-06	-7.601163e-09	-1.223385e+01	-4.988330e+02
2.650000e-06	-1.808088e-06	-8.376326e-09	-1.299771e+01	-5.493392e+02
2.660000e-06	-1.913696e-06	-9.115727e-09	-1.375689e+01	-5.978040e+02
2.670000e-06	-2.018543e-06	-9.817819e-09	-1.451059e+01	-6.438987e+02
2.680000e-06	-2.122683e-06	-1.048262e-08	-1.525922e+01	-6.874296e+02
2.690000e-06	-2.226016e-06	-1.110942e-08	-1.600204e+01	-7.283337e+02
2.700000e-06	-2.328334e-06	-1.169855e-08	-1.673757e+01	-7.666590e+02
2.710000e-06	-2.429642e-06	-1.225147e-08	-1.746584e+01	-8.025349e+02
2.720000e-06	-2.530028e-06	-1.276960e-08	-1.818748e+01	-8.361380e+02
2.730000e-06	-2.629496e-06	-1.325370e-08	-1.890252e+01	-8.676611e+02
2.740000e-06	-2.728067e-06	-1.370804e-08	-1.961111e+01	-8.972884e+02
2.750000e-06	-2.825725e-06	-1.413353e-08	-2.031314e+01	-9.251811e+02
2.760000e-06	-2.922482e-06	-1.453430e-08	-2.100870e+01	-9.514726e+02
2.770000e-06	-3.018380e-06	-1.491338e-08	-2.169807e+01	-9.762717e+02
2.780000e-06	-3.113259e-06	-1.527071e-08	-2.238012e+01	-9.996698e+02
2.790000e-06	-3.206888e-06	-1.560535e-08	-2.305319e+01	-1.021751e+03
2.800000e-06	-3.299232e-06	-1.592147e-08	-2.371702e+01	-1.042598e+03
2.810000e-06	-3.390438e-06	-1.622354e-08	-2.437267e+01	-1.062297e+03
2.820000e-06	-3.480496e-06	-1.650995e-08	-2.502006e+01	-1.080936e+03
2.830000e-06	-3.569330e-06	-1.678166e-08	-2.565866e+01	-1.098602e+03
2.840000e-06	-3.656968e-06	-1.703826e-08	-2.628865e+01	-1.115376e+03
2.850000e-06	-3.743278e-06	-1.728351e-08	-2.690911e+01	-1.131328e+03
2.860000e-06	-3.828125e-06	-1.751745e-08	-2.751904e+01	-1.146513e+03
2.870000e-06	-3.911571e-06	-1.773867e-08	-2.811891e+01	-1.160975e+03
2.880000e-06	-3.993714e-06	-1.795097e-08	-2.870940e+01	-1.174746e+03
2.890000e-06	-4.074557e-06	-1.815368e-08	-2.929056e+01	-1.187853e+03
2.900000e-06	-4.153886e-06	-1.834472e-08	-2.986082e+01	-1.200322e+03
2.910000e-06	-4.231441e-06	-1.852596e-08	-3.041834e+01	-1.212181e+03
2.920000e-06	-4.307289e-06	-1.870068e-08	-3.096358e+01	-1.223463e+03
2.930000e-06	-4.381550e-06	-1.886691e-08	-3.149742e+01	-1.234204e+03
2.940000e-06	-4.454254e-06	-1.902209e-08	-3.202006e+01	-1.244440e+03
