# Temperatura_=_57.13
# Concentracion g/m^3_=_28200.0
# C_Vs_to_Am_M_A/Vsm_=_65563218390.804596
# pendiente_HvsI_1/m_=_3716.3
# ordenada_HvsI_A/m_=_1297.0
# frecuencia_Hz_=_301951.46871772374

Tiempo_(s)	Campo_(V.s)	Magnetizacion_(V.s)	Campo_(kA/m)	Magnetizacion_(A/m)
0.000000e+00	-5.829352e-06	-2.015780e-08	-4.193178e+01	-1.320355e+03
1.000000e-08	-5.826222e-06	-2.015369e-08	-4.190927e+01	-1.320039e+03
2.000000e-08	-5.821187e-06	-2.014221e-08	-4.187304e+01	-1.319582e+03
3.000000e-08	-5.814422e-06	-2.013124e-08	-4.182438e+01	-1.318968e+03
4.000000e-08	-5.805822e-06	-2.011757e-08	-4.176252e+01	-1.318180e+03
5.000000e-08	-5.794972e-06	-2.009946e-08	-4.168448e+01	-1.317206e+03
6.000000e-08	-5.781974e-06	-2.008081e-08	-4.159098e+01	-1.316044e+03
7.000000e-08	-5.766926e-06	-2.005281e-08	-4.148273e+01	-1.314700e+03
8.000000e-08	-5.749687e-06	-2.004011e-08	-4.135873e+01	-1.313192e+03
9.000000e-08	-5.730399e-06	-2.008670e-08	-4.121999e+01	-1.311545e+03
1.000000e-07	-5.708989e-06	-2.005381e-08	-4.106598e+01	-1.309783e+03
1.100000e-07	-5.685375e-06	-1.996611e-08	-4.089612e+01	-1.307927e+03
1.200000e-07	-5.659550e-06	-1.993432e-08	-4.071036e+01	-1.305987e+03
1.300000e-07	-5.631931e-06	-1.985822e-08	-4.051168e+01	-1.303963e+03
1.400000e-07	-5.602937e-06	-1.975976e-08	-4.030312e+01	-1.301839e+03
1.500000e-07	-5.572405e-06	-1.989133e-08	-4.008350e+01	-1.299592e+03
1.600000e-07	-5.540042e-06	-1.985579e-08	-3.985070e+01	-1.297189e+03
1.700000e-07	-5.505765e-06	-1.970973e-08	-3.960415e+01	-1.294600e+03
1.800000e-07	-5.469638e-06	-1.980429e-08	-3.934428e+01	-1.291801e+03
1.900000e-07	-5.431596e-06	-1.965558e-08	-3.907063e+01	-1.288777e+03
2.000000e-07	-5.391758e-06	-1.954515e-08	-3.878407e+01	-1.285524e+03
2.100000e-07	-5.349849e-06	-1.959331e-08	-3.848261e+01	-1.282051e+03
2.200000e-07	-5.305753e-06	-1.947197e-08	-3.816542e+01	-1.278372e+03
2.300000e-07	-5.259732e-06	-1.942974e-08	-3.783438e+01	-1.274507e+03
2.400000e-07	-5.211554e-06	-1.940753e-08	-3.748782e+01	-1.270469e+03
2.500000e-07	-5.161057e-06	-1.932949e-08	-3.712459e+01	-1.266267e+03
2.600000e-07	-5.108310e-06	-1.928535e-08	-3.674516e+01	-1.261901e+03
2.700000e-07	-5.053611e-06	-1.916114e-08	-3.635170e+01	-1.257358e+03
2.800000e-07	-4.997178e-06	-1.909837e-08	-3.594577e+01	-1.252622e+03
2.900000e-07	-4.938789e-06	-1.903723e-08	-3.552577e+01	-1.247669e+03
3.000000e-07	-4.878505e-06	-1.895688e-08	-3.509213e+01	-1.242477e+03
3.100000e-07	-4.816565e-06	-1.889266e-08	-3.464658e+01	-1.237030e+03
3.200000e-07	-4.752897e-06	-1.879454e-08	-3.418861e+01	-1.231317e+03
3.300000e-07	-4.687302e-06	-1.870105e-08	-3.371677e+01	-1.225337e+03
3.400000e-07	-4.619871e-06	-1.857398e-08	-3.323172e+01	-1.219093e+03
3.500000e-07	-4.550865e-06	-1.847904e-08	-3.273535e+01	-1.212594e+03
3.600000e-07	-4.480288e-06	-1.839114e-08	-3.222767e+01	-1.205846e+03
3.700000e-07	-4.408250e-06	-1.828224e-08	-3.170949e+01	-1.198852e+03
3.800000e-07	-4.334453e-06	-1.818251e-08	-3.117865e+01	-1.191609e+03
3.900000e-07	-4.258672e-06	-1.804407e-08	-3.063354e+01	-1.184105e+03
4.000000e-07	-4.181270e-06	-1.791819e-08	-3.007677e+01	-1.176321e+03
4.100000e-07	-4.102219e-06	-1.780733e-08	-2.950814e+01	-1.168236e+03
4.200000e-07	-4.021557e-06	-1.768174e-08	-2.892792e+01	-1.159826e+03
4.300000e-07	-3.939607e-06	-1.755174e-08	-2.833844e+01	-1.151071e+03
4.400000e-07	-3.856408e-06	-1.740408e-08	-2.773997e+01	-1.141955e+03
4.500000e-07	-3.772050e-06	-1.726641e-08	-2.713317e+01	-1.132467e+03
4.600000e-07	-3.686528e-06	-1.711217e-08	-2.651799e+01	-1.122604e+03
4.700000e-07	-3.599818e-06	-1.695357e-08	-2.589426e+01	-1.112361e+03
4.800000e-07	-3.511980e-06	-1.679301e-08	-2.526242e+01	-1.101737e+03
4.900000e-07	-3.422746e-06	-1.662002e-08	-2.462054e+01	-1.090724e+03
5.000000e-07	-3.331963e-06	-1.644116e-08	-2.396753e+01	-1.079309e+03
5.100000e-07	-3.239957e-06	-1.625401e-08	-2.330570e+01	-1.067471e+03
5.200000e-07	-3.146870e-06	-1.607070e-08	-2.263611e+01	-1.055180e+03
5.300000e-07	-3.052662e-06	-1.587369e-08	-2.195845e+01	-1.042403e+03
5.400000e-07	-2.957462e-06	-1.566957e-08	-2.127366e+01	-1.029098e+03
5.500000e-07	-2.861184e-06	-1.545421e-08	-2.058111e+01	-1.015228e+03
5.600000e-07	-2.763580e-06	-1.522982e-08	-1.987903e+01	-1.000754e+03
5.700000e-07	-2.664741e-06	-1.499845e-08	-1.916806e+01	-9.856406e+02
5.800000e-07	-2.564993e-06	-1.475469e-08	-1.845054e+01	-9.698547e+02
5.900000e-07	-2.464371e-06	-1.449920e-08	-1.772675e+01	-9.533644e+02
6.000000e-07	-2.362792e-06	-1.423081e-08	-1.699607e+01	-9.361360e+02
6.100000e-07	-2.260361e-06	-1.395756e-08	-1.625926e+01	-9.181318e+02
6.200000e-07	-2.157209e-06	-1.367418e-08	-1.551727e+01	-8.993075e+02
6.300000e-07	-2.053367e-06	-1.337696e-08	-1.477031e+01	-8.796105e+02
6.400000e-07	-1.948733e-06	-1.306171e-08	-1.401765e+01	-8.589800e+02
6.500000e-07	-1.843250e-06	-1.272733e-08	-1.325889e+01	-8.373466e+02
6.600000e-07	-1.736938e-06	-1.237414e-08	-1.249416e+01	-8.146343e+02
6.700000e-07	-1.629900e-06	-1.200546e-08	-1.172422e+01	-7.907618e+02
6.800000e-07	-1.522305e-06	-1.162238e-08	-1.095026e+01	-7.656441e+02
6.900000e-07	-1.414283e-06	-1.121881e-08	-1.017324e+01	-7.391945e+02
7.000000e-07	-1.305859e-06	-1.079344e-08	-9.393324e+00	-7.113268e+02
7.100000e-07	-1.197006e-06	-1.034208e-08	-8.610323e+00	-6.819585e+02
7.200000e-07	-1.087749e-06	-9.866221e-09	-7.824408e+00	-6.510161e+02
7.300000e-07	-9.781712e-07	-9.369674e-09	-7.036195e+00	-6.184414e+02
7.400000e-07	-8.683042e-07	-8.851089e-09	-6.245898e+00	-5.842013e+02
7.500000e-07	-7.581164e-07	-8.306162e-09	-5.453293e+00	-5.482973e+02
7.600000e-07	-6.477134e-07	-7.734276e-09	-4.659141e+00	-5.107755e+02
7.700000e-07	-5.371661e-07	-7.136270e-09	-3.863951e+00	-4.717338e+02
7.800000e-07	-4.264736e-07	-6.516548e-09	-3.067716e+00	-4.313246e+02
7.900000e-07	-3.156723e-07	-5.882565e-09	-2.270698e+00	-3.897495e+02
8.000000e-07	-2.047440e-07	-5.235577e-09	-1.472768e+00	-3.472471e+02
8.100000e-07	-9.366695e-08	-4.579054e-09	-6.737664e-01	-3.040725e+02
8.200000e-07	1.748509e-08	-3.918535e-09	1.257740e-01	-2.604702e+02
8.300000e-07	1.286230e-07	-3.257520e-09	9.252128e-01	-2.166456e+02
8.400000e-07	2.397351e-07	-2.593782e-09	1.724466e+00	-1.727377e+02
8.500000e-07	3.507799e-07	-1.924935e-09	2.523235e+00	-1.287997e+02
8.600000e-07	4.616931e-07	-1.253777e-09	3.321057e+00	-8.479039e+01
8.700000e-07	5.724540e-07	-5.790765e-10	4.117784e+00	-4.058080e+01
8.800000e-07	6.830781e-07	9.980660e-11	4.913527e+00	4.024280e+00
8.900000e-07	7.935678e-07	7.873296e-10	5.708303e+00	4.925165e+01
9.000000e-07	9.038426e-07	1.486619e-09	6.501533e+00	9.531639e+01
9.100000e-07	1.013784e-06	2.201113e-09	7.292366e+00	1.423763e+02
9.200000e-07	1.123340e-06	2.932285e-09	8.080425e+00	1.904917e+02
9.300000e-07	1.232552e-06	3.677647e-09	8.866010e+00	2.395963e+02
9.400000e-07	1.341380e-06	4.435206e-09	9.648831e+00	2.894862e+02
9.500000e-07	1.449790e-06	5.202042e-09	1.042865e+01	3.398269e+02
9.600000e-07	1.557754e-06	5.973330e-09	1.120526e+01	3.901793e+02
9.700000e-07	1.665190e-06	6.736649e-09	1.197807e+01	4.400406e+02
9.800000e-07	1.772040e-06	7.478889e-09	1.274666e+01	4.888925e+02
9.900000e-07	1.878104e-06	8.195547e-09	1.350960e+01	5.362508e+02
1.000000e-06	1.983293e-06	8.884792e-09	1.426625e+01	5.817079e+02
1.010000e-06	2.087717e-06	9.540316e-09	1.501739e+01	6.249637e+02
1.020000e-06	2.191310e-06	1.015757e-08	1.576256e+01	6.658388e+02
1.030000e-06	2.294053e-06	1.073717e-08	1.650161e+01	7.042732e+02
1.040000e-06	2.396019e-06	1.128225e-08	1.723508e+01	7.403092e+02
1.050000e-06	2.497106e-06	1.179381e-08	1.796222e+01	7.740651e+02
1.060000e-06	2.597381e-06	1.227175e-08	1.868352e+01	8.057049e+02
1.070000e-06	2.696871e-06	1.272187e-08	1.939917e+01	8.354089e+02
1.080000e-06	2.795321e-06	1.314733e-08	2.010735e+01	8.633507e+02
1.090000e-06	2.892585e-06	1.354969e-08	2.080699e+01	8.896819e+02
1.100000e-06	2.988643e-06	1.392854e-08	2.149795e+01	9.145269e+02
1.110000e-06	3.083612e-06	1.428547e-08	2.218108e+01	9.379844e+02
1.120000e-06	3.177534e-06	1.462105e-08	2.285668e+01	9.601351e+02
1.130000e-06	3.270440e-06	1.493831e-08	2.352497e+01	9.810503e+02
1.140000e-06	3.362435e-06	1.523732e-08	2.418671e+01	1.000800e+03
1.150000e-06	3.453415e-06	1.551878e-08	2.484115e+01	1.019457e+03
1.160000e-06	3.543036e-06	1.578618e-08	2.548582e+01	1.037098e+03
1.170000e-06	3.631193e-06	1.604112e-08	2.611995e+01	1.053804e+03
1.180000e-06	3.718080e-06	1.628528e-08	2.674494e+01	1.069651e+03
1.190000e-06	3.803739e-06	1.651625e-08	2.736111e+01	1.084707e+03
1.200000e-06	3.888184e-06	1.673466e-08	2.796854e+01	1.099032e+03
1.210000e-06	3.971412e-06	1.694023e-08	2.856722e+01	1.112670e+03
1.220000e-06	4.053205e-06	1.713453e-08	2.915557e+01	1.125657e+03
1.230000e-06	4.133382e-06	1.731903e-08	2.973230e+01	1.138019e+03
1.240000e-06	4.212032e-06	1.749617e-08	3.029805e+01	1.149779e+03
1.250000e-06	4.289170e-06	1.766645e-08	3.085291e+01	1.160961e+03
1.260000e-06	4.364709e-06	1.782942e-08	3.139629e+01	1.171591e+03
1.270000e-06	4.438525e-06	1.798383e-08	3.192726e+01	1.181694e+03
1.280000e-06	4.510499e-06	1.813109e-08	3.244498e+01	1.191300e+03
1.290000e-06	4.580757e-06	1.827224e-08	3.295037e+01	1.200434e+03
1.300000e-06	4.649484e-06	1.840565e-08	3.344473e+01	1.209120e+03
1.310000e-06	4.716647e-06	1.853156e-08	3.392785e+01	1.217372e+03
1.320000e-06	4.782006e-06	1.865012e-08	3.439799e+01	1.225202e+03
1.330000e-06	4.845516e-06	1.876178e-08	3.485483e+01	1.232619e+03
1.340000e-06	4.907362e-06	1.886702e-08	3.529971e+01	1.239629e+03
1.350000e-06	4.967628e-06	1.896616e-08	3.573321e+01	1.246244e+03
1.360000e-06	5.026229e-06	1.906054e-08	3.615474e+01	1.252483e+03
1.370000e-06	5.082906e-06	1.915044e-08	3.656243e+01	1.258368e+03
1.380000e-06	5.137678e-06	1.923627e-08	3.695642e+01	1.263933e+03
1.390000e-06	5.190639e-06	1.931648e-08	3.733738e+01	1.269210e+03
1.400000e-06	5.241466e-06	1.939252e-08	3.770299e+01	1.274232e+03
1.410000e-06	5.290007e-06	1.946555e-08	3.805215e+01	1.279025e+03
1.420000e-06	5.336574e-06	1.953558e-08	3.838712e+01	1.283604e+03
1.430000e-06	5.381421e-06	1.960139e-08	3.870972e+01	1.287975e+03
1.440000e-06	5.424488e-06	1.966392e-08	3.901950e+01	1.292129e+03
1.450000e-06	5.465517e-06	1.972554e-08	3.931463e+01	1.296055e+03
1.460000e-06	5.504553e-06	1.978382e-08	3.959543e+01	1.299734e+03
1.470000e-06	5.541827e-06	1.983681e-08	3.986355e+01	1.303152e+03
1.480000e-06	5.577243e-06	1.988395e-08	4.011830e+01	1.306302e+03
1.490000e-06	5.610578e-06	1.992686e-08	4.035809e+01	1.309183e+03
1.500000e-06	5.641838e-06	1.996665e-08	4.058295e+01	1.311807e+03
1.510000e-06	5.671217e-06	2.000288e-08	4.079428e+01	1.314189e+03
1.520000e-06	5.698763e-06	2.003525e-08	4.099242e+01	1.316348e+03
1.530000e-06	5.724154e-06	2.006502e-08	4.117506e+01	1.318301e+03
1.540000e-06	5.747287e-06	2.009079e-08	4.134146e+01	1.320062e+03
1.550000e-06	5.768428e-06	2.011254e-08	4.149354e+01	1.321636e+03
1.560000e-06	5.787673e-06	2.013407e-08	4.163197e+01	1.323025e+03
1.570000e-06	5.804829e-06	2.015509e-08	4.175538e+01	1.324225e+03
1.580000e-06	5.819782e-06	2.017342e-08	4.186294e+01	1.325232e+03
1.590000e-06	5.832575e-06	2.018657e-08	4.195496e+01	1.326045e+03
1.600000e-06	5.843043e-06	2.019477e-08	4.203026e+01	1.326670e+03
1.610000e-06	5.851157e-06	2.020217e-08	4.208863e+01	1.327116e+03
1.620000e-06	5.857189e-06	2.020923e-08	4.213201e+01	1.327398e+03
1.630000e-06	5.861322e-06	2.021504e-08	4.216174e+01	1.327534e+03
1.640000e-06	5.863346e-06	2.021996e-08	4.217630e+01	1.327538e+03
1.650000e-06	5.863178e-06	2.022367e-08	4.217510e+01	1.327418e+03
1.660000e-06	5.861079e-06	2.021644e-08	4.216000e+01	1.327174e+03
1.670000e-06	5.857245e-06	2.020659e-08	4.213242e+01	1.326798e+03
1.680000e-06	5.851450e-06	2.019934e-08	4.209073e+01	1.326275e+03
1.690000e-06	5.843560e-06	2.019039e-08	4.203398e+01	1.325587e+03
1.700000e-06	5.833884e-06	2.018116e-08	4.196437e+01	1.324719e+03
1.710000e-06	5.822359e-06	2.017286e-08	4.188148e+01	1.323663e+03
1.720000e-06	5.808670e-06	2.016972e-08	4.178301e+01	1.322420e+03
1.730000e-06	5.792938e-06	2.014086e-08	4.166985e+01	1.321003e+03
1.740000e-06	5.775273e-06	2.001866e-08	4.154278e+01	1.319431e+03
1.750000e-06	5.755147e-06	2.000107e-08	4.139800e+01	1.317730e+03
1.760000e-06	5.732154e-06	2.003621e-08	4.123261e+01	1.315924e+03
1.770000e-06	5.706751e-06	2.001107e-08	4.104988e+01	1.314031e+03
1.780000e-06	5.679706e-06	2.009978e-08	4.085534e+01	1.312054e+03
1.790000e-06	5.651730e-06	2.001564e-08	4.065410e+01	1.309989e+03
1.800000e-06	5.622534e-06	1.979588e-08	4.044409e+01	1.307814e+03
1.810000e-06	5.590946e-06	1.990288e-08	4.021687e+01	1.305503e+03
1.820000e-06	5.557288e-06	1.980724e-08	3.997476e+01	1.303022e+03
1.830000e-06	5.522041e-06	1.972884e-08	3.972123e+01	1.300345e+03
1.840000e-06	5.484611e-06	1.992023e-08	3.945198e+01	1.297449e+03
1.850000e-06	5.445041e-06	1.971282e-08	3.916734e+01	1.294326e+03
1.860000e-06	5.403522e-06	1.966134e-08	3.886869e+01	1.290976e+03
1.870000e-06	5.360185e-06	1.969937e-08	3.855696e+01	1.287411e+03
1.880000e-06	5.315312e-06	1.950471e-08	3.823417e+01	1.283649e+03
1.890000e-06	5.268380e-06	1.953311e-08	3.789659e+01	1.279706e+03
1.900000e-06	5.219209e-06	1.940730e-08	3.754289e+01	1.275597e+03
1.910000e-06	5.167997e-06	1.935698e-08	3.717451e+01	1.271324e+03
1.920000e-06	5.114517e-06	1.941445e-08	3.678981e+01	1.266883e+03
1.930000e-06	5.059068e-06	1.921251e-08	3.639096e+01	1.262259e+03
1.940000e-06	5.001773e-06	1.921365e-08	3.597882e+01	1.257431e+03
1.950000e-06	4.942660e-06	1.908953e-08	3.555361e+01	1.252376e+03
1.960000e-06	4.881838e-06	1.898112e-08	3.511610e+01	1.247076e+03
1.970000e-06	4.819054e-06	1.894895e-08	3.466449e+01	1.241514e+03
1.980000e-06	4.754410e-06	1.879805e-08	3.419949e+01	1.235686e+03
1.990000e-06	4.688092e-06	1.880762e-08	3.372245e+01	1.229591e+03
2.000000e-06	4.620321e-06	1.867346e-08	3.323496e+01	1.223235e+03
2.010000e-06	4.550801e-06	1.855539e-08	3.273489e+01	1.216627e+03
2.020000e-06	4.479238e-06	1.845969e-08	3.222012e+01	1.209773e+03
2.030000e-06	4.406117e-06	1.832453e-08	3.169414e+01	1.202672e+03
2.040000e-06	4.331549e-06	1.828353e-08	3.115776e+01	1.195317e+03
2.050000e-06	4.255337e-06	1.812144e-08	3.060955e+01	1.187694e+03
2.060000e-06	4.177312e-06	1.801592e-08	3.004830e+01	1.179783e+03
2.070000e-06	4.097633e-06	1.788528e-08	2.947515e+01	1.171560e+03
2.080000e-06	4.016540e-06	1.774235e-08	2.889183e+01	1.163004e+03
2.090000e-06	3.934062e-06	1.762033e-08	2.829855e+01	1.154094e+03
2.100000e-06	3.850383e-06	1.745880e-08	2.769663e+01	1.144818e+03
2.110000e-06	3.765449e-06	1.734515e-08	2.708568e+01	1.135169e+03
2.120000e-06	3.679032e-06	1.717372e-08	2.646407e+01	1.125142e+03
2.130000e-06	3.591203e-06	1.702003e-08	2.583229e+01	1.114735e+03
2.140000e-06	3.502154e-06	1.685602e-08	2.519174e+01	1.103944e+03
2.150000e-06	3.411875e-06	1.669130e-08	2.454235e+01	1.092759e+03
2.160000e-06	3.320447e-06	1.652398e-08	2.388468e+01	1.081165e+03
2.170000e-06	3.227944e-06	1.633408e-08	2.321929e+01	1.069136e+03
2.180000e-06	3.134136e-06	1.615061e-08	2.254451e+01	1.056640e+03
2.190000e-06	3.039012e-06	1.594888e-08	2.186026e+01	1.043640e+03
2.200000e-06	2.942829e-06	1.575244e-08	2.116840e+01	1.030097e+03
2.210000e-06	2.845656e-06	1.553405e-08	2.046941e+01	1.015971e+03
2.220000e-06	2.747444e-06	1.531053e-08	1.976296e+01	1.001226e+03
2.230000e-06	2.648305e-06	1.507917e-08	1.904983e+01	9.858270e+02
2.240000e-06	2.548328e-06	1.483920e-08	1.833067e+01	9.697419e+02
2.250000e-06	2.447487e-06	1.458653e-08	1.760530e+01	9.529383e+02
2.260000e-06	2.345607e-06	1.431570e-08	1.687245e+01	9.353811e+02
2.270000e-06	2.242562e-06	1.403476e-08	1.613123e+01	9.170301e+02
2.280000e-06	2.138576e-06	1.374129e-08	1.538323e+01	8.978374e+02
2.290000e-06	2.033855e-06	1.343984e-08	1.462995e+01	8.777471e+02
2.300000e-06	1.928437e-06	1.312342e-08	1.387166e+01	8.566944e+02
2.310000e-06	1.822413e-06	1.279369e-08	1.310901e+01	8.346070e+02
2.320000e-06	1.715862e-06	1.244015e-08	1.234256e+01	8.114065e+02
2.330000e-06	1.608801e-06	1.206359e-08	1.157245e+01	7.870096e+02
2.340000e-06	1.501256e-06	1.166851e-08	1.079885e+01	7.613305e+02
2.350000e-06	1.393293e-06	1.125980e-08	1.002225e+01	7.342823e+02
2.360000e-06	1.284959e-06	1.083339e-08	9.242983e+00	7.057800e+02
2.370000e-06	1.176321e-06	1.038147e-08	8.461527e+00	6.757441e+02
2.380000e-06	1.067351e-06	9.900579e-09	7.677683e+00	6.441068e+02
2.390000e-06	9.579960e-07	9.389037e-09	6.891070e+00	6.108194e+02
2.400000e-06	8.482901e-07	8.852229e-09	6.101932e+00	5.758624e+02
2.410000e-06	7.382652e-07	8.291014e-09	5.310500e+00	5.392552e+02
2.420000e-06	6.279559e-07	7.708329e-09	4.517021e+00	5.010656e+02
2.430000e-06	5.173297e-07	7.104962e-09	3.721263e+00	4.614149e+02
2.440000e-06	4.065487e-07	6.482218e-09	2.924392e+00	4.204775e+02
2.450000e-06	2.957267e-07	5.841081e-09	2.127225e+00	3.784730e+02
2.460000e-06	1.848058e-07	5.183247e-09	1.329347e+00	3.356500e+02
2.470000e-06	7.369262e-08	4.516384e-09	5.300868e-01	2.922625e+02
2.480000e-06	-3.749424e-08	3.847589e-09	-2.697041e-01	2.485419e+02
2.490000e-06	-1.486652e-07	3.176280e-09	-1.069380e+00	2.046680e+02
2.500000e-06	-2.598209e-07	2.503245e-09	-1.868947e+00	1.607449e+02
2.510000e-06	-3.708154e-07	1.831308e-09	-2.667354e+00	1.167855e+02
2.520000e-06	-4.815984e-07	1.156079e-09	-3.464241e+00	7.270945e+01
2.530000e-06	-5.922267e-07	4.736102e-10	-4.260014e+00	2.835578e+01
2.540000e-06	-7.026669e-07	-2.171667e-10	-5.054433e+00	-1.648911e+01
2.550000e-06	-8.127904e-07	-9.166635e-10	-5.846575e+00	-6.205258e+01
2.560000e-06	-9.226010e-07	-1.627096e-09	-6.636466e+00	-1.085306e+02
2.570000e-06	-1.032053e-06	-2.351350e-09	-7.423775e+00	-1.560437e+02
2.580000e-06	-1.141059e-06	-3.089049e-09	-8.207879e+00	-2.046003e+02
2.590000e-06	-1.249697e-06	-3.841270e-09	-8.989339e+00	-2.540757e+02
2.600000e-06	-1.358027e-06	-4.608235e-09	-9.768581e+00	-3.042079e+02
2.610000e-06	-1.465944e-06	-5.382356e-09	-1.054485e+01	-3.546134e+02
2.620000e-06	-1.573336e-06	-6.154642e-09	-1.131734e+01	-4.048202e+02
2.630000e-06	-1.680174e-06	-6.913380e-09	-1.208585e+01	-4.543127e+02
2.640000e-06	-1.786435e-06	-7.650106e-09	-1.285021e+01	-5.025814e+02
2.650000e-06	-1.892042e-06	-8.360619e-09	-1.360986e+01	-5.491703e+02
2.660000e-06	-1.996953e-06	-9.040917e-09	-1.436451e+01	-5.937151e+02
2.670000e-06	-2.101157e-06	-9.688188e-09	-1.511407e+01	-6.359666e+02
2.680000e-06	-2.204531e-06	-1.029993e-08	-1.585767e+01	-6.757978e+02
2.690000e-06	-2.306941e-06	-1.087631e-08	-1.659432e+01	-7.131953e+02
2.700000e-06	-2.408386e-06	-1.141680e-08	-1.732404e+01	-7.482375e+02
2.710000e-06	-2.508899e-06	-1.192238e-08	-1.804705e+01	-7.810661e+02
2.720000e-06	-2.608529e-06	-1.239525e-08	-1.876371e+01	-8.118554e+02
2.730000e-06	-2.707287e-06	-1.283963e-08	-1.947409e+01	-8.407853e+02
2.740000e-06	-2.805154e-06	-1.325700e-08	-2.017807e+01	-8.680210e+02
2.750000e-06	-2.902117e-06	-1.364920e-08	-2.087555e+01	-8.937029e+02
2.760000e-06	-2.998166e-06	-1.401942e-08	-2.156645e+01	-9.179436e+02
2.770000e-06	-3.093177e-06	-1.436887e-08	-2.224989e+01	-9.408332e+02
2.780000e-06	-3.186978e-06	-1.469729e-08	-2.292461e+01	-9.624472e+02
2.790000e-06	-3.279534e-06	-1.500719e-08	-2.359039e+01	-9.828553e+02
2.800000e-06	-3.370910e-06	-1.530211e-08	-2.424768e+01	-1.002128e+03
2.810000e-06	-3.461102e-06	-1.558188e-08	-2.489645e+01	-1.020342e+03
2.820000e-06	-3.550109e-06	-1.584658e-08	-2.553670e+01	-1.037574e+03
2.830000e-06	-3.637978e-06	-1.609696e-08	-2.616875e+01	-1.053904e+03
2.840000e-06	-3.724495e-06	-1.633466e-08	-2.679109e+01	-1.069405e+03
2.850000e-06	-3.809527e-06	-1.656151e-08	-2.740274e+01	-1.084143e+03
2.860000e-06	-3.893200e-06	-1.677906e-08	-2.800462e+01	-1.098170e+03
2.870000e-06	-3.975578e-06	-1.698627e-08	-2.859719e+01	-1.111526e+03
2.880000e-06	-4.056654e-06	-1.718120e-08	-2.918038e+01	-1.124243e+03
2.890000e-06	-4.136290e-06	-1.736395e-08	-2.975322e+01	-1.136346e+03
2.900000e-06	-4.214215e-06	-1.753668e-08	-3.031375e+01	-1.147857e+03
2.910000e-06	-4.290355e-06	-1.770246e-08	-3.086144e+01	-1.158800e+03
2.920000e-06	-4.364891e-06	-1.786170e-08	-3.139759e+01	-1.169202e+03
2.930000e-06	-4.437879e-06	-1.801275e-08	-3.192262e+01	-1.179090e+03
2.940000e-06	-4.509223e-06	-1.815684e-08	-3.243581e+01	-1.188492e+03
