# Temperatura_=_35.21
# Concentracion g/m^3_=_28200.0
# C_Vs_to_Am_M_A/Vsm_=_65563218390.804596
# pendiente_HvsI_1/m_=_3716.3
# ordenada_HvsI_A/m_=_1297.0
# frecuencia_Hz_=_301953.0542152704

Tiempo_(s)	Campo_(V.s)	Magnetizacion_(V.s)	Campo_(kA/m)	Magnetizacion_(A/m)
0.000000e+00	-5.835796e-06	-1.823357e-08	-4.194274e+01	-1.194561e+03
1.000000e-08	-5.834370e-06	-1.823735e-08	-4.193248e+01	-1.194339e+03
2.000000e-08	-5.830901e-06	-1.823197e-08	-4.190755e+01	-1.193989e+03
3.000000e-08	-5.825595e-06	-1.822205e-08	-4.186942e+01	-1.193506e+03
4.000000e-08	-5.818532e-06	-1.821312e-08	-4.181866e+01	-1.192885e+03
5.000000e-08	-5.809582e-06	-1.819904e-08	-4.175433e+01	-1.192120e+03
6.000000e-08	-5.798400e-06	-1.818182e-08	-4.167396e+01	-1.191208e+03
7.000000e-08	-5.785060e-06	-1.816148e-08	-4.157809e+01	-1.190149e+03
8.000000e-08	-5.769572e-06	-1.813493e-08	-4.146677e+01	-1.188948e+03
9.000000e-08	-5.751955e-06	-1.814796e-08	-4.134015e+01	-1.187612e+03
1.000000e-07	-5.732313e-06	-1.817452e-08	-4.119899e+01	-1.186153e+03
1.100000e-07	-5.710534e-06	-1.810807e-08	-4.104246e+01	-1.184583e+03
1.200000e-07	-5.686540e-06	-1.804928e-08	-4.087001e+01	-1.182913e+03
1.300000e-07	-5.660342e-06	-1.803346e-08	-4.068172e+01	-1.181148e+03
1.400000e-07	-5.632373e-06	-1.791806e-08	-4.048070e+01	-1.179288e+03
1.500000e-07	-5.603077e-06	-1.790633e-08	-4.027015e+01	-1.177327e+03
1.600000e-07	-5.572234e-06	-1.802982e-08	-4.004848e+01	-1.175250e+03
1.700000e-07	-5.539506e-06	-1.785559e-08	-3.981325e+01	-1.173040e+03
1.800000e-07	-5.504901e-06	-1.784451e-08	-3.956454e+01	-1.170675e+03
1.900000e-07	-5.468380e-06	-1.788346e-08	-3.930206e+01	-1.168135e+03
2.000000e-07	-5.429878e-06	-1.768869e-08	-3.902534e+01	-1.165401e+03
2.100000e-07	-5.389588e-06	-1.774152e-08	-3.873577e+01	-1.162465e+03
2.200000e-07	-5.347239e-06	-1.773433e-08	-3.843140e+01	-1.159322e+03
2.300000e-07	-5.302789e-06	-1.764923e-08	-3.811193e+01	-1.155978e+03
2.400000e-07	-5.256456e-06	-1.762494e-08	-3.777893e+01	-1.152444e+03
2.500000e-07	-5.207879e-06	-1.751496e-08	-3.742980e+01	-1.148733e+03
2.600000e-07	-5.156921e-06	-1.745916e-08	-3.706356e+01	-1.144861e+03
2.700000e-07	-5.103724e-06	-1.740550e-08	-3.668123e+01	-1.140837e+03
2.800000e-07	-5.048667e-06	-1.731525e-08	-3.628552e+01	-1.136667e+03
2.900000e-07	-4.991839e-06	-1.728643e-08	-3.587709e+01	-1.132348e+03
3.000000e-07	-4.933044e-06	-1.720456e-08	-3.545452e+01	-1.127870e+03
3.100000e-07	-4.872423e-06	-1.712693e-08	-3.501883e+01	-1.123220e+03
3.200000e-07	-4.810050e-06	-1.704936e-08	-3.457054e+01	-1.118377e+03
3.300000e-07	-4.745952e-06	-1.697442e-08	-3.410987e+01	-1.113325e+03
3.400000e-07	-4.679990e-06	-1.689572e-08	-3.363578e+01	-1.108048e+03
3.500000e-07	-4.612225e-06	-1.679773e-08	-3.314875e+01	-1.102535e+03
3.600000e-07	-4.542833e-06	-1.672941e-08	-3.265001e+01	-1.096778e+03
3.700000e-07	-4.471912e-06	-1.661347e-08	-3.214029e+01	-1.090777e+03
3.800000e-07	-4.399529e-06	-1.652509e-08	-3.162007e+01	-1.084529e+03
3.900000e-07	-4.325338e-06	-1.643302e-08	-3.108685e+01	-1.078032e+03
4.000000e-07	-4.249260e-06	-1.631300e-08	-3.054007e+01	-1.071282e+03
4.100000e-07	-4.171556e-06	-1.621640e-08	-2.998159e+01	-1.064270e+03
4.200000e-07	-4.092192e-06	-1.610424e-08	-2.941120e+01	-1.056982e+03
4.300000e-07	-4.011248e-06	-1.599224e-08	-2.882944e+01	-1.049400e+03
4.400000e-07	-3.928989e-06	-1.586445e-08	-2.823823e+01	-1.041505e+03
4.500000e-07	-3.845560e-06	-1.573967e-08	-2.763861e+01	-1.033279e+03
4.600000e-07	-3.760938e-06	-1.560861e-08	-2.703042e+01	-1.024708e+03
4.700000e-07	-3.675075e-06	-1.546524e-08	-2.641331e+01	-1.015779e+03
4.800000e-07	-3.588088e-06	-1.532233e-08	-2.578812e+01	-1.006488e+03
4.900000e-07	-3.499927e-06	-1.517543e-08	-2.515449e+01	-9.968293e+02
5.000000e-07	-3.410265e-06	-1.502600e-08	-2.451008e+01	-9.867991e+02
5.100000e-07	-3.319158e-06	-1.486182e-08	-2.385529e+01	-9.763903e+02
5.200000e-07	-3.226946e-06	-1.469360e-08	-2.319254e+01	-9.655898e+02
5.300000e-07	-3.133646e-06	-1.451989e-08	-2.252198e+01	-9.543768e+02
5.400000e-07	-3.039203e-06	-1.434189e-08	-2.184320e+01	-9.427223e+02
5.500000e-07	-2.943756e-06	-1.415867e-08	-2.115721e+01	-9.305903e+02
5.600000e-07	-2.847276e-06	-1.396541e-08	-2.046379e+01	-9.179399e+02
5.700000e-07	-2.749482e-06	-1.375745e-08	-1.976094e+01	-9.047281e+02
5.800000e-07	-2.650437e-06	-1.354144e-08	-1.904909e+01	-8.909125e+02
5.900000e-07	-2.550406e-06	-1.331835e-08	-1.833015e+01	-8.764535e+02
6.000000e-07	-2.449499e-06	-1.308747e-08	-1.760492e+01	-8.613146e+02
6.100000e-07	-2.347725e-06	-1.284867e-08	-1.687345e+01	-8.454620e+02
6.200000e-07	-2.245120e-06	-1.259854e-08	-1.613601e+01	-8.288627e+02
6.300000e-07	-2.141752e-06	-1.233132e-08	-1.539309e+01	-8.114820e+02
6.400000e-07	-2.037641e-06	-1.204776e-08	-1.464483e+01	-7.932807e+02
6.500000e-07	-1.932738e-06	-1.175512e-08	-1.389087e+01	-7.742128e+02
6.600000e-07	-1.826926e-06	-1.145092e-08	-1.313039e+01	-7.542245e+02
6.700000e-07	-1.720326e-06	-1.113244e-08	-1.236424e+01	-7.332533e+02
6.800000e-07	-1.613131e-06	-1.079429e-08	-1.159381e+01	-7.112289e+02
6.900000e-07	-1.505417e-06	-1.043763e-08	-1.081965e+01	-6.880751e+02
7.000000e-07	-1.397275e-06	-1.006261e-08	-1.004242e+01	-6.637127e+02
7.100000e-07	-1.288699e-06	-9.667663e-09	-9.262072e+00	-6.380628e+02
7.200000e-07	-1.179722e-06	-9.254275e-09	-8.478840e+00	-6.110521e+02
7.300000e-07	-1.070380e-06	-8.823199e-09	-7.692980e+00	-5.826191e+02
7.400000e-07	-9.607234e-07	-8.371409e-09	-6.904862e+00	-5.527215e+02
7.500000e-07	-8.507882e-07	-7.894353e-09	-6.114741e+00	-5.213444e+02
7.600000e-07	-7.405795e-07	-7.394193e-09	-5.322655e+00	-4.885087e+02
7.700000e-07	-6.301357e-07	-6.869924e-09	-4.528879e+00	-4.542782e+02
7.800000e-07	-5.194869e-07	-6.325576e-09	-3.733630e+00	-4.187641e+02
7.900000e-07	-4.086323e-07	-5.767141e-09	-2.936901e+00	-3.821240e+02
8.000000e-07	-2.976247e-07	-5.197820e-09	-2.139073e+00	-3.445555e+02
8.100000e-07	-1.865489e-07	-4.618980e-09	-1.340754e+00	-3.062832e+02
8.200000e-07	-7.542488e-08	-4.031513e-09	-5.420898e-01	-2.675386e+02
8.300000e-07	3.574203e-08	-3.439883e-09	2.568833e-01	-2.285365e+02
8.400000e-07	1.469244e-07	-2.846731e-09	1.055968e+00	-1.894500e+02
8.500000e-07	2.580987e-07	-2.254012e-09	1.854993e+00	-1.503880e+02
8.600000e-07	3.692205e-07	-1.661014e-09	2.653643e+00	-1.113796e+02
8.700000e-07	4.801810e-07	-1.068137e-09	3.451132e+00	-7.236951e+01
8.800000e-07	5.909893e-07	-4.743413e-10	4.247528e+00	-3.322539e+01
8.900000e-07	7.016852e-07	1.238917e-10	5.043116e+00	6.241454e+00
9.000000e-07	8.122131e-07	7.336271e-10	5.837496e+00	4.624485e+01
9.100000e-07	9.225254e-07	1.357087e-09	6.630327e+00	8.698575e+01
9.200000e-07	1.032552e-06	1.993349e-09	7.421101e+00	1.286131e+02
9.300000e-07	1.142215e-06	2.640561e-09	8.209270e+00	1.711895e+02
9.400000e-07	1.251492e-06	3.297397e-09	8.994659e+00	2.146677e+02
9.500000e-07	1.360327e-06	3.966406e-09	9.776874e+00	2.588811e+02
9.600000e-07	1.468720e-06	4.644581e-09	1.055591e+01	3.035505e+02
9.700000e-07	1.576697e-06	5.327964e-09	1.133196e+01	3.483062e+02
9.800000e-07	1.684233e-06	6.004952e-09	1.210483e+01	3.927214e+02
9.900000e-07	1.791166e-06	6.666943e-09	1.287337e+01	4.363528e+02
1.000000e-06	1.897269e-06	7.309709e-09	1.363595e+01	4.787814e+02
1.010000e-06	2.002471e-06	7.929102e-09	1.439206e+01	5.196476e+02
1.020000e-06	2.106826e-06	8.523729e-09	1.514207e+01	5.586768e+02
1.030000e-06	2.210357e-06	9.086870e-09	1.588616e+01	5.956924e+02
1.040000e-06	2.313042e-06	9.617484e-09	1.662418e+01	6.306158e+02
1.050000e-06	2.414903e-06	1.011347e-08	1.735627e+01	6.634551e+02
1.060000e-06	2.515920e-06	1.057984e-08	1.808229e+01	6.942855e+02
1.070000e-06	2.616102e-06	1.101948e-08	1.880232e+01	7.232266e+02
1.080000e-06	2.715449e-06	1.143471e-08	1.951634e+01	7.504198e+02
1.090000e-06	2.813805e-06	1.182874e-08	2.022324e+01	7.760090e+02
1.100000e-06	2.910954e-06	1.220009e-08	2.092146e+01	8.001272e+02
1.110000e-06	3.006923e-06	1.254932e-08	2.161120e+01	8.228900e+02
1.120000e-06	3.101820e-06	1.287547e-08	2.229324e+01	8.443938e+02
1.130000e-06	3.195653e-06	1.318197e-08	2.296763e+01	8.647192e+02
1.140000e-06	3.288463e-06	1.347168e-08	2.363467e+01	8.839358e+02
1.150000e-06	3.380333e-06	1.374660e-08	2.429495e+01	9.021071e+02
1.160000e-06	3.471103e-06	1.400609e-08	2.494733e+01	9.192949e+02
1.170000e-06	3.560461e-06	1.425420e-08	2.558956e+01	9.355613e+02
1.180000e-06	3.648370e-06	1.449094e-08	2.622138e+01	9.509685e+02
1.190000e-06	3.735002e-06	1.471584e-08	2.684401e+01	9.655777e+02
1.200000e-06	3.820449e-06	1.492767e-08	2.745813e+01	9.794467e+02
1.210000e-06	3.904708e-06	1.512690e-08	2.806371e+01	9.926279e+02
1.220000e-06	3.987701e-06	1.531487e-08	2.866020e+01	1.005167e+03
1.230000e-06	4.069286e-06	1.549318e-08	2.924656e+01	1.017101e+03
1.240000e-06	4.149344e-06	1.566460e-08	2.982195e+01	1.028463e+03
1.250000e-06	4.227803e-06	1.582853e-08	3.038585e+01	1.039275e+03
1.260000e-06	4.304751e-06	1.598590e-08	3.093889e+01	1.049559e+03
1.270000e-06	4.380132e-06	1.613666e-08	3.148066e+01	1.059330e+03
1.280000e-06	4.453672e-06	1.628036e-08	3.200920e+01	1.068603e+03
1.290000e-06	4.525389e-06	1.641674e-08	3.252464e+01	1.077392e+03
1.300000e-06	4.595455e-06	1.654591e-08	3.302822e+01	1.085708e+03
1.310000e-06	4.663969e-06	1.666538e-08	3.352064e+01	1.093568e+03
1.320000e-06	4.730918e-06	1.677619e-08	3.400181e+01	1.100987e+03
1.330000e-06	4.796084e-06	1.687986e-08	3.447017e+01	1.107986e+03
1.340000e-06	4.859420e-06	1.697717e-08	3.492538e+01	1.114588e+03
1.350000e-06	4.921054e-06	1.707167e-08	3.536835e+01	1.120823e+03
1.360000e-06	4.981130e-06	1.716307e-08	3.580012e+01	1.126720e+03
1.370000e-06	5.039516e-06	1.724987e-08	3.621975e+01	1.132313e+03
1.380000e-06	5.095962e-06	1.733145e-08	3.662543e+01	1.137633e+03
1.390000e-06	5.150542e-06	1.740891e-08	3.701771e+01	1.142709e+03
1.400000e-06	5.203214e-06	1.748383e-08	3.739627e+01	1.147561e+03
1.410000e-06	5.253681e-06	1.755505e-08	3.775898e+01	1.152204e+03
1.420000e-06	5.301957e-06	1.762242e-08	3.810595e+01	1.156642e+03
1.430000e-06	5.348329e-06	1.768537e-08	3.843924e+01	1.160873e+03
1.440000e-06	5.392965e-06	1.774403e-08	3.876004e+01	1.164888e+03
1.450000e-06	5.435759e-06	1.779991e-08	3.906761e+01	1.168674e+03
1.460000e-06	5.476484e-06	1.785487e-08	3.936031e+01	1.172221e+03
1.470000e-06	5.515242e-06	1.790800e-08	3.963887e+01	1.175520e+03
1.480000e-06	5.552221e-06	1.795605e-08	3.990464e+01	1.178568e+03
1.490000e-06	5.587331e-06	1.799773e-08	4.015698e+01	1.181370e+03
1.500000e-06	5.620336e-06	1.803522e-08	4.039419e+01	1.183934e+03
1.510000e-06	5.651260e-06	1.807070e-08	4.061645e+01	1.186274e+03
1.520000e-06	5.680341e-06	1.810272e-08	4.082546e+01	1.188406e+03
1.530000e-06	5.707560e-06	1.813206e-08	4.102108e+01	1.190344e+03
1.540000e-06	5.732567e-06	1.815896e-08	4.120081e+01	1.192100e+03
1.550000e-06	5.755374e-06	1.818202e-08	4.136473e+01	1.193681e+03
1.560000e-06	5.776234e-06	1.820296e-08	4.151465e+01	1.195091e+03
1.570000e-06	5.795124e-06	1.822323e-08	4.165042e+01	1.196331e+03
1.580000e-06	5.811920e-06	1.824146e-08	4.177113e+01	1.197401e+03
1.590000e-06	5.826552e-06	1.825762e-08	4.187629e+01	1.198299e+03
1.600000e-06	5.839057e-06	1.827053e-08	4.196617e+01	1.199029e+03
1.610000e-06	5.849201e-06	1.827866e-08	4.203908e+01	1.199594e+03
1.620000e-06	5.856980e-06	1.828551e-08	4.209499e+01	1.200001e+03
1.630000e-06	5.862734e-06	1.829225e-08	4.213634e+01	1.200258e+03
1.640000e-06	5.866580e-06	1.829787e-08	4.216398e+01	1.200375e+03
1.650000e-06	5.868294e-06	1.830382e-08	4.217630e+01	1.200358e+03
1.660000e-06	5.867828e-06	1.830387e-08	4.217295e+01	1.200213e+03
1.670000e-06	5.865472e-06	1.829366e-08	4.215602e+01	1.199940e+03
1.680000e-06	5.861307e-06	1.828641e-08	4.212609e+01	1.199538e+03
1.690000e-06	5.855128e-06	1.827900e-08	4.208168e+01	1.199001e+03
1.700000e-06	5.846919e-06	1.827142e-08	4.202268e+01	1.198323e+03
1.710000e-06	5.836964e-06	1.826386e-08	4.195113e+01	1.197500e+03
1.720000e-06	5.825116e-06	1.825578e-08	4.186598e+01	1.196530e+03
1.730000e-06	5.811071e-06	1.825743e-08	4.176503e+01	1.195414e+03
1.740000e-06	5.795093e-06	1.818962e-08	4.165020e+01	1.194157e+03
1.750000e-06	5.777124e-06	1.811126e-08	4.152105e+01	1.192771e+03
1.760000e-06	5.756485e-06	1.814002e-08	4.137271e+01	1.191267e+03
1.770000e-06	5.732996e-06	1.813341e-08	4.120389e+01	1.189655e+03
1.780000e-06	5.707239e-06	1.813094e-08	4.101878e+01	1.187947e+03
1.790000e-06	5.680019e-06	1.821367e-08	4.082314e+01	1.186144e+03
1.800000e-06	5.651956e-06	1.801864e-08	4.062145e+01	1.184245e+03
1.810000e-06	5.622374e-06	1.798818e-08	4.040884e+01	1.182240e+03
1.820000e-06	5.590344e-06	1.808365e-08	4.017863e+01	1.180113e+03
1.830000e-06	5.556440e-06	1.788764e-08	3.993496e+01	1.177844e+03
1.840000e-06	5.520858e-06	1.799370e-08	3.967923e+01	1.175411e+03
1.850000e-06	5.483069e-06	1.796219e-08	3.940763e+01	1.172796e+03
1.860000e-06	5.443230e-06	1.771605e-08	3.912131e+01	1.169983e+03
1.870000e-06	5.401464e-06	1.779330e-08	3.882112e+01	1.166964e+03
1.880000e-06	5.357947e-06	1.768089e-08	3.850836e+01	1.163741e+03
1.890000e-06	5.312692e-06	1.765035e-08	3.818311e+01	1.160320e+03
1.900000e-06	5.265221e-06	1.767750e-08	3.784193e+01	1.156714e+03
1.910000e-06	5.215662e-06	1.748566e-08	3.748574e+01	1.152938e+03
1.920000e-06	5.164013e-06	1.757099e-08	3.711453e+01	1.149004e+03
1.930000e-06	5.110123e-06	1.744989e-08	3.672721e+01	1.144922e+03
1.940000e-06	5.054300e-06	1.731381e-08	3.632600e+01	1.140693e+03
1.950000e-06	4.996605e-06	1.734951e-08	3.591134e+01	1.136313e+03
1.960000e-06	4.937193e-06	1.721867e-08	3.548434e+01	1.131769e+03
1.970000e-06	4.876021e-06	1.721100e-08	3.504469e+01	1.127044e+03
1.980000e-06	4.812845e-06	1.708743e-08	3.459063e+01	1.122121e+03
1.990000e-06	4.747861e-06	1.700774e-08	3.412359e+01	1.116981e+03
2.000000e-06	4.681240e-06	1.697752e-08	3.364477e+01	1.111612e+03
2.010000e-06	4.613092e-06	1.683131e-08	3.315498e+01	1.106003e+03
2.020000e-06	4.543078e-06	1.679211e-08	3.265178e+01	1.100150e+03
2.030000e-06	4.471261e-06	1.665442e-08	3.213562e+01	1.094051e+03
2.040000e-06	4.397889e-06	1.659582e-08	3.160828e+01	1.087704e+03
2.050000e-06	4.322889e-06	1.650513e-08	3.106925e+01	1.081109e+03
2.060000e-06	4.246231e-06	1.635567e-08	3.051829e+01	1.074257e+03
2.070000e-06	4.167744e-06	1.628095e-08	2.995419e+01	1.067137e+03
2.080000e-06	4.087728e-06	1.614127e-08	2.937911e+01	1.059735e+03
2.090000e-06	4.006375e-06	1.605149e-08	2.879441e+01	1.052032e+03
2.100000e-06	3.923627e-06	1.591457e-08	2.819969e+01	1.044008e+03
2.110000e-06	3.839643e-06	1.580122e-08	2.759609e+01	1.035647e+03
2.120000e-06	3.754327e-06	1.568371e-08	2.698290e+01	1.026936e+03
2.130000e-06	3.667520e-06	1.552588e-08	2.635901e+01	1.017865e+03
2.140000e-06	3.579375e-06	1.538645e-08	2.572550e+01	1.008429e+03
2.150000e-06	3.490012e-06	1.522408e-08	2.508323e+01	9.986242e+02
2.160000e-06	3.399420e-06	1.508810e-08	2.443213e+01	9.884457e+02
2.170000e-06	3.307777e-06	1.492342e-08	2.377349e+01	9.778843e+02
2.180000e-06	3.215039e-06	1.476584e-08	2.310697e+01	9.669240e+02
2.190000e-06	3.120905e-06	1.459478e-08	2.243041e+01	9.555407e+02
2.200000e-06	3.025448e-06	1.441447e-08	2.174435e+01	9.437026e+02
2.210000e-06	2.928909e-06	1.423025e-08	2.105051e+01	9.313713e+02
2.220000e-06	2.831408e-06	1.403217e-08	2.034975e+01	9.185048e+02
2.230000e-06	2.732911e-06	1.383430e-08	1.964184e+01	9.050600e+02
2.240000e-06	2.633488e-06	1.361921e-08	1.892727e+01	8.909956e+02
2.250000e-06	2.533324e-06	1.339722e-08	1.820737e+01	8.762729e+02
2.260000e-06	2.432268e-06	1.315467e-08	1.748107e+01	8.608569e+02
2.270000e-06	2.330058e-06	1.290948e-08	1.674647e+01	8.447143e+02
2.280000e-06	2.226786e-06	1.265717e-08	1.600425e+01	8.278116e+02
2.290000e-06	2.122715e-06	1.239692e-08	1.525627e+01	8.101128e+02
2.300000e-06	2.017880e-06	1.211864e-08	1.450281e+01	7.915763e+02
2.310000e-06	1.912309e-06	1.182211e-08	1.374405e+01	7.721531e+02
2.320000e-06	1.806128e-06	1.151009e-08	1.298091e+01	7.517858e+02
2.330000e-06	1.699399e-06	1.117852e-08	1.221383e+01	7.304089e+02
2.340000e-06	1.592142e-06	1.083644e-08	1.144296e+01	7.079495e+02
2.350000e-06	1.484428e-06	1.048044e-08	1.066880e+01	6.843298e+02
2.360000e-06	1.376319e-06	1.010816e-08	9.891810e+00	6.594701e+02
2.370000e-06	1.267851e-06	9.711466e-09	9.112237e+00	6.332931e+02
2.380000e-06	1.159020e-06	9.291454e-09	8.330046e+00	6.057294e+02
2.390000e-06	1.049842e-06	8.849604e-09	7.545368e+00	5.767241e+02
2.400000e-06	9.403010e-07	8.387993e-09	6.758083e+00	5.462446e+02
2.410000e-06	8.304233e-07	7.901861e-09	5.968376e+00	5.142890e+02
2.420000e-06	7.202374e-07	7.390035e-09	5.176453e+00	4.808945e+02
2.430000e-06	6.097529e-07	6.855443e-09	4.382385e+00	4.461431e+02
2.440000e-06	4.991089e-07	6.300845e-09	3.587170e+00	4.101647e+02
2.450000e-06	3.882832e-07	5.733059e-09	2.790649e+00	3.731338e+02
2.460000e-06	2.772792e-07	5.152677e-09	1.992847e+00	3.352605e+02
2.470000e-06	1.662382e-07	4.565590e-09	1.194779e+00	2.967746e+02
2.480000e-06	5.507346e-08	3.975206e-09	3.958212e-01	2.579043e+02
2.490000e-06	-5.615706e-08	3.381021e-09	-4.036092e-01	2.188509e+02
2.500000e-06	-1.673558e-07	2.781630e-09	-1.202811e+00	1.797645e+02
2.510000e-06	-2.785252e-07	2.179065e-09	-2.001802e+00	1.407241e+02
2.520000e-06	-3.895663e-07	1.577997e-09	-2.799871e+00	1.017255e+02
2.530000e-06	-5.004036e-07	9.765189e-10	-3.596475e+00	6.268159e+01
2.540000e-06	-6.110523e-07	3.731423e-10	-4.391724e+00	2.343469e+01
2.550000e-06	-7.214848e-07	-2.331333e-10	-5.185418e+00	-1.621796e+01
2.560000e-06	-8.316081e-07	-8.470623e-10	-5.976891e+00	-5.648984e+01
2.570000e-06	-9.413652e-07	-1.472112e-09	-6.765732e+00	-9.756600e+01
2.580000e-06	-1.050757e-06	-2.113204e-09	-7.551944e+00	-1.395651e+02
2.590000e-06	-1.159789e-06	-2.769510e-09	-8.335577e+00	-1.825087e+02
2.600000e-06	-1.268478e-06	-3.438149e-09	-9.116738e+00	-2.263029e+02
2.610000e-06	-1.376808e-06	-4.117869e-09	-9.895326e+00	-2.707350e+02
2.620000e-06	-1.484700e-06	-4.805144e-09	-1.067076e+01	-3.154871e+02
2.630000e-06	-1.592142e-06	-5.493638e-09	-1.144296e+01	-3.601624e+02
2.640000e-06	-1.699046e-06	-6.174547e-09	-1.221130e+01	-4.043228e+02
2.650000e-06	-1.805306e-06	-6.837980e-09	-1.297500e+01	-4.475298e+02
2.660000e-06	-1.910897e-06	-7.475680e-09	-1.373390e+01	-4.893839e+02
2.670000e-06	-2.015844e-06	-8.087611e-09	-1.448817e+01	-5.295565e+02
2.680000e-06	-2.120084e-06	-8.671862e-09	-1.523736e+01	-5.678108e+02
2.690000e-06	-2.223469e-06	-9.227456e-09	-1.598040e+01	-6.040095e+02
2.700000e-06	-2.325852e-06	-9.751893e-09	-1.671624e+01	-6.381096e+02
2.710000e-06	-2.427185e-06	-1.024271e-08	-1.744454e+01	-6.701484e+02
2.720000e-06	-2.527546e-06	-1.070224e-08	-1.816585e+01	-7.002213e+02
2.730000e-06	-2.627054e-06	-1.113320e-08	-1.888103e+01	-7.284591e+02
2.740000e-06	-2.725712e-06	-1.153838e-08	-1.959010e+01	-7.550060e+02
2.750000e-06	-2.823431e-06	-1.192241e-08	-2.029242e+01	-7.800030e+02
2.760000e-06	-2.920229e-06	-1.228472e-08	-2.098812e+01	-8.035767e+02
2.770000e-06	-3.016146e-06	-1.262467e-08	-2.167749e+01	-8.258351e+02
2.780000e-06	-3.111096e-06	-1.294513e-08	-2.235991e+01	-8.468678e+02
2.790000e-06	-3.204848e-06	-1.324654e-08	-2.303372e+01	-8.667504e+02
2.800000e-06	-3.297312e-06	-1.353250e-08	-2.369827e+01	-8.855496e+02
2.810000e-06	-3.388586e-06	-1.380399e-08	-2.435427e+01	-9.033278e+02
2.820000e-06	-3.478619e-06	-1.406034e-08	-2.500135e+01	-9.201469e+02
2.830000e-06	-3.567437e-06	-1.430411e-08	-2.563970e+01	-9.360691e+02
2.840000e-06	-3.655130e-06	-1.453771e-08	-2.626996e+01	-9.511563e+02
2.850000e-06	-3.741531e-06	-1.476103e-08	-2.689094e+01	-9.654688e+02
2.860000e-06	-3.826449e-06	-1.497276e-08	-2.750126e+01	-9.790624e+02
2.870000e-06	-3.909973e-06	-1.517084e-08	-2.810156e+01	-9.919869e+02
2.880000e-06	-3.992187e-06	-1.535835e-08	-2.869244e+01	-1.004285e+03
2.890000e-06	-4.073046e-06	-1.553692e-08	-2.927359e+01	-1.015992e+03
2.900000e-06	-4.152449e-06	-1.570506e-08	-2.984427e+01	-1.027135e+03
2.910000e-06	-4.230119e-06	-1.586509e-08	-3.040250e+01	-1.037739e+03
2.920000e-06	-4.306050e-06	-1.601799e-08	-3.094822e+01	-1.047820e+03
2.930000e-06	-4.380399e-06	-1.616388e-08	-3.148258e+01	-1.057395e+03
2.940000e-06	-4.453166e-06	-1.630167e-08	-3.200557e+01	-1.066477e+03
