# Temperatura_=_46.84
# Concentracion g/m^3_=_28200.0
# C_Vs_to_Am_M_A/Vsm_=_65563218390.804596
# pendiente_HvsI_1/m_=_3716.3
# ordenada_HvsI_A/m_=_1297.0
# frecuencia_Hz_=_301953.42972527834

Tiempo_(s)	Campo_(V.s)	Magnetizacion_(V.s)	Campo_(kA/m)	Magnetizacion_(A/m)
0.000000e+00	-5.839841e-06	-1.941847e-08	-4.192699e+01	-1.270986e+03
1.000000e-08	-5.836483e-06	-1.941514e-08	-4.190289e+01	-1.270651e+03
2.000000e-08	-5.831267e-06	-1.940403e-08	-4.186543e+01	-1.270195e+03
3.000000e-08	-5.824318e-06	-1.939344e-08	-4.181555e+01	-1.269602e+03
4.000000e-08	-5.815541e-06	-1.937954e-08	-4.175253e+01	-1.268851e+03
5.000000e-08	-5.804607e-06	-1.936132e-08	-4.167403e+01	-1.267924e+03
6.000000e-08	-5.791567e-06	-1.934141e-08	-4.158041e+01	-1.266808e+03
7.000000e-08	-5.776443e-06	-1.931401e-08	-4.147183e+01	-1.265504e+03
8.000000e-08	-5.759161e-06	-1.931048e-08	-4.134775e+01	-1.264025e+03
9.000000e-08	-5.739807e-06	-1.935211e-08	-4.120880e+01	-1.262395e+03
1.000000e-07	-5.718226e-06	-1.930166e-08	-4.105386e+01	-1.260645e+03
1.100000e-07	-5.694400e-06	-1.921865e-08	-4.088280e+01	-1.258805e+03
1.200000e-07	-5.668395e-06	-1.919491e-08	-4.069610e+01	-1.256897e+03
1.300000e-07	-5.640607e-06	-1.910432e-08	-4.049659e+01	-1.254935e+03
1.400000e-07	-5.611453e-06	-1.902812e-08	-4.028729e+01	-1.252912e+03
1.500000e-07	-5.580739e-06	-1.917589e-08	-4.006677e+01	-1.250810e+03
1.600000e-07	-5.548175e-06	-1.908088e-08	-3.983298e+01	-1.248598e+03
1.700000e-07	-5.513770e-06	-1.897016e-08	-3.958598e+01	-1.246239e+03
1.800000e-07	-5.477456e-06	-1.906504e-08	-3.932526e+01	-1.243694e+03
1.900000e-07	-5.439179e-06	-1.888122e-08	-3.905045e+01	-1.240935e+03
2.000000e-07	-5.399119e-06	-1.883634e-08	-3.876284e+01	-1.237942e+03
2.100000e-07	-5.357033e-06	-1.888369e-08	-3.846068e+01	-1.234709e+03
2.200000e-07	-5.312794e-06	-1.876439e-08	-3.814307e+01	-1.231243e+03
2.300000e-07	-5.266545e-06	-1.873817e-08	-3.781103e+01	-1.227559e+03
2.400000e-07	-5.218093e-06	-1.868471e-08	-3.746317e+01	-1.223674e+03
2.500000e-07	-5.167320e-06	-1.859434e-08	-3.709865e+01	-1.219606e+03
2.600000e-07	-5.114323e-06	-1.855908e-08	-3.671815e+01	-1.215366e+03
2.700000e-07	-5.059407e-06	-1.845131e-08	-3.632389e+01	-1.210957e+03
2.800000e-07	-5.002688e-06	-1.839221e-08	-3.591667e+01	-1.206375e+03
2.900000e-07	-4.943998e-06	-1.832791e-08	-3.549531e+01	-1.201607e+03
3.000000e-07	-4.883459e-06	-1.825486e-08	-3.506068e+01	-1.196641e+03
3.100000e-07	-4.821243e-06	-1.817700e-08	-3.461399e+01	-1.191460e+03
3.200000e-07	-4.757243e-06	-1.808700e-08	-3.415451e+01	-1.186055e+03
3.300000e-07	-4.691363e-06	-1.800941e-08	-3.368152e+01	-1.180416e+03
3.400000e-07	-4.623711e-06	-1.789104e-08	-3.319582e+01	-1.174541e+03
3.500000e-07	-4.554418e-06	-1.781266e-08	-3.269833e+01	-1.168427e+03
3.600000e-07	-4.483608e-06	-1.771983e-08	-3.218995e+01	-1.162074e+03
3.700000e-07	-4.411242e-06	-1.761541e-08	-3.167041e+01	-1.155477e+03
3.800000e-07	-4.337093e-06	-1.752259e-08	-3.113805e+01	-1.148629e+03
3.900000e-07	-4.261097e-06	-1.739446e-08	-3.059244e+01	-1.141516e+03
4.000000e-07	-4.183391e-06	-1.727667e-08	-3.003455e+01	-1.134122e+03
4.100000e-07	-4.104095e-06	-1.716781e-08	-2.946525e+01	-1.126428e+03
4.200000e-07	-4.023282e-06	-1.705036e-08	-2.888505e+01	-1.118416e+03
4.300000e-07	-3.941074e-06	-1.692222e-08	-2.829484e+01	-1.110069e+03
4.400000e-07	-3.857624e-06	-1.678313e-08	-2.769571e+01	-1.101376e+03
4.500000e-07	-3.773016e-06	-1.664811e-08	-2.708827e+01	-1.092327e+03
4.600000e-07	-3.687243e-06	-1.649735e-08	-2.647247e+01	-1.082917e+03
4.700000e-07	-3.600356e-06	-1.634877e-08	-2.584867e+01	-1.073140e+03
4.800000e-07	-3.512236e-06	-1.620016e-08	-2.521601e+01	-1.062989e+03
4.900000e-07	-3.422675e-06	-1.603927e-08	-2.457301e+01	-1.052455e+03
5.000000e-07	-3.331716e-06	-1.586940e-08	-2.391997e+01	-1.041519e+03
5.100000e-07	-3.239504e-06	-1.568718e-08	-2.325794e+01	-1.030161e+03
5.200000e-07	-3.146193e-06	-1.550468e-08	-2.258801e+01	-1.018351e+03
5.300000e-07	-3.051807e-06	-1.531472e-08	-2.191037e+01	-1.006057e+03
5.400000e-07	-2.956311e-06	-1.512041e-08	-2.122476e+01	-9.932447e+02
5.500000e-07	-2.859649e-06	-1.491784e-08	-2.053078e+01	-9.798795e+02
5.600000e-07	-2.761781e-06	-1.470257e-08	-1.982814e+01	-9.659265e+02
5.700000e-07	-2.662767e-06	-1.447759e-08	-1.911727e+01	-9.513521e+02
5.800000e-07	-2.562719e-06	-1.424265e-08	-1.839898e+01	-9.361228e+02
5.900000e-07	-2.461750e-06	-1.399944e-08	-1.767408e+01	-9.202041e+02
6.000000e-07	-2.359940e-06	-1.374289e-08	-1.694313e+01	-9.035588e+02
6.100000e-07	-2.257346e-06	-1.347819e-08	-1.620656e+01	-8.861457e+02
6.200000e-07	-2.153935e-06	-1.320142e-08	-1.546412e+01	-8.679184e+02
6.300000e-07	-2.049650e-06	-1.291007e-08	-1.471541e+01	-8.488246e+02
6.400000e-07	-1.944564e-06	-1.260298e-08	-1.396095e+01	-8.288063e+02
6.500000e-07	-1.838812e-06	-1.228097e-08	-1.320171e+01	-8.077999e+02
6.600000e-07	-1.732334e-06	-1.194410e-08	-1.243725e+01	-7.857360e+02
6.700000e-07	-1.625189e-06	-1.158890e-08	-1.166800e+01	-7.625406e+02
6.800000e-07	-1.517462e-06	-1.121666e-08	-1.089458e+01	-7.381349e+02
6.900000e-07	-1.409165e-06	-1.082270e-08	-1.011706e+01	-7.124367e+02
7.000000e-07	-1.300470e-06	-1.040656e-08	-9.336690e+00	-6.853625e+02
7.100000e-07	-1.191355e-06	-9.966487e-09	-8.553304e+00	-6.568314e+02
7.200000e-07	-1.081832e-06	-9.505059e-09	-7.766986e+00	-6.267718e+02
7.300000e-07	-9.720180e-07	-9.024943e-09	-6.978579e+00	-5.951291e+02
7.400000e-07	-8.619377e-07	-8.521289e-09	-6.188260e+00	-5.618764e+02
7.500000e-07	-7.516013e-07	-7.990953e-09	-5.396103e+00	-5.270246e+02
7.600000e-07	-6.410631e-07	-7.435482e-09	-4.602496e+00	-4.906315e+02
7.700000e-07	-5.303800e-07	-6.857517e-09	-3.807850e+00	-4.528072e+02
7.800000e-07	-4.195408e-07	-6.259622e-09	-3.012083e+00	-4.137137e+02
7.900000e-07	-3.084947e-07	-5.647376e-09	-2.214830e+00	-3.735581e+02
8.000000e-07	-1.973293e-07	-5.024368e-09	-1.416721e+00	-3.325777e+02
8.100000e-07	-8.619439e-08	-4.393035e-09	-6.188305e-01	-2.910189e+02
8.200000e-07	2.498133e-08	-3.756121e-09	1.793528e-01	-2.491114e+02
8.300000e-07	1.362750e-07	-3.116069e-09	9.783826e-01	-2.070421e+02
8.400000e-07	2.475371e-07	-2.474243e-09	1.777187e+00	-1.649316e+02
8.500000e-07	3.586622e-07	-1.830742e-09	2.575006e+00	-1.228185e+02
8.600000e-07	4.696849e-07	-1.187257e-09	3.372091e+00	-8.065476e+01
8.700000e-07	5.805591e-07	-5.423445e-10	4.168110e+00	-3.831334e+01
8.800000e-07	6.912965e-07	1.079098e-10	4.963146e+00	4.390492e+00
8.900000e-07	8.019026e-07	7.671807e-10	5.757239e+00	4.766745e+01
9.000000e-07	9.123442e-07	1.436620e-09	6.550152e+00	9.171562e+01
9.100000e-07	1.022560e-06	2.120130e-09	7.341446e+00	1.366805e+02
9.200000e-07	1.132413e-06	2.818399e-09	8.130132e+00	1.826197e+02
9.300000e-07	1.241848e-06	3.530034e-09	8.915816e+00	2.294781e+02
9.400000e-07	1.350819e-06	4.253571e-09	9.698173e+00	2.770771e+02
9.500000e-07	1.459341e-06	4.985327e-09	1.047730e+01	3.251201e+02
9.600000e-07	1.567483e-06	5.721453e-09	1.125371e+01	3.732145e+02
9.700000e-07	1.675142e-06	6.451850e-09	1.202664e+01	4.209052e+02
9.800000e-07	1.782106e-06	7.164172e-09	1.279459e+01	4.677170e+02
9.900000e-07	1.888302e-06	7.852273e-09	1.355702e+01	5.131974e+02
1.000000e-06	1.993773e-06	8.514517e-09	1.431424e+01	5.569560e+02
1.010000e-06	2.098423e-06	9.148122e-09	1.506557e+01	5.986928e+02
1.020000e-06	2.202059e-06	9.747084e-09	1.580963e+01	6.382148e+02
1.030000e-06	2.304825e-06	1.031035e-08	1.654744e+01	6.754376e+02
1.040000e-06	2.406839e-06	1.083935e-08	1.727984e+01	7.103741e+02
1.050000e-06	2.508007e-06	1.133413e-08	1.800617e+01	7.431140e+02
1.060000e-06	2.608417e-06	1.179713e-08	1.872706e+01	7.737980e+02
1.070000e-06	2.708018e-06	1.223497e-08	1.944215e+01	8.025909e+02
1.080000e-06	2.806617e-06	1.264868e-08	2.015003e+01	8.296593e+02
1.090000e-06	2.904068e-06	1.303928e-08	2.084969e+01	8.551549e+02
1.100000e-06	3.000298e-06	1.340643e-08	2.154057e+01	8.792061e+02
1.110000e-06	3.095404e-06	1.375117e-08	2.222338e+01	9.019167e+02
1.120000e-06	3.189454e-06	1.407522e-08	2.289861e+01	9.233704e+02
1.130000e-06	3.282447e-06	1.438047e-08	2.356624e+01	9.436378e+02
1.140000e-06	3.374510e-06	1.466904e-08	2.422721e+01	9.627842e+02
1.150000e-06	3.465599e-06	1.494335e-08	2.488118e+01	9.808756e+02
1.160000e-06	3.555386e-06	1.520467e-08	2.552581e+01	9.979815e+02
1.170000e-06	3.643652e-06	1.545278e-08	2.615951e+01	1.014174e+03
1.180000e-06	3.730576e-06	1.568888e-08	2.678358e+01	1.029526e+03
1.190000e-06	3.816294e-06	1.591180e-08	2.739899e+01	1.044105e+03
1.200000e-06	3.900772e-06	1.612098e-08	2.800549e+01	1.057972e+03
1.210000e-06	3.984041e-06	1.631731e-08	2.860332e+01	1.071174e+03
1.220000e-06	4.065881e-06	1.650538e-08	2.919089e+01	1.083751e+03
1.230000e-06	4.146111e-06	1.668533e-08	2.976690e+01	1.095729e+03
1.240000e-06	4.224817e-06	1.685820e-08	3.033197e+01	1.107129e+03
1.250000e-06	4.302028e-06	1.702336e-08	3.088630e+01	1.117968e+03
1.260000e-06	4.377604e-06	1.718160e-08	3.142890e+01	1.128265e+03
1.270000e-06	4.451342e-06	1.733285e-08	3.195830e+01	1.138038e+03
1.280000e-06	4.523318e-06	1.747435e-08	3.247505e+01	1.147309e+03
1.290000e-06	4.593643e-06	1.760766e-08	3.297995e+01	1.156099e+03
1.300000e-06	4.662317e-06	1.773381e-08	3.347299e+01	1.164432e+03
1.310000e-06	4.729415e-06	1.785354e-08	3.395472e+01	1.172328e+03
1.320000e-06	4.794722e-06	1.796756e-08	3.442359e+01	1.179806e+03
1.330000e-06	4.858209e-06	1.807427e-08	3.487939e+01	1.186882e+03
1.340000e-06	4.920077e-06	1.817524e-08	3.532357e+01	1.193572e+03
1.350000e-06	4.980383e-06	1.827087e-08	3.575653e+01	1.199895e+03
1.360000e-06	5.038987e-06	1.836133e-08	3.617728e+01	1.205870e+03
1.370000e-06	5.095641e-06	1.844713e-08	3.658403e+01	1.211523e+03
1.380000e-06	5.150396e-06	1.853010e-08	3.697714e+01	1.216882e+03
1.390000e-06	5.203318e-06	1.860855e-08	3.735709e+01	1.221977e+03
1.400000e-06	5.254112e-06	1.868105e-08	3.772177e+01	1.226835e+03
1.410000e-06	5.302695e-06	1.875119e-08	3.807057e+01	1.231476e+03
1.420000e-06	5.349316e-06	1.881884e-08	3.840528e+01	1.235915e+03
1.430000e-06	5.394126e-06	1.888174e-08	3.872699e+01	1.240152e+03
1.440000e-06	5.437178e-06	1.894187e-08	3.903608e+01	1.244180e+03
1.450000e-06	5.478174e-06	1.900133e-08	3.933041e+01	1.247984e+03
1.460000e-06	5.517126e-06	1.905776e-08	3.961007e+01	1.251546e+03
1.470000e-06	5.554317e-06	1.910808e-08	3.987708e+01	1.254851e+03
1.480000e-06	5.589729e-06	1.915243e-08	4.013132e+01	1.257888e+03
1.490000e-06	5.623015e-06	1.919429e-08	4.037030e+01	1.260658e+03
1.500000e-06	5.654153e-06	1.923412e-08	4.059385e+01	1.263171e+03
1.510000e-06	5.683506e-06	1.926999e-08	4.080459e+01	1.265442e+03
1.520000e-06	5.711077e-06	1.930173e-08	4.100254e+01	1.267493e+03
1.530000e-06	5.736406e-06	1.932922e-08	4.118438e+01	1.269346e+03
1.540000e-06	5.759422e-06	1.935224e-08	4.134962e+01	1.271017e+03
1.550000e-06	5.780523e-06	1.937222e-08	4.150112e+01	1.272514e+03
1.560000e-06	5.799748e-06	1.939181e-08	4.163915e+01	1.273839e+03
1.570000e-06	5.816794e-06	1.941108e-08	4.176153e+01	1.274988e+03
1.580000e-06	5.831602e-06	1.942730e-08	4.186784e+01	1.275952e+03
1.590000e-06	5.844328e-06	1.944030e-08	4.195921e+01	1.276728e+03
1.600000e-06	5.854694e-06	1.944987e-08	4.203363e+01	1.277314e+03
1.610000e-06	5.862692e-06	1.945678e-08	4.209105e+01	1.277717e+03
1.620000e-06	5.868606e-06	1.946246e-08	4.213351e+01	1.277951e+03
1.630000e-06	5.872622e-06	1.946627e-08	4.216234e+01	1.278036e+03
1.640000e-06	5.874566e-06	1.946871e-08	4.217630e+01	1.277989e+03
1.650000e-06	5.874291e-06	1.946951e-08	4.217433e+01	1.277826e+03
1.660000e-06	5.872027e-06	1.946079e-08	4.215807e+01	1.277552e+03
1.670000e-06	5.868012e-06	1.945275e-08	4.212925e+01	1.277166e+03
1.680000e-06	5.862078e-06	1.944631e-08	4.208664e+01	1.276652e+03
1.690000e-06	5.854080e-06	1.943837e-08	4.202922e+01	1.275993e+03
1.700000e-06	5.844260e-06	1.943041e-08	4.195872e+01	1.275167e+03
1.710000e-06	5.832612e-06	1.942305e-08	4.187509e+01	1.274158e+03
1.720000e-06	5.818789e-06	1.942102e-08	4.177585e+01	1.272959e+03
1.730000e-06	5.802899e-06	1.938037e-08	4.166177e+01	1.271576e+03
1.740000e-06	5.785077e-06	1.926895e-08	4.153382e+01	1.270028e+03
1.750000e-06	5.764747e-06	1.927277e-08	4.138785e+01	1.268342e+03
1.760000e-06	5.741519e-06	1.929538e-08	4.122109e+01	1.266548e+03
1.770000e-06	5.715952e-06	1.926806e-08	4.103754e+01	1.264675e+03
1.780000e-06	5.688852e-06	1.936994e-08	4.084297e+01	1.262742e+03
1.790000e-06	5.660817e-06	1.924085e-08	4.064170e+01	1.260754e+03
1.800000e-06	5.631449e-06	1.906827e-08	4.043085e+01	1.258699e+03
1.810000e-06	5.599657e-06	1.920879e-08	4.020260e+01	1.256553e+03
1.820000e-06	5.565855e-06	1.907489e-08	3.995992e+01	1.254281e+03
1.830000e-06	5.530420e-06	1.905550e-08	3.970551e+01	1.251845e+03
1.840000e-06	5.492813e-06	1.919358e-08	3.943551e+01	1.249210e+03
1.850000e-06	5.453125e-06	1.894429e-08	3.915058e+01	1.246351e+03
1.860000e-06	5.411427e-06	1.894570e-08	3.885120e+01	1.243254e+03
1.870000e-06	5.367910e-06	1.893392e-08	3.853878e+01	1.239918e+03
1.880000e-06	5.322794e-06	1.877852e-08	3.821487e+01	1.236355e+03
1.890000e-06	5.275487e-06	1.883920e-08	3.787523e+01	1.232581e+03
1.900000e-06	5.226037e-06	1.868503e-08	3.752020e+01	1.228615e+03
1.910000e-06	5.174563e-06	1.866577e-08	3.715064e+01	1.224471e+03
1.920000e-06	5.120829e-06	1.867666e-08	3.676486e+01	1.220157e+03
1.930000e-06	5.065203e-06	1.848673e-08	3.636550e+01	1.215673e+03
1.940000e-06	5.007710e-06	1.849688e-08	3.595273e+01	1.211012e+03
1.950000e-06	4.948365e-06	1.837423e-08	3.552666e+01	1.206159e+03
1.960000e-06	4.887244e-06	1.830983e-08	3.508785e+01	1.201101e+03
1.970000e-06	4.824182e-06	1.824558e-08	3.463510e+01	1.195824e+03
1.980000e-06	4.759313e-06	1.811198e-08	3.416937e+01	1.190318e+03
1.990000e-06	4.692793e-06	1.811276e-08	3.369179e+01	1.184577e+03
2.000000e-06	4.624752e-06	1.796686e-08	3.320329e+01	1.178598e+03
2.010000e-06	4.554955e-06	1.788031e-08	3.270219e+01	1.172381e+03
2.020000e-06	4.483225e-06	1.777554e-08	3.218720e+01	1.165923e+03
2.030000e-06	4.409810e-06	1.766494e-08	3.166012e+01	1.159218e+03
2.040000e-06	4.334881e-06	1.761461e-08	3.112217e+01	1.152256e+03
2.050000e-06	4.258361e-06	1.745526e-08	3.057280e+01	1.145024e+03
2.060000e-06	4.180048e-06	1.735977e-08	3.001055e+01	1.137502e+03
2.070000e-06	4.100123e-06	1.722733e-08	2.943673e+01	1.129673e+03
2.080000e-06	4.018804e-06	1.710115e-08	2.885291e+01	1.121518e+03
2.090000e-06	3.936164e-06	1.697740e-08	2.825959e+01	1.113022e+03
2.100000e-06	3.852312e-06	1.683706e-08	2.765758e+01	1.104176e+03
2.110000e-06	3.767071e-06	1.672752e-08	2.704559e+01	1.094971e+03
2.120000e-06	3.680379e-06	1.656032e-08	2.642319e+01	1.085403e+03
2.130000e-06	3.592342e-06	1.640998e-08	2.579113e+01	1.075466e+03
2.140000e-06	3.503044e-06	1.624566e-08	2.515001e+01	1.065151e+03
2.150000e-06	3.412547e-06	1.609172e-08	2.450030e+01	1.054446e+03
2.160000e-06	3.320908e-06	1.593072e-08	2.384237e+01	1.043331e+03
2.170000e-06	3.228092e-06	1.575575e-08	2.317601e+01	1.031781e+03
2.180000e-06	3.134007e-06	1.557920e-08	2.250052e+01	1.019766e+03
2.190000e-06	3.038704e-06	1.538359e-08	2.181630e+01	1.007253e+03
2.200000e-06	2.942232e-06	1.518754e-08	2.112368e+01	9.942067e+02
2.210000e-06	2.844726e-06	1.497808e-08	2.042364e+01	9.805924e+02
2.220000e-06	2.746281e-06	1.476868e-08	1.971686e+01	9.663758e+02
2.230000e-06	2.646937e-06	1.454535e-08	1.900362e+01	9.515234e+02
2.240000e-06	2.546688e-06	1.431295e-08	1.828389e+01	9.360016e+02
2.250000e-06	2.445444e-06	1.406647e-08	1.755700e+01	9.197748e+02
2.260000e-06	2.343166e-06	1.380297e-08	1.682270e+01	9.028044e+02
2.270000e-06	2.239952e-06	1.352894e-08	1.608168e+01	8.850469e+02
2.280000e-06	2.135815e-06	1.324735e-08	1.533403e+01	8.664536e+02
2.290000e-06	2.030829e-06	1.295611e-08	1.458029e+01	8.469697e+02
2.300000e-06	1.925229e-06	1.264628e-08	1.382213e+01	8.265346e+02
2.310000e-06	1.819040e-06	1.232216e-08	1.305976e+01	8.050823e+02
2.320000e-06	1.712295e-06	1.197750e-08	1.229338e+01	7.825415e+02
2.330000e-06	1.605116e-06	1.161322e-08	1.152389e+01	7.588359e+02
2.340000e-06	1.497455e-06	1.123172e-08	1.075094e+01	7.338851e+02
2.350000e-06	1.389273e-06	1.083637e-08	9.974251e+00	7.076059e+02
2.360000e-06	1.280633e-06	1.041997e-08	9.194273e+00	6.799155e+02
2.370000e-06	1.171600e-06	9.978199e-09	8.411470e+00	6.507359e+02
2.380000e-06	1.062202e-06	9.510881e-09	7.626054e+00	6.200017e+02
2.390000e-06	9.524897e-07	9.016669e-09	6.838376e+00	5.876689e+02
2.400000e-06	8.425170e-07	8.497541e-09	6.048830e+00	5.537256e+02
2.410000e-06	7.322443e-07	7.953567e-09	5.257130e+00	5.182018e+02
2.420000e-06	6.217496e-07	7.388292e-09	4.463836e+00	4.811773e+02
2.430000e-06	5.110921e-07	6.801703e-09	3.669373e+00	4.427849e+02
2.440000e-06	4.002114e-07	6.197086e-09	2.873308e+00	4.032073e+02
2.450000e-06	2.891528e-07	5.576159e-09	2.075965e+00	3.626667e+02
2.460000e-06	1.779690e-07	4.943778e-09	1.277724e+00	3.214072e+02
2.470000e-06	6.661625e-08	4.306606e-09	4.782697e-01	2.796714e+02
2.480000e-06	-4.483609e-08	3.667280e-09	-3.218996e-01	2.376736e+02
2.490000e-06	-1.562324e-07	3.026025e-09	-1.121667e+00	1.955750e+02
2.500000e-06	-2.675536e-07	2.383276e-09	-1.920895e+00	1.534623e+02
2.510000e-06	-3.787575e-07	1.739945e-09	-2.719280e+00	1.113370e+02
2.520000e-06	-4.897863e-07	1.092103e-09	-3.516408e+00	6.911518e+01
2.530000e-06	-6.006152e-07	4.396781e-10	-4.312102e+00	2.664200e+01
2.540000e-06	-7.112244e-07	-2.175582e-10	-5.106218e+00	-1.628287e+01
2.550000e-06	-8.215505e-07	-8.842213e-10	-5.898301e+00	-5.986967e+01
2.560000e-06	-9.315090e-07	-1.563185e-09	-6.687745e+00	-1.042987e+02
2.570000e-06	-1.041113e-06	-2.257070e-09	-7.474642e+00	-1.496817e+02
2.580000e-06	-1.150384e-06	-2.963662e-09	-8.259157e+00	-1.960301e+02
2.590000e-06	-1.259332e-06	-3.682074e-09	-9.041342e+00	-2.432364e+02
2.600000e-06	-1.367916e-06	-4.411938e-09	-9.820919e+00	-2.910696e+02
2.610000e-06	-1.476029e-06	-5.148553e-09	-1.059711e+01	-3.391887e+02
2.620000e-06	-1.583560e-06	-5.885403e-09	-1.136913e+01	-3.871694e+02
2.630000e-06	-1.690570e-06	-6.612192e-09	-1.213741e+01	-4.345426e+02
2.640000e-06	-1.797082e-06	-7.320615e-09	-1.290211e+01	-4.808378e+02
2.650000e-06	-1.902877e-06	-8.005515e-09	-1.366166e+01	-5.256248e+02
2.660000e-06	-2.007935e-06	-8.661651e-09	-1.441592e+01	-5.685489e+02
2.670000e-06	-2.112305e-06	-9.285180e-09	-1.516524e+01	-6.093551e+02
2.680000e-06	-2.215883e-06	-9.874638e-09	-1.590888e+01	-6.478975e+02
2.690000e-06	-2.318563e-06	-1.043211e-08	-1.664607e+01	-6.841352e+02
2.700000e-06	-2.420184e-06	-1.095622e-08	-1.737565e+01	-7.181171e+02
2.710000e-06	-2.520760e-06	-1.144586e-08	-1.809774e+01	-7.499582e+02
2.720000e-06	-2.620426e-06	-1.190564e-08	-1.881329e+01	-7.798124e+02
2.730000e-06	-2.719260e-06	-1.233491e-08	-1.952286e+01	-8.078478e+02
2.740000e-06	-2.817177e-06	-1.273758e-08	-2.022585e+01	-8.342262e+02
2.750000e-06	-2.914136e-06	-1.311868e-08	-2.092196e+01	-8.590899e+02
2.760000e-06	-3.010271e-06	-1.347900e-08	-2.161217e+01	-8.825566e+02
2.770000e-06	-3.105474e-06	-1.381710e-08	-2.229567e+01	-9.047207e+02
2.780000e-06	-3.199501e-06	-1.413494e-08	-2.297073e+01	-9.256592e+02
2.790000e-06	-3.292248e-06	-1.443540e-08	-2.363661e+01	-9.454396e+02
2.800000e-06	-3.383776e-06	-1.472044e-08	-2.429374e+01	-9.641270e+02
2.810000e-06	-3.474089e-06	-1.499010e-08	-2.494213e+01	-9.817887e+02
2.820000e-06	-3.563146e-06	-1.524471e-08	-2.558152e+01	-9.984956e+02
2.830000e-06	-3.651087e-06	-1.548834e-08	-2.621289e+01	-1.014321e+03
2.840000e-06	-3.737737e-06	-1.572173e-08	-2.683499e+01	-1.029335e+03
2.850000e-06	-3.822879e-06	-1.594381e-08	-2.744626e+01	-1.043603e+03
2.860000e-06	-3.906648e-06	-1.615255e-08	-2.804769e+01	-1.057181e+03
2.870000e-06	-3.989106e-06	-1.635055e-08	-2.863969e+01	-1.070113e+03
2.880000e-06	-4.070240e-06	-1.653777e-08	-2.922219e+01	-1.082431e+03
2.890000e-06	-4.149959e-06	-1.671552e-08	-2.979453e+01	-1.094161e+03
2.900000e-06	-4.227932e-06	-1.688444e-08	-3.035433e+01	-1.105320e+03
2.910000e-06	-4.304096e-06	-1.704496e-08	-3.090115e+01	-1.115926e+03
2.920000e-06	-4.378669e-06	-1.719915e-08	-3.143655e+01	-1.125997e+03
2.930000e-06	-4.451665e-06	-1.734490e-08	-3.196062e+01	-1.135554e+03
2.940000e-06	-4.522969e-06	-1.748303e-08	-3.247254e+01	-1.144617e+03
