# Temperatura_=_81.67
# Concentracion g/m^3_=_28200.0
# C_Vs_to_Am_M_A/Vsm_=_65563218390.804596
# pendiente_HvsI_1/m_=_3716.3
# ordenada_HvsI_A/m_=_1297.0
# frecuencia_Hz_=_301943.52421105246

Tiempo_(s)	Campo_(V.s)	Magnetizacion_(V.s)	Campo_(kA/m)	Magnetizacion_(A/m)
0.000000e+00	-5.847007e-06	-2.411621e-08	-4.193495e+01	-1.579265e+03
1.000000e-08	-5.843642e-06	-2.410902e-08	-4.191082e+01	-1.578775e+03
2.000000e-08	-5.838369e-06	-2.409626e-08	-4.187300e+01	-1.578130e+03
3.000000e-08	-5.831344e-06	-2.408416e-08	-4.182262e+01	-1.577315e+03
4.000000e-08	-5.822566e-06	-2.406696e-08	-4.175966e+01	-1.576308e+03
5.000000e-08	-5.811593e-06	-2.404367e-08	-4.168096e+01	-1.575086e+03
6.000000e-08	-5.798430e-06	-2.401841e-08	-4.158656e+01	-1.573631e+03
7.000000e-08	-5.783164e-06	-2.398406e-08	-4.147707e+01	-1.571933e+03
8.000000e-08	-5.765703e-06	-2.397691e-08	-4.135184e+01	-1.570003e+03
9.000000e-08	-5.746160e-06	-2.401669e-08	-4.121168e+01	-1.567864e+03
1.000000e-07	-5.724489e-06	-2.395609e-08	-4.105625e+01	-1.565554e+03
1.100000e-07	-5.700613e-06	-2.386163e-08	-4.088502e+01	-1.563120e+03
1.200000e-07	-5.674504e-06	-2.382662e-08	-4.069776e+01	-1.560605e+03
1.300000e-07	-5.646600e-06	-2.371920e-08	-4.049763e+01	-1.558042e+03
1.400000e-07	-5.617365e-06	-2.364166e-08	-4.028796e+01	-1.555443e+03
1.500000e-07	-5.586537e-06	-2.377982e-08	-4.006685e+01	-1.552794e+03
1.600000e-07	-5.553897e-06	-2.365762e-08	-3.983276e+01	-1.550058e+03
1.700000e-07	-5.519458e-06	-2.354813e-08	-3.958577e+01	-1.547176e+03
1.800000e-07	-5.483076e-06	-2.363063e-08	-3.932483e+01	-1.544079e+03
1.900000e-07	-5.444668e-06	-2.343293e-08	-3.904937e+01	-1.540702e+03
2.000000e-07	-5.404443e-06	-2.340321e-08	-3.876087e+01	-1.536988e+03
2.100000e-07	-5.362183e-06	-2.342925e-08	-3.845778e+01	-1.532909e+03
2.200000e-07	-5.317766e-06	-2.327657e-08	-3.813922e+01	-1.528458e+03
2.300000e-07	-5.271421e-06	-2.323309e-08	-3.780683e+01	-1.523657e+03
2.400000e-07	-5.222885e-06	-2.315539e-08	-3.745873e+01	-1.518546e+03
2.500000e-07	-5.171969e-06	-2.305452e-08	-3.709356e+01	-1.513173e+03
2.600000e-07	-5.118821e-06	-2.300777e-08	-3.671238e+01	-1.507584e+03
2.700000e-07	-5.063792e-06	-2.287759e-08	-3.631771e+01	-1.501811e+03
2.800000e-07	-5.006939e-06	-2.279671e-08	-3.590995e+01	-1.495866e+03
2.900000e-07	-4.948090e-06	-2.270224e-08	-3.548789e+01	-1.489740e+03
3.000000e-07	-4.887403e-06	-2.260677e-08	-3.505264e+01	-1.483404e+03
3.100000e-07	-4.825008e-06	-2.251560e-08	-3.460514e+01	-1.476819e+03
3.200000e-07	-4.760942e-06	-2.240773e-08	-3.414565e+01	-1.469945e+03
3.300000e-07	-4.695051e-06	-2.230264e-08	-3.367309e+01	-1.462749e+03
3.400000e-07	-4.627295e-06	-2.215546e-08	-3.318713e+01	-1.455208e+03
3.500000e-07	-4.557860e-06	-2.204909e-08	-3.268914e+01	-1.447319e+03
3.600000e-07	-4.486860e-06	-2.192415e-08	-3.217993e+01	-1.439086e+03
3.700000e-07	-4.414453e-06	-2.179635e-08	-3.166062e+01	-1.430524e+03
3.800000e-07	-4.340286e-06	-2.167781e-08	-3.112870e+01	-1.421646e+03
3.900000e-07	-4.264173e-06	-2.151316e-08	-3.058281e+01	-1.412456e+03
4.000000e-07	-4.186405e-06	-2.136158e-08	-3.002506e+01	-1.402949e+03
4.100000e-07	-4.106970e-06	-2.122100e-08	-2.945534e+01	-1.393109e+03
4.200000e-07	-4.025936e-06	-2.107048e-08	-2.887416e+01	-1.382908e+03
4.300000e-07	-3.943566e-06	-2.090521e-08	-2.828340e+01	-1.372317e+03
4.400000e-07	-3.860041e-06	-2.072866e-08	-2.768436e+01	-1.361308e+03
4.500000e-07	-3.775365e-06	-2.055739e-08	-2.707706e+01	-1.349860e+03
4.600000e-07	-3.689446e-06	-2.037074e-08	-2.646084e+01	-1.337963e+03
4.700000e-07	-3.602339e-06	-2.018809e-08	-2.583611e+01	-1.325613e+03
4.800000e-07	-3.514023e-06	-2.000215e-08	-2.520271e+01	-1.312810e+03
4.900000e-07	-3.424304e-06	-1.979953e-08	-2.455924e+01	-1.299552e+03
5.000000e-07	-3.333134e-06	-1.958467e-08	-2.390536e+01	-1.285829e+03
5.100000e-07	-3.240774e-06	-1.935987e-08	-2.324296e+01	-1.271618e+03
5.200000e-07	-3.147378e-06	-1.913483e-08	-2.257311e+01	-1.256882e+03
5.300000e-07	-3.052873e-06	-1.889899e-08	-2.189532e+01	-1.241574e+03
5.400000e-07	-2.957252e-06	-1.865773e-08	-2.120953e+01	-1.225638e+03
5.500000e-07	-2.860457e-06	-1.840360e-08	-2.051531e+01	-1.209022e+03
5.600000e-07	-2.762452e-06	-1.813412e-08	-1.981241e+01	-1.191677e+03
5.700000e-07	-2.663279e-06	-1.785490e-08	-1.910114e+01	-1.173564e+03
5.800000e-07	-2.563079e-06	-1.756802e-08	-1.838250e+01	-1.154653e+03
5.900000e-07	-2.462021e-06	-1.727101e-08	-1.765771e+01	-1.134918e+03
6.000000e-07	-2.360095e-06	-1.695364e-08	-1.692669e+01	-1.114333e+03
6.100000e-07	-2.257339e-06	-1.662356e-08	-1.618972e+01	-1.092861e+03
6.200000e-07	-2.153818e-06	-1.627884e-08	-1.544727e+01	-1.070454e+03
6.300000e-07	-2.049489e-06	-1.592023e-08	-1.469901e+01	-1.047044e+03
6.400000e-07	-1.944303e-06	-1.554618e-08	-1.394462e+01	-1.022544e+03
6.500000e-07	-1.838314e-06	-1.515255e-08	-1.318445e+01	-9.968566e+02
6.600000e-07	-1.731633e-06	-1.473973e-08	-1.241934e+01	-9.698725e+02
6.700000e-07	-1.624273e-06	-1.430470e-08	-1.164935e+01	-9.414817e+02
6.800000e-07	-1.516335e-06	-1.384945e-08	-1.087521e+01	-9.115763e+02
6.900000e-07	-1.407928e-06	-1.336888e-08	-1.009771e+01	-8.800534e+02
7.000000e-07	-1.299124e-06	-1.286080e-08	-9.317364e+00	-8.468159e+02
7.100000e-07	-1.189954e-06	-1.232360e-08	-8.534392e+00	-8.117722e+02
7.200000e-07	-1.080369e-06	-1.175975e-08	-7.748448e+00	-7.748370e+02
7.300000e-07	-9.704334e-07	-1.116895e-08	-6.959985e+00	-7.359353e+02
7.400000e-07	-8.602151e-07	-1.054687e-08	-6.169495e+00	-6.950108e+02
7.500000e-07	-7.497583e-07	-9.894236e-09	-5.377295e+00	-6.520383e+02
7.600000e-07	-6.391090e-07	-9.208777e-09	-4.583714e+00	-6.070392e+02
7.700000e-07	-5.282823e-07	-8.490570e-09	-3.788861e+00	-5.600958e+02
7.800000e-07	-4.173017e-07	-7.744207e-09	-2.992904e+00	-5.113605e+02
7.900000e-07	-3.061886e-07	-6.976861e-09	-2.195997e+00	-4.610551e+02
8.000000e-07	-1.949388e-07	-6.189636e-09	-1.398108e+00	-4.094588e+02
8.100000e-07	-8.353895e-08	-5.387272e-09	-5.991445e-01	-3.568821e+02
8.200000e-07	2.791832e-08	-4.577313e-09	2.002313e-01	-3.036311e+02
8.300000e-07	1.393680e-07	-3.763669e-09	9.995524e-01	-2.499668e+02
8.400000e-07	2.507942e-07	-2.946204e-09	1.798705e+00	-1.960663e+02
8.500000e-07	3.621116e-07	-2.124072e-09	2.597078e+00	-1.419954e+02
8.600000e-07	4.733126e-07	-1.299785e-09	3.394616e+00	-8.769810e+01
8.700000e-07	5.844321e-07	-4.678099e-10	4.191569e+00	-3.300808e+01
8.800000e-07	6.954159e-07	3.758750e-10	4.987549e+00	2.231770e+01
8.900000e-07	8.061924e-07	1.234607e-09	5.782042e+00	7.854753e+01
9.000000e-07	9.167326e-07	2.108333e-09	6.574841e+00	1.359136e+02
9.100000e-07	1.026975e-06	2.998393e-09	7.365503e+00	1.945508e+02
9.200000e-07	1.136926e-06	3.906373e-09	8.154075e+00	2.544475e+02
9.300000e-07	1.246508e-06	4.831068e-09	8.940006e+00	3.154161e+02
9.400000e-07	1.355604e-06	5.770044e-09	9.722446e+00	3.770901e+02
9.500000e-07	1.464251e-06	6.714918e-09	1.050166e+01	4.389489e+02
9.600000e-07	1.572469e-06	7.654201e-09	1.127781e+01	5.003650e+02
9.700000e-07	1.680173e-06	8.574342e-09	1.205026e+01	5.606679e+02
9.800000e-07	1.787255e-06	9.464454e-09	1.281826e+01	6.192114e+02
9.900000e-07	1.893664e-06	1.031641e-08	1.358143e+01	6.754361e+02
1.000000e-06	1.999250e-06	1.112608e-08	1.433870e+01	7.289161e+02
1.010000e-06	2.103958e-06	1.188849e-08	1.508966e+01	7.793845e+02
1.020000e-06	2.207820e-06	1.260280e-08	1.583457e+01	8.267353e+02
1.030000e-06	2.310786e-06	1.327161e-08	1.657305e+01	8.710057e+02
1.040000e-06	2.412925e-06	1.389712e-08	1.730559e+01	9.123419e+02
1.050000e-06	2.514280e-06	1.448322e-08	1.803251e+01	9.509590e+02
1.060000e-06	2.614810e-06	1.503204e-08	1.875352e+01	9.871000e+02
1.070000e-06	2.714481e-06	1.554658e-08	1.946836e+01	1.021003e+03
1.080000e-06	2.813188e-06	1.602896e-08	2.017629e+01	1.052880e+03
1.090000e-06	2.910764e-06	1.648461e-08	2.087611e+01	1.082905e+03
1.100000e-06	3.007076e-06	1.691330e-08	2.156686e+01	1.111216e+03
1.110000e-06	3.102226e-06	1.731718e-08	2.224928e+01	1.137925e+03
1.120000e-06	3.196358e-06	1.769767e-08	2.292440e+01	1.163127e+03
1.130000e-06	3.289477e-06	1.805840e-08	2.359226e+01	1.186913e+03
1.140000e-06	3.381571e-06	1.840076e-08	2.425275e+01	1.209373e+03
1.150000e-06	3.472583e-06	1.872537e-08	2.490550e+01	1.230604e+03
1.160000e-06	3.562217e-06	1.903343e-08	2.554836e+01	1.250703e+03
1.170000e-06	3.650389e-06	1.932416e-08	2.618073e+01	1.269763e+03
1.180000e-06	3.737349e-06	1.959864e-08	2.680441e+01	1.287870e+03
1.190000e-06	3.823106e-06	1.985669e-08	2.741946e+01	1.305093e+03
1.200000e-06	3.907641e-06	2.010286e-08	2.802575e+01	1.321490e+03
1.210000e-06	3.991007e-06	2.033813e-08	2.862366e+01	1.337105e+03
1.220000e-06	4.072930e-06	2.056436e-08	2.921121e+01	1.351973e+03
1.230000e-06	4.153166e-06	2.078046e-08	2.978666e+01	1.366125e+03
1.240000e-06	4.231850e-06	2.098522e-08	3.035098e+01	1.379594e+03
1.250000e-06	4.309037e-06	2.117952e-08	3.090458e+01	1.392416e+03
1.260000e-06	4.384651e-06	2.136396e-08	3.144688e+01	1.404632e+03
1.270000e-06	4.458483e-06	2.153855e-08	3.197641e+01	1.416286e+03
1.280000e-06	4.530557e-06	2.170550e-08	3.249333e+01	1.427416e+03
1.290000e-06	4.600986e-06	2.186602e-08	3.299844e+01	1.438059e+03
1.300000e-06	4.669754e-06	2.202160e-08	3.349165e+01	1.448238e+03
1.310000e-06	4.736939e-06	2.217094e-08	3.397351e+01	1.457967e+03
1.320000e-06	4.802269e-06	2.231339e-08	3.444205e+01	1.467247e+03
1.330000e-06	4.865721e-06	2.245046e-08	3.489713e+01	1.476076e+03
1.340000e-06	4.927582e-06	2.258139e-08	3.534080e+01	1.484446e+03
1.350000e-06	4.987943e-06	2.270292e-08	3.577371e+01	1.492357e+03
1.360000e-06	5.046599e-06	2.281449e-08	3.619440e+01	1.499812e+03
1.370000e-06	5.103278e-06	2.291909e-08	3.660090e+01	1.506828e+03
1.380000e-06	5.158098e-06	2.301887e-08	3.699407e+01	1.513430e+03
1.390000e-06	5.211044e-06	2.311402e-08	3.737381e+01	1.519652e+03
1.400000e-06	5.261774e-06	2.320481e-08	3.773764e+01	1.525531e+03
1.410000e-06	5.310191e-06	2.329148e-08	3.808489e+01	1.531104e+03
1.420000e-06	5.356670e-06	2.337318e-08	3.841824e+01	1.536401e+03
1.430000e-06	5.401472e-06	2.345046e-08	3.873956e+01	1.541442e+03
1.440000e-06	5.444503e-06	2.352394e-08	3.904818e+01	1.546238e+03
1.450000e-06	5.485444e-06	2.359390e-08	3.934181e+01	1.550787e+03
1.460000e-06	5.524338e-06	2.365991e-08	3.962076e+01	1.555082e+03
1.470000e-06	5.561513e-06	2.372160e-08	3.988738e+01	1.559112e+03
1.480000e-06	5.596887e-06	2.377739e-08	4.014109e+01	1.562865e+03
1.490000e-06	5.630147e-06	2.382909e-08	4.037963e+01	1.566334e+03
1.500000e-06	5.661317e-06	2.387952e-08	4.060318e+01	1.569516e+03
1.510000e-06	5.690612e-06	2.392754e-08	4.081328e+01	1.572416e+03
1.520000e-06	5.718020e-06	2.397098e-08	4.100985e+01	1.575044e+03
1.530000e-06	5.743256e-06	2.400895e-08	4.119085e+01	1.577412e+03
1.540000e-06	5.766212e-06	2.404149e-08	4.135549e+01	1.579531e+03
1.550000e-06	5.787216e-06	2.406951e-08	4.150613e+01	1.581411e+03
1.560000e-06	5.806397e-06	2.409477e-08	4.164370e+01	1.583057e+03
1.570000e-06	5.823471e-06	2.411645e-08	4.176615e+01	1.584472e+03
1.580000e-06	5.838262e-06	2.413369e-08	4.187224e+01	1.585654e+03
1.590000e-06	5.850873e-06	2.414709e-08	4.196268e+01	1.586603e+03
1.600000e-06	5.861126e-06	2.415784e-08	4.203622e+01	1.587320e+03
1.610000e-06	5.869062e-06	2.416796e-08	4.209313e+01	1.587813e+03
1.620000e-06	5.874940e-06	2.417714e-08	4.213529e+01	1.588094e+03
1.630000e-06	5.878860e-06	2.418353e-08	4.216341e+01	1.588178e+03
1.640000e-06	5.880658e-06	2.418704e-08	4.217630e+01	1.588085e+03
1.650000e-06	5.880316e-06	2.418630e-08	4.217385e+01	1.587830e+03
1.660000e-06	5.878059e-06	2.417270e-08	4.215766e+01	1.587423e+03
1.670000e-06	5.873992e-06	2.415928e-08	4.212849e+01	1.586865e+03
1.680000e-06	5.867904e-06	2.414832e-08	4.208483e+01	1.586147e+03
1.690000e-06	5.859793e-06	2.413515e-08	4.202666e+01	1.585251e+03
1.700000e-06	5.849919e-06	2.412226e-08	4.195584e+01	1.584153e+03
1.710000e-06	5.838155e-06	2.411262e-08	4.187147e+01	1.582830e+03
1.720000e-06	5.824231e-06	2.410962e-08	4.177161e+01	1.581269e+03
1.730000e-06	5.808284e-06	2.405814e-08	4.165723e+01	1.579468e+03
1.740000e-06	5.790408e-06	2.393277e-08	4.152903e+01	1.577442e+03
1.750000e-06	5.769978e-06	2.393232e-08	4.138250e+01	1.575223e+03
1.760000e-06	5.746640e-06	2.394812e-08	4.121512e+01	1.572852e+03
1.770000e-06	5.720977e-06	2.391784e-08	4.103107e+01	1.570376e+03
1.780000e-06	5.693809e-06	2.400950e-08	4.083621e+01	1.567836e+03
1.790000e-06	5.665747e-06	2.385391e-08	4.063495e+01	1.565255e+03
1.800000e-06	5.636336e-06	2.367964e-08	4.042402e+01	1.562635e+03
1.810000e-06	5.604471e-06	2.382258e-08	4.019548e+01	1.559953e+03
1.820000e-06	5.570598e-06	2.369637e-08	3.995254e+01	1.557160e+03
1.830000e-06	5.535056e-06	2.371255e-08	3.969763e+01	1.554193e+03
1.840000e-06	5.497255e-06	2.382901e-08	3.942652e+01	1.550981e+03
1.850000e-06	5.457422e-06	2.354105e-08	3.914084e+01	1.547463e+03
1.860000e-06	5.415751e-06	2.354345e-08	3.884197e+01	1.543593e+03
1.870000e-06	5.372287e-06	2.351384e-08	3.853024e+01	1.539351e+03
1.880000e-06	5.327125e-06	2.335494e-08	3.820634e+01	1.534744e+03
1.890000e-06	5.279700e-06	2.340822e-08	3.786621e+01	1.529802e+03
1.900000e-06	5.230115e-06	2.321455e-08	3.751058e+01	1.524571e+03
1.910000e-06	5.178528e-06	2.318531e-08	3.714060e+01	1.519099e+03
1.920000e-06	5.124687e-06	2.318002e-08	3.675445e+01	1.513426e+03
1.930000e-06	5.068926e-06	2.296792e-08	3.635453e+01	1.507577e+03
1.940000e-06	5.011310e-06	2.296496e-08	3.594131e+01	1.501555e+03
1.950000e-06	4.951908e-06	2.281112e-08	3.551527e+01	1.495341e+03
1.960000e-06	4.890709e-06	2.272929e-08	3.507635e+01	1.488901e+03
1.970000e-06	4.827516e-06	2.263583e-08	3.462313e+01	1.482195e+03
1.980000e-06	4.762533e-06	2.247685e-08	3.415706e+01	1.475184e+03
1.990000e-06	4.695955e-06	2.246440e-08	3.367956e+01	1.467840e+03
2.000000e-06	4.627829e-06	2.229445e-08	3.319097e+01	1.460148e+03
2.010000e-06	4.557808e-06	2.218339e-08	3.268878e+01	1.452108e+03
2.020000e-06	4.485881e-06	2.203568e-08	3.217290e+01	1.443730e+03
2.030000e-06	4.412415e-06	2.189718e-08	3.164601e+01	1.435029e+03
2.040000e-06	4.337414e-06	2.182191e-08	3.110810e+01	1.426015e+03
2.050000e-06	4.260782e-06	2.162582e-08	3.055849e+01	1.416688e+03
2.060000e-06	4.182331e-06	2.150278e-08	2.999584e+01	1.407039e+03
2.070000e-06	4.102257e-06	2.133568e-08	2.942155e+01	1.397046e+03
2.080000e-06	4.020818e-06	2.118185e-08	2.883746e+01	1.386679e+03
2.090000e-06	3.938038e-06	2.102439e-08	2.824376e+01	1.375910e+03
2.100000e-06	3.853964e-06	2.084831e-08	2.764078e+01	1.364713e+03
2.110000e-06	3.768521e-06	2.070105e-08	2.702798e+01	1.353072e+03
2.120000e-06	3.681643e-06	2.048700e-08	2.640488e+01	1.340978e+03
2.130000e-06	3.593421e-06	2.029689e-08	2.577215e+01	1.328432e+03
2.140000e-06	3.504009e-06	2.009184e-08	2.513089e+01	1.315432e+03
2.150000e-06	3.413422e-06	1.989911e-08	2.448119e+01	1.301975e+03
2.160000e-06	3.321729e-06	1.969414e-08	2.382356e+01	1.288045e+03
2.170000e-06	3.228869e-06	1.947401e-08	2.315757e+01	1.273612e+03
2.180000e-06	3.134696e-06	1.924832e-08	2.248216e+01	1.258635e+03
2.190000e-06	3.039268e-06	1.900285e-08	2.179774e+01	1.243062e+03
2.200000e-06	2.942696e-06	1.876433e-08	2.110513e+01	1.226839e+03
2.210000e-06	2.845103e-06	1.850754e-08	2.040519e+01	1.209914e+03
2.220000e-06	2.746570e-06	1.824303e-08	1.969851e+01	1.192242e+03
2.230000e-06	2.647142e-06	1.795832e-08	1.898540e+01	1.173788e+03
2.240000e-06	2.546811e-06	1.766665e-08	1.826583e+01	1.154525e+03
2.250000e-06	2.445473e-06	1.736147e-08	1.753903e+01	1.134427e+03
2.260000e-06	2.343069e-06	1.704116e-08	1.680458e+01	1.113465e+03
2.270000e-06	2.239637e-06	1.670970e-08	1.606276e+01	1.091598e+03
2.280000e-06	2.135280e-06	1.636426e-08	1.531431e+01	1.068768e+03
2.290000e-06	2.030185e-06	1.600457e-08	1.456056e+01	1.044900e+03
2.300000e-06	1.924459e-06	1.562337e-08	1.380230e+01	1.019902e+03
2.310000e-06	1.818128e-06	1.522562e-08	1.303968e+01	9.936702e+02
2.320000e-06	1.711284e-06	1.480420e-08	1.227339e+01	9.660945e+02
2.330000e-06	1.604007e-06	1.436056e-08	1.150400e+01	9.370655e+02
2.340000e-06	1.496298e-06	1.389304e-08	1.073151e+01	9.064770e+02
2.350000e-06	1.388071e-06	1.340375e-08	9.955297e+00	8.742287e+02
2.360000e-06	1.279350e-06	1.288854e-08	9.175549e+00	8.402259e+02
2.370000e-06	1.170275e-06	1.234401e-08	8.393254e+00	8.043795e+02
2.380000e-06	1.060844e-06	1.176761e-08	7.608415e+00	7.666077e+02
2.390000e-06	9.510992e-07	1.115879e-08	6.821320e+00	7.268425e+02
2.400000e-06	8.410139e-07	1.051952e-08	6.031784e+00	6.850388e+02
2.410000e-06	7.305855e-07	9.848102e-09	5.239787e+00	6.411898e+02
2.420000e-06	6.199117e-07	9.147827e-09	4.446030e+00	5.953413e+02
2.430000e-06	5.090338e-07	8.419955e-09	3.650810e+00	5.476050e+02
2.440000e-06	3.979063e-07	7.667369e-09	2.853799e+00	4.981638e+02
2.450000e-06	2.865783e-07	6.888638e-09	2.055351e+00	4.472664e+02
2.460000e-06	1.751371e-07	6.091232e-09	1.256090e+00	3.952091e+02
2.470000e-06	6.363071e-08	5.284606e-09	4.563618e-01	3.423055e+02
2.480000e-06	-4.789175e-08	4.472292e-09	-3.434814e-01	2.888474e+02
2.490000e-06	-1.594211e-07	3.652022e-09	-1.143374e+00	2.350641e+02
2.500000e-06	-2.709052e-07	2.823271e-09	-1.942942e+00	1.810875e+02
2.510000e-06	-3.822528e-07	1.990932e-09	-2.741531e+00	1.269313e+02
2.520000e-06	-4.933971e-07	1.154050e-09	-3.538663e+00	7.248946e+01
2.530000e-06	-6.043322e-07	3.104220e-10	-4.334293e+00	1.755744e+01
2.540000e-06	-7.150064e-07	-5.415750e-10	-5.128053e+00	-3.812568e+01
2.550000e-06	-8.254111e-07	-1.407025e-09	-5.919880e+00	-9.482047e+01
2.560000e-06	-9.354810e-07	-2.290767e-09	-6.709305e+00	-1.527245e+02
2.570000e-06	-1.045158e-06	-3.194392e-09	-7.495909e+00	-2.119149e+02
2.580000e-06	-1.154479e-06	-4.115851e-09	-8.279965e+00	-2.723067e+02
2.590000e-06	-1.263442e-06	-5.050532e-09	-9.061455e+00	-3.336344e+02
2.600000e-06	-1.372014e-06	-5.995637e-09	-9.840136e+00	-3.954610e+02
2.610000e-06	-1.480123e-06	-6.942502e-09	-1.061550e+01	-4.572131e+02
2.620000e-06	-1.587716e-06	-7.880690e-09	-1.138716e+01	-5.182365e+02
2.630000e-06	-1.694812e-06	-8.797083e-09	-1.215526e+01	-5.778627e+02
2.640000e-06	-1.801393e-06	-9.678838e-09	-1.291966e+01	-6.354761e+02
2.650000e-06	-1.907309e-06	-1.051995e-08	-1.367929e+01	-6.905699e+02
2.660000e-06	-2.012488e-06	-1.131600e-08	-1.443364e+01	-7.427843e+02
2.670000e-06	-2.116928e-06	-1.206657e-08	-1.518269e+01	-7.919227e+02
2.680000e-06	-2.220566e-06	-1.277203e-08	-1.592599e+01	-8.379437e+02
2.690000e-06	-2.323293e-06	-1.343293e-08	-1.666274e+01	-8.809358e+02
2.700000e-06	-2.424973e-06	-1.405245e-08	-1.739200e+01	-9.210799e+02
2.710000e-06	-2.525668e-06	-1.463317e-08	-1.811419e+01	-9.586077e+02
2.720000e-06	-2.625486e-06	-1.517743e-08	-1.883009e+01	-9.937639e+02
2.730000e-06	-2.724430e-06	-1.568639e-08	-1.953971e+01	-1.026777e+03
2.740000e-06	-2.822468e-06	-1.616164e-08	-2.024285e+01	-1.057843e+03
2.750000e-06	-2.919552e-06	-1.660603e-08	-2.093914e+01	-1.087120e+03
2.760000e-06	-3.015709e-06	-1.702287e-08	-2.162878e+01	-1.114735e+03
2.770000e-06	-3.110908e-06	-1.741970e-08	-2.231155e+01	-1.140789e+03
2.780000e-06	-3.204932e-06	-1.779878e-08	-2.298589e+01	-1.165375e+03
2.790000e-06	-3.297720e-06	-1.815571e-08	-2.365137e+01	-1.188583e+03
2.800000e-06	-3.389286e-06	-1.849056e-08	-2.430809e+01	-1.210507e+03
2.810000e-06	-3.479565e-06	-1.880699e-08	-2.495557e+01	-1.231243e+03
2.820000e-06	-3.568663e-06	-1.910935e-08	-2.559459e+01	-1.250888e+03
2.830000e-06	-3.656680e-06	-1.939759e-08	-2.622585e+01	-1.269531e+03
2.840000e-06	-3.743417e-06	-1.966994e-08	-2.684793e+01	-1.287254e+03
2.850000e-06	-3.828637e-06	-1.992730e-08	-2.745913e+01	-1.304119e+03
2.860000e-06	-3.912451e-06	-2.016985e-08	-2.806024e+01	-1.320178e+03
2.870000e-06	-3.994958e-06	-2.040211e-08	-2.865199e+01	-1.335471e+03
2.880000e-06	-4.076098e-06	-2.062642e-08	-2.923393e+01	-1.350031e+03
2.890000e-06	-4.155849e-06	-2.084231e-08	-2.980591e+01	-1.363888e+03
2.900000e-06	-4.233893e-06	-2.104843e-08	-3.036564e+01	-1.377076e+03
2.910000e-06	-4.310114e-06	-2.124294e-08	-3.091230e+01	-1.389636e+03
2.920000e-06	-4.384686e-06	-2.142670e-08	-3.144714e+01	-1.401608e+03
2.930000e-06	-4.457597e-06	-2.159858e-08	-3.197006e+01	-1.413035e+03
2.940000e-06	-4.528960e-06	-2.176266e-08	-3.248187e+01	-1.423955e+03
