# Temperatura_=_85.9
# Concentracion g/m^3_=_28200.0
# C_Vs_to_Am_M_A/Vsm_=_65563218390.804596
# pendiente_HvsI_1/m_=_3716.3
# ordenada_HvsI_A/m_=_1297.0
# frecuencia_Hz_=_301943.44687097834

Tiempo_(s)	Campo_(V.s)	Magnetizacion_(V.s)	Campo_(kA/m)	Magnetizacion_(A/m)
0.000000e+00	-5.844949e-06	-2.532340e-08	-4.194529e+01	-1.659025e+03
1.000000e-08	-5.843507e-06	-2.532043e-08	-4.193495e+01	-1.658650e+03
2.000000e-08	-5.840018e-06	-2.531354e-08	-4.190991e+01	-1.658106e+03
3.000000e-08	-5.834653e-06	-2.530234e-08	-4.187140e+01	-1.657391e+03
4.000000e-08	-5.827537e-06	-2.528769e-08	-4.182034e+01	-1.656493e+03
5.000000e-08	-5.818586e-06	-2.526598e-08	-4.175610e+01	-1.655395e+03
6.000000e-08	-5.807454e-06	-2.524078e-08	-4.167621e+01	-1.654077e+03
7.000000e-08	-5.794117e-06	-2.521687e-08	-4.158051e+01	-1.652521e+03
8.000000e-08	-5.778705e-06	-2.519441e-08	-4.146990e+01	-1.650721e+03
9.000000e-08	-5.761109e-06	-2.518885e-08	-4.134363e+01	-1.648683e+03
1.000000e-07	-5.741359e-06	-2.517516e-08	-4.120190e+01	-1.646430e+03
1.100000e-07	-5.719463e-06	-2.512201e-08	-4.104477e+01	-1.643999e+03
1.200000e-07	-5.695402e-06	-2.506082e-08	-4.087209e+01	-1.641435e+03
1.300000e-07	-5.669225e-06	-2.500179e-08	-4.068424e+01	-1.638783e+03
1.400000e-07	-5.641333e-06	-2.492568e-08	-4.048408e+01	-1.636075e+03
1.500000e-07	-5.612046e-06	-2.490870e-08	-4.027391e+01	-1.633325e+03
1.600000e-07	-5.581180e-06	-2.490588e-08	-4.005240e+01	-1.630518e+03
1.700000e-07	-5.548451e-06	-2.482181e-08	-3.981753e+01	-1.627616e+03
1.800000e-07	-5.513737e-06	-2.477228e-08	-3.956841e+01	-1.624556e+03
1.900000e-07	-5.477075e-06	-2.472870e-08	-3.930531e+01	-1.621266e+03
2.000000e-07	-5.438532e-06	-2.464657e-08	-3.902871e+01	-1.617673e+03
2.100000e-07	-5.398140e-06	-2.461616e-08	-3.873885e+01	-1.613721e+03
2.200000e-07	-5.355666e-06	-2.456741e-08	-3.843404e+01	-1.609375e+03
2.300000e-07	-5.311076e-06	-2.447940e-08	-3.811404e+01	-1.604630e+03
2.400000e-07	-5.264540e-06	-2.439299e-08	-3.778008e+01	-1.599511e+03
2.500000e-07	-5.215840e-06	-2.428972e-08	-3.743060e+01	-1.594060e+03
2.600000e-07	-5.164813e-06	-2.421363e-08	-3.706441e+01	-1.588330e+03
2.700000e-07	-5.111550e-06	-2.413067e-08	-3.668218e+01	-1.582367e+03
2.800000e-07	-5.056347e-06	-2.402368e-08	-3.628602e+01	-1.576204e+03
2.900000e-07	-4.999376e-06	-2.393125e-08	-3.587718e+01	-1.569852e+03
3.000000e-07	-4.940516e-06	-2.382658e-08	-3.545478e+01	-1.563299e+03
3.100000e-07	-4.879804e-06	-2.371427e-08	-3.501910e+01	-1.556514e+03
3.200000e-07	-4.817355e-06	-2.361567e-08	-3.457094e+01	-1.549458e+03
3.300000e-07	-4.753185e-06	-2.351810e-08	-3.411043e+01	-1.542090e+03
3.400000e-07	-4.687174e-06	-2.339532e-08	-3.363672e+01	-1.534381e+03
3.500000e-07	-4.619318e-06	-2.326239e-08	-3.314976e+01	-1.526317e+03
3.600000e-07	-4.549757e-06	-2.313067e-08	-3.265056e+01	-1.517897e+03
3.700000e-07	-4.478703e-06	-2.299216e-08	-3.214066e+01	-1.509134e+03
3.800000e-07	-4.406156e-06	-2.286446e-08	-3.162004e+01	-1.500043e+03
3.900000e-07	-4.331774e-06	-2.272832e-08	-3.108625e+01	-1.490635e+03
4.000000e-07	-4.255538e-06	-2.257234e-08	-3.053915e+01	-1.480911e+03
4.100000e-07	-4.177677e-06	-2.241933e-08	-2.998040e+01	-1.470857e+03
4.200000e-07	-4.098156e-06	-2.226198e-08	-2.940973e+01	-1.460445e+03
4.300000e-07	-4.017046e-06	-2.209461e-08	-2.882765e+01	-1.449642e+03
4.400000e-07	-3.934561e-06	-2.191907e-08	-2.823572e+01	-1.438413e+03
4.500000e-07	-3.850913e-06	-2.173757e-08	-2.763543e+01	-1.426730e+03
4.600000e-07	-3.766172e-06	-2.155018e-08	-2.702730e+01	-1.414576e+03
4.700000e-07	-3.680195e-06	-2.135731e-08	-2.641030e+01	-1.401947e+03
4.800000e-07	-3.593020e-06	-2.116149e-08	-2.578470e+01	-1.388849e+03
4.900000e-07	-3.504681e-06	-2.095877e-08	-2.515076e+01	-1.375287e+03
5.000000e-07	-3.414902e-06	-2.074663e-08	-2.450647e+01	-1.361264e+03
5.100000e-07	-3.323702e-06	-2.052070e-08	-2.385199e+01	-1.346767e+03
5.200000e-07	-3.231364e-06	-2.028649e-08	-2.318934e+01	-1.331766e+03
5.300000e-07	-3.137887e-06	-2.004723e-08	-2.251852e+01	-1.316216e+03
5.400000e-07	-3.043291e-06	-1.980000e-08	-2.183966e+01	-1.300060e+03
5.500000e-07	-2.947631e-06	-1.954289e-08	-2.115318e+01	-1.283238e+03
5.600000e-07	-2.850874e-06	-1.927295e-08	-2.045882e+01	-1.265693e+03
5.700000e-07	-2.752850e-06	-1.899081e-08	-1.975536e+01	-1.247381e+03
5.800000e-07	-2.653631e-06	-1.869866e-08	-1.904333e+01	-1.228267e+03
5.900000e-07	-2.553475e-06	-1.839820e-08	-1.832459e+01	-1.208329e+03
6.000000e-07	-2.452442e-06	-1.808385e-08	-1.759954e+01	-1.187546e+03
6.100000e-07	-2.350499e-06	-1.775241e-08	-1.686796e+01	-1.165891e+03
6.200000e-07	-2.247679e-06	-1.740502e-08	-1.613009e+01	-1.143322e+03
6.300000e-07	-2.144078e-06	-1.704086e-08	-1.538662e+01	-1.119776e+03
6.400000e-07	-2.039751e-06	-1.666149e-08	-1.463793e+01	-1.095167e+03
6.500000e-07	-1.934678e-06	-1.626790e-08	-1.388389e+01	-1.069392e+03
6.600000e-07	-1.828775e-06	-1.585591e-08	-1.312390e+01	-1.042337e+03
6.700000e-07	-1.722047e-06	-1.542179e-08	-1.235798e+01	-1.013884e+03
6.800000e-07	-1.614674e-06	-1.496297e-08	-1.158744e+01	-9.839231e+02
6.900000e-07	-1.506788e-06	-1.447776e-08	-1.081321e+01	-9.523520e+02
7.000000e-07	-1.398450e-06	-1.397008e-08	-1.003574e+01	-9.190794e+02
7.100000e-07	-1.289703e-06	-1.343840e-08	-9.255335e+00	-8.840200e+02
7.200000e-07	-1.180542e-06	-1.287769e-08	-8.471958e+00	-8.470896e+02
7.300000e-07	-1.070970e-06	-1.228589e-08	-7.685635e+00	-8.082024e+02
7.400000e-07	-9.610844e-07	-1.166127e-08	-6.897061e+00	-7.672739e+02
7.500000e-07	-8.509502e-07	-1.100538e-08	-6.106701e+00	-7.242304e+02
7.600000e-07	-7.405461e-07	-1.031628e-08	-5.314405e+00	-6.790260e+02
7.700000e-07	-6.298985e-07	-9.591919e-09	-4.520360e+00	-6.316636e+02
7.800000e-07	-5.190728e-07	-8.834248e-09	-3.725039e+00	-5.822152e+02
7.900000e-07	-4.081355e-07	-8.049840e-09	-2.928916e+00	-5.308354e+02
8.000000e-07	-2.970735e-07	-7.242395e-09	-2.131898e+00	-4.777629e+02
8.100000e-07	-1.858255e-07	-6.415309e-09	-1.333545e+00	-4.233054e+02
8.200000e-07	-7.445085e-08	-5.574225e-09	-5.342840e-01	-3.678085e+02
8.300000e-07	3.693935e-08	-4.721729e-09	2.650890e-01	-3.116121e+02
8.400000e-07	1.483418e-07	-3.861400e-09	1.064550e+00	-2.550010e+02
8.500000e-07	2.597348e-07	-2.994954e-09	1.863943e+00	-1.981603e+02
8.600000e-07	3.710826e-07	-2.124058e-09	2.663012e+00	-1.411439e+02
8.700000e-07	4.822893e-07	-1.248627e-09	3.461068e+00	-8.386675e+01
8.800000e-07	5.933210e-07	-3.660883e-10	4.257868e+00	-2.612212e+01
8.900000e-07	7.042120e-07	5.259925e-10	5.053659e+00	3.237467e+01
9.000000e-07	8.149185e-07	1.432791e-09	5.848125e+00	9.192353e+01
9.100000e-07	9.254022e-07	2.357825e-09	6.640993e+00	1.527679e+02
9.200000e-07	1.035619e-06	3.302905e-09	7.431942e+00	2.150267e+02
9.300000e-07	1.145507e-06	4.267796e-09	8.220536e+00	2.786436e+02
9.400000e-07	1.254952e-06	5.249491e-09	9.005949e+00	3.433611e+02
9.500000e-07	1.363973e-06	6.244671e-09	9.788321e+00	4.087271e+02
9.600000e-07	1.472625e-06	7.243918e-09	1.056805e+01	4.741315e+02
9.700000e-07	1.580824e-06	8.233557e-09	1.134452e+01	5.388670e+02
9.800000e-07	1.688471e-06	9.199104e-09	1.211703e+01	6.022030e+02
9.900000e-07	1.795361e-06	1.012682e-08	1.288411e+01	6.634615e+02
1.000000e-06	1.901469e-06	1.101152e-08	1.364557e+01	7.220808e+02
1.010000e-06	2.006876e-06	1.185235e-08	1.440201e+01	7.776590e+02
1.020000e-06	2.111452e-06	1.264613e-08	1.515248e+01	8.299725e+02
1.030000e-06	2.215097e-06	1.338986e-08	1.589627e+01	8.789681e+02
1.040000e-06	2.317888e-06	1.408316e-08	1.663394e+01	9.247351e+02
1.050000e-06	2.419858e-06	1.473103e-08	1.736571e+01	9.674632e+02
1.060000e-06	2.521009e-06	1.533731e-08	1.809160e+01	1.007397e+03
1.070000e-06	2.621409e-06	1.590695e-08	1.881210e+01	1.044796e+03
1.080000e-06	2.720908e-06	1.644210e-08	1.952614e+01	1.079899e+03
1.090000e-06	2.819334e-06	1.694416e-08	2.023248e+01	1.112913e+03
1.100000e-06	2.916706e-06	1.741593e-08	2.093125e+01	1.144004e+03
1.110000e-06	3.012916e-06	1.786004e-08	2.162169e+01	1.173303e+03
1.120000e-06	3.107941e-06	1.827729e-08	2.230361e+01	1.200921e+03
1.130000e-06	3.201933e-06	1.867101e-08	2.297813e+01	1.226959e+03
1.140000e-06	3.294966e-06	1.904505e-08	2.364577e+01	1.251516e+03
1.150000e-06	3.386967e-06	1.939969e-08	2.430600e+01	1.274699e+03
1.160000e-06	3.477753e-06	1.973573e-08	2.495751e+01	1.296617e+03
1.170000e-06	3.567248e-06	2.005294e-08	2.559975e+01	1.317378e+03
1.180000e-06	3.655352e-06	2.035353e-08	2.623202e+01	1.337086e+03
1.190000e-06	3.742167e-06	2.063767e-08	2.685504e+01	1.355828e+03
1.200000e-06	3.827785e-06	2.090717e-08	2.746945e+01	1.373674e+03
1.210000e-06	3.912149e-06	2.116454e-08	2.807488e+01	1.390679e+03
1.220000e-06	3.995251e-06	2.141042e-08	2.867125e+01	1.406883e+03
1.230000e-06	4.076951e-06	2.164556e-08	2.925755e+01	1.422316e+03
1.240000e-06	4.157073e-06	2.187004e-08	2.983253e+01	1.437007e+03
1.250000e-06	4.235595e-06	2.208328e-08	3.039603e+01	1.450988e+03
1.260000e-06	4.312628e-06	2.228548e-08	3.094885e+01	1.464293e+03
1.270000e-06	4.388033e-06	2.247766e-08	3.148998e+01	1.476964e+03
1.280000e-06	4.461662e-06	2.266066e-08	3.201836e+01	1.489045e+03
1.290000e-06	4.533511e-06	2.283386e-08	3.253398e+01	1.500576e+03
1.300000e-06	4.603685e-06	2.299893e-08	3.303757e+01	1.511594e+03
1.310000e-06	4.672289e-06	2.315921e-08	3.352989e+01	1.522127e+03
1.320000e-06	4.739212e-06	2.331432e-08	3.401016e+01	1.532192e+03
1.330000e-06	4.804305e-06	2.346363e-08	3.447729e+01	1.541795e+03
1.340000e-06	4.867668e-06	2.360528e-08	3.493200e+01	1.550939e+03
1.350000e-06	4.929441e-06	2.373833e-08	3.537530e+01	1.559619e+03
1.360000e-06	4.989581e-06	2.386288e-08	3.580689e+01	1.567835e+03
1.370000e-06	5.048015e-06	2.398085e-08	3.622623e+01	1.575591e+03
1.380000e-06	5.104548e-06	2.409371e-08	3.663193e+01	1.582898e+03
1.390000e-06	5.159113e-06	2.419975e-08	3.702350e+01	1.589776e+03
1.400000e-06	5.211717e-06	2.429828e-08	3.740101e+01	1.596254e+03
1.410000e-06	5.262203e-06	2.438936e-08	3.776332e+01	1.602363e+03
1.420000e-06	5.310535e-06	2.447524e-08	3.811016e+01	1.608138e+03
1.430000e-06	5.356922e-06	2.455797e-08	3.844305e+01	1.613610e+03
1.440000e-06	5.401547e-06	2.463810e-08	3.876329e+01	1.618806e+03
1.450000e-06	5.444355e-06	2.471561e-08	3.907050e+01	1.623745e+03
1.460000e-06	5.485107e-06	2.478938e-08	3.936295e+01	1.628436e+03
1.470000e-06	5.523902e-06	2.485909e-08	3.964136e+01	1.632878e+03
1.480000e-06	5.560987e-06	2.492328e-08	3.990749e+01	1.637065e+03
1.490000e-06	5.596179e-06	2.498175e-08	4.016004e+01	1.640986e+03
1.500000e-06	5.629199e-06	2.503535e-08	4.039700e+01	1.644628e+03
1.510000e-06	5.660172e-06	2.508639e-08	4.061927e+01	1.647981e+03
1.520000e-06	5.689330e-06	2.513487e-08	4.082852e+01	1.651038e+03
1.530000e-06	5.716590e-06	2.517855e-08	4.102415e+01	1.653800e+03
1.540000e-06	5.741653e-06	2.521722e-08	4.120401e+01	1.656272e+03
1.550000e-06	5.764492e-06	2.525063e-08	4.136791e+01	1.658462e+03
1.560000e-06	5.785390e-06	2.528064e-08	4.151788e+01	1.660385e+03
1.570000e-06	5.804362e-06	2.530685e-08	4.165403e+01	1.662051e+03
1.580000e-06	5.821151e-06	2.532968e-08	4.177451e+01	1.663472e+03
1.590000e-06	5.835680e-06	2.534876e-08	4.187877e+01	1.664657e+03
1.600000e-06	5.848069e-06	2.536277e-08	4.196768e+01	1.665611e+03
1.610000e-06	5.858201e-06	2.537240e-08	4.204039e+01	1.666339e+03
1.620000e-06	5.866031e-06	2.537999e-08	4.209658e+01	1.666848e+03
1.630000e-06	5.871773e-06	2.538650e-08	4.213779e+01	1.667146e+03
1.640000e-06	5.875512e-06	2.539197e-08	4.216462e+01	1.667242e+03
1.650000e-06	5.877139e-06	2.539620e-08	4.217630e+01	1.667148e+03
1.660000e-06	5.876653e-06	2.539566e-08	4.217281e+01	1.666876e+03
1.670000e-06	5.874269e-06	2.538746e-08	4.215571e+01	1.666433e+03
1.680000e-06	5.870046e-06	2.537416e-08	4.212540e+01	1.665822e+03
1.690000e-06	5.863791e-06	2.536081e-08	4.208051e+01	1.665035e+03
1.700000e-06	5.855557e-06	2.534792e-08	4.202142e+01	1.664060e+03
1.710000e-06	5.845536e-06	2.533431e-08	4.194950e+01	1.662876e+03
1.720000e-06	5.833608e-06	2.531894e-08	4.186391e+01	1.661465e+03
1.730000e-06	5.819475e-06	2.529444e-08	4.176248e+01	1.659812e+03
1.740000e-06	5.803341e-06	2.523513e-08	4.164670e+01	1.657916e+03
1.750000e-06	5.785263e-06	2.517306e-08	4.151697e+01	1.655788e+03
1.760000e-06	5.764602e-06	2.515389e-08	4.136870e+01	1.653459e+03
1.770000e-06	5.741078e-06	2.514129e-08	4.119988e+01	1.650969e+03
1.780000e-06	5.715260e-06	2.514225e-08	4.101460e+01	1.648364e+03
1.790000e-06	5.688042e-06	2.511968e-08	4.081928e+01	1.645686e+03
1.800000e-06	5.659908e-06	2.501354e-08	4.061738e+01	1.642960e+03
1.810000e-06	5.630245e-06	2.494661e-08	4.040451e+01	1.640189e+03
1.820000e-06	5.598218e-06	2.494100e-08	4.017467e+01	1.637350e+03
1.830000e-06	5.564239e-06	2.492430e-08	3.993083e+01	1.634393e+03
1.840000e-06	5.528533e-06	2.494009e-08	3.967459e+01	1.631250e+03
1.850000e-06	5.490605e-06	2.488054e-08	3.940240e+01	1.627848e+03
1.860000e-06	5.450609e-06	2.475450e-08	3.911538e+01	1.624118e+03
1.870000e-06	5.408784e-06	2.469954e-08	3.881523e+01	1.620012e+03
1.880000e-06	5.365205e-06	2.463356e-08	3.850249e+01	1.615507e+03
1.890000e-06	5.319816e-06	2.457647e-08	3.817677e+01	1.610610e+03
1.900000e-06	5.272267e-06	2.451522e-08	3.783553e+01	1.605354e+03
1.910000e-06	5.222586e-06	2.440874e-08	3.747901e+01	1.599785e+03
1.920000e-06	5.170812e-06	2.434976e-08	3.710746e+01	1.593957e+03
1.930000e-06	5.116854e-06	2.424709e-08	3.672024e+01	1.587912e+03
1.940000e-06	5.060944e-06	2.413329e-08	3.631901e+01	1.581673e+03
1.950000e-06	5.003179e-06	2.407256e-08	3.590447e+01	1.575244e+03
1.960000e-06	4.943683e-06	2.396483e-08	3.547751e+01	1.568603e+03
1.970000e-06	4.882399e-06	2.384650e-08	3.503772e+01	1.561715e+03
1.980000e-06	4.819169e-06	2.372326e-08	3.458396e+01	1.554539e+03
1.990000e-06	4.754124e-06	2.361450e-08	3.411717e+01	1.547039e+03
2.000000e-06	4.687386e-06	2.351554e-08	3.363824e+01	1.539190e+03
2.010000e-06	4.619116e-06	2.338656e-08	3.314831e+01	1.530984e+03
2.020000e-06	4.549037e-06	2.325628e-08	3.264540e+01	1.522426e+03
2.030000e-06	4.477083e-06	2.311140e-08	3.212903e+01	1.513531e+03
2.040000e-06	4.403597e-06	2.297328e-08	3.160167e+01	1.504313e+03
2.050000e-06	4.328560e-06	2.282609e-08	3.106318e+01	1.494781e+03
2.060000e-06	4.251771e-06	2.266840e-08	3.051212e+01	1.484928e+03
2.070000e-06	4.173232e-06	2.252616e-08	2.994849e+01	1.474736e+03
2.080000e-06	4.093179e-06	2.236639e-08	2.937401e+01	1.464174e+03
2.090000e-06	4.011713e-06	2.219830e-08	2.878939e+01	1.453206e+03
2.100000e-06	3.928910e-06	2.202482e-08	2.819516e+01	1.441800e+03
2.110000e-06	3.844891e-06	2.185016e-08	2.759221e+01	1.429931e+03
2.120000e-06	3.759418e-06	2.166481e-08	2.697883e+01	1.417589e+03
2.130000e-06	3.672412e-06	2.145944e-08	2.635445e+01	1.404774e+03
2.140000e-06	3.584116e-06	2.125244e-08	2.572080e+01	1.391492e+03
2.150000e-06	3.494618e-06	2.104578e-08	2.507854e+01	1.377748e+03
2.160000e-06	3.403935e-06	2.083568e-08	2.442777e+01	1.363540e+03
2.170000e-06	3.312189e-06	2.061483e-08	2.376937e+01	1.348848e+03
2.180000e-06	3.219306e-06	2.038874e-08	2.310281e+01	1.333636e+03
2.190000e-06	3.125078e-06	2.015049e-08	2.242659e+01	1.317854e+03
2.200000e-06	3.029577e-06	1.989747e-08	2.174125e+01	1.301442e+03
2.210000e-06	2.932995e-06	1.963651e-08	2.104814e+01	1.284341e+03
2.220000e-06	2.835396e-06	1.936590e-08	2.034774e+01	1.266499e+03
2.230000e-06	2.736789e-06	1.908162e-08	1.964011e+01	1.247874e+03
2.240000e-06	2.637304e-06	1.878172e-08	1.892617e+01	1.228437e+03
2.250000e-06	2.537010e-06	1.847365e-08	1.820643e+01	1.208169e+03
2.260000e-06	2.435687e-06	1.815579e-08	1.747930e+01	1.187045e+03
2.270000e-06	2.333203e-06	1.782400e-08	1.674384e+01	1.165036e+03
2.280000e-06	2.229714e-06	1.747862e-08	1.600117e+01	1.142090e+03
2.290000e-06	2.125381e-06	1.711630e-08	1.525244e+01	1.118137e+03
2.300000e-06	2.020319e-06	1.673343e-08	1.449848e+01	1.093082e+03
2.310000e-06	1.914615e-06	1.633034e-08	1.373991e+01	1.066817e+03
2.320000e-06	1.808337e-06	1.590812e-08	1.297723e+01	1.039225e+03
2.330000e-06	1.701512e-06	1.546618e-08	1.221061e+01	1.010191e+03
2.340000e-06	1.594173e-06	1.500215e-08	1.144031e+01	9.796077e+02
2.350000e-06	1.486369e-06	1.451202e-08	1.066668e+01	9.473773e+02
2.360000e-06	1.378102e-06	1.399462e-08	9.889718e+00	9.134115e+02
2.370000e-06	1.269435e-06	1.345031e-08	9.109884e+00	8.776259e+02
2.380000e-06	1.160400e-06	1.287630e-08	8.327413e+00	8.399357e+02
2.390000e-06	1.051016e-06	1.227095e-08	7.542438e+00	8.002551e+02
2.400000e-06	9.413427e-07	1.163353e-08	6.755388e+00	7.585021e+02
2.410000e-06	8.313325e-07	1.096270e-08	5.965918e+00	7.146116e+02
2.420000e-06	7.209525e-07	1.025789e-08	5.173795e+00	6.685544e+02
2.430000e-06	6.102755e-07	9.520156e-09	4.379540e+00	6.203583e+02
2.440000e-06	4.993881e-07	8.752290e-09	3.583775e+00	5.701266e+02
2.450000e-06	3.883074e-07	7.958247e-09	2.786623e+00	5.180477e+02
2.460000e-06	2.770846e-07	7.139836e-09	1.988451e+00	4.643901e+02
2.470000e-06	1.657775e-07	6.301934e-09	1.189674e+00	4.094810e+02
2.480000e-06	5.439856e-08	5.450719e-09	3.903821e-01	3.536694e+02
2.490000e-06	-5.702908e-08	4.590345e-09	-4.092596e-01	2.972795e+02
2.500000e-06	-1.684480e-07	3.722990e-09	-1.208839e+00	2.405616e+02
2.510000e-06	-2.798322e-07	2.851261e-09	-2.008169e+00	1.836519e+02
2.520000e-06	-3.911083e-07	1.977975e-09	-2.806723e+00	1.265494e+02
2.530000e-06	-5.021957e-07	1.099030e-09	-3.603923e+00	6.911749e+01
2.540000e-06	-6.131099e-07	2.119578e-10	-4.399880e+00	1.111242e+01
2.550000e-06	-7.237506e-07	-6.875226e-10	-5.193874e+00	-4.776472e+01
2.560000e-06	-8.340636e-07	-1.604285e-09	-5.985517e+00	-1.078003e+02
2.570000e-06	-9.440404e-07	-2.540006e-09	-6.774747e+00	-1.691962e+02
2.580000e-06	-1.053632e-06	-3.496110e-09	-7.561213e+00	-2.320075e+02
2.590000e-06	-1.162844e-06	-4.470844e-09	-8.344953e+00	-2.961000e+02
2.600000e-06	-1.271700e-06	-5.463120e-09	-9.126138e+00	-3.611374e+02
2.610000e-06	-1.380165e-06	-6.466661e-09	-9.904523e+00	-4.265995e+02
2.620000e-06	-1.488162e-06	-7.470842e-09	-1.067955e+01	-4.918297e+02
2.630000e-06	-1.595623e-06	-8.461099e-09	-1.145072e+01	-5.561025e+02
2.640000e-06	-1.702514e-06	-9.422045e-09	-1.221781e+01	-6.186993e+02
2.650000e-06	-1.808874e-06	-1.034349e-08	-1.298108e+01	-6.789811e+02
2.660000e-06	-1.914653e-06	-1.121911e-08	-1.374018e+01	-7.364451e+02
2.670000e-06	-2.019714e-06	-1.204754e-08	-1.449414e+01	-7.907589e+02
2.680000e-06	-2.123992e-06	-1.282671e-08	-1.524247e+01	-8.417679e+02
2.690000e-06	-2.227406e-06	-1.355753e-08	-1.598461e+01	-8.894792e+02
2.700000e-06	-2.329929e-06	-1.424183e-08	-1.672034e+01	-9.340269e+02
2.710000e-06	-2.431565e-06	-1.488245e-08	-1.744972e+01	-9.756279e+02
2.720000e-06	-2.532230e-06	-1.548315e-08	-1.817212e+01	-1.014537e+03
2.730000e-06	-2.631918e-06	-1.604663e-08	-1.888752e+01	-1.051008e+03
2.740000e-06	-2.730719e-06	-1.657426e-08	-1.959655e+01	-1.085270e+03
2.750000e-06	-2.828536e-06	-1.706617e-08	-2.029852e+01	-1.117512e+03
2.760000e-06	-2.925422e-06	-1.752678e-08	-2.099380e+01	-1.147885e+03
2.770000e-06	-3.021478e-06	-1.796052e-08	-2.168313e+01	-1.176513e+03
2.780000e-06	-3.116502e-06	-1.836987e-08	-2.236506e+01	-1.203500e+03
2.790000e-06	-3.210363e-06	-1.875846e-08	-2.303863e+01	-1.228945e+03
2.800000e-06	-3.303009e-06	-1.912753e-08	-2.370349e+01	-1.252951e+03
2.810000e-06	-3.394400e-06	-1.947609e-08	-2.435934e+01	-1.275624e+03
2.820000e-06	-3.484556e-06	-1.980405e-08	-2.500633e+01	-1.297077e+03
2.830000e-06	-3.573539e-06	-2.011567e-08	-2.564490e+01	-1.317414e+03
2.840000e-06	-3.661354e-06	-2.041487e-08	-2.627509e+01	-1.336734e+03
2.850000e-06	-3.747909e-06	-2.069894e-08	-2.689624e+01	-1.355118e+03
2.860000e-06	-3.833027e-06	-2.096568e-08	-2.750708e+01	-1.372629e+03
2.870000e-06	-3.916688e-06	-2.121721e-08	-2.810746e+01	-1.389317e+03
2.880000e-06	-3.999026e-06	-2.145705e-08	-2.869834e+01	-1.405215e+03
2.890000e-06	-4.080029e-06	-2.168753e-08	-2.927964e+01	-1.420355e+03
2.900000e-06	-4.159511e-06	-2.190829e-08	-2.985003e+01	-1.434764e+03
2.910000e-06	-4.237294e-06	-2.211990e-08	-3.040823e+01	-1.448476e+03
2.920000e-06	-4.313353e-06	-2.232187e-08	-3.095405e+01	-1.461529e+03
2.930000e-06	-4.387776e-06	-2.251507e-08	-3.148814e+01	-1.473964e+03
2.940000e-06	-4.460606e-06	-2.269961e-08	-3.201079e+01	-1.485825e+03
