# Temperatura_=_46.09
# Concentracion g/m^3_=_28200.0
# C_Vs_to_Am_M_A/Vsm_=_65563218390.804596
# pendiente_HvsI_1/m_=_3716.3
# ordenada_HvsI_A/m_=_1297.0
# frecuencia_Hz_=_301952.2805500572

Tiempo_(s)	Campo_(V.s)	Magnetizacion_(V.s)	Campo_(kA/m)	Magnetizacion_(A/m)
0.000000e+00	-5.850295e-06	-1.936978e-08	-4.194626e+01	-1.268044e+03
1.000000e-08	-5.848636e-06	-1.936848e-08	-4.193437e+01	-1.267782e+03
2.000000e-08	-5.844942e-06	-1.936179e-08	-4.190788e+01	-1.267404e+03
3.000000e-08	-5.839397e-06	-1.935068e-08	-4.186813e+01	-1.266898e+03
4.000000e-08	-5.832064e-06	-1.933965e-08	-4.181555e+01	-1.266249e+03
5.000000e-08	-5.822797e-06	-1.932436e-08	-4.174910e+01	-1.265438e+03
6.000000e-08	-5.811354e-06	-1.930765e-08	-4.166706e+01	-1.264452e+03
7.000000e-08	-5.797820e-06	-1.929084e-08	-4.157002e+01	-1.263287e+03
8.000000e-08	-5.782204e-06	-1.927388e-08	-4.145806e+01	-1.261948e+03
9.000000e-08	-5.764458e-06	-1.927471e-08	-4.133082e+01	-1.260452e+03
1.000000e-07	-5.744631e-06	-1.927356e-08	-4.118866e+01	-1.258824e+03
1.100000e-07	-5.722626e-06	-1.922389e-08	-4.103089e+01	-1.257094e+03
1.200000e-07	-5.698390e-06	-1.917091e-08	-4.085712e+01	-1.255287e+03
1.300000e-07	-5.672003e-06	-1.913085e-08	-4.066792e+01	-1.253419e+03
1.400000e-07	-5.643881e-06	-1.904836e-08	-4.046629e+01	-1.251495e+03
1.500000e-07	-5.614365e-06	-1.903421e-08	-4.025466e+01	-1.249502e+03
1.600000e-07	-5.583241e-06	-1.908956e-08	-4.003150e+01	-1.247417e+03
1.700000e-07	-5.550245e-06	-1.900177e-08	-3.979492e+01	-1.245204e+03
1.800000e-07	-5.515404e-06	-1.897287e-08	-3.954512e+01	-1.242825e+03
1.900000e-07	-5.478645e-06	-1.896564e-08	-3.928155e+01	-1.240246e+03
2.000000e-07	-5.439937e-06	-1.883945e-08	-3.900402e+01	-1.237439e+03
2.100000e-07	-5.399406e-06	-1.881340e-08	-3.871342e+01	-1.234390e+03
2.200000e-07	-5.356856e-06	-1.878552e-08	-3.840834e+01	-1.231100e+03
2.300000e-07	-5.312216e-06	-1.871539e-08	-3.808827e+01	-1.227580e+03
2.400000e-07	-5.265515e-06	-1.867439e-08	-3.775343e+01	-1.223849e+03
2.500000e-07	-5.216584e-06	-1.861065e-08	-3.740260e+01	-1.219929e+03
2.600000e-07	-5.165313e-06	-1.855433e-08	-3.703499e+01	-1.215840e+03
2.700000e-07	-5.111882e-06	-1.848543e-08	-3.665189e+01	-1.211593e+03
2.800000e-07	-5.056641e-06	-1.839810e-08	-3.625581e+01	-1.207192e+03
2.900000e-07	-4.999530e-06	-1.834534e-08	-3.584633e+01	-1.202630e+03
3.000000e-07	-4.940448e-06	-1.827640e-08	-3.542271e+01	-1.197893e+03
3.100000e-07	-4.879544e-06	-1.819760e-08	-3.498604e+01	-1.192961e+03
3.200000e-07	-4.816893e-06	-1.811238e-08	-3.453683e+01	-1.187815e+03
3.300000e-07	-4.752511e-06	-1.802737e-08	-3.407522e+01	-1.182439e+03
3.400000e-07	-4.686278e-06	-1.793940e-08	-3.360033e+01	-1.176820e+03
3.500000e-07	-4.618246e-06	-1.784275e-08	-3.311255e+01	-1.170952e+03
3.600000e-07	-4.548603e-06	-1.775726e-08	-3.261321e+01	-1.164831e+03
3.700000e-07	-4.477360e-06	-1.765825e-08	-3.210241e+01	-1.158456e+03
3.800000e-07	-4.404548e-06	-1.756226e-08	-3.158034e+01	-1.151826e+03
3.900000e-07	-4.330008e-06	-1.745277e-08	-3.104590e+01	-1.144936e+03
4.000000e-07	-4.253603e-06	-1.732971e-08	-3.049808e+01	-1.137777e+03
4.100000e-07	-4.175469e-06	-1.722046e-08	-2.993786e+01	-1.130337e+03
4.200000e-07	-4.095765e-06	-1.710733e-08	-2.936639e+01	-1.122601e+03
4.300000e-07	-4.014616e-06	-1.698518e-08	-2.878455e+01	-1.114551e+03
4.400000e-07	-3.932125e-06	-1.685368e-08	-2.819310e+01	-1.106172e+03
4.500000e-07	-3.848378e-06	-1.672172e-08	-2.759264e+01	-1.097451e+03
4.600000e-07	-3.763394e-06	-1.658671e-08	-2.698331e+01	-1.088378e+03
4.700000e-07	-3.677241e-06	-1.644122e-08	-2.636560e+01	-1.078944e+03
4.800000e-07	-3.589915e-06	-1.628787e-08	-2.573948e+01	-1.069145e+03
4.900000e-07	-3.501342e-06	-1.612928e-08	-2.510441e+01	-1.058970e+03
5.000000e-07	-3.411376e-06	-1.596483e-08	-2.445936e+01	-1.048408e+03
5.100000e-07	-3.320002e-06	-1.579236e-08	-2.380422e+01	-1.037442e+03
5.200000e-07	-3.227451e-06	-1.561567e-08	-2.314063e+01	-1.026047e+03
5.300000e-07	-3.133813e-06	-1.543450e-08	-2.246925e+01	-1.014193e+03
5.400000e-07	-3.039070e-06	-1.524680e-08	-2.178995e+01	-1.001845e+03
5.500000e-07	-2.943202e-06	-1.505109e-08	-2.110259e+01	-9.889673e+02
5.600000e-07	-2.846234e-06	-1.484574e-08	-2.040733e+01	-9.755226e+02
5.700000e-07	-2.748035e-06	-1.463053e-08	-1.970325e+01	-9.614762e+02
5.800000e-07	-2.648666e-06	-1.440615e-08	-1.899078e+01	-9.467958e+02
5.900000e-07	-2.548326e-06	-1.416788e-08	-1.827135e+01	-9.314509e+02
6.000000e-07	-2.447086e-06	-1.391588e-08	-1.754546e+01	-9.154111e+02
6.100000e-07	-2.345021e-06	-1.365543e-08	-1.681366e+01	-8.986440e+02
6.200000e-07	-2.242081e-06	-1.339047e-08	-1.607559e+01	-8.811120e+02
6.300000e-07	-2.138272e-06	-1.311633e-08	-1.533128e+01	-8.627706e+02
6.400000e-07	-2.033713e-06	-1.282720e-08	-1.458160e+01	-8.435665e+02
6.500000e-07	-1.928434e-06	-1.252006e-08	-1.382676e+01	-8.234375e+02
6.600000e-07	-1.822387e-06	-1.219543e-08	-1.306641e+01	-8.023132e+02
6.700000e-07	-1.715545e-06	-1.185450e-08	-1.230035e+01	-7.801161e+02
6.800000e-07	-1.608012e-06	-1.149560e-08	-1.152935e+01	-7.567640e+02
6.900000e-07	-1.499989e-06	-1.111827e-08	-1.075483e+01	-7.321720e+02
7.000000e-07	-1.391530e-06	-1.072095e-08	-9.977186e+00	-7.062552e+02
7.100000e-07	-1.282618e-06	-1.030158e-08	-9.196297e+00	-6.789320e+02
7.200000e-07	-1.173317e-06	-9.859248e-09	-8.412609e+00	-6.501285e+02
7.300000e-07	-1.063675e-06	-9.397279e-09	-7.626488e+00	-6.197835e+02
7.400000e-07	-9.537215e-07	-8.915555e-09	-6.838126e+00	-5.878561e+02
7.500000e-07	-8.435001e-07	-8.408630e-09	-6.047845e+00	-5.543337e+02
7.600000e-07	-7.330070e-07	-7.874822e-09	-5.255616e+00	-5.192403e+02
7.700000e-07	-6.222810e-07	-7.315875e-09	-4.461718e+00	-4.826442e+02
7.800000e-07	-5.113397e-07	-6.735398e-09	-3.666275e+00	-4.446624e+02
7.900000e-07	-4.002031e-07	-6.136317e-09	-2.869433e+00	-4.054594e+02
8.000000e-07	-2.889452e-07	-5.523365e-09	-2.071720e+00	-3.652407e+02
8.100000e-07	-1.775676e-07	-4.898674e-09	-1.273149e+00	-3.242387e+02
8.200000e-07	-6.606172e-08	-4.266346e-09	-4.736586e-01	-2.826917e+02
8.300000e-07	4.552807e-08	-3.631509e-09	3.264336e-01	-2.408196e+02
8.400000e-07	1.571300e-07	-2.994356e-09	1.126613e+00	-1.987979e+02
8.500000e-07	2.686613e-07	-2.354883e-09	1.926285e+00	-1.567354e+02
8.600000e-07	3.800614e-07	-1.711483e-09	2.725017e+00	-1.146590e+02
8.700000e-07	4.913333e-07	-1.066790e-09	3.522830e+00	-7.250972e+01
8.800000e-07	6.024597e-07	-4.198230e-10	4.319600e+00	-3.015224e+01
8.900000e-07	7.133959e-07	2.334363e-10	5.115006e+00	1.260306e+01
9.000000e-07	8.240985e-07	8.944880e-10	5.908737e+00	5.596669e+01
9.100000e-07	9.345606e-07	1.563994e-09	6.700744e+00	1.001303e+02
9.200000e-07	1.044807e-06	2.246812e-09	7.491203e+00	1.452265e+02
9.300000e-07	1.154743e-06	2.945520e-09	8.279441e+00	1.912939e+02
9.400000e-07	1.264260e-06	3.657604e-09	9.064670e+00	2.382536e+02
9.500000e-07	1.373286e-06	4.381999e-09	9.846377e+00	2.859019e+02
9.600000e-07	1.481864e-06	5.115340e-09	1.062488e+01	3.339188e+02
9.700000e-07	1.590062e-06	5.849666e-09	1.140065e+01	3.818931e+02
9.800000e-07	1.697746e-06	6.575090e-09	1.217274e+01	4.293596e+02
9.900000e-07	1.804774e-06	7.281740e-09	1.294012e+01	4.758430e+02
1.000000e-06	1.911026e-06	7.964605e-09	1.370194e+01	5.209012e+02
1.010000e-06	2.016453e-06	8.620899e-09	1.445785e+01	5.641627e+02
1.020000e-06	2.121071e-06	9.245589e-09	1.520795e+01	6.053532e+02
1.030000e-06	2.224775e-06	9.836524e-09	1.595151e+01	6.443070e+02
1.040000e-06	2.327577e-06	1.039242e-08	1.668859e+01	6.809657e+02
1.050000e-06	2.429626e-06	1.091380e-08	1.742027e+01	7.153631e+02
1.060000e-06	2.530810e-06	1.140170e-08	1.814576e+01	7.476023e+02
1.070000e-06	2.631146e-06	1.185855e-08	1.886516e+01	7.778297e+02
1.080000e-06	2.730692e-06	1.229063e-08	1.957890e+01	8.062089e+02
1.090000e-06	2.829250e-06	1.269932e-08	2.028555e+01	8.329003e+02
1.100000e-06	2.926671e-06	1.308486e-08	2.098406e+01	8.580475e+02
1.110000e-06	3.022845e-06	1.344712e-08	2.167362e+01	8.817709e+02
1.120000e-06	3.117873e-06	1.378825e-08	2.235497e+01	9.041692e+02
1.130000e-06	3.211866e-06	1.410952e-08	2.302889e+01	9.253237e+02
1.140000e-06	3.304787e-06	1.441463e-08	2.369513e+01	9.453058e+02
1.150000e-06	3.396711e-06	1.470256e-08	2.435421e+01	9.641835e+02
1.160000e-06	3.487588e-06	1.497233e-08	2.500580e+01	9.820256e+02
1.170000e-06	3.577161e-06	1.522668e-08	2.564803e+01	9.989028e+02
1.180000e-06	3.665330e-06	1.546831e-08	2.628019e+01	1.014887e+03
1.190000e-06	3.752184e-06	1.570064e-08	2.690294e+01	1.030047e+03
1.200000e-06	3.837728e-06	1.592184e-08	2.751628e+01	1.044447e+03
1.210000e-06	3.922052e-06	1.613074e-08	2.812087e+01	1.058141e+03
1.220000e-06	4.005166e-06	1.632798e-08	2.871680e+01	1.071173e+03
1.230000e-06	4.086802e-06	1.651461e-08	2.930212e+01	1.083579e+03
1.240000e-06	4.166842e-06	1.669128e-08	2.987601e+01	1.095387e+03
1.250000e-06	4.245379e-06	1.685949e-08	3.043911e+01	1.106620e+03
1.260000e-06	4.322424e-06	1.702021e-08	3.099152e+01	1.117300e+03
1.270000e-06	4.397826e-06	1.717503e-08	3.153215e+01	1.127449e+03
1.280000e-06	4.471398e-06	1.732391e-08	3.205966e+01	1.137087e+03
1.290000e-06	4.543168e-06	1.746603e-08	3.257424e+01	1.146238e+03
1.300000e-06	4.613281e-06	1.759932e-08	3.307695e+01	1.154921e+03
1.310000e-06	4.681786e-06	1.772591e-08	3.356813e+01	1.163156e+03
1.320000e-06	4.748671e-06	1.784579e-08	3.404768e+01	1.170957e+03
1.330000e-06	4.813742e-06	1.795768e-08	3.451424e+01	1.178340e+03
1.340000e-06	4.877001e-06	1.806128e-08	3.496781e+01	1.185318e+03
1.350000e-06	4.938642e-06	1.815781e-08	3.540977e+01	1.191907e+03
1.360000e-06	4.998663e-06	1.825200e-08	3.584011e+01	1.198127e+03
1.370000e-06	5.056977e-06	1.834313e-08	3.625822e+01	1.204002e+03
1.380000e-06	5.113368e-06	1.842806e-08	3.666254e+01	1.209561e+03
1.390000e-06	5.167847e-06	1.850971e-08	3.705316e+01	1.214836e+03
1.400000e-06	5.220510e-06	1.858802e-08	3.743075e+01	1.219856e+03
1.410000e-06	5.271013e-06	1.866276e-08	3.779285e+01	1.224646e+03
1.420000e-06	5.319238e-06	1.873251e-08	3.813862e+01	1.229224e+03
1.430000e-06	5.365464e-06	1.879869e-08	3.847006e+01	1.233596e+03
1.440000e-06	5.409950e-06	1.886143e-08	3.878902e+01	1.237757e+03
1.450000e-06	5.452693e-06	1.891950e-08	3.909549e+01	1.241695e+03
1.460000e-06	5.493431e-06	1.897510e-08	3.938757e+01	1.245394e+03
1.470000e-06	5.532116e-06	1.902779e-08	3.966494e+01	1.248837e+03
1.480000e-06	5.568983e-06	1.907686e-08	3.992928e+01	1.252014e+03
1.490000e-06	5.604030e-06	1.911989e-08	4.018056e+01	1.254923e+03
1.500000e-06	5.636932e-06	1.915850e-08	4.041647e+01	1.257571e+03
1.510000e-06	5.667738e-06	1.919498e-08	4.063734e+01	1.259975e+03
1.520000e-06	5.696713e-06	1.922996e-08	4.084509e+01	1.262157e+03
1.530000e-06	5.723821e-06	1.926166e-08	4.103946e+01	1.264138e+03
1.540000e-06	5.748764e-06	1.928878e-08	4.121829e+01	1.265939e+03
1.550000e-06	5.771474e-06	1.931066e-08	4.138112e+01	1.267570e+03
1.560000e-06	5.792217e-06	1.933099e-08	4.152985e+01	1.269036e+03
1.570000e-06	5.811004e-06	1.935149e-08	4.166455e+01	1.270334e+03
1.580000e-06	5.827603e-06	1.936943e-08	4.178357e+01	1.271454e+03
1.590000e-06	5.842003e-06	1.938397e-08	4.188681e+01	1.272388e+03
1.600000e-06	5.854295e-06	1.939504e-08	4.197494e+01	1.273131e+03
1.610000e-06	5.864222e-06	1.940448e-08	4.204612e+01	1.273683e+03
1.620000e-06	5.871806e-06	1.941183e-08	4.210050e+01	1.274054e+03
1.630000e-06	5.877346e-06	1.941708e-08	4.214022e+01	1.274258e+03
1.640000e-06	5.880933e-06	1.942123e-08	4.216593e+01	1.274315e+03
1.650000e-06	5.882378e-06	1.942469e-08	4.217630e+01	1.274240e+03
1.660000e-06	5.881662e-06	1.942319e-08	4.217117e+01	1.274047e+03
1.670000e-06	5.879072e-06	1.941382e-08	4.215260e+01	1.273739e+03
1.680000e-06	5.874690e-06	1.940395e-08	4.212117e+01	1.273311e+03
1.690000e-06	5.868308e-06	1.939603e-08	4.207542e+01	1.272750e+03
1.700000e-06	5.859931e-06	1.938721e-08	4.201535e+01	1.272038e+03
1.710000e-06	5.849771e-06	1.937772e-08	4.194251e+01	1.271159e+03
1.720000e-06	5.837690e-06	1.936983e-08	4.185589e+01	1.270102e+03
1.730000e-06	5.823473e-06	1.935728e-08	4.175395e+01	1.268866e+03
1.740000e-06	5.807237e-06	1.930633e-08	4.163754e+01	1.267462e+03
1.750000e-06	5.788943e-06	1.924768e-08	4.150638e+01	1.265910e+03
1.760000e-06	5.768054e-06	1.924591e-08	4.135660e+01	1.264238e+03
1.770000e-06	5.744349e-06	1.923967e-08	4.118664e+01	1.262474e+03
1.780000e-06	5.718409e-06	1.924408e-08	4.100065e+01	1.260640e+03
1.790000e-06	5.691079e-06	1.927207e-08	4.080470e+01	1.258750e+03
1.800000e-06	5.662854e-06	1.915517e-08	4.060233e+01	1.256800e+03
1.810000e-06	5.633084e-06	1.908607e-08	4.038888e+01	1.254774e+03
1.820000e-06	5.600880e-06	1.911188e-08	4.015797e+01	1.252642e+03
1.830000e-06	5.566699e-06	1.904108e-08	3.991290e+01	1.250368e+03
1.840000e-06	5.530776e-06	1.906005e-08	3.965533e+01	1.247913e+03
1.850000e-06	5.492657e-06	1.903421e-08	3.938202e+01	1.245246e+03
1.860000e-06	5.452484e-06	1.890709e-08	3.909399e+01	1.242344e+03
1.870000e-06	5.410403e-06	1.890431e-08	3.879226e+01	1.239199e+03
1.880000e-06	5.366620e-06	1.884404e-08	3.847835e+01	1.235816e+03
1.890000e-06	5.321119e-06	1.877041e-08	3.815210e+01	1.232209e+03
1.900000e-06	5.273394e-06	1.872392e-08	3.780992e+01	1.228400e+03
1.910000e-06	5.223554e-06	1.862705e-08	3.745257e+01	1.224411e+03
1.920000e-06	5.171630e-06	1.863110e-08	3.708028e+01	1.220258e+03
1.930000e-06	5.117526e-06	1.855616e-08	3.669236e+01	1.215950e+03
1.940000e-06	5.061491e-06	1.844995e-08	3.629059e+01	1.211486e+03
1.950000e-06	5.003570e-06	1.841631e-08	3.587530e+01	1.206857e+03
1.960000e-06	4.943892e-06	1.832015e-08	3.544741e+01	1.202044e+03
1.970000e-06	4.882410e-06	1.825144e-08	3.500659e+01	1.197030e+03
1.980000e-06	4.818961e-06	1.815935e-08	3.455166e+01	1.191794e+03
1.990000e-06	4.753712e-06	1.808458e-08	3.408383e+01	1.186323e+03
2.000000e-06	4.686828e-06	1.802831e-08	3.360428e+01	1.180606e+03
2.010000e-06	4.618337e-06	1.790723e-08	3.311320e+01	1.174637e+03
2.020000e-06	4.547990e-06	1.781330e-08	3.260881e+01	1.168415e+03
2.030000e-06	4.475842e-06	1.771224e-08	3.209152e+01	1.161940e+03
2.040000e-06	4.402159e-06	1.762933e-08	3.156322e+01	1.155207e+03
2.050000e-06	4.326880e-06	1.753041e-08	3.102347e+01	1.148212e+03
2.060000e-06	4.249864e-06	1.740055e-08	3.047127e+01	1.140944e+03
2.070000e-06	4.171080e-06	1.729461e-08	2.990640e+01	1.133389e+03
2.080000e-06	4.090810e-06	1.716573e-08	2.933087e+01	1.125531e+03
2.090000e-06	4.009220e-06	1.704135e-08	2.874587e+01	1.117352e+03
2.100000e-06	3.926288e-06	1.691001e-08	2.815125e+01	1.108839e+03
2.110000e-06	3.842046e-06	1.678039e-08	2.754724e+01	1.099980e+03
2.120000e-06	3.756382e-06	1.664763e-08	2.693303e+01	1.090765e+03
2.130000e-06	3.669263e-06	1.649504e-08	2.630839e+01	1.081188e+03
2.140000e-06	3.580855e-06	1.634728e-08	2.567452e+01	1.071241e+03
2.150000e-06	3.491240e-06	1.619237e-08	2.503198e+01	1.060915e+03
2.160000e-06	3.400426e-06	1.603655e-08	2.438085e+01	1.050196e+03
2.170000e-06	3.308465e-06	1.586866e-08	2.372149e+01	1.039063e+03
2.180000e-06	3.215341e-06	1.569278e-08	2.305380e+01	1.027491e+03
2.190000e-06	3.120942e-06	1.550918e-08	2.237697e+01	1.015446e+03
2.200000e-06	3.025276e-06	1.531823e-08	2.169105e+01	1.002894e+03
2.210000e-06	2.928500e-06	1.512089e-08	2.099717e+01	9.897966e+02
2.220000e-06	2.830754e-06	1.491253e-08	2.029634e+01	9.761187e+02
2.230000e-06	2.732039e-06	1.469701e-08	1.958856e+01	9.618260e+02
2.240000e-06	2.632357e-06	1.447365e-08	1.887384e+01	9.468872e+02
2.250000e-06	2.531749e-06	1.424211e-08	1.815249e+01	9.312721e+02
2.260000e-06	2.430206e-06	1.399287e-08	1.742443e+01	9.149498e+02
2.270000e-06	2.327650e-06	1.372813e-08	1.668911e+01	8.978861e+02
2.280000e-06	2.224055e-06	1.345346e-08	1.594634e+01	8.800410e+02
2.290000e-06	2.119612e-06	1.316972e-08	1.519749e+01	8.613665e+02
2.300000e-06	2.014425e-06	1.287433e-08	1.444331e+01	8.418061e+02
2.310000e-06	1.908563e-06	1.256461e-08	1.368428e+01	8.212940e+02
2.320000e-06	1.802165e-06	1.223835e-08	1.292141e+01	7.997569e+02
2.330000e-06	1.695278e-06	1.189140e-08	1.215504e+01	7.771151e+02
2.340000e-06	1.587840e-06	1.152508e-08	1.138472e+01	7.532852e+02
2.350000e-06	1.479863e-06	1.114250e-08	1.061053e+01	7.281818e+02
2.360000e-06	1.371445e-06	1.074404e-08	9.833179e+00	7.017210e+02
2.370000e-06	1.262658e-06	1.032363e-08	9.053181e+00	6.738236e+02
2.380000e-06	1.153557e-06	9.876652e-09	8.270933e+00	6.444199e+02
2.390000e-06	1.044098e-06	9.403539e-09	7.486120e+00	6.134559e+02
2.400000e-06	9.342274e-07	8.904530e-09	6.698355e+00	5.809006e+02
2.410000e-06	8.239935e-07	8.381759e-09	5.907984e+00	5.467549e+02
2.420000e-06	7.134420e-07	7.835408e-09	5.115337e+00	5.110595e+02
2.430000e-06	6.026239e-07	7.266612e-09	4.320777e+00	4.739015e+02
2.440000e-06	4.916492e-07	6.678867e-09	3.525096e+00	4.354168e+02
2.450000e-06	3.804841e-07	6.073563e-09	2.728048e+00	3.957875e+02
2.460000e-06	2.691127e-07	5.453252e-09	1.929522e+00	3.552317e+02
2.470000e-06	1.576509e-07	4.821875e-09	1.130347e+00	3.139866e+02
2.480000e-06	4.610464e-08	4.184765e-09	3.305675e-01	2.722867e+02
2.490000e-06	-6.547746e-08	3.544091e-09	-4.694695e-01	2.303372e+02
2.500000e-06	-1.770229e-07	2.900657e-09	-1.269244e+00	1.882899e+02
2.510000e-06	-2.884577e-07	2.258267e-09	-2.068225e+00	1.462226e+02
2.520000e-06	-3.997480e-07	1.617634e-09	-2.866169e+00	1.041283e+02
2.530000e-06	-5.109391e-07	9.744267e-10	-3.663403e+00	6.191606e+01
2.540000e-06	-6.219785e-07	3.239065e-10	-4.459549e+00	1.942598e+01
2.550000e-06	-7.327582e-07	-3.360271e-10	-5.253833e+00	-2.354424e+01
2.560000e-06	-8.431892e-07	-1.007258e-09	-6.045616e+00	-6.720262e+01
2.570000e-06	-9.532466e-07	-1.690573e-09	-6.834721e+00	-1.117223e+02
2.580000e-06	-1.062940e-06	-2.386895e-09	-7.621216e+00	-1.572024e+02
2.590000e-06	-1.172259e-06	-3.094205e-09	-8.405025e+00	-2.036376e+02
2.600000e-06	-1.281207e-06	-3.812678e-09	-9.186179e+00	-2.508999e+02
2.610000e-06	-1.389761e-06	-4.542890e-09	-9.964505e+00	-2.987378e+02
2.620000e-06	-1.497847e-06	-5.279460e-09	-1.073947e+01	-3.467918e+02
2.630000e-06	-1.605380e-06	-6.014513e-09	-1.151048e+01	-3.946246e+02
2.640000e-06	-1.712391e-06	-6.736330e-09	-1.227774e+01	-4.417616e+02
2.650000e-06	-1.818901e-06	-7.438099e-09	-1.304141e+01	-4.877355e+02
2.660000e-06	-1.924738e-06	-8.115936e-09	-1.380026e+01	-5.321281e+02
2.670000e-06	-2.029843e-06	-8.765435e-09	-1.455385e+01	-5.746038e+02
2.680000e-06	-2.134234e-06	-9.383917e-09	-1.530233e+01	-6.149301e+02
2.690000e-06	-2.237782e-06	-9.969006e-09	-1.604476e+01	-6.529847e+02
2.700000e-06	-2.340373e-06	-1.052033e-08	-1.678034e+01	-6.887474e+02
2.710000e-06	-2.441972e-06	-1.103559e-08	-1.750879e+01	-7.222826e+02
2.720000e-06	-2.542586e-06	-1.151606e-08	-1.823019e+01	-7.537134e+02
2.730000e-06	-2.642258e-06	-1.196758e-08	-1.894483e+01	-7.831959e+02
2.740000e-06	-2.741054e-06	-1.239159e-08	-1.965319e+01	-8.108946e+02
2.750000e-06	-2.838929e-06	-1.279000e-08	-2.035495e+01	-8.369643e+02
2.760000e-06	-2.935906e-06	-1.316685e-08	-2.105027e+01	-8.615400e+02
2.770000e-06	-3.031955e-06	-1.352205e-08	-2.173894e+01	-8.847331e+02
2.780000e-06	-3.126939e-06	-1.385548e-08	-2.241997e+01	-9.066346e+02
2.790000e-06	-3.220732e-06	-1.416898e-08	-2.309246e+01	-9.273213e+02
2.800000e-06	-3.313295e-06	-1.446663e-08	-2.375612e+01	-9.468624e+02
2.810000e-06	-3.404662e-06	-1.474925e-08	-2.441122e+01	-9.653258e+02
2.820000e-06	-3.494766e-06	-1.501475e-08	-2.505726e+01	-9.827812e+02
2.830000e-06	-3.583693e-06	-1.526451e-08	-2.569486e+01	-9.993000e+02
2.840000e-06	-3.671487e-06	-1.550277e-08	-2.632435e+01	-1.014953e+03
2.850000e-06	-3.757975e-06	-1.573220e-08	-2.694445e+01	-1.029809e+03
2.860000e-06	-3.843012e-06	-1.595185e-08	-2.755416e+01	-1.043926e+03
2.870000e-06	-3.926631e-06	-1.616152e-08	-2.815371e+01	-1.057356e+03
2.880000e-06	-4.008945e-06	-1.636091e-08	-2.874390e+01	-1.070139e+03
2.890000e-06	-4.089904e-06	-1.654808e-08	-2.932437e+01	-1.082308e+03
2.900000e-06	-4.169330e-06	-1.672170e-08	-2.989385e+01	-1.093889e+03
2.910000e-06	-4.247036e-06	-1.688637e-08	-3.045099e+01	-1.104903e+03
2.920000e-06	-4.323020e-06	-1.704463e-08	-3.099579e+01	-1.115373e+03
2.930000e-06	-4.397402e-06	-1.719605e-08	-3.152911e+01	-1.125319e+03
2.940000e-06	-4.470158e-06	-1.733993e-08	-3.205077e+01	-1.134765e+03
