# Temperatura_=_62.91
# Concentracion g/m^3_=_28200.0
# C_Vs_to_Am_M_A/Vsm_=_65563218390.804596
# pendiente_HvsI_1/m_=_3716.3
# ordenada_HvsI_A/m_=_1297.0
# frecuencia_Hz_=_301950.1080906117

Tiempo_(s)	Campo_(V.s)	Magnetizacion_(V.s)	Campo_(kA/m)	Magnetizacion_(A/m)
0.000000e+00	-5.819776e-06	-2.083680e-08	-4.194261e+01	-1.365228e+03
1.000000e-08	-5.818240e-06	-2.083640e-08	-4.193155e+01	-1.364991e+03
2.000000e-08	-5.814675e-06	-2.082943e-08	-4.190585e+01	-1.364607e+03
3.000000e-08	-5.809299e-06	-2.081829e-08	-4.186711e+01	-1.364062e+03
4.000000e-08	-5.802198e-06	-2.080728e-08	-4.181593e+01	-1.363345e+03
5.000000e-08	-5.793213e-06	-2.079154e-08	-4.175118e+01	-1.362446e+03
6.000000e-08	-5.782030e-06	-2.077457e-08	-4.167059e+01	-1.361365e+03
7.000000e-08	-5.768740e-06	-2.075449e-08	-4.157480e+01	-1.360105e+03
8.000000e-08	-5.753349e-06	-2.073201e-08	-4.146388e+01	-1.358677e+03
9.000000e-08	-5.735838e-06	-2.074014e-08	-4.133768e+01	-1.357096e+03
1.000000e-07	-5.716305e-06	-2.073296e-08	-4.119691e+01	-1.355373e+03
1.100000e-07	-5.694584e-06	-2.068037e-08	-4.104037e+01	-1.353519e+03
1.200000e-07	-5.670571e-06	-2.063267e-08	-4.086731e+01	-1.351537e+03
1.300000e-07	-5.644456e-06	-2.058630e-08	-4.067910e+01	-1.349426e+03
1.400000e-07	-5.616666e-06	-2.049726e-08	-4.047882e+01	-1.347177e+03
1.500000e-07	-5.587429e-06	-2.051562e-08	-4.026811e+01	-1.344778e+03
1.600000e-07	-5.556630e-06	-2.053034e-08	-4.004615e+01	-1.342213e+03
1.700000e-07	-5.524088e-06	-2.041728e-08	-3.981162e+01	-1.339468e+03
1.800000e-07	-5.489641e-06	-2.042374e-08	-3.956336e+01	-1.336531e+03
1.900000e-07	-5.453200e-06	-2.036529e-08	-3.930074e+01	-1.333395e+03
2.000000e-07	-5.414805e-06	-2.025213e-08	-3.902403e+01	-1.330054e+03
2.100000e-07	-5.374577e-06	-2.025546e-08	-3.873410e+01	-1.326511e+03
2.200000e-07	-5.332352e-06	-2.019491e-08	-3.842979e+01	-1.322768e+03
2.300000e-07	-5.288021e-06	-2.014038e-08	-3.811031e+01	-1.318829e+03
2.400000e-07	-5.241687e-06	-2.009376e-08	-3.777638e+01	-1.314701e+03
2.500000e-07	-5.193201e-06	-1.998752e-08	-3.742694e+01	-1.310386e+03
2.600000e-07	-5.142353e-06	-1.993181e-08	-3.706049e+01	-1.305886e+03
2.700000e-07	-5.089227e-06	-1.985429e-08	-3.667762e+01	-1.301201e+03
2.800000e-07	-5.034255e-06	-1.976603e-08	-3.628144e+01	-1.296325e+03
2.900000e-07	-4.977509e-06	-1.971037e-08	-3.587247e+01	-1.291252e+03
3.000000e-07	-4.918799e-06	-1.963517e-08	-3.544935e+01	-1.285971e+03
3.100000e-07	-4.858284e-06	-1.953848e-08	-3.501323e+01	-1.280473e+03
3.200000e-07	-4.796082e-06	-1.944277e-08	-3.456494e+01	-1.274745e+03
3.300000e-07	-4.732229e-06	-1.936417e-08	-3.410476e+01	-1.268776e+03
3.400000e-07	-4.666524e-06	-1.925862e-08	-3.363123e+01	-1.262555e+03
3.500000e-07	-4.598942e-06	-1.915468e-08	-3.314417e+01	-1.256072e+03
3.600000e-07	-4.529718e-06	-1.906092e-08	-3.264528e+01	-1.249322e+03
3.700000e-07	-4.458949e-06	-1.894287e-08	-3.213526e+01	-1.242298e+03
3.800000e-07	-4.386696e-06	-1.883801e-08	-3.161453e+01	-1.234996e+03
3.900000e-07	-4.312667e-06	-1.872088e-08	-3.108101e+01	-1.227410e+03
4.000000e-07	-4.236759e-06	-1.859005e-08	-3.053395e+01	-1.219534e+03
4.100000e-07	-4.159184e-06	-1.847157e-08	-2.997488e+01	-1.211359e+03
4.200000e-07	-4.080027e-06	-1.834168e-08	-2.940440e+01	-1.202875e+03
4.300000e-07	-3.999391e-06	-1.820571e-08	-2.882326e+01	-1.194070e+03
4.400000e-07	-3.917371e-06	-1.805967e-08	-2.823215e+01	-1.184929e+03
4.500000e-07	-3.834112e-06	-1.791663e-08	-2.763211e+01	-1.175439e+03
4.600000e-07	-3.749711e-06	-1.776604e-08	-2.702384e+01	-1.165587e+03
4.700000e-07	-3.664101e-06	-1.760929e-08	-2.640686e+01	-1.155360e+03
4.800000e-07	-3.577329e-06	-1.744835e-08	-2.578150e+01	-1.144748e+03
4.900000e-07	-3.489476e-06	-1.727946e-08	-2.514835e+01	-1.133738e+03
5.000000e-07	-3.400207e-06	-1.710709e-08	-2.450500e+01	-1.122316e+03
5.100000e-07	-3.309398e-06	-1.692103e-08	-2.385054e+01	-1.110465e+03
5.200000e-07	-3.217400e-06	-1.673076e-08	-2.318752e+01	-1.098162e+03
5.300000e-07	-3.124323e-06	-1.653222e-08	-2.251672e+01	-1.085378e+03
5.400000e-07	-3.030129e-06	-1.632840e-08	-2.183787e+01	-1.072081e+03
5.500000e-07	-2.934927e-06	-1.611765e-08	-2.115176e+01	-1.058235e+03
5.600000e-07	-2.838685e-06	-1.589798e-08	-2.045815e+01	-1.043801e+03
5.700000e-07	-2.741058e-06	-1.566583e-08	-1.975457e+01	-1.028742e+03
5.800000e-07	-2.642156e-06	-1.542128e-08	-1.904179e+01	-1.013021e+03
5.900000e-07	-2.542376e-06	-1.516867e-08	-1.832268e+01	-9.966047e+02
6.000000e-07	-2.441792e-06	-1.490568e-08	-1.759778e+01	-9.794585e+02
6.100000e-07	-2.340371e-06	-1.463353e-08	-1.686685e+01	-9.615472e+02
6.200000e-07	-2.238034e-06	-1.434988e-08	-1.612932e+01	-9.428310e+02
6.300000e-07	-2.134856e-06	-1.405217e-08	-1.538572e+01	-9.232629e+02
6.400000e-07	-2.030997e-06	-1.373747e-08	-1.463722e+01	-9.027871e+02
6.500000e-07	-1.926461e-06	-1.340807e-08	-1.388383e+01	-8.813379e+02
6.600000e-07	-1.821104e-06	-1.306297e-08	-1.312454e+01	-8.588403e+02
6.700000e-07	-1.714853e-06	-1.270169e-08	-1.235880e+01	-8.352115e+02
6.800000e-07	-1.607877e-06	-1.232166e-08	-1.158783e+01	-8.103637e+02
6.900000e-07	-1.500374e-06	-1.191843e-08	-1.081306e+01	-7.842066e+02
7.000000e-07	-1.392468e-06	-1.149445e-08	-1.003539e+01	-7.566501e+02
7.100000e-07	-1.284138e-06	-1.105005e-08	-9.254669e+00	-7.276069e+02
7.200000e-07	-1.175391e-06	-1.058329e-08	-8.470941e+00	-6.969964e+02
7.300000e-07	-1.066266e-06	-1.009293e-08	-7.684487e+00	-6.647485e+02
7.400000e-07	-9.568367e-07	-9.579022e-09	-6.895838e+00	-6.308103e+02
7.500000e-07	-8.471711e-07	-9.037683e-09	-6.105488e+00	-5.951541e+02
7.600000e-07	-7.372441e-07	-8.467823e-09	-5.313254e+00	-5.577872e+02
7.700000e-07	-6.270246e-07	-7.870029e-09	-4.518911e+00	-5.187617e+02
7.800000e-07	-5.165553e-07	-7.247974e-09	-3.722769e+00	-4.781820e+02
7.900000e-07	-4.059455e-07	-6.607983e-09	-2.925614e+00	-4.362080e+02
8.000000e-07	-2.952288e-07	-5.953062e-09	-2.127688e+00	-3.930503e+02
8.100000e-07	-1.844289e-07	-5.285204e-09	-1.329163e+00	-3.489577e+02
8.200000e-07	-7.351015e-08	-4.605988e-09	-5.297812e-01	-3.041952e+02
8.300000e-07	3.750257e-08	-3.920716e-09	2.702777e-01	-2.590154e+02
8.400000e-07	1.485176e-07	-3.232944e-09	1.070353e+00	-2.136269e+02
8.500000e-07	2.594822e-07	-2.542629e-09	1.870066e+00	-1.681653e+02
8.600000e-07	3.703078e-07	-1.849156e-09	2.668776e+00	-1.226719e+02
8.700000e-07	4.810414e-07	-1.154492e-09	3.466823e+00	-7.708628e+01
8.800000e-07	5.916490e-07	-4.569456e-10	4.263963e+00	-3.125493e+01
8.900000e-07	7.020841e-07	2.486425e-10	5.059859e+00	1.504267e+01
9.000000e-07	8.123402e-07	9.659083e-10	5.854465e+00	6.205358e+01
9.100000e-07	9.223536e-07	1.695700e-09	6.647322e+00	1.100021e+02
9.200000e-07	1.032070e-06	2.440903e-09	7.438038e+00	1.590397e+02
9.300000e-07	1.141407e-06	3.204761e-09	8.226018e+00	2.092019e+02
9.400000e-07	1.250335e-06	3.984252e-09	9.011056e+00	2.603813e+02
9.500000e-07	1.358844e-06	4.776475e-09	9.793071e+00	3.123195e+02
9.600000e-07	1.466958e-06	5.575808e-09	1.057224e+01	3.646223e+02
9.700000e-07	1.574692e-06	6.375302e-09	1.134867e+01	4.167939e+02
9.800000e-07	1.681932e-06	7.163298e-09	1.212154e+01	4.682861e+02
9.900000e-07	1.788475e-06	7.926856e-09	1.288938e+01	5.185533e+02
1.000000e-06	1.894111e-06	8.661846e-09	1.365069e+01	5.671048e+02
1.010000e-06	1.998848e-06	9.364518e-09	1.440552e+01	6.135474e+02
1.020000e-06	2.102854e-06	1.003314e-08	1.515509e+01	6.576112e+02
1.030000e-06	2.206081e-06	1.066400e-08	1.589903e+01	6.991569e+02
1.040000e-06	2.308495e-06	1.125479e-08	1.663712e+01	7.381658e+02
1.050000e-06	2.410072e-06	1.180889e-08	1.736918e+01	7.747162e+02
1.060000e-06	2.510808e-06	1.232824e-08	1.809517e+01	8.089519e+02
1.070000e-06	2.610826e-06	1.281552e-08	1.881599e+01	8.410504e+02
1.080000e-06	2.710003e-06	1.327459e-08	1.953076e+01	8.711946e+02
1.090000e-06	2.808062e-06	1.370773e-08	2.023746e+01	8.995531e+02
1.100000e-06	2.904908e-06	1.411427e-08	2.093542e+01	9.262703e+02
1.110000e-06	3.000587e-06	1.449717e-08	2.162497e+01	9.514655e+02
1.120000e-06	3.095167e-06	1.485809e-08	2.230660e+01	9.752375e+02
1.130000e-06	3.188733e-06	1.519949e-08	2.298092e+01	9.976727e+02
1.140000e-06	3.281317e-06	1.552328e-08	2.364817e+01	1.018853e+03
1.150000e-06	3.372934e-06	1.583051e-08	2.430844e+01	1.038860e+03
1.160000e-06	3.463380e-06	1.612019e-08	2.496027e+01	1.057777e+03
1.170000e-06	3.552398e-06	1.639244e-08	2.560182e+01	1.075686e+03
1.180000e-06	3.640109e-06	1.665113e-08	2.623395e+01	1.092667e+03
1.190000e-06	3.726603e-06	1.689663e-08	2.685730e+01	1.108788e+03
1.200000e-06	3.811851e-06	1.712960e-08	2.747168e+01	1.124109e+03
1.210000e-06	3.895917e-06	1.734988e-08	2.807753e+01	1.138678e+03
1.220000e-06	3.978683e-06	1.755846e-08	2.867402e+01	1.152535e+03
1.230000e-06	4.059915e-06	1.775780e-08	2.925945e+01	1.165713e+03
1.240000e-06	4.139610e-06	1.794725e-08	2.983381e+01	1.178246e+03
1.250000e-06	4.217812e-06	1.812666e-08	3.039740e+01	1.190167e+03
1.260000e-06	4.294507e-06	1.829901e-08	3.095013e+01	1.201515e+03
1.270000e-06	4.369606e-06	1.846447e-08	3.149137e+01	1.212324e+03
1.280000e-06	4.442927e-06	1.862210e-08	3.201979e+01	1.222629e+03
1.290000e-06	4.514465e-06	1.877326e-08	3.253536e+01	1.232458e+03
1.300000e-06	4.584339e-06	1.891802e-08	3.303893e+01	1.241829e+03
1.310000e-06	4.652661e-06	1.905411e-08	3.353132e+01	1.250753e+03
1.320000e-06	4.719336e-06	1.918217e-08	3.401184e+01	1.259231e+03
1.330000e-06	4.784202e-06	1.930444e-08	3.447932e+01	1.267261e+03
1.340000e-06	4.847340e-06	1.941953e-08	3.493435e+01	1.274843e+03
1.350000e-06	4.908833e-06	1.952852e-08	3.537753e+01	1.281986e+03
1.360000e-06	4.968746e-06	1.963289e-08	3.580932e+01	1.288706e+03
1.370000e-06	5.026904e-06	1.973086e-08	3.622846e+01	1.295034e+03
1.380000e-06	5.083166e-06	1.982227e-08	3.663393e+01	1.301007e+03
1.390000e-06	5.137575e-06	1.990713e-08	3.702605e+01	1.306667e+03
1.400000e-06	5.190037e-06	1.998773e-08	3.740414e+01	1.312055e+03
1.410000e-06	5.240297e-06	2.006538e-08	3.776636e+01	1.317203e+03
1.420000e-06	5.288365e-06	2.013917e-08	3.811278e+01	1.322133e+03
1.430000e-06	5.334563e-06	2.021221e-08	3.844573e+01	1.326849e+03
1.440000e-06	5.379065e-06	2.028018e-08	3.876645e+01	1.331348e+03
1.450000e-06	5.421735e-06	2.034425e-08	3.907397e+01	1.335616e+03
1.460000e-06	5.462346e-06	2.040715e-08	3.936665e+01	1.339635e+03
1.470000e-06	5.500974e-06	2.046533e-08	3.964504e+01	1.343392e+03
1.480000e-06	5.537788e-06	2.051941e-08	3.991035e+01	1.346879e+03
1.490000e-06	5.572745e-06	2.056828e-08	4.016229e+01	1.350098e+03
1.500000e-06	5.605644e-06	2.061357e-08	4.039939e+01	1.353059e+03
1.510000e-06	5.636528e-06	2.065534e-08	4.062196e+01	1.355774e+03
1.520000e-06	5.665582e-06	2.069304e-08	4.083135e+01	1.358260e+03
1.530000e-06	5.692700e-06	2.072792e-08	4.102679e+01	1.360528e+03
1.540000e-06	5.717625e-06	2.075954e-08	4.120642e+01	1.362587e+03
1.550000e-06	5.740338e-06	2.078619e-08	4.137011e+01	1.364437e+03
1.560000e-06	5.761117e-06	2.081021e-08	4.151987e+01	1.366076e+03
1.570000e-06	5.780002e-06	2.083361e-08	4.165597e+01	1.367500e+03
1.580000e-06	5.796697e-06	2.085421e-08	4.177629e+01	1.368706e+03
1.590000e-06	5.811177e-06	2.087000e-08	4.188065e+01	1.369697e+03
1.600000e-06	5.823514e-06	2.088122e-08	4.196955e+01	1.370480e+03
1.610000e-06	5.833513e-06	2.088947e-08	4.204161e+01	1.371070e+03
1.620000e-06	5.841210e-06	2.089692e-08	4.209709e+01	1.371486e+03
1.630000e-06	5.846865e-06	2.090467e-08	4.213785e+01	1.371744e+03
1.640000e-06	5.850591e-06	2.091091e-08	4.216470e+01	1.371860e+03
1.650000e-06	5.852201e-06	2.091645e-08	4.217630e+01	1.371841e+03
1.660000e-06	5.851642e-06	2.091601e-08	4.217228e+01	1.371688e+03
1.670000e-06	5.849190e-06	2.090749e-08	4.215460e+01	1.371395e+03
1.680000e-06	5.844953e-06	2.089665e-08	4.212407e+01	1.370948e+03
1.690000e-06	5.838764e-06	2.088652e-08	4.207946e+01	1.370336e+03
1.700000e-06	5.830588e-06	2.087723e-08	4.202054e+01	1.369547e+03
1.710000e-06	5.820613e-06	2.086755e-08	4.194865e+01	1.368576e+03
1.720000e-06	5.808767e-06	2.085745e-08	4.186328e+01	1.367423e+03
1.730000e-06	5.794779e-06	2.084486e-08	4.176246e+01	1.366095e+03
1.740000e-06	5.778803e-06	2.077763e-08	4.164733e+01	1.364605e+03
1.750000e-06	5.760810e-06	2.072720e-08	4.151765e+01	1.362965e+03
1.760000e-06	5.740092e-06	2.072735e-08	4.136834e+01	1.361189e+03
1.770000e-06	5.716531e-06	2.071135e-08	4.119854e+01	1.359284e+03
1.780000e-06	5.690807e-06	2.072846e-08	4.101315e+01	1.357252e+03
1.790000e-06	5.663675e-06	2.071973e-08	4.081761e+01	1.355087e+03
1.800000e-06	5.635611e-06	2.058055e-08	4.061536e+01	1.352780e+03
1.810000e-06	5.605988e-06	2.057704e-08	4.040187e+01	1.350317e+03
1.820000e-06	5.574034e-06	2.055593e-08	4.017157e+01	1.347682e+03
1.830000e-06	5.540218e-06	2.045510e-08	3.992787e+01	1.344862e+03
1.840000e-06	5.504679e-06	2.052444e-08	3.967174e+01	1.341847e+03
1.850000e-06	5.466962e-06	2.044308e-08	3.939992e+01	1.338630e+03
1.860000e-06	5.427133e-06	2.031746e-08	3.911287e+01	1.335209e+03
1.870000e-06	5.385337e-06	2.030705e-08	3.881166e+01	1.331586e+03
1.880000e-06	5.341821e-06	2.019874e-08	3.849804e+01	1.327764e+03
1.890000e-06	5.296605e-06	2.017456e-08	3.817217e+01	1.323750e+03
1.900000e-06	5.249292e-06	2.012419e-08	3.783119e+01	1.319547e+03
1.910000e-06	5.199917e-06	2.001703e-08	3.747535e+01	1.315159e+03
1.920000e-06	5.148453e-06	2.003661e-08	3.710445e+01	1.310586e+03
1.930000e-06	5.094809e-06	1.991669e-08	3.671784e+01	1.305825e+03
1.940000e-06	5.039205e-06	1.981613e-08	3.631711e+01	1.300872e+03
1.950000e-06	4.981703e-06	1.976612e-08	3.590270e+01	1.295718e+03
1.960000e-06	4.922421e-06	1.967424e-08	3.547546e+01	1.290353e+03
1.970000e-06	4.861373e-06	1.960941e-08	3.503549e+01	1.284766e+03
1.980000e-06	4.798392e-06	1.948395e-08	3.458159e+01	1.278943e+03
1.990000e-06	4.733551e-06	1.941534e-08	3.411429e+01	1.272875e+03
2.000000e-06	4.666976e-06	1.933350e-08	3.363449e+01	1.266552e+03
2.010000e-06	4.598955e-06	1.921194e-08	3.314426e+01	1.259964e+03
2.020000e-06	4.529250e-06	1.912081e-08	3.264191e+01	1.253107e+03
2.030000e-06	4.457596e-06	1.899747e-08	3.212550e+01	1.245973e+03
2.040000e-06	4.384312e-06	1.891155e-08	3.159735e+01	1.238560e+03
2.050000e-06	4.309520e-06	1.878406e-08	3.105833e+01	1.230860e+03
2.060000e-06	4.233139e-06	1.864839e-08	3.050786e+01	1.222867e+03
2.070000e-06	4.154966e-06	1.853523e-08	2.994447e+01	1.214571e+03
2.080000e-06	4.075224e-06	1.839607e-08	2.936978e+01	1.205962e+03
2.090000e-06	3.994093e-06	1.826750e-08	2.878508e+01	1.197025e+03
2.100000e-06	3.911559e-06	1.812066e-08	2.819026e+01	1.187748e+03
2.110000e-06	3.827848e-06	1.798787e-08	2.758697e+01	1.178117e+03
2.120000e-06	3.742916e-06	1.783832e-08	2.697487e+01	1.168118e+03
2.130000e-06	3.656431e-06	1.767155e-08	2.635158e+01	1.157741e+03
2.140000e-06	3.568489e-06	1.750380e-08	2.571779e+01	1.146973e+03
2.150000e-06	3.479361e-06	1.733119e-08	2.507545e+01	1.135803e+03
2.160000e-06	3.389023e-06	1.716345e-08	2.442439e+01	1.124214e+03
2.170000e-06	3.297581e-06	1.698129e-08	2.376538e+01	1.112187e+03
2.180000e-06	3.205091e-06	1.679685e-08	2.309881e+01	1.099698e+03
2.190000e-06	3.111371e-06	1.660046e-08	2.242338e+01	1.086716e+03
2.200000e-06	3.016296e-06	1.639617e-08	2.173818e+01	1.073207e+03
2.210000e-06	2.920056e-06	1.618239e-08	2.104459e+01	1.059134e+03
2.220000e-06	2.822821e-06	1.596051e-08	2.034382e+01	1.044458e+03
2.230000e-06	2.724594e-06	1.573066e-08	1.963591e+01	1.029142e+03
2.240000e-06	2.625435e-06	1.548707e-08	1.892128e+01	1.013152e+03
2.250000e-06	2.525442e-06	1.523366e-08	1.820064e+01	9.964519e+02
2.260000e-06	2.424641e-06	1.496521e-08	1.747417e+01	9.790089e+02
2.270000e-06	2.322881e-06	1.468676e-08	1.674080e+01	9.607857e+02
2.280000e-06	2.219986e-06	1.439834e-08	1.599925e+01	9.417401e+02
2.290000e-06	2.116095e-06	1.410035e-08	1.525051e+01	9.218220e+02
2.300000e-06	2.011478e-06	1.378695e-08	1.449655e+01	9.009714e+02
2.310000e-06	1.906205e-06	1.345534e-08	1.373785e+01	8.791190e+02
2.320000e-06	1.800309e-06	1.310448e-08	1.297467e+01	8.561865e+02
2.330000e-06	1.693865e-06	1.273452e-08	1.220753e+01	8.320888e+02
2.340000e-06	1.586855e-06	1.234794e-08	1.143633e+01	8.067368e+02
2.350000e-06	1.479316e-06	1.194459e-08	1.066130e+01	7.800398e+02
2.360000e-06	1.371389e-06	1.152157e-08	9.883481e+00	7.519086e+02
2.370000e-06	1.263129e-06	1.107337e-08	9.103263e+00	7.222582e+02
2.380000e-06	1.154577e-06	1.059706e-08	8.320933e+00	6.910113e+02
2.390000e-06	1.045740e-06	1.009264e-08	7.536560e+00	6.581037e+02
2.400000e-06	9.366053e-07	9.563521e-09	6.750032e+00	6.234914e+02
2.410000e-06	8.271811e-07	9.008886e-09	5.961422e+00	5.871593e+02
2.420000e-06	7.173837e-07	8.426339e-09	5.170122e+00	5.491311e+02
2.430000e-06	6.072055e-07	7.818554e-09	4.376077e+00	5.094788e+02
2.440000e-06	4.967884e-07	7.190957e-09	3.580311e+00	4.683286e+02
2.450000e-06	3.862310e-07	6.543495e-09	2.783533e+00	4.258612e+02
2.460000e-06	2.754797e-07	5.877078e-09	1.985358e+00	3.823044e+02
2.470000e-06	1.645801e-07	5.197818e-09	1.186114e+00	3.379163e+02
2.480000e-06	5.360326e-08	4.511590e-09	3.863140e-01	2.929608e+02
2.490000e-06	-5.744967e-08	3.819384e-09	-4.140348e-01	2.476768e+02
2.500000e-06	-1.684559e-07	3.120617e-09	-1.214047e+00	2.022476e+02
2.510000e-06	-2.793543e-07	2.422309e-09	-2.013282e+00	1.567734e+02
2.520000e-06	-3.901410e-07	1.725796e-09	-2.811712e+00	1.112559e+02
2.530000e-06	-5.007326e-07	1.025931e-09	-3.608736e+00	6.559577e+01
2.540000e-06	-6.111335e-07	3.207885e-10	-4.404385e+00	1.960932e+01
2.550000e-06	-7.213147e-07	-3.907989e-10	-5.198452e+00	-2.693988e+01
2.560000e-06	-8.311206e-07	-1.112029e-09	-5.989814e+00	-7.429606e+01
2.570000e-06	-9.405493e-07	-1.848875e-09	-6.778456e+00	-1.226607e+02
2.580000e-06	-1.049664e-06	-2.604621e-09	-7.564840e+00	-1.721441e+02
2.590000e-06	-1.158491e-06	-3.375610e-09	-8.349141e+00	-2.227279e+02
2.600000e-06	-1.267016e-06	-4.159140e-09	-9.131270e+00	-2.742450e+02
2.610000e-06	-1.375160e-06	-4.954285e-09	-9.910655e+00	-3.263807e+02
2.620000e-06	-1.482803e-06	-5.754676e-09	-1.068643e+01	-3.786959e+02
2.630000e-06	-1.589898e-06	-6.551628e-09	-1.145826e+01	-4.306678e+02
2.640000e-06	-1.696429e-06	-7.334586e-09	-1.222601e+01	-4.817426e+02
2.650000e-06	-1.802344e-06	-8.094196e-09	-1.298934e+01	-5.313903e+02
2.660000e-06	-1.907606e-06	-8.822808e-09	-1.374795e+01	-5.791545e+02
2.670000e-06	-2.012228e-06	-9.518039e-09	-1.450195e+01	-6.246883e+02
2.680000e-06	-2.116193e-06	-1.017610e-08	-1.525122e+01	-6.677731e+02
2.690000e-06	-2.219198e-06	-1.079590e-08	-1.599357e+01	-7.083191e+02
2.700000e-06	-2.321081e-06	-1.138157e-08	-1.672783e+01	-7.463492e+02
2.710000e-06	-2.422051e-06	-1.193311e-08	-1.745551e+01	-7.819712e+02
2.720000e-06	-2.522209e-06	-1.244860e-08	-1.817734e+01	-8.153460e+02
2.730000e-06	-2.621557e-06	-1.292890e-08	-1.889333e+01	-8.466561e+02
2.740000e-06	-2.720036e-06	-1.337831e-08	-1.960306e+01	-8.760806e+02
2.750000e-06	-2.817555e-06	-1.380074e-08	-2.030588e+01	-9.037793e+02
2.760000e-06	-2.914242e-06	-1.419941e-08	-2.100269e+01	-9.298864e+02
2.770000e-06	-3.010015e-06	-1.457663e-08	-2.169291e+01	-9.545122e+02
2.780000e-06	-3.104574e-06	-1.493151e-08	-2.237440e+01	-9.777498e+02
2.790000e-06	-3.197897e-06	-1.526270e-08	-2.304697e+01	-9.996830e+02
2.800000e-06	-3.290064e-06	-1.557544e-08	-2.371120e+01	-1.020393e+03
2.810000e-06	-3.381058e-06	-1.587467e-08	-2.436699e+01	-1.039962e+03
2.820000e-06	-3.470850e-06	-1.616032e-08	-2.501411e+01	-1.058475e+03
2.830000e-06	-3.559496e-06	-1.643103e-08	-2.565298e+01	-1.076011e+03
2.840000e-06	-3.646865e-06	-1.668570e-08	-2.628263e+01	-1.092647e+03
2.850000e-06	-3.732800e-06	-1.692547e-08	-2.690196e+01	-1.108448e+03
2.860000e-06	-3.817436e-06	-1.715391e-08	-2.751193e+01	-1.123469e+03
2.870000e-06	-3.900784e-06	-1.737387e-08	-2.811261e+01	-1.137755e+03
2.880000e-06	-3.982744e-06	-1.758526e-08	-2.870329e+01	-1.151342e+03
2.890000e-06	-4.063364e-06	-1.778524e-08	-2.928431e+01	-1.164263e+03
2.900000e-06	-4.142437e-06	-1.797305e-08	-2.985418e+01	-1.176552e+03
2.910000e-06	-4.219762e-06	-1.815172e-08	-3.041146e+01	-1.188245e+03
2.920000e-06	-4.295437e-06	-1.832179e-08	-3.095684e+01	-1.199377e+03
2.930000e-06	-4.369533e-06	-1.848352e-08	-3.149084e+01	-1.209985e+03
2.940000e-06	-4.442054e-06	-1.863692e-08	-3.201350e+01	-1.220101e+03
