# Temperatura_=_27.42
# Concentracion g/m^3_=_28200.0
# C_Vs_to_Am_M_A/Vsm_=_65563218390.804596
# pendiente_HvsI_1/m_=_3716.3
# ordenada_HvsI_A/m_=_1297.0
# frecuencia_Hz_=_301951.59895123675

Tiempo_(s)	Campo_(V.s)	Magnetizacion_(V.s)	Campo_(kA/m)	Magnetizacion_(A/m)
0.000000e+00	-5.820224e-06	-1.738526e-08	-4.193671e+01	-1.138413e+03
1.000000e-08	-5.818676e-06	-1.738368e-08	-4.192556e+01	-1.138196e+03
2.000000e-08	-5.815086e-06	-1.737875e-08	-4.189970e+01	-1.137868e+03
3.000000e-08	-5.809635e-06	-1.737051e-08	-4.186042e+01	-1.137419e+03
4.000000e-08	-5.802495e-06	-1.736012e-08	-4.180897e+01	-1.136838e+03
5.000000e-08	-5.793487e-06	-1.734733e-08	-4.174407e+01	-1.136111e+03
6.000000e-08	-5.782277e-06	-1.733281e-08	-4.166329e+01	-1.135230e+03
7.000000e-08	-5.768920e-06	-1.731686e-08	-4.156706e+01	-1.134189e+03
8.000000e-08	-5.753439e-06	-1.730453e-08	-4.145551e+01	-1.132991e+03
9.000000e-08	-5.735809e-06	-1.730245e-08	-4.132848e+01	-1.131646e+03
1.000000e-07	-5.716097e-06	-1.727066e-08	-4.118645e+01	-1.130170e+03
1.100000e-07	-5.694230e-06	-1.724319e-08	-4.102889e+01	-1.128579e+03
1.200000e-07	-5.670191e-06	-1.721897e-08	-4.085568e+01	-1.126891e+03
1.300000e-07	-5.644063e-06	-1.716373e-08	-4.066741e+01	-1.125116e+03
1.400000e-07	-5.616196e-06	-1.712087e-08	-4.046662e+01	-1.123259e+03
1.500000e-07	-5.586906e-06	-1.713931e-08	-4.025558e+01	-1.121316e+03
1.600000e-07	-5.556032e-06	-1.707159e-08	-4.003312e+01	-1.119275e+03
1.700000e-07	-5.523380e-06	-1.703552e-08	-3.979785e+01	-1.117116e+03
1.800000e-07	-5.488847e-06	-1.704348e-08	-3.954903e+01	-1.114819e+03
1.900000e-07	-5.452344e-06	-1.693266e-08	-3.928602e+01	-1.112361e+03
2.000000e-07	-5.413938e-06	-1.692145e-08	-3.900929e+01	-1.109724e+03
2.100000e-07	-5.373645e-06	-1.691222e-08	-3.871896e+01	-1.106897e+03
2.200000e-07	-5.331343e-06	-1.683740e-08	-3.841416e+01	-1.103874e+03
2.300000e-07	-5.287054e-06	-1.682529e-08	-3.809505e+01	-1.100656e+03
2.400000e-07	-5.240706e-06	-1.677548e-08	-3.776109e+01	-1.097251e+03
2.500000e-07	-5.192098e-06	-1.668175e-08	-3.741085e+01	-1.093666e+03
2.600000e-07	-5.141161e-06	-1.662491e-08	-3.704384e+01	-1.089912e+03
2.700000e-07	-5.087995e-06	-1.656538e-08	-3.666076e+01	-1.085997e+03
2.800000e-07	-5.032935e-06	-1.650251e-08	-3.626403e+01	-1.081925e+03
2.900000e-07	-4.976093e-06	-1.643616e-08	-3.585446e+01	-1.077695e+03
3.000000e-07	-4.917339e-06	-1.638901e-08	-3.543112e+01	-1.073302e+03
3.100000e-07	-4.856791e-06	-1.629733e-08	-3.499485e+01	-1.068740e+03
3.200000e-07	-4.794569e-06	-1.621113e-08	-3.454652e+01	-1.063996e+03
3.300000e-07	-4.730603e-06	-1.616710e-08	-3.408562e+01	-1.059060e+03
3.400000e-07	-4.664805e-06	-1.607727e-08	-3.361152e+01	-1.053920e+03
3.500000e-07	-4.597188e-06	-1.599399e-08	-3.312432e+01	-1.048564e+03
3.600000e-07	-4.527898e-06	-1.591139e-08	-3.262506e+01	-1.042983e+03
3.700000e-07	-4.457099e-06	-1.581294e-08	-3.211493e+01	-1.037168e+03
3.800000e-07	-4.384801e-06	-1.571636e-08	-3.159400e+01	-1.031108e+03
3.900000e-07	-4.310747e-06	-1.562301e-08	-3.106041e+01	-1.024796e+03
4.000000e-07	-4.234848e-06	-1.552936e-08	-3.051354e+01	-1.018224e+03
4.100000e-07	-4.157229e-06	-1.542340e-08	-2.995426e+01	-1.011382e+03
4.200000e-07	-4.077911e-06	-1.531361e-08	-2.938275e+01	-1.004263e+03
4.300000e-07	-3.997043e-06	-1.519707e-08	-2.880007e+01	-9.968580e+02
4.400000e-07	-3.914932e-06	-1.507494e-08	-2.820843e+01	-9.891597e+02
4.500000e-07	-3.831659e-06	-1.495418e-08	-2.760842e+01	-9.811596e+02
4.600000e-07	-3.747163e-06	-1.482375e-08	-2.699960e+01	-9.728492e+02
4.700000e-07	-3.661370e-06	-1.469281e-08	-2.638143e+01	-9.642185e+02
4.800000e-07	-3.574372e-06	-1.455550e-08	-2.575458e+01	-9.552560e+02
4.900000e-07	-3.486287e-06	-1.441470e-08	-2.511989e+01	-9.459476e+02
5.000000e-07	-3.396843e-06	-1.427179e-08	-2.447543e+01	-9.362764e+02
5.100000e-07	-3.305944e-06	-1.411349e-08	-2.382047e+01	-9.262226e+02
5.200000e-07	-3.213893e-06	-1.394677e-08	-2.315720e+01	-9.157635e+02
5.300000e-07	-3.120792e-06	-1.377616e-08	-2.248638e+01	-9.048740e+02
5.400000e-07	-3.026585e-06	-1.360238e-08	-2.180759e+01	-8.935272e+02
5.500000e-07	-2.931296e-06	-1.342072e-08	-2.112099e+01	-8.816950e+02
5.600000e-07	-2.834933e-06	-1.323310e-08	-2.042667e+01	-8.693483e+02
5.700000e-07	-2.737336e-06	-1.303390e-08	-1.972344e+01	-8.564575e+02
5.800000e-07	-2.638500e-06	-1.282374e-08	-1.901130e+01	-8.429919e+02
5.900000e-07	-2.538670e-06	-1.261078e-08	-1.829199e+01	-8.289200e+02
6.000000e-07	-2.437991e-06	-1.238847e-08	-1.756656e+01	-8.142084e+02
6.100000e-07	-2.336406e-06	-1.215300e-08	-1.683461e+01	-7.988219e+02
6.200000e-07	-2.233962e-06	-1.190477e-08	-1.609647e+01	-7.827224e+02
6.300000e-07	-2.130863e-06	-1.164642e-08	-1.535360e+01	-7.658694e+02
6.400000e-07	-2.027061e-06	-1.137583e-08	-1.460567e+01	-7.482191e+02
6.500000e-07	-1.922486e-06	-1.109333e-08	-1.385217e+01	-7.297248e+02
6.600000e-07	-1.817099e-06	-1.079965e-08	-1.309283e+01	-7.103365e+02
6.700000e-07	-1.710881e-06	-1.049126e-08	-1.232749e+01	-6.900006e+02
6.800000e-07	-1.603909e-06	-1.016399e-08	-1.155672e+01	-6.686606e+02
6.900000e-07	-1.496348e-06	-9.816454e-09	-1.078170e+01	-6.462567e+02
7.000000e-07	-1.388376e-06	-9.453521e-09	-1.000373e+01	-6.227276e+02
7.100000e-07	-1.280022e-06	-9.074031e-09	-9.223001e+00	-5.980126e+02
7.200000e-07	-1.171265e-06	-8.677706e-09	-8.439364e+00	-5.720558e+02
7.300000e-07	-1.062137e-06	-8.264995e-09	-7.653059e+00	-5.448115e+02
7.400000e-07	-9.526860e-07	-7.833358e-09	-6.864430e+00	-5.162516e+02
7.500000e-07	-8.429436e-07	-7.379651e-09	-6.073699e+00	-4.863735e+02
7.600000e-07	-7.329351e-07	-6.902793e-09	-5.281049e+00	-4.552080e+02
7.700000e-07	-6.226709e-07	-6.406574e-09	-4.486558e+00	-4.228254e+02
7.800000e-07	-5.121971e-07	-5.894312e-09	-3.690556e+00	-3.893388e+02
7.900000e-07	-4.016330e-07	-5.369572e-09	-2.893904e+00	-3.549020e+02
8.000000e-07	-2.909780e-07	-4.835582e-09	-2.096596e+00	-3.197030e+02
8.100000e-07	-1.801885e-07	-4.294352e-09	-1.298320e+00	-2.839508e+02
8.200000e-07	-6.928510e-08	-3.745270e-09	-4.992230e-01	-2.478579e+02
8.300000e-07	4.165630e-08	-3.191308e-09	3.001480e-01	-2.116196e+02
8.400000e-07	1.525914e-07	-2.639068e-09	1.099474e+00	-1.753924e+02
8.500000e-07	2.635510e-07	-2.090132e-09	1.898976e+00	-1.392756e+02
8.600000e-07	3.744421e-07	-1.543304e-09	2.697984e+00	-1.032984e+02
8.700000e-07	4.851843e-07	-9.984235e-10	3.495920e+00	-6.741567e+01
8.800000e-07	5.958052e-07	-4.542086e-10	4.292982e+00	-3.151353e+01
8.900000e-07	7.062942e-07	9.529785e-11	5.089093e+00	4.574659e+00
9.000000e-07	8.165782e-07	6.526343e-10	5.883727e+00	4.104361e+01
9.100000e-07	9.265592e-07	1.217228e-09	6.676178e+00	7.808564e+01
9.200000e-07	1.036204e-06	1.790998e-09	7.466205e+00	1.158583e+02
9.300000e-07	1.145534e-06	2.376610e-09	8.253969e+00	1.544550e+02
9.400000e-07	1.254515e-06	2.973843e-09	9.039210e+00	1.938822e+02
9.500000e-07	1.363110e-06	3.583324e-09	9.821677e+00	2.340475e+02
9.600000e-07	1.471313e-06	4.204200e-09	1.060132e+01	2.747601e+02
9.700000e-07	1.579054e-06	4.830145e-09	1.137763e+01	3.157428e+02
9.800000e-07	1.686195e-06	5.454241e-09	1.214961e+01	3.566556e+02
9.900000e-07	1.792629e-06	6.069198e-09	1.291651e+01	3.971257e+02
1.000000e-06	1.898263e-06	6.671410e-09	1.367764e+01	4.367809e+02
1.010000e-06	2.003078e-06	7.257010e-09	1.443287e+01	4.752803e+02
1.020000e-06	2.107091e-06	7.822883e-09	1.518232e+01	5.123411e+02
1.030000e-06	2.210314e-06	8.364974e-09	1.592607e+01	5.477544e+02
1.040000e-06	2.312769e-06	8.876411e-09	1.666429e+01	5.813930e+02
1.050000e-06	2.414396e-06	9.356911e-09	1.739655e+01	6.132077e+02
1.060000e-06	2.515178e-06	9.808211e-09	1.812272e+01	6.432170e+02
1.070000e-06	2.615136e-06	1.023583e-08	1.884296e+01	6.714899e+02
1.080000e-06	2.714144e-06	1.064113e-08	1.955634e+01	6.981276e+02
1.090000e-06	2.812088e-06	1.102643e-08	2.026206e+01	7.232459e+02
1.100000e-06	2.908950e-06	1.139190e-08	2.095999e+01	7.469603e+02
1.110000e-06	3.004666e-06	1.173736e-08	2.164965e+01	7.693765e+02
1.120000e-06	3.099258e-06	1.206101e-08	2.233122e+01	7.905857e+02
1.130000e-06	3.192803e-06	1.236468e-08	2.300524e+01	8.106643e+02
1.140000e-06	3.285387e-06	1.265251e-08	2.367234e+01	8.296768e+02
1.150000e-06	3.377002e-06	1.292438e-08	2.433246e+01	8.476800e+02
1.160000e-06	3.467447e-06	1.318146e-08	2.498415e+01	8.647277e+02
1.170000e-06	3.556568e-06	1.342524e-08	2.562630e+01	8.808739e+02
1.180000e-06	3.644296e-06	1.365834e-08	2.625841e+01	8.961739e+02
1.190000e-06	3.730725e-06	1.388059e-08	2.688116e+01	9.106844e+02
1.200000e-06	3.815948e-06	1.409194e-08	2.749522e+01	9.244613e+02
1.210000e-06	3.899950e-06	1.429073e-08	2.810048e+01	9.375573e+02
1.220000e-06	3.982669e-06	1.447808e-08	2.869650e+01	9.500199e+02
1.230000e-06	4.063889e-06	1.465598e-08	2.928172e+01	9.618890e+02
1.240000e-06	4.143564e-06	1.482667e-08	2.985580e+01	9.731965e+02
1.250000e-06	4.221775e-06	1.499091e-08	3.041934e+01	9.839667e+02
1.260000e-06	4.298481e-06	1.514813e-08	3.097204e+01	9.942175e+02
1.270000e-06	4.373547e-06	1.529603e-08	3.151291e+01	1.003962e+03
1.280000e-06	4.446849e-06	1.543596e-08	3.204108e+01	1.013212e+03
1.290000e-06	4.518317e-06	1.556827e-08	3.255603e+01	1.021978e+03
1.300000e-06	4.588101e-06	1.569346e-08	3.305885e+01	1.030272e+03
1.310000e-06	4.656367e-06	1.581350e-08	3.355073e+01	1.038108e+03
1.320000e-06	4.722984e-06	1.592650e-08	3.403073e+01	1.045506e+03
1.330000e-06	4.787811e-06	1.603319e-08	3.449782e+01	1.052486e+03
1.340000e-06	4.850877e-06	1.613486e-08	3.495224e+01	1.059074e+03
1.350000e-06	4.912289e-06	1.622991e-08	3.539473e+01	1.065298e+03
1.360000e-06	4.972110e-06	1.631758e-08	3.582576e+01	1.071188e+03
1.370000e-06	5.030199e-06	1.640041e-08	3.624431e+01	1.076775e+03
1.380000e-06	5.086401e-06	1.648014e-08	3.664927e+01	1.082087e+03
1.390000e-06	5.140744e-06	1.655726e-08	3.704083e+01	1.087149e+03
1.400000e-06	5.193127e-06	1.663088e-08	3.741827e+01	1.091982e+03
1.410000e-06	5.243260e-06	1.670118e-08	3.777949e+01	1.096599e+03
1.420000e-06	5.291247e-06	1.676896e-08	3.812526e+01	1.101005e+03
1.430000e-06	5.337391e-06	1.683368e-08	3.845774e+01	1.105201e+03
1.440000e-06	5.381801e-06	1.689425e-08	3.877773e+01	1.109178e+03
1.450000e-06	5.424305e-06	1.695115e-08	3.908399e+01	1.112930e+03
1.460000e-06	5.464804e-06	1.700505e-08	3.937579e+01	1.116445e+03
1.470000e-06	5.503420e-06	1.705482e-08	3.965404e+01	1.119718e+03
1.480000e-06	5.540205e-06	1.709964e-08	3.991908e+01	1.122744e+03
1.490000e-06	5.575051e-06	1.713960e-08	4.017016e+01	1.125528e+03
1.500000e-06	5.607845e-06	1.717667e-08	4.040645e+01	1.128077e+03
1.510000e-06	5.638672e-06	1.721196e-08	4.062857e+01	1.130403e+03
1.520000e-06	5.667619e-06	1.724523e-08	4.083715e+01	1.132519e+03
1.530000e-06	5.694580e-06	1.727565e-08	4.103141e+01	1.134440e+03
1.540000e-06	5.719395e-06	1.730238e-08	4.121021e+01	1.136176e+03
1.550000e-06	5.742090e-06	1.732395e-08	4.137374e+01	1.137732e+03
1.560000e-06	5.762814e-06	1.734224e-08	4.152305e+01	1.139113e+03
1.570000e-06	5.781649e-06	1.735910e-08	4.165877e+01	1.140316e+03
1.580000e-06	5.798375e-06	1.737463e-08	4.177929e+01	1.141342e+03
1.590000e-06	5.812873e-06	1.738851e-08	4.188375e+01	1.142190e+03
1.600000e-06	5.825154e-06	1.739941e-08	4.197224e+01	1.142862e+03
1.610000e-06	5.835080e-06	1.740806e-08	4.204376e+01	1.143367e+03
1.620000e-06	5.842736e-06	1.741523e-08	4.209892e+01	1.143714e+03
1.630000e-06	5.848343e-06	1.742141e-08	4.213932e+01	1.143918e+03
1.640000e-06	5.851955e-06	1.742702e-08	4.216535e+01	1.143994e+03
1.650000e-06	5.853475e-06	1.743067e-08	4.217630e+01	1.143952e+03
1.660000e-06	5.852885e-06	1.742842e-08	4.217205e+01	1.143801e+03
1.670000e-06	5.850397e-06	1.742344e-08	4.215412e+01	1.143540e+03
1.680000e-06	5.846168e-06	1.741444e-08	4.212365e+01	1.143165e+03
1.690000e-06	5.839931e-06	1.740593e-08	4.207871e+01	1.142666e+03
1.700000e-06	5.831608e-06	1.740006e-08	4.201875e+01	1.142028e+03
1.710000e-06	5.821497e-06	1.739328e-08	4.194589e+01	1.141241e+03
1.720000e-06	5.809488e-06	1.738397e-08	4.185936e+01	1.140296e+03
1.730000e-06	5.795345e-06	1.736227e-08	4.175746e+01	1.139192e+03
1.740000e-06	5.779230e-06	1.731619e-08	4.164134e+01	1.137934e+03
1.750000e-06	5.761127e-06	1.730229e-08	4.151090e+01	1.136535e+03
1.760000e-06	5.740465e-06	1.727926e-08	4.136202e+01	1.135011e+03
1.770000e-06	5.716968e-06	1.725797e-08	4.119272e+01	1.133379e+03
1.780000e-06	5.691176e-06	1.728360e-08	4.100688e+01	1.131655e+03
1.790000e-06	5.663980e-06	1.722085e-08	4.081092e+01	1.129847e+03
1.800000e-06	5.635886e-06	1.716520e-08	4.060850e+01	1.127957e+03
1.810000e-06	5.606230e-06	1.718448e-08	4.039482e+01	1.125977e+03
1.820000e-06	5.574239e-06	1.710107e-08	4.016431e+01	1.123891e+03
1.830000e-06	5.540288e-06	1.711413e-08	3.991968e+01	1.121680e+03
1.840000e-06	5.504525e-06	1.713013e-08	3.966200e+01	1.119321e+03
1.850000e-06	5.466645e-06	1.699166e-08	3.938906e+01	1.116794e+03
1.860000e-06	5.426744e-06	1.697563e-08	3.910156e+01	1.114083e+03
1.870000e-06	5.384914e-06	1.691665e-08	3.880016e+01	1.111178e+03
1.880000e-06	5.341362e-06	1.683386e-08	3.848635e+01	1.108078e+03
1.890000e-06	5.296108e-06	1.684215e-08	3.816028e+01	1.104784e+03
1.900000e-06	5.248702e-06	1.676545e-08	3.781870e+01	1.101306e+03
1.910000e-06	5.199150e-06	1.673718e-08	3.746166e+01	1.097653e+03
1.920000e-06	5.147532e-06	1.669190e-08	3.708974e+01	1.093835e+03
1.930000e-06	5.093774e-06	1.659032e-08	3.670239e+01	1.089857e+03
1.940000e-06	5.038013e-06	1.654567e-08	3.630062e+01	1.085722e+03
1.950000e-06	4.980393e-06	1.646933e-08	3.588544e+01	1.081428e+03
1.960000e-06	4.921027e-06	1.644575e-08	3.545769e+01	1.076970e+03
1.970000e-06	4.859838e-06	1.634644e-08	3.501680e+01	1.072336e+03
1.980000e-06	4.796710e-06	1.625026e-08	3.456194e+01	1.067518e+03
1.990000e-06	4.731811e-06	1.621989e-08	3.409433e+01	1.062502e+03
2.000000e-06	4.665278e-06	1.610729e-08	3.361493e+01	1.057278e+03
2.010000e-06	4.597152e-06	1.603936e-08	3.312406e+01	1.051835e+03
2.020000e-06	4.527270e-06	1.595185e-08	3.262054e+01	1.046162e+03
2.030000e-06	4.455559e-06	1.586546e-08	3.210383e+01	1.040251e+03
2.040000e-06	4.382229e-06	1.577655e-08	3.157547e+01	1.034092e+03
2.050000e-06	4.307384e-06	1.565241e-08	3.103619e+01	1.027678e+03
2.060000e-06	4.230878e-06	1.556831e-08	3.048493e+01	1.021000e+03
2.070000e-06	4.152554e-06	1.545972e-08	2.992058e+01	1.014050e+03
2.080000e-06	4.072671e-06	1.536080e-08	2.934500e+01	1.006819e+03
2.090000e-06	3.991419e-06	1.524199e-08	2.875955e+01	9.992987e+02
2.100000e-06	3.908781e-06	1.512388e-08	2.816411e+01	9.914822e+02
2.110000e-06	3.824884e-06	1.501267e-08	2.755960e+01	9.833605e+02
2.120000e-06	3.739741e-06	1.487753e-08	2.694612e+01	9.749248e+02
2.130000e-06	3.653159e-06	1.474707e-08	2.632226e+01	9.661646e+02
2.140000e-06	3.565155e-06	1.459645e-08	2.568817e+01	9.570673e+02
2.150000e-06	3.475921e-06	1.445858e-08	2.504521e+01	9.476178e+02
2.160000e-06	3.385458e-06	1.431073e-08	2.439339e+01	9.377982e+02
2.170000e-06	3.293848e-06	1.415857e-08	2.373331e+01	9.275873e+02
2.180000e-06	3.201218e-06	1.400383e-08	2.306588e+01	9.169615e+02
2.190000e-06	3.107360e-06	1.384090e-08	2.238960e+01	9.058949e+02
2.200000e-06	3.012161e-06	1.366634e-08	2.170366e+01	8.943601e+02
2.210000e-06	2.915857e-06	1.347805e-08	2.100975e+01	8.823286e+02
2.220000e-06	2.818535e-06	1.329453e-08	2.030852e+01	8.697710e+02
2.230000e-06	2.720190e-06	1.309746e-08	1.959991e+01	8.566573e+02
2.240000e-06	2.620931e-06	1.288756e-08	1.888471e+01	8.429567e+02
2.250000e-06	2.520891e-06	1.266665e-08	1.816389e+01	8.286368e+02
2.260000e-06	2.420033e-06	1.243908e-08	1.743717e+01	8.136637e+02
2.270000e-06	2.318135e-06	1.220038e-08	1.670296e+01	7.980010e+02
2.280000e-06	2.215129e-06	1.195296e-08	1.596077e+01	7.816098e+02
2.290000e-06	2.111237e-06	1.169608e-08	1.521219e+01	7.644483e+02
2.300000e-06	2.006606e-06	1.142516e-08	1.445829e+01	7.464715e+02
2.310000e-06	1.901276e-06	1.113811e-08	1.369935e+01	7.276314e+02
2.320000e-06	1.795352e-06	1.083516e-08	1.293613e+01	7.078766e+02
2.330000e-06	1.688865e-06	1.051993e-08	1.216886e+01	6.871525e+02
2.340000e-06	1.581841e-06	1.018990e-08	1.139771e+01	6.654010e+02
2.350000e-06	1.474333e-06	9.846240e-09	1.062308e+01	6.425617e+02
2.360000e-06	1.366452e-06	9.483354e-09	9.845756e+00	6.185731e+02
2.370000e-06	1.258209e-06	9.099426e-09	9.065827e+00	5.933758e+02
2.380000e-06	1.149626e-06	8.694166e-09	8.283450e+00	5.669172e+02
2.390000e-06	1.040769e-06	8.270333e-09	7.499101e+00	5.391574e+02
2.400000e-06	9.315592e-07	7.827843e-09	6.712205e+00	5.100776e+02
2.410000e-06	8.219550e-07	7.365937e-09	5.922468e+00	4.796872e+02
2.420000e-06	7.120704e-07	6.883986e-09	5.130713e+00	4.480322e+02
2.430000e-06	6.019345e-07	6.382740e-09	4.337145e+00	4.151993e+02
2.440000e-06	4.916044e-07	5.862844e-09	3.542179e+00	3.813182e+02
2.450000e-06	3.811077e-07	5.328988e-09	2.746012e+00	3.465573e+02
2.460000e-06	2.704567e-07	4.786889e-09	1.948734e+00	3.111147e+02
2.470000e-06	1.596175e-07	4.239643e-09	1.150099e+00	2.752031e+02
2.480000e-06	4.864175e-08	3.689433e-09	3.504805e-01	2.390308e+02
2.490000e-06	-6.228575e-08	3.135066e-09	-4.487903e-01	2.027803e+02
2.500000e-06	-1.731762e-07	2.580993e-09	-1.247794e+00	1.665875e+02
2.510000e-06	-2.839969e-07	2.029515e-09	-2.046295e+00	1.305255e+02
2.520000e-06	-3.946979e-07	1.478545e-09	-2.843934e+00	9.459412e+01
2.530000e-06	-5.052504e-07	9.294852e-10	-3.640503e+00	5.872000e+01
2.540000e-06	-6.155524e-07	3.812532e-10	-4.435267e+00	2.276611e+01
2.550000e-06	-7.256317e-07	-1.714246e-10	-5.228426e+00	-1.344857e+01
2.560000e-06	-8.354356e-07	-7.333891e-10	-6.019601e+00	-5.012166e+01
2.570000e-06	-9.448637e-07	-1.307296e-09	-6.808068e+00	-8.743561e+01
2.580000e-06	-1.053965e-06	-1.892698e-09	-7.594178e+00	-1.255260e+02
2.590000e-06	-1.162766e-06	-2.488570e-09	-8.378127e+00	-1.644542e+02
2.600000e-06	-1.271253e-06	-3.094718e-09	-9.159817e+00	-2.041887e+02
2.610000e-06	-1.379336e-06	-3.710499e-09	-9.938590e+00	-2.445977e+02
2.620000e-06	-1.486962e-06	-4.334807e-09	-1.071407e+01	-2.854542e+02
2.630000e-06	-1.594083e-06	-4.962769e-09	-1.148592e+01	-3.264533e+02
2.640000e-06	-1.700678e-06	-5.586244e-09	-1.225397e+01	-3.672381e+02
2.650000e-06	-1.806654e-06	-6.200190e-09	-1.301756e+01	-4.074321e+02
2.660000e-06	-1.911944e-06	-6.799660e-09	-1.377621e+01	-4.466718e+02
2.670000e-06	-2.016571e-06	-7.380977e-09	-1.453009e+01	-4.846367e+02
2.680000e-06	-2.120469e-06	-7.940580e-09	-1.527871e+01	-5.210714e+02
2.690000e-06	-2.223485e-06	-8.474449e-09	-1.602098e+01	-5.557989e+02
2.700000e-06	-2.325490e-06	-8.978947e-09	-1.675596e+01	-5.887235e+02
2.710000e-06	-2.426498e-06	-9.452986e-09	-1.748375e+01	-6.198243e+02
2.720000e-06	-2.526590e-06	-9.900085e-09	-1.820495e+01	-6.491416e+02
2.730000e-06	-2.625804e-06	-1.032221e-08	-1.891982e+01	-6.767596e+02
2.740000e-06	-2.724141e-06	-1.072147e-08	-1.962837e+01	-7.027871e+02
2.750000e-06	-2.821602e-06	-1.109915e-08	-2.033061e+01	-7.273411e+02
2.760000e-06	-2.918160e-06	-1.145385e-08	-2.102635e+01	-7.505344e+02
2.770000e-06	-3.013776e-06	-1.178708e-08	-2.171529e+01	-7.724671e+02
2.780000e-06	-3.108309e-06	-1.210264e-08	-2.239644e+01	-7.932245e+02
2.790000e-06	-3.201659e-06	-1.240243e-08	-2.306906e+01	-8.128778e+02
2.800000e-06	-3.293869e-06	-1.268723e-08	-2.373346e+01	-8.314880e+02
2.810000e-06	-3.384884e-06	-1.295746e-08	-2.438925e+01	-8.491102e+02
2.820000e-06	-3.474636e-06	-1.321282e-08	-2.503595e+01	-8.657980e+02
2.830000e-06	-3.563191e-06	-1.345480e-08	-2.567402e+01	-8.816057e+02
2.840000e-06	-3.650581e-06	-1.368542e-08	-2.630369e+01	-8.965895e+02
2.850000e-06	-3.736651e-06	-1.390562e-08	-2.692386e+01	-9.108060e+02
2.860000e-06	-3.821301e-06	-1.411546e-08	-2.753379e+01	-9.243100e+02
2.870000e-06	-3.904612e-06	-1.431397e-08	-2.813407e+01	-9.371527e+02
2.880000e-06	-3.986576e-06	-1.450098e-08	-2.872465e+01	-9.493785e+02
2.890000e-06	-4.067159e-06	-1.467771e-08	-2.930528e+01	-9.610243e+02
2.900000e-06	-4.146254e-06	-1.484553e-08	-2.987519e+01	-9.721189e+02
2.910000e-06	-4.223656e-06	-1.500622e-08	-3.043289e+01	-9.826840e+02
2.920000e-06	-4.299322e-06	-1.515954e-08	-3.097810e+01	-9.927353e+02
2.930000e-06	-4.373346e-06	-1.530642e-08	-3.151146e+01	-1.002285e+03
2.940000e-06	-4.445823e-06	-1.544602e-08	-3.203369e+01	-1.011344e+03
