# Temperatura_=_44.22
# Concentracion g/m^3_=_28200.0
# C_Vs_to_Am_M_A/Vsm_=_65563218390.804596
# pendiente_HvsI_1/m_=_3716.3
# ordenada_HvsI_A/m_=_1297.0
# frecuencia_Hz_=_301948.7674623477

Tiempo_(s)	Campo_(V.s)	Magnetizacion_(V.s)	Campo_(kA/m)	Magnetizacion_(A/m)
0.000000e+00	-5.818797e-06	-1.915343e-08	-4.192894e+01	-1.253750e+03
1.000000e-08	-5.815447e-06	-1.914895e-08	-4.190480e+01	-1.253421e+03
2.000000e-08	-5.810279e-06	-1.913811e-08	-4.186756e+01	-1.252961e+03
3.000000e-08	-5.803396e-06	-1.912672e-08	-4.181796e+01	-1.252356e+03
4.000000e-08	-5.794643e-06	-1.911044e-08	-4.175489e+01	-1.251588e+03
5.000000e-08	-5.783686e-06	-1.909159e-08	-4.167594e+01	-1.250643e+03
6.000000e-08	-5.770598e-06	-1.907441e-08	-4.158163e+01	-1.249517e+03
7.000000e-08	-5.755491e-06	-1.905103e-08	-4.147277e+01	-1.248216e+03
8.000000e-08	-5.738255e-06	-1.904689e-08	-4.134857e+01	-1.246754e+03
9.000000e-08	-5.718904e-06	-1.907546e-08	-4.120913e+01	-1.245155e+03
1.000000e-07	-5.697414e-06	-1.903512e-08	-4.105428e+01	-1.243447e+03
1.100000e-07	-5.673692e-06	-1.896594e-08	-4.088335e+01	-1.241655e+03
1.200000e-07	-5.647823e-06	-1.893404e-08	-4.069694e+01	-1.239794e+03
1.300000e-07	-5.620176e-06	-1.884299e-08	-4.049772e+01	-1.237870e+03
1.400000e-07	-5.591041e-06	-1.878841e-08	-4.028778e+01	-1.235874e+03
1.500000e-07	-5.560376e-06	-1.889738e-08	-4.006682e+01	-1.233785e+03
1.600000e-07	-5.527978e-06	-1.880915e-08	-3.983336e+01	-1.231571e+03
1.700000e-07	-5.493732e-06	-1.873925e-08	-3.958660e+01	-1.229198e+03
1.800000e-07	-5.457545e-06	-1.879575e-08	-3.932584e+01	-1.226633e+03
1.900000e-07	-5.419358e-06	-1.863538e-08	-3.905067e+01	-1.223851e+03
2.000000e-07	-5.379406e-06	-1.859454e-08	-3.876278e+01	-1.220838e+03
2.100000e-07	-5.337447e-06	-1.860858e-08	-3.846044e+01	-1.217592e+03
2.200000e-07	-5.293334e-06	-1.850817e-08	-3.814257e+01	-1.214123e+03
2.300000e-07	-5.247282e-06	-1.847680e-08	-3.781073e+01	-1.210447e+03
2.400000e-07	-5.199049e-06	-1.842086e-08	-3.746317e+01	-1.206584e+03
2.500000e-07	-5.148509e-06	-1.834267e-08	-3.709899e+01	-1.202552e+03
2.600000e-07	-5.095769e-06	-1.829845e-08	-3.671896e+01	-1.198364e+03
2.700000e-07	-5.041101e-06	-1.820818e-08	-3.632504e+01	-1.194023e+03
2.800000e-07	-4.984605e-06	-1.814701e-08	-3.591794e+01	-1.189526e+03
2.900000e-07	-4.926158e-06	-1.808162e-08	-3.549678e+01	-1.184860e+03
3.000000e-07	-4.865879e-06	-1.800949e-08	-3.506243e+01	-1.180008e+03
3.100000e-07	-4.803914e-06	-1.792607e-08	-3.461592e+01	-1.174951e+03
3.200000e-07	-4.740263e-06	-1.784024e-08	-3.415726e+01	-1.169671e+03
3.300000e-07	-4.674798e-06	-1.776208e-08	-3.368554e+01	-1.164153e+03
3.400000e-07	-4.607503e-06	-1.765411e-08	-3.320063e+01	-1.158389e+03
3.500000e-07	-4.538499e-06	-1.757447e-08	-3.270340e+01	-1.152372e+03
3.600000e-07	-4.467901e-06	-1.748072e-08	-3.219469e+01	-1.146098e+03
3.700000e-07	-4.395813e-06	-1.737930e-08	-3.167524e+01	-1.139566e+03
3.800000e-07	-4.321970e-06	-1.728054e-08	-3.114314e+01	-1.132772e+03
3.900000e-07	-4.246267e-06	-1.715688e-08	-3.059764e+01	-1.125710e+03
4.000000e-07	-4.168956e-06	-1.704364e-08	-3.004056e+01	-1.118369e+03
4.100000e-07	-4.090033e-06	-1.693514e-08	-2.947185e+01	-1.110740e+03
4.200000e-07	-4.009501e-06	-1.681962e-08	-2.889156e+01	-1.102806e+03
4.300000e-07	-3.927657e-06	-1.669059e-08	-2.830181e+01	-1.094553e+03
4.400000e-07	-3.844631e-06	-1.655514e-08	-2.770354e+01	-1.085969e+03
4.500000e-07	-3.760342e-06	-1.642276e-08	-2.709618e+01	-1.077040e+03
4.600000e-07	-3.674835e-06	-1.627840e-08	-2.648003e+01	-1.067757e+03
4.700000e-07	-3.588136e-06	-1.613166e-08	-2.585530e+01	-1.058112e+03
4.800000e-07	-3.500246e-06	-1.598154e-08	-2.522199e+01	-1.048095e+03
4.900000e-07	-3.411054e-06	-1.582082e-08	-2.457929e+01	-1.037696e+03
5.000000e-07	-3.320443e-06	-1.565033e-08	-2.392636e+01	-1.026900e+03
5.100000e-07	-3.228578e-06	-1.547246e-08	-2.326440e+01	-1.015687e+03
5.200000e-07	-3.135665e-06	-1.529345e-08	-2.259490e+01	-1.004031e+03
5.300000e-07	-3.041704e-06	-1.510822e-08	-2.191783e+01	-9.919013e+02
5.400000e-07	-2.946613e-06	-1.491716e-08	-2.123263e+01	-9.792617e+02
5.500000e-07	-2.850393e-06	-1.471661e-08	-2.053929e+01	-9.660739e+02
5.600000e-07	-2.753026e-06	-1.450288e-08	-1.983768e+01	-9.522985e+02
5.700000e-07	-2.654419e-06	-1.427861e-08	-1.912714e+01	-9.378969e+02
5.800000e-07	-2.554714e-06	-1.404517e-08	-1.840870e+01	-9.228326e+02
5.900000e-07	-2.454160e-06	-1.380232e-08	-1.768412e+01	-9.070704e+02
6.000000e-07	-2.352821e-06	-1.354789e-08	-1.695390e+01	-8.905767e+02
6.100000e-07	-2.250620e-06	-1.328537e-08	-1.621746e+01	-8.733167e+02
6.200000e-07	-2.147555e-06	-1.301099e-08	-1.547479e+01	-8.552534e+02
6.300000e-07	-2.043713e-06	-1.272355e-08	-1.472653e+01	-8.363444e+02
6.400000e-07	-1.939175e-06	-1.242105e-08	-1.397326e+01	-8.165405e+02
6.500000e-07	-1.833949e-06	-1.210309e-08	-1.321502e+01	-7.957839e+02
6.600000e-07	-1.727944e-06	-1.176992e-08	-1.245117e+01	-7.740078e+02
6.700000e-07	-1.621130e-06	-1.141830e-08	-1.168150e+01	-7.511367e+02
6.800000e-07	-1.513636e-06	-1.104875e-08	-1.090692e+01	-7.270879e+02
6.900000e-07	-1.405663e-06	-1.065837e-08	-1.012889e+01	-7.017742e+02
7.000000e-07	-1.297290e-06	-1.024676e-08	-9.347977e+00	-6.751081e+02
7.100000e-07	-1.188617e-06	-9.814250e-09	-8.564905e+00	-6.470074e+02
7.200000e-07	-1.079698e-06	-9.363851e-09	-7.780057e+00	-6.174023e+02
7.300000e-07	-9.704017e-07	-8.894576e-09	-6.992496e+00	-5.862430e+02
7.400000e-07	-8.607195e-07	-8.398912e-09	-6.202150e+00	-5.535095e+02
7.500000e-07	-7.507848e-07	-7.877836e-09	-5.409986e+00	-5.192191e+02
7.600000e-07	-6.406175e-07	-7.331179e-09	-4.616145e+00	-4.834342e+02
7.700000e-07	-5.302489e-07	-6.760591e-09	-3.820854e+00	-4.462656e+02
7.800000e-07	-4.197278e-07	-6.171685e-09	-3.024464e+00	-4.078718e+02
7.900000e-07	-3.090585e-07	-5.571546e-09	-2.227006e+00	-3.684523e+02
8.000000e-07	-1.982316e-07	-4.963052e-09	-1.428412e+00	-3.282339e+02
8.100000e-07	-8.728183e-08	-4.343828e-09	-6.289331e-01	-2.874525e+02
8.200000e-07	2.371785e-08	-3.718127e-09	1.709054e-01	-2.463292e+02
8.300000e-07	1.347256e-07	-3.090840e-09	9.708020e-01	-2.050460e+02
8.400000e-07	2.456679e-07	-2.462751e-09	1.770227e+00	-1.637237e+02
8.500000e-07	3.565415e-07	-1.831959e-09	2.569158e+00	-1.224055e+02
8.600000e-07	4.673287e-07	-1.200084e-09	3.367466e+00	-8.105142e+01
8.700000e-07	5.779790e-07	-5.662725e-10	4.164787e+00	-3.954320e+01
8.800000e-07	6.884535e-07	7.273138e-11	4.960840e+00	2.296625e+00
8.900000e-07	7.987645e-07	7.208734e-10	5.755716e+00	4.467553e+01
9.000000e-07	9.088376e-07	1.378908e-09	6.548879e+00	8.779378e+01
9.100000e-07	1.018568e-06	2.046443e-09	7.339568e+00	1.318049e+02
9.200000e-07	1.127960e-06	2.725807e-09	8.127826e+00	1.767798e+02
9.300000e-07	1.236984e-06	3.420580e-09	8.913427e+00	2.226798e+02
9.400000e-07	1.345622e-06	4.131204e-09	9.696245e+00	2.693441e+02
9.500000e-07	1.453861e-06	4.851562e-09	1.047619e+01	3.164934e+02
9.600000e-07	1.561653e-06	5.575667e-09	1.125292e+01	3.637491e+02
9.700000e-07	1.668921e-06	6.293112e-09	1.202587e+01	4.106671e+02
9.800000e-07	1.775548e-06	6.993890e-09	1.279420e+01	4.567787e+02
9.900000e-07	1.881329e-06	7.673815e-09	1.355643e+01	5.016347e+02
1.000000e-06	1.986191e-06	8.328335e-09	1.431204e+01	5.448447e+02
1.010000e-06	2.090274e-06	8.952830e-09	1.506204e+01	5.861073e+02
1.020000e-06	2.193598e-06	9.544355e-09	1.580657e+01	6.252261e+02
1.030000e-06	2.296079e-06	1.010329e-08	1.654503e+01	6.621120e+02
1.040000e-06	2.397740e-06	1.062924e-08	1.727758e+01	6.967723e+02
1.050000e-06	2.498587e-06	1.112018e-08	1.800426e+01	7.292891e+02
1.060000e-06	2.598628e-06	1.157973e-08	1.872513e+01	7.597943e+02
1.070000e-06	2.697895e-06	1.201470e-08	1.944042e+01	7.884426e+02
1.080000e-06	2.796151e-06	1.242647e-08	2.014843e+01	8.153897e+02
1.090000e-06	2.893168e-06	1.281555e-08	2.084752e+01	8.407768e+02
1.100000e-06	2.988992e-06	1.318239e-08	2.153800e+01	8.647234e+02
1.110000e-06	3.083776e-06	1.352722e-08	2.222099e+01	8.873270e+02
1.120000e-06	3.177564e-06	1.385014e-08	2.289681e+01	9.086680e+02
1.130000e-06	3.270261e-06	1.415489e-08	2.356476e+01	9.288172e+02
1.140000e-06	3.361952e-06	1.444293e-08	2.422547e+01	9.478427e+02
1.150000e-06	3.452580e-06	1.471518e-08	2.487851e+01	9.658148e+02
1.160000e-06	3.541864e-06	1.497327e-08	2.552187e+01	9.828073e+02
1.170000e-06	3.629787e-06	1.521660e-08	2.615543e+01	9.988959e+02
1.180000e-06	3.716475e-06	1.544863e-08	2.678008e+01	1.014154e+03
1.190000e-06	3.801911e-06	1.567065e-08	2.739571e+01	1.028649e+03
1.200000e-06	3.886119e-06	1.588014e-08	2.800250e+01	1.042438e+03
1.210000e-06	3.969092e-06	1.607710e-08	2.860038e+01	1.055565e+03
1.220000e-06	4.050595e-06	1.626381e-08	2.918767e+01	1.068063e+03
1.230000e-06	4.130556e-06	1.644218e-08	2.976385e+01	1.079957e+03
1.240000e-06	4.209006e-06	1.661298e-08	3.032915e+01	1.091266e+03
1.250000e-06	4.285920e-06	1.677601e-08	3.088338e+01	1.102010e+03
1.260000e-06	4.361262e-06	1.693229e-08	3.142627e+01	1.112208e+03
1.270000e-06	4.434854e-06	1.708150e-08	3.195656e+01	1.121884e+03
1.280000e-06	4.506631e-06	1.722236e-08	3.247377e+01	1.131063e+03
1.290000e-06	4.576716e-06	1.735480e-08	3.297878e+01	1.139771e+03
1.300000e-06	4.645211e-06	1.748012e-08	3.347234e+01	1.148032e+03
1.310000e-06	4.712126e-06	1.759972e-08	3.395452e+01	1.155866e+03
1.320000e-06	4.777217e-06	1.771379e-08	3.442355e+01	1.163290e+03
1.330000e-06	4.840476e-06	1.781955e-08	3.487938e+01	1.170319e+03
1.340000e-06	4.902136e-06	1.791818e-08	3.532368e+01	1.176967e+03
1.350000e-06	4.962271e-06	1.801167e-08	3.575701e+01	1.183249e+03
1.360000e-06	5.020704e-06	1.810098e-08	3.617806e+01	1.189185e+03
1.370000e-06	5.077159e-06	1.818715e-08	3.658486e+01	1.194801e+03
1.380000e-06	5.131708e-06	1.827068e-08	3.697793e+01	1.200125e+03
1.390000e-06	5.184389e-06	1.834948e-08	3.735753e+01	1.205187e+03
1.400000e-06	5.234927e-06	1.842282e-08	3.772170e+01	1.210014e+03
1.410000e-06	5.283258e-06	1.849244e-08	3.806997e+01	1.214629e+03
1.420000e-06	5.329696e-06	1.855907e-08	3.840458e+01	1.219042e+03
1.430000e-06	5.374400e-06	1.862300e-08	3.872671e+01	1.223254e+03
1.440000e-06	5.417303e-06	1.868438e-08	3.903586e+01	1.227254e+03
1.450000e-06	5.458197e-06	1.874319e-08	3.933054e+01	1.231028e+03
1.460000e-06	5.497114e-06	1.879815e-08	3.961096e+01	1.234556e+03
1.470000e-06	5.534196e-06	1.884811e-08	3.987816e+01	1.237822e+03
1.480000e-06	5.569436e-06	1.889250e-08	4.013210e+01	1.240820e+03
1.490000e-06	5.602580e-06	1.893354e-08	4.037093e+01	1.243549e+03
1.500000e-06	5.633607e-06	1.897208e-08	4.059450e+01	1.246022e+03
1.510000e-06	5.662798e-06	1.900667e-08	4.080485e+01	1.248254e+03
1.520000e-06	5.690129e-06	1.903713e-08	4.100179e+01	1.250269e+03
1.530000e-06	5.715327e-06	1.906387e-08	4.118335e+01	1.252087e+03
1.540000e-06	5.738295e-06	1.908707e-08	4.134886e+01	1.253723e+03
1.550000e-06	5.759274e-06	1.910844e-08	4.150003e+01	1.255187e+03
1.560000e-06	5.778409e-06	1.912867e-08	4.163791e+01	1.256481e+03
1.570000e-06	5.795497e-06	1.914706e-08	4.176104e+01	1.257602e+03
1.580000e-06	5.810331e-06	1.916181e-08	4.186794e+01	1.258544e+03
1.590000e-06	5.822991e-06	1.917373e-08	4.195916e+01	1.259306e+03
1.600000e-06	5.833277e-06	1.918247e-08	4.203328e+01	1.259887e+03
1.610000e-06	5.841231e-06	1.918952e-08	4.209059e+01	1.260297e+03
1.620000e-06	5.847163e-06	1.919562e-08	4.213333e+01	1.260547e+03
1.630000e-06	5.851173e-06	1.919987e-08	4.216223e+01	1.260653e+03
1.640000e-06	5.853125e-06	1.920453e-08	4.217630e+01	1.260630e+03
1.650000e-06	5.852916e-06	1.920584e-08	4.217479e+01	1.260486e+03
1.660000e-06	5.850716e-06	1.919666e-08	4.215894e+01	1.260225e+03
1.670000e-06	5.846717e-06	1.918755e-08	4.213012e+01	1.259841e+03
1.680000e-06	5.840782e-06	1.918040e-08	4.208736e+01	1.259320e+03
1.690000e-06	5.832805e-06	1.917227e-08	4.202987e+01	1.258645e+03
1.700000e-06	5.823033e-06	1.916349e-08	4.195946e+01	1.257801e+03
1.710000e-06	5.811434e-06	1.915538e-08	4.187588e+01	1.256777e+03
1.720000e-06	5.797724e-06	1.915203e-08	4.177709e+01	1.255574e+03
1.730000e-06	5.781963e-06	1.910855e-08	4.166352e+01	1.254199e+03
1.740000e-06	5.764206e-06	1.901732e-08	4.153557e+01	1.252674e+03
1.750000e-06	5.743982e-06	1.901469e-08	4.138984e+01	1.251024e+03
1.760000e-06	5.720896e-06	1.902399e-08	4.122349e+01	1.249276e+03
1.770000e-06	5.695388e-06	1.900870e-08	4.103968e+01	1.247452e+03
1.780000e-06	5.668304e-06	1.908460e-08	4.084452e+01	1.245563e+03
1.790000e-06	5.640290e-06	1.896101e-08	4.064266e+01	1.243609e+03
1.800000e-06	5.610979e-06	1.883765e-08	4.043145e+01	1.241575e+03
1.810000e-06	5.579374e-06	1.892985e-08	4.020371e+01	1.239435e+03
1.820000e-06	5.545726e-06	1.881129e-08	3.996125e+01	1.237155e+03
1.830000e-06	5.510403e-06	1.881990e-08	3.970672e+01	1.234702e+03
1.840000e-06	5.472922e-06	1.889613e-08	3.943664e+01	1.232045e+03
1.850000e-06	5.433305e-06	1.869123e-08	3.915117e+01	1.229164e+03
1.860000e-06	5.391746e-06	1.869382e-08	3.885171e+01	1.226050e+03
1.870000e-06	5.348406e-06	1.866190e-08	3.853941e+01	1.222705e+03
1.880000e-06	5.303418e-06	1.854246e-08	3.821523e+01	1.219143e+03
1.890000e-06	5.256322e-06	1.856581e-08	3.787587e+01	1.215383e+03
1.900000e-06	5.207102e-06	1.842890e-08	3.752120e+01	1.211445e+03
1.910000e-06	5.155890e-06	1.841828e-08	3.715218e+01	1.207343e+03
1.920000e-06	5.102495e-06	1.839855e-08	3.676743e+01	1.203089e+03
1.930000e-06	5.047131e-06	1.824159e-08	3.636849e+01	1.198681e+03
1.940000e-06	4.989873e-06	1.822783e-08	3.595590e+01	1.194112e+03
1.950000e-06	4.930777e-06	1.812216e-08	3.553007e+01	1.189367e+03
1.960000e-06	4.869865e-06	1.806341e-08	3.509115e+01	1.184428e+03
1.970000e-06	4.807026e-06	1.798553e-08	3.463834e+01	1.179276e+03
1.980000e-06	4.742406e-06	1.787946e-08	3.417271e+01	1.173894e+03
1.990000e-06	4.676133e-06	1.785999e-08	3.369516e+01	1.168271e+03
2.000000e-06	4.608252e-06	1.772740e-08	3.320602e+01	1.162397e+03
2.010000e-06	4.538578e-06	1.764084e-08	3.270397e+01	1.156269e+03
2.020000e-06	4.467101e-06	1.753403e-08	3.218892e+01	1.149884e+03
2.030000e-06	4.394046e-06	1.743540e-08	3.166251e+01	1.143239e+03
2.040000e-06	4.319464e-06	1.736564e-08	3.112508e+01	1.136329e+03
2.050000e-06	4.243289e-06	1.721792e-08	3.057618e+01	1.129148e+03
2.060000e-06	4.165358e-06	1.711854e-08	3.001463e+01	1.121684e+03
2.070000e-06	4.085745e-06	1.699155e-08	2.944096e+01	1.113924e+03
2.080000e-06	4.004655e-06	1.687190e-08	2.885664e+01	1.105854e+03
2.090000e-06	3.922216e-06	1.674598e-08	2.826261e+01	1.097459e+03
2.100000e-06	3.838511e-06	1.661078e-08	2.765945e+01	1.088727e+03
2.110000e-06	3.753527e-06	1.649102e-08	2.704707e+01	1.079646e+03
2.120000e-06	3.667218e-06	1.632894e-08	2.642514e+01	1.070208e+03
2.130000e-06	3.579477e-06	1.617948e-08	2.579290e+01	1.060403e+03
2.140000e-06	3.490433e-06	1.602215e-08	2.515127e+01	1.050223e+03
2.150000e-06	3.400241e-06	1.587192e-08	2.450137e+01	1.039654e+03
2.160000e-06	3.308918e-06	1.571220e-08	2.384332e+01	1.028681e+03
2.170000e-06	3.216491e-06	1.554055e-08	2.317731e+01	1.017280e+03
2.180000e-06	3.122896e-06	1.536328e-08	2.250288e+01	1.005424e+03
2.190000e-06	3.028014e-06	1.517182e-08	2.181919e+01	9.930794e+02
2.200000e-06	2.931906e-06	1.497833e-08	2.112666e+01	9.802083e+02
2.210000e-06	2.834780e-06	1.477244e-08	2.042678e+01	9.667721e+02
2.220000e-06	2.736675e-06	1.456187e-08	1.971986e+01	9.527316e+02
2.230000e-06	2.637619e-06	1.433962e-08	1.900609e+01	9.380491e+02
2.240000e-06	2.537684e-06	1.411042e-08	1.828598e+01	9.226885e+02
2.250000e-06	2.436900e-06	1.386752e-08	1.755975e+01	9.066156e+02
2.260000e-06	2.335228e-06	1.360994e-08	1.682712e+01	8.897965e+02
2.270000e-06	2.232520e-06	1.334199e-08	1.608703e+01	8.721957e+02
2.280000e-06	2.128758e-06	1.306229e-08	1.533935e+01	8.537742e+02
2.290000e-06	2.024160e-06	1.276955e-08	1.458564e+01	8.344868e+02
2.300000e-06	1.918940e-06	1.246221e-08	1.382745e+01	8.142808e+02
2.310000e-06	1.813137e-06	1.214187e-08	1.306505e+01	7.930947e+02
2.320000e-06	1.706771e-06	1.180276e-08	1.229861e+01	7.708577e+02
2.330000e-06	1.599873e-06	1.144563e-08	1.152833e+01	7.474910e+02
2.340000e-06	1.492490e-06	1.107212e-08	1.075454e+01	7.229095e+02
2.350000e-06	1.384593e-06	1.068304e-08	9.977064e+00	6.970254e+02
2.360000e-06	1.276220e-06	1.027240e-08	9.196155e+00	6.697527e+02
2.370000e-06	1.167531e-06	9.836135e-09	8.412966e+00	6.410135e+02
2.380000e-06	1.058605e-06	9.374096e-09	7.628067e+00	6.107455e+02
2.390000e-06	9.494341e-07	8.887385e-09	6.841408e+00	5.789107e+02
2.400000e-06	8.400059e-07	8.376237e-09	6.052893e+00	5.455039e+02
2.410000e-06	7.302798e-07	7.840435e-09	5.262232e+00	5.105613e+02
2.420000e-06	6.202307e-07	7.283347e-09	4.469242e+00	4.741656e+02
2.430000e-06	5.099465e-07	6.706313e-09	3.674560e+00	4.364486e+02
2.440000e-06	3.994555e-07	6.111519e-09	2.878387e+00	3.975875e+02
2.450000e-06	2.888045e-07	5.501978e-09	2.081060e+00	3.577954e+02
2.460000e-06	1.780747e-07	4.883499e-09	1.283166e+00	3.173059e+02
2.470000e-06	6.722689e-08	4.258955e-09	4.844218e-01	2.763512e+02
2.480000e-06	-4.371549e-08	3.630026e-09	-3.150040e-01	2.351389e+02
2.490000e-06	-1.546232e-07	2.998925e-09	-1.114180e+00	1.938270e+02
2.500000e-06	-2.654432e-07	2.366732e-09	-1.912724e+00	1.525047e+02
2.510000e-06	-3.761902e-07	1.735868e-09	-2.710741e+00	1.111796e+02
2.520000e-06	-4.867831e-07	1.103695e-09	-3.507649e+00	6.977653e+01
2.530000e-06	-5.971911e-07	4.681950e-10	-4.303224e+00	2.814913e+01
2.540000e-06	-7.074029e-07	-1.752474e-10	-5.097386e+00	-1.389719e+01
2.550000e-06	-8.172978e-07	-8.289777e-10	-5.889264e+00	-5.657160e+01
2.560000e-06	-9.268724e-07	-1.494409e-09	-6.678833e+00	-1.000591e+02
2.570000e-06	-1.036123e-06	-2.175051e-09	-7.466070e+00	-1.444819e+02
2.580000e-06	-1.145013e-06	-2.868151e-09	-8.250702e+00	-1.898663e+02
2.590000e-06	-1.253584e-06	-3.572990e-09	-9.033044e+00	-2.361220e+02
2.600000e-06	-1.361812e-06	-4.288725e-09	-9.812912e+00	-2.830362e+02
2.610000e-06	-1.469597e-06	-5.010989e-09	-1.058958e+01	-3.302835e+02
2.620000e-06	-1.576864e-06	-5.733799e-09	-1.136253e+01	-3.774527e+02
2.630000e-06	-1.683556e-06	-6.448018e-09	-1.213133e+01	-4.240836e+02
2.640000e-06	-1.789628e-06	-7.147814e-09	-1.289566e+01	-4.697108e+02
2.650000e-06	-1.895067e-06	-7.824411e-09	-1.365543e+01	-5.139059e+02
2.660000e-06	-1.999827e-06	-8.471489e-09	-1.441030e+01	-5.563136e+02
2.670000e-06	-2.103837e-06	-9.088711e-09	-1.515977e+01	-5.966765e+02
2.680000e-06	-2.206973e-06	-9.674564e-09	-1.590295e+01	-6.348446e+02
2.690000e-06	-2.309110e-06	-1.022781e-08	-1.663892e+01	-6.707722e+02
2.700000e-06	-2.410254e-06	-1.074702e-08	-1.736775e+01	-7.045015e+02
2.710000e-06	-2.510505e-06	-1.123242e-08	-1.809013e+01	-7.361396e+02
2.720000e-06	-2.609898e-06	-1.168818e-08	-1.880633e+01	-7.658309e+02
2.730000e-06	-2.708439e-06	-1.211557e-08	-1.951640e+01	-7.937329e+02
2.740000e-06	-2.806077e-06	-1.251615e-08	-2.021996e+01	-8.199966e+02
2.750000e-06	-2.902811e-06	-1.289628e-08	-2.091700e+01	-8.447544e+02
2.760000e-06	-2.998681e-06	-1.325485e-08	-2.160782e+01	-8.681160e+02
2.770000e-06	-3.093430e-06	-1.359066e-08	-2.229056e+01	-8.901708e+02
2.780000e-06	-3.186902e-06	-1.390598e-08	-2.296410e+01	-9.109940e+02
2.790000e-06	-3.279237e-06	-1.420361e-08	-2.362944e+01	-9.306546e+02
2.800000e-06	-3.370469e-06	-1.448711e-08	-2.428684e+01	-9.492211e+02
2.810000e-06	-3.460488e-06	-1.475581e-08	-2.493549e+01	-9.667655e+02
2.820000e-06	-3.549289e-06	-1.501021e-08	-2.557537e+01	-9.833626e+02
2.830000e-06	-3.636910e-06	-1.525249e-08	-2.620676e+01	-9.990880e+02
2.840000e-06	-3.723176e-06	-1.548338e-08	-2.682836e+01	-1.014013e+03
2.850000e-06	-3.808054e-06	-1.570260e-08	-2.743998e+01	-1.028200e+03
2.860000e-06	-3.891601e-06	-1.591114e-08	-2.804200e+01	-1.041702e+03
2.870000e-06	-3.973786e-06	-1.611079e-08	-2.863421e+01	-1.054557e+03
2.880000e-06	-4.054665e-06	-1.629891e-08	-2.921700e+01	-1.066795e+03
2.890000e-06	-4.134036e-06	-1.647441e-08	-2.978893e+01	-1.078437e+03
2.900000e-06	-4.211612e-06	-1.664005e-08	-3.034792e+01	-1.089503e+03
2.910000e-06	-4.287488e-06	-1.679894e-08	-3.089467e+01	-1.100012e+03
2.920000e-06	-4.361766e-06	-1.695127e-08	-3.142990e+01	-1.109985e+03
2.930000e-06	-4.434523e-06	-1.709545e-08	-3.195417e+01	-1.119446e+03
2.940000e-06	-4.505655e-06	-1.723345e-08	-3.246674e+01	-1.128422e+03
