# Temperatura_=_30.72
# Concentracion g/m^3_=_28200.0
# C_Vs_to_Am_M_A/Vsm_=_65563218390.804596
# pendiente_HvsI_1/m_=_3716.3
# ordenada_HvsI_A/m_=_1297.0
# frecuencia_Hz_=_301954.6466815131

Tiempo_(s)	Campo_(V.s)	Magnetizacion_(V.s)	Campo_(kA/m)	Magnetizacion_(A/m)
0.000000e+00	-5.868871e-06	-1.739938e-08	-4.192604e+01	-1.139750e+03
1.000000e-08	-5.865500e-06	-1.739565e-08	-4.190196e+01	-1.139395e+03
2.000000e-08	-5.860249e-06	-1.738775e-08	-4.186445e+01	-1.138915e+03
3.000000e-08	-5.853260e-06	-1.737947e-08	-4.181452e+01	-1.138313e+03
4.000000e-08	-5.844408e-06	-1.736771e-08	-4.175129e+01	-1.137588e+03
5.000000e-08	-5.833351e-06	-1.735219e-08	-4.167229e+01	-1.136738e+03
6.000000e-08	-5.820089e-06	-1.733422e-08	-4.157756e+01	-1.135759e+03
7.000000e-08	-5.804737e-06	-1.731351e-08	-4.146788e+01	-1.134649e+03
8.000000e-08	-5.787293e-06	-1.731233e-08	-4.134327e+01	-1.133407e+03
9.000000e-08	-5.767770e-06	-1.732631e-08	-4.120380e+01	-1.132031e+03
1.000000e-07	-5.746074e-06	-1.729528e-08	-4.104881e+01	-1.130524e+03
1.100000e-07	-5.722134e-06	-1.724168e-08	-4.087778e+01	-1.128891e+03
1.200000e-07	-5.695997e-06	-1.721263e-08	-4.069107e+01	-1.127137e+03
1.300000e-07	-5.668042e-06	-1.715200e-08	-4.049136e+01	-1.125265e+03
1.400000e-07	-5.638656e-06	-1.709148e-08	-4.028144e+01	-1.123280e+03
1.500000e-07	-5.607739e-06	-1.713692e-08	-4.006057e+01	-1.121179e+03
1.600000e-07	-5.575010e-06	-1.709973e-08	-3.982676e+01	-1.118959e+03
1.700000e-07	-5.540411e-06	-1.701574e-08	-3.957959e+01	-1.116611e+03
1.800000e-07	-5.503912e-06	-1.703829e-08	-3.931885e+01	-1.114123e+03
1.900000e-07	-5.465490e-06	-1.696967e-08	-3.904437e+01	-1.111485e+03
2.000000e-07	-5.425187e-06	-1.691102e-08	-3.875645e+01	-1.108682e+03
2.100000e-07	-5.382761e-06	-1.691870e-08	-3.845337e+01	-1.105708e+03
2.200000e-07	-5.338247e-06	-1.685368e-08	-3.813537e+01	-1.102556e+03
2.300000e-07	-5.291747e-06	-1.679244e-08	-3.780319e+01	-1.099226e+03
2.400000e-07	-5.243013e-06	-1.672787e-08	-3.745504e+01	-1.095721e+03
2.500000e-07	-5.191933e-06	-1.665980e-08	-3.709013e+01	-1.092047e+03
2.600000e-07	-5.138599e-06	-1.662014e-08	-3.670912e+01	-1.088210e+03
2.700000e-07	-5.083372e-06	-1.655477e-08	-3.631459e+01	-1.084217e+03
2.800000e-07	-5.026374e-06	-1.649205e-08	-3.590741e+01	-1.080067e+03
2.900000e-07	-4.967377e-06	-1.641927e-08	-3.548595e+01	-1.075757e+03
3.000000e-07	-4.906507e-06	-1.633619e-08	-3.505111e+01	-1.071280e+03
3.100000e-07	-4.843887e-06	-1.627450e-08	-3.460376e+01	-1.066623e+03
3.200000e-07	-4.779470e-06	-1.622032e-08	-3.414358e+01	-1.061772e+03
3.300000e-07	-4.713279e-06	-1.614750e-08	-3.367073e+01	-1.056713e+03
3.400000e-07	-4.645347e-06	-1.604819e-08	-3.318543e+01	-1.051431e+03
3.500000e-07	-4.575741e-06	-1.595557e-08	-3.268818e+01	-1.045918e+03
3.600000e-07	-4.504520e-06	-1.586021e-08	-3.217939e+01	-1.040164e+03
3.700000e-07	-4.431664e-06	-1.576827e-08	-3.165892e+01	-1.034167e+03
3.800000e-07	-4.357000e-06	-1.569349e-08	-3.112554e+01	-1.027923e+03
3.900000e-07	-4.280528e-06	-1.559953e-08	-3.057924e+01	-1.021429e+03
4.000000e-07	-4.202395e-06	-1.548799e-08	-3.002107e+01	-1.014683e+03
4.100000e-07	-4.122596e-06	-1.537317e-08	-2.945101e+01	-1.007677e+03
4.200000e-07	-4.041257e-06	-1.525706e-08	-2.886993e+01	-1.000402e+03
4.300000e-07	-3.958639e-06	-1.514070e-08	-2.827973e+01	-9.928486e+02
4.400000e-07	-3.874826e-06	-1.501998e-08	-2.768098e+01	-9.850025e+02
4.500000e-07	-3.789778e-06	-1.489994e-08	-2.707342e+01	-9.768501e+02
4.600000e-07	-3.703517e-06	-1.476776e-08	-2.645719e+01	-9.683774e+02
4.700000e-07	-3.616153e-06	-1.462904e-08	-2.583307e+01	-9.595705e+02
4.800000e-07	-3.527510e-06	-1.449184e-08	-2.519983e+01	-9.504153e+02
4.900000e-07	-3.437362e-06	-1.434892e-08	-2.455583e+01	-9.408969e+02
5.000000e-07	-3.345825e-06	-1.419406e-08	-2.390190e+01	-9.309989e+02
5.100000e-07	-3.253091e-06	-1.403017e-08	-2.323943e+01	-9.207021e+02
5.200000e-07	-3.159261e-06	-1.386460e-08	-2.256913e+01	-9.099839e+02
5.300000e-07	-3.064374e-06	-1.369087e-08	-2.189128e+01	-8.988186e+02
5.400000e-07	-2.968422e-06	-1.351104e-08	-2.120581e+01	-8.871773e+02
5.500000e-07	-2.871244e-06	-1.332570e-08	-2.051159e+01	-8.750291e+02
5.600000e-07	-2.772785e-06	-1.313161e-08	-1.980822e+01	-8.623416e+02
5.700000e-07	-2.673194e-06	-1.292565e-08	-1.909677e+01	-8.490821e+02
5.800000e-07	-2.572640e-06	-1.271274e-08	-1.837842e+01	-8.352178e+02
5.900000e-07	-2.471163e-06	-1.249374e-08	-1.765349e+01	-8.207160e+02
6.000000e-07	-2.368872e-06	-1.226160e-08	-1.692275e+01	-8.055428e+02
6.100000e-07	-2.265807e-06	-1.201549e-08	-1.618648e+01	-7.896631e+02
6.200000e-07	-2.161894e-06	-1.175790e-08	-1.544414e+01	-7.730388e+02
6.300000e-07	-2.057086e-06	-1.149273e-08	-1.469541e+01	-7.556281e+02
6.400000e-07	-1.951401e-06	-1.121585e-08	-1.394042e+01	-7.373846e+02
6.500000e-07	-1.844983e-06	-1.092580e-08	-1.318019e+01	-7.182569e+02
6.600000e-07	-1.737889e-06	-1.061997e-08	-1.241514e+01	-6.981887e+02
6.700000e-07	-1.630180e-06	-1.029479e-08	-1.164568e+01	-6.771185e+02
6.800000e-07	-1.521920e-06	-9.952610e-09	-1.087229e+01	-6.549810e+02
6.900000e-07	-1.413186e-06	-9.594112e-09	-1.009552e+01	-6.317077e+02
7.000000e-07	-1.303963e-06	-9.218794e-09	-9.315251e+00	-6.072300e+02
7.100000e-07	-1.194308e-06	-8.824772e-09	-8.531901e+00	-5.814820e+02
7.200000e-07	-1.084369e-06	-8.412585e-09	-7.746517e+00	-5.544062e+02
7.300000e-07	-9.741259e-07	-7.980349e-09	-6.958961e+00	-5.259608e+02
7.400000e-07	-8.635886e-07	-7.525232e-09	-6.169305e+00	-4.961275e+02
7.500000e-07	-7.527832e-07	-7.048907e-09	-5.377733e+00	-4.649205e+02
7.600000e-07	-6.417358e-07	-6.554643e-09	-4.584433e+00	-4.323942e+02
7.700000e-07	-5.305497e-07	-6.042217e-09	-3.790141e+00	-3.986482e+02
7.800000e-07	-4.192082e-07	-5.511643e-09	-2.994740e+00	-3.638273e+02
7.900000e-07	-3.077150e-07	-4.966806e-09	-2.198255e+00	-3.281161e+02
8.000000e-07	-1.960826e-07	-4.412135e-09	-1.400775e+00	-2.917265e+02
8.100000e-07	-8.436731e-08	-3.851005e-09	-6.027032e-01	-2.548791e+02
8.200000e-07	2.738775e-08	-3.286359e-09	1.956526e-01	-2.177809e+02
8.300000e-07	1.392611e-07	-2.722262e-09	9.948536e-01	-1.806011e+02
8.400000e-07	2.511294e-07	-2.159359e-09	1.794018e+00	-1.434501e+02
8.500000e-07	3.628734e-07	-1.594779e-09	2.592295e+00	-1.063640e+02
8.600000e-07	4.744662e-07	-1.028762e-09	3.389492e+00	-6.929979e+01
8.700000e-07	5.858757e-07	-4.619583e-10	4.185379e+00	-3.214146e+01
8.800000e-07	6.971248e-07	1.076504e-10	4.980120e+00	5.281464e+00
8.900000e-07	8.082388e-07	6.832926e-10	5.773897e+00	4.316565e+01
9.000000e-07	9.191584e-07	1.269699e-09	6.566284e+00	8.169929e+01
9.100000e-07	1.029813e-06	1.868913e-09	7.356777e+00	1.210260e+02
9.200000e-07	1.140133e-06	2.480935e-09	8.144886e+00	1.612129e+02
9.300000e-07	1.250067e-06	3.106007e-09	8.930231e+00	2.022282e+02
9.400000e-07	1.359563e-06	3.741566e-09	9.712448e+00	2.439308e+02
9.500000e-07	1.468596e-06	4.384716e-09	1.049135e+01	2.860757e+02
9.600000e-07	1.577176e-06	5.030221e-09	1.126703e+01	3.283323e+02
9.700000e-07	1.685219e-06	5.671659e-09	1.203887e+01	3.703140e+02
9.800000e-07	1.792645e-06	6.299385e-09	1.280630e+01	4.116145e+02
9.900000e-07	1.899458e-06	6.907207e-09	1.356935e+01	4.518447e+02
1.000000e-06	2.005623e-06	7.494572e-09	1.432777e+01	4.906662e+02
1.010000e-06	2.110950e-06	8.057712e-09	1.508021e+01	5.278155e+02
1.020000e-06	2.215250e-06	8.593275e-09	1.582530e+01	5.631173e+02
1.030000e-06	2.318601e-06	9.097664e-09	1.656362e+01	5.964866e+02
1.040000e-06	2.421163e-06	9.573438e-09	1.729631e+01	6.279194e+02
1.050000e-06	2.522867e-06	1.002213e-08	1.802286e+01	6.574763e+02
1.060000e-06	2.623710e-06	1.044437e-08	1.874326e+01	6.852611e+02
1.070000e-06	2.723689e-06	1.084155e-08	1.945749e+01	7.114007e+02
1.080000e-06	2.822781e-06	1.121618e-08	2.016538e+01	7.360256e+02
1.090000e-06	2.920886e-06	1.157071e-08	2.086623e+01	7.592576e+02
1.100000e-06	3.017659e-06	1.190645e-08	2.155755e+01	7.812021e+02
1.110000e-06	3.113165e-06	1.222333e-08	2.223983e+01	8.019461e+02
1.120000e-06	3.207633e-06	1.252106e-08	2.291469e+01	8.215615e+02
1.130000e-06	3.301059e-06	1.280337e-08	2.358211e+01	8.401095e+02
1.140000e-06	3.393491e-06	1.306956e-08	2.424242e+01	8.576465e+02
1.150000e-06	3.484941e-06	1.331852e-08	2.489572e+01	8.742287e+02
1.160000e-06	3.575180e-06	1.355448e-08	2.554037e+01	8.899148e+02
1.170000e-06	3.663873e-06	1.378030e-08	2.617397e+01	9.047661e+02
1.180000e-06	3.751150e-06	1.399565e-08	2.679747e+01	9.188451e+02
1.190000e-06	3.837204e-06	1.419987e-08	2.741222e+01	9.322124e+02
1.200000e-06	3.921982e-06	1.439136e-08	2.801786e+01	9.449236e+02
1.210000e-06	4.005559e-06	1.457313e-08	2.861491e+01	9.570261e+02
1.220000e-06	4.087848e-06	1.474702e-08	2.920277e+01	9.685580e+02
1.230000e-06	4.168587e-06	1.491313e-08	2.977956e+01	9.795475e+02
1.240000e-06	4.247691e-06	1.507241e-08	3.034466e+01	9.900144e+02
1.250000e-06	4.325220e-06	1.522461e-08	3.089851e+01	9.999715e+02
1.260000e-06	4.401165e-06	1.536820e-08	3.144104e+01	1.009428e+03
1.270000e-06	4.475371e-06	1.550397e-08	3.197116e+01	1.018393e+03
1.280000e-06	4.547728e-06	1.563369e-08	3.248806e+01	1.026875e+03
1.290000e-06	4.618362e-06	1.575672e-08	3.299266e+01	1.034889e+03
1.300000e-06	4.687387e-06	1.587192e-08	3.348576e+01	1.042451e+03
1.310000e-06	4.754842e-06	1.598061e-08	3.396764e+01	1.049585e+03
1.320000e-06	4.820534e-06	1.608433e-08	3.443693e+01	1.056318e+03
1.330000e-06	4.884343e-06	1.618078e-08	3.489277e+01	1.062678e+03
1.340000e-06	4.946466e-06	1.627012e-08	3.533656e+01	1.068699e+03
1.350000e-06	5.006977e-06	1.635471e-08	3.576884e+01	1.074411e+03
1.360000e-06	5.065836e-06	1.643610e-08	3.618932e+01	1.079845e+03
1.370000e-06	5.122747e-06	1.651423e-08	3.659588e+01	1.085026e+03
1.380000e-06	5.177690e-06	1.659104e-08	3.698838e+01	1.089975e+03
1.390000e-06	5.230851e-06	1.666584e-08	3.736816e+01	1.094706e+03
1.400000e-06	5.281884e-06	1.673514e-08	3.773273e+01	1.099228e+03
1.410000e-06	5.330609e-06	1.679900e-08	3.808081e+01	1.103543e+03
1.420000e-06	5.377338e-06	1.685823e-08	3.841463e+01	1.107647e+03
1.430000e-06	5.422305e-06	1.691564e-08	3.873587e+01	1.111536e+03
1.440000e-06	5.465576e-06	1.697086e-08	3.904499e+01	1.115201e+03
1.450000e-06	5.506856e-06	1.702512e-08	3.933988e+01	1.118636e+03
1.460000e-06	5.546010e-06	1.707731e-08	3.961959e+01	1.121835e+03
1.470000e-06	5.583287e-06	1.712332e-08	3.988589e+01	1.124797e+03
1.480000e-06	5.618770e-06	1.716177e-08	4.013937e+01	1.127525e+03
1.490000e-06	5.652181e-06	1.719693e-08	4.037806e+01	1.130024e+03
1.500000e-06	5.683419e-06	1.723295e-08	4.060121e+01	1.132305e+03
1.510000e-06	5.712757e-06	1.726679e-08	4.081079e+01	1.134379e+03
1.520000e-06	5.740246e-06	1.729690e-08	4.100717e+01	1.136258e+03
1.530000e-06	5.765612e-06	1.732171e-08	4.118838e+01	1.137955e+03
1.540000e-06	5.788723e-06	1.734136e-08	4.135348e+01	1.139479e+03
1.550000e-06	5.809836e-06	1.735864e-08	4.150431e+01	1.140839e+03
1.560000e-06	5.829051e-06	1.737577e-08	4.164157e+01	1.142038e+03
1.570000e-06	5.846160e-06	1.739364e-08	4.176380e+01	1.143081e+03
1.580000e-06	5.861045e-06	1.741103e-08	4.187014e+01	1.143968e+03
1.590000e-06	5.873759e-06	1.742473e-08	4.196097e+01	1.144700e+03
1.600000e-06	5.884164e-06	1.743365e-08	4.203530e+01	1.145276e+03
1.610000e-06	5.892219e-06	1.744044e-08	4.209284e+01	1.145698e+03
1.620000e-06	5.898137e-06	1.744699e-08	4.213512e+01	1.145969e+03
1.630000e-06	5.902092e-06	1.745260e-08	4.216337e+01	1.146093e+03
1.640000e-06	5.903902e-06	1.745711e-08	4.217630e+01	1.146074e+03
1.650000e-06	5.903523e-06	1.745810e-08	4.217359e+01	1.145920e+03
1.660000e-06	5.901244e-06	1.745066e-08	4.215731e+01	1.145635e+03
1.670000e-06	5.897140e-06	1.744140e-08	4.212799e+01	1.145225e+03
1.680000e-06	5.891038e-06	1.743521e-08	4.208440e+01	1.144691e+03
1.690000e-06	5.882923e-06	1.742761e-08	4.202643e+01	1.144035e+03
1.700000e-06	5.872972e-06	1.741905e-08	4.195534e+01	1.143255e+03
1.710000e-06	5.861179e-06	1.741107e-08	4.187109e+01	1.142349e+03
1.720000e-06	5.847262e-06	1.740137e-08	4.177167e+01	1.141313e+03
1.730000e-06	5.831275e-06	1.736056e-08	4.165747e+01	1.140145e+03
1.740000e-06	5.813313e-06	1.729362e-08	4.152915e+01	1.138843e+03
1.750000e-06	5.792722e-06	1.728598e-08	4.138205e+01	1.137410e+03
1.760000e-06	5.769204e-06	1.729247e-08	4.121404e+01	1.135847e+03
1.770000e-06	5.743397e-06	1.728195e-08	4.102968e+01	1.134160e+03
1.780000e-06	5.716105e-06	1.731062e-08	4.083471e+01	1.132353e+03
1.790000e-06	5.687912e-06	1.724221e-08	4.063331e+01	1.130431e+03
1.800000e-06	5.658333e-06	1.714441e-08	4.042200e+01	1.128395e+03
1.810000e-06	5.626365e-06	1.718087e-08	4.019363e+01	1.126242e+03
1.820000e-06	5.592377e-06	1.712089e-08	3.995082e+01	1.123967e+03
1.830000e-06	5.556671e-06	1.708322e-08	3.969575e+01	1.121559e+03
1.840000e-06	5.518784e-06	1.711056e-08	3.942510e+01	1.119007e+03
1.850000e-06	5.478843e-06	1.698427e-08	3.913976e+01	1.116298e+03
1.860000e-06	5.437006e-06	1.693610e-08	3.884089e+01	1.113422e+03
1.870000e-06	5.393409e-06	1.691444e-08	3.852944e+01	1.110370e+03
1.880000e-06	5.348092e-06	1.685425e-08	3.820571e+01	1.107140e+03
1.890000e-06	5.300562e-06	1.685928e-08	3.786616e+01	1.103733e+03
1.900000e-06	5.250839e-06	1.676572e-08	3.751095e+01	1.100153e+03
1.910000e-06	5.199022e-06	1.670156e-08	3.714078e+01	1.096407e+03
1.920000e-06	5.144936e-06	1.666586e-08	3.675439e+01	1.092502e+03
1.930000e-06	5.088907e-06	1.657059e-08	3.635414e+01	1.088440e+03
1.940000e-06	5.031083e-06	1.655524e-08	3.594106e+01	1.084221e+03
1.950000e-06	4.971467e-06	1.648710e-08	3.551517e+01	1.079839e+03
1.960000e-06	4.910032e-06	1.640150e-08	3.507629e+01	1.075285e+03
1.970000e-06	4.846628e-06	1.632383e-08	3.462335e+01	1.070545e+03
1.980000e-06	4.781412e-06	1.622502e-08	3.415746e+01	1.065605e+03
1.990000e-06	4.714576e-06	1.617424e-08	3.367999e+01	1.060451e+03
2.000000e-06	4.646131e-06	1.609849e-08	3.319103e+01	1.055069e+03
2.010000e-06	4.575869e-06	1.602423e-08	3.268910e+01	1.049452e+03
2.020000e-06	4.503769e-06	1.592395e-08	3.217403e+01	1.043593e+03
2.030000e-06	4.430032e-06	1.580738e-08	3.164726e+01	1.037489e+03
2.040000e-06	4.354702e-06	1.572559e-08	3.110912e+01	1.031137e+03
2.050000e-06	4.277693e-06	1.562397e-08	3.055898e+01	1.024534e+03
2.060000e-06	4.198927e-06	1.553275e-08	2.999630e+01	1.017676e+03
2.070000e-06	4.118575e-06	1.542709e-08	2.942228e+01	1.010554e+03
2.080000e-06	4.036827e-06	1.530761e-08	2.883829e+01	1.003160e+03
2.090000e-06	3.953802e-06	1.518830e-08	2.824518e+01	9.954814e+02
2.100000e-06	3.869466e-06	1.506436e-08	2.764269e+01	9.875043e+02
2.110000e-06	3.783607e-06	1.495158e-08	2.702933e+01	9.792149e+02
2.120000e-06	3.696314e-06	1.481885e-08	2.640573e+01	9.705992e+02
2.130000e-06	3.607777e-06	1.468086e-08	2.577324e+01	9.616433e+02
2.140000e-06	3.518005e-06	1.453960e-08	2.513192e+01	9.523328e+02
2.150000e-06	3.427042e-06	1.439192e-08	2.448210e+01	9.426525e+02
2.160000e-06	3.334985e-06	1.424153e-08	2.382447e+01	9.325846e+02
2.170000e-06	3.241692e-06	1.408725e-08	2.315800e+01	9.221087e+02
2.180000e-06	3.146983e-06	1.392937e-08	2.248142e+01	9.112007e+02
2.190000e-06	3.051054e-06	1.375571e-08	2.179612e+01	8.998337e+02
2.200000e-06	2.954078e-06	1.357464e-08	2.110335e+01	8.879775e+02
2.210000e-06	2.856099e-06	1.338847e-08	2.040340e+01	8.756007e+02
2.220000e-06	2.757181e-06	1.319341e-08	1.969675e+01	8.626706e+02
2.230000e-06	2.657358e-06	1.298699e-08	1.898363e+01	8.491545e+02
2.240000e-06	2.556589e-06	1.277177e-08	1.826376e+01	8.350196e+02
2.250000e-06	2.454818e-06	1.255174e-08	1.753673e+01	8.202327e+02
2.260000e-06	2.352053e-06	1.231799e-08	1.680260e+01	8.047597e+02
2.270000e-06	2.248280e-06	1.207159e-08	1.606127e+01	7.885643e+02
2.280000e-06	2.143609e-06	1.181499e-08	1.531351e+01	7.716069e+02
2.290000e-06	2.038191e-06	1.154505e-08	1.456043e+01	7.538438e+02
2.300000e-06	1.932110e-06	1.126125e-08	1.380261e+01	7.352264e+02
2.310000e-06	1.825442e-06	1.096415e-08	1.304059e+01	7.157014e+02
2.320000e-06	1.718279e-06	1.065422e-08	1.227504e+01	6.952100e+02
2.330000e-06	1.610638e-06	1.032902e-08	1.150608e+01	6.736892e+02
2.340000e-06	1.502490e-06	9.985288e-09	1.073349e+01	6.510719e+02
2.350000e-06	1.393832e-06	9.622260e-09	9.957256e+00	6.272893e+02
2.360000e-06	1.284679e-06	9.242039e-09	9.177491e+00	6.022734e+02
2.370000e-06	1.175048e-06	8.844690e-09	8.394305e+00	5.759612e+02
2.380000e-06	1.065037e-06	8.426777e-09	7.608414e+00	5.483010e+02
2.390000e-06	9.547621e-07	7.985065e-09	6.820630e+00	5.192598e+02
2.400000e-06	8.441731e-07	7.519326e-09	6.030604e+00	4.888324e+02
2.410000e-06	7.333165e-07	7.031285e-09	5.238667e+00	4.570493e+02
2.420000e-06	6.222379e-07	6.522841e-09	4.445143e+00	4.239839e+02
2.430000e-06	5.109506e-07	5.997614e-09	3.650129e+00	3.897555e+02
2.440000e-06	3.994795e-07	5.459880e-09	2.853802e+00	3.545270e+02
2.450000e-06	2.877994e-07	4.910879e-09	2.055982e+00	3.184966e+02
2.460000e-06	1.759441e-07	4.351553e-09	1.256910e+00	2.818826e+02
2.470000e-06	6.394382e-08	3.785815e-09	4.568019e-01	2.449025e+02
2.480000e-06	-4.804673e-08	3.218098e-09	-3.432363e-01	2.077502e+02
2.490000e-06	-1.599897e-07	2.649519e-09	-1.142935e+00	1.705719e+02
2.500000e-06	-2.718607e-07	2.081113e-09	-1.942119e+00	1.334474e+02
2.510000e-06	-3.836047e-07	1.514510e-09	-2.740395e+00	9.637903e+01
2.520000e-06	-4.952290e-07	9.474901e-10	-3.537817e+00	5.929091e+01
2.530000e-06	-6.066232e-07	3.771105e-10	-4.333595e+00	2.204086e+01
2.540000e-06	-7.177262e-07	-1.993281e-10	-5.127293e+00	-1.555680e+01
2.550000e-06	-8.285366e-07	-7.844004e-10	-5.918900e+00	-5.369954e+01
2.560000e-06	-9.390368e-07	-1.380078e-09	-6.708292e+00	-9.256075e+01
2.570000e-06	-1.049236e-06	-1.987251e-09	-7.495536e+00	-1.322548e+02
2.580000e-06	-1.159089e-06	-2.604058e-09	-8.280300e+00	-1.728084e+02
2.590000e-06	-1.268451e-06	-3.230991e-09	-9.061561e+00	-2.141432e+02
2.600000e-06	-1.377342e-06	-3.869256e-09	-9.839460e+00	-2.560725e+02
2.610000e-06	-1.485772e-06	-4.515843e-09	-1.061406e+01	-2.983112e+02
2.620000e-06	-1.593684e-06	-5.163781e-09	-1.138496e+01	-3.405009e+02
2.630000e-06	-1.701114e-06	-5.804203e-09	-1.215242e+01	-3.822417e+02
2.640000e-06	-1.808099e-06	-6.430002e-09	-1.291670e+01	-4.231303e+02
2.650000e-06	-1.914431e-06	-7.037497e-09	-1.367631e+01	-4.627958e+02
2.660000e-06	-2.020004e-06	-7.623300e-09	-1.443050e+01	-5.009294e+02
2.670000e-06	-2.124835e-06	-8.182306e-09	-1.517940e+01	-5.373044e+02
2.680000e-06	-2.228812e-06	-8.710963e-09	-1.592219e+01	-5.717849e+02
2.690000e-06	-2.331987e-06	-9.208677e-09	-1.665925e+01	-6.043220e+02
2.700000e-06	-2.434200e-06	-9.676332e-09	-1.738944e+01	-6.349419e+02
2.710000e-06	-2.535279e-06	-1.011648e-08	-1.811153e+01	-6.637262e+02
2.720000e-06	-2.635378e-06	-1.053105e-08	-1.882662e+01	-6.907913e+02
2.730000e-06	-2.734658e-06	-1.092303e-08	-1.953585e+01	-7.162675e+02
2.740000e-06	-2.833074e-06	-1.129419e-08	-2.023891e+01	-7.402829e+02
2.750000e-06	-2.930526e-06	-1.164199e-08	-2.093510e+01	-7.629527e+02
2.760000e-06	-3.027035e-06	-1.196697e-08	-2.162454e+01	-7.843745e+02
2.770000e-06	-3.122657e-06	-1.227296e-08	-2.230764e+01	-8.046283e+02
2.780000e-06	-3.217218e-06	-1.256311e-08	-2.298316e+01	-8.237806e+02
2.790000e-06	-3.310432e-06	-1.283914e-08	-2.364907e+01	-8.418900e+02
2.800000e-06	-3.402377e-06	-1.310157e-08	-2.430590e+01	-8.590122e+02
2.810000e-06	-3.493154e-06	-1.334950e-08	-2.495440e+01	-8.752045e+02
2.820000e-06	-3.582661e-06	-1.358467e-08	-2.559382e+01	-8.905266e+02
2.830000e-06	-3.670960e-06	-1.380984e-08	-2.622460e+01	-9.050408e+02
2.840000e-06	-3.757988e-06	-1.402302e-08	-2.684632e+01	-9.188091e+02
2.850000e-06	-3.843528e-06	-1.422605e-08	-2.745740e+01	-9.318903e+02
2.860000e-06	-3.927640e-06	-1.441976e-08	-2.805828e+01	-9.443368e+02
2.870000e-06	-4.010444e-06	-1.460215e-08	-2.864981e+01	-9.561921e+02
2.880000e-06	-4.091906e-06	-1.477381e-08	-2.923176e+01	-9.674902e+02
2.890000e-06	-4.171938e-06	-1.493555e-08	-2.980350e+01	-9.782552e+02
2.900000e-06	-4.250297e-06	-1.508980e-08	-3.036327e+01	-9.885037e+02
2.910000e-06	-4.326842e-06	-1.523796e-08	-3.091010e+01	-9.982469e+02
2.920000e-06	-4.401741e-06	-1.538108e-08	-3.144516e+01	-1.007493e+03
2.930000e-06	-4.475059e-06	-1.551672e-08	-3.196893e+01	-1.016251e+03
2.940000e-06	-4.546800e-06	-1.564404e-08	-3.248144e+01	-1.024532e+03
