# Temperatura_=_68.2
# Concentracion g/m^3_=_28200.0
# C_Vs_to_Am_M_A/Vsm_=_65563218390.804596
# pendiente_HvsI_1/m_=_3716.3
# ordenada_HvsI_A/m_=_1297.0
# frecuencia_Hz_=_301947.7979839972

Tiempo_(s)	Campo_(V.s)	Magnetizacion_(V.s)	Campo_(kA/m)	Magnetizacion_(A/m)
0.000000e+00	-5.833511e-06	-2.120781e-08	-4.194695e+01	-1.389543e+03
1.000000e-08	-5.832068e-06	-2.120374e-08	-4.193657e+01	-1.389268e+03
2.000000e-08	-5.828577e-06	-2.119708e-08	-4.191146e+01	-1.388846e+03
3.000000e-08	-5.823223e-06	-2.118799e-08	-4.187297e+01	-1.388271e+03
4.000000e-08	-5.816099e-06	-2.117831e-08	-4.182174e+01	-1.387534e+03
5.000000e-08	-5.807042e-06	-2.116419e-08	-4.175661e+01	-1.386627e+03
6.000000e-08	-5.795820e-06	-2.114780e-08	-4.167592e+01	-1.385539e+03
7.000000e-08	-5.782512e-06	-2.112952e-08	-4.158023e+01	-1.384265e+03
8.000000e-08	-5.767068e-06	-2.110840e-08	-4.146918e+01	-1.382805e+03
9.000000e-08	-5.749516e-06	-2.110271e-08	-4.134296e+01	-1.381165e+03
1.000000e-07	-5.729940e-06	-2.109803e-08	-4.120220e+01	-1.379361e+03
1.100000e-07	-5.708199e-06	-2.104636e-08	-4.104586e+01	-1.377410e+03
1.200000e-07	-5.684261e-06	-2.098987e-08	-4.087374e+01	-1.375334e+03
1.300000e-07	-5.658139e-06	-2.094697e-08	-4.068590e+01	-1.373151e+03
1.400000e-07	-5.630267e-06	-2.087794e-08	-4.048548e+01	-1.370871e+03
1.500000e-07	-5.601003e-06	-2.086319e-08	-4.027505e+01	-1.368497e+03
1.600000e-07	-5.570135e-06	-2.088936e-08	-4.005309e+01	-1.366018e+03
1.700000e-07	-5.537497e-06	-2.079146e-08	-3.981840e+01	-1.363414e+03
1.800000e-07	-5.502965e-06	-2.074635e-08	-3.957009e+01	-1.360653e+03
1.900000e-07	-5.466473e-06	-2.071610e-08	-3.930769e+01	-1.357700e+03
2.000000e-07	-5.428063e-06	-2.061713e-08	-3.903149e+01	-1.354521e+03
2.100000e-07	-5.387792e-06	-2.062060e-08	-3.874192e+01	-1.351088e+03
2.200000e-07	-5.345427e-06	-2.058759e-08	-3.843729e+01	-1.347383e+03
2.300000e-07	-5.300986e-06	-2.051696e-08	-3.811772e+01	-1.343401e+03
2.400000e-07	-5.254616e-06	-2.045742e-08	-3.778429e+01	-1.339151e+03
2.500000e-07	-5.206076e-06	-2.034793e-08	-3.743526e+01	-1.334652e+03
2.600000e-07	-5.155203e-06	-2.028133e-08	-3.706944e+01	-1.329930e+03
2.700000e-07	-5.102072e-06	-2.022253e-08	-3.668740e+01	-1.325010e+03
2.800000e-07	-5.047055e-06	-2.012181e-08	-3.629179e+01	-1.319911e+03
2.900000e-07	-4.990234e-06	-2.005421e-08	-3.588321e+01	-1.314645e+03
3.000000e-07	-4.931453e-06	-1.996572e-08	-3.546053e+01	-1.309209e+03
3.100000e-07	-4.870829e-06	-1.986487e-08	-3.502460e+01	-1.303590e+03
3.200000e-07	-4.808481e-06	-1.978681e-08	-3.457627e+01	-1.297767e+03
3.300000e-07	-4.744459e-06	-1.971620e-08	-3.411592e+01	-1.291712e+03
3.400000e-07	-4.678616e-06	-1.961468e-08	-3.364246e+01	-1.285399e+03
3.500000e-07	-4.610890e-06	-1.950032e-08	-3.315546e+01	-1.278805e+03
3.600000e-07	-4.541459e-06	-1.940089e-08	-3.265620e+01	-1.271916e+03
3.700000e-07	-4.470525e-06	-1.927445e-08	-3.214614e+01	-1.264724e+03
3.800000e-07	-4.398152e-06	-1.916532e-08	-3.162573e+01	-1.257225e+03
3.900000e-07	-4.323986e-06	-1.906112e-08	-3.109242e+01	-1.249421e+03
4.000000e-07	-4.247968e-06	-1.893156e-08	-3.054580e+01	-1.241313e+03
4.100000e-07	-4.170340e-06	-1.880333e-08	-2.998761e+01	-1.232900e+03
4.200000e-07	-4.090977e-06	-1.866916e-08	-2.941693e+01	-1.224174e+03
4.300000e-07	-4.010000e-06	-1.853023e-08	-2.883465e+01	-1.215124e+03
4.400000e-07	-3.927738e-06	-1.838171e-08	-2.824313e+01	-1.205737e+03
4.500000e-07	-3.844321e-06	-1.822748e-08	-2.764330e+01	-1.195997e+03
4.600000e-07	-3.759755e-06	-1.806847e-08	-2.703521e+01	-1.185889e+03
4.700000e-07	-3.673958e-06	-1.790621e-08	-2.641828e+01	-1.175400e+03
4.800000e-07	-3.587017e-06	-1.774418e-08	-2.579311e+01	-1.164518e+03
4.900000e-07	-3.498936e-06	-1.757748e-08	-2.515975e+01	-1.153233e+03
5.000000e-07	-3.409406e-06	-1.740553e-08	-2.451597e+01	-1.141534e+03
5.100000e-07	-3.318389e-06	-1.721803e-08	-2.386149e+01	-1.129404e+03
5.200000e-07	-3.226168e-06	-1.701893e-08	-2.319836e+01	-1.116820e+03
5.300000e-07	-3.132876e-06	-1.681476e-08	-2.252753e+01	-1.103755e+03
5.400000e-07	-3.038493e-06	-1.660353e-08	-2.184885e+01	-1.090173e+03
5.500000e-07	-2.943083e-06	-1.638499e-08	-2.116279e+01	-1.076033e+03
5.600000e-07	-2.846586e-06	-1.615817e-08	-2.046891e+01	-1.061296e+03
5.700000e-07	-2.748765e-06	-1.591980e-08	-1.976551e+01	-1.045921e+03
5.800000e-07	-2.649740e-06	-1.567215e-08	-1.905345e+01	-1.029871e+03
5.900000e-07	-2.549795e-06	-1.542018e-08	-1.833477e+01	-1.013111e+03
6.000000e-07	-2.448939e-06	-1.516009e-08	-1.760955e+01	-9.956108e+02
6.100000e-07	-2.347146e-06	-1.488447e-08	-1.687759e+01	-9.773345e+02
6.200000e-07	-2.244542e-06	-1.459334e-08	-1.613980e+01	-9.582442e+02
6.300000e-07	-2.141226e-06	-1.428393e-08	-1.539689e+01	-9.382933e+02
6.400000e-07	-2.037170e-06	-1.395756e-08	-1.464865e+01	-9.174260e+02
6.500000e-07	-1.932335e-06	-1.362031e-08	-1.389481e+01	-8.955760e+02
6.600000e-07	-1.826693e-06	-1.327038e-08	-1.313517e+01	-8.726685e+02
6.700000e-07	-1.720239e-06	-1.290371e-08	-1.236970e+01	-8.486216e+02
6.800000e-07	-1.613080e-06	-1.251623e-08	-1.159915e+01	-8.233494e+02
6.900000e-07	-1.505358e-06	-1.210646e-08	-1.082455e+01	-7.967639e+02
7.000000e-07	-1.397236e-06	-1.167750e-08	-1.004708e+01	-7.687773e+02
7.100000e-07	-1.288745e-06	-1.122976e-08	-9.266958e+00	-7.393030e+02
7.200000e-07	-1.179854e-06	-1.075757e-08	-8.483963e+00	-7.082579e+02
7.300000e-07	-1.070563e-06	-1.025950e-08	-7.698079e+00	-6.755662e+02
7.400000e-07	-9.609201e-07	-9.734687e-09	-6.909675e+00	-6.411657e+02
7.500000e-07	-8.509598e-07	-9.182806e-09	-6.118985e+00	-6.050165e+02
7.600000e-07	-7.407403e-07	-8.605589e-09	-5.326431e+00	-5.671134e+02
7.700000e-07	-6.302877e-07	-8.001995e-09	-4.532201e+00	-5.274968e+02
7.800000e-07	-5.196247e-07	-7.373377e-09	-3.736458e+00	-4.862635e+02
7.900000e-07	-4.088583e-07	-6.723449e-09	-2.939972e+00	-4.435704e+02
8.000000e-07	-2.980025e-07	-6.057097e-09	-2.142842e+00	-3.996312e+02
8.100000e-07	-1.870032e-07	-5.375333e-09	-1.344682e+00	-3.547019e+02
8.200000e-07	-7.592840e-08	-4.680673e-09	-5.459772e-01	-3.090576e+02
8.300000e-07	3.512654e-08	-3.979520e-09	2.525839e-01	-2.629606e+02
8.400000e-07	1.462012e-07	-3.274173e-09	1.051287e+00	-2.166268e+02
8.500000e-07	2.572893e-07	-2.566696e-09	1.850087e+00	-1.701940e+02
8.600000e-07	3.682877e-07	-1.857376e-09	2.648241e+00	-1.237004e+02
8.700000e-07	4.792000e-07	-1.148168e-09	3.445777e+00	-7.707819e+01
8.800000e-07	5.900124e-07	-4.363348e-10	4.242594e+00	-3.016435e+01
8.900000e-07	7.006791e-07	2.858566e-10	5.038363e+00	1.726955e+01
9.000000e-07	8.112453e-07	1.023038e-09	5.833410e+00	6.547348e+01
9.100000e-07	9.215915e-07	1.775918e-09	6.626875e+00	1.146668e+02
9.200000e-07	1.031558e-06	2.544033e-09	7.417611e+00	1.649866e+02
9.300000e-07	1.141147e-06	3.327815e-09	8.205627e+00	2.164454e+02
9.400000e-07	1.250351e-06	4.126945e-09	8.990881e+00	2.689059e+02
9.500000e-07	1.359178e-06	4.936549e-09	9.773420e+00	3.220775e+02
9.600000e-07	1.467607e-06	5.750658e-09	1.055310e+01	3.755353e+02
9.700000e-07	1.575528e-06	6.563441e-09	1.132912e+01	4.287589e+02
9.800000e-07	1.682848e-06	7.364584e-09	1.210083e+01	4.811846e+02
9.900000e-07	1.789601e-06	8.140857e-09	1.286846e+01	5.322618e+02
1.000000e-06	1.895728e-06	8.885698e-09	1.363158e+01	5.815057e+02
1.010000e-06	2.000998e-06	9.598589e-09	1.438855e+01	6.285365e+02
1.020000e-06	2.105293e-06	1.027553e-08	1.513850e+01	6.731031e+02
1.030000e-06	2.208704e-06	1.091286e-08	1.588210e+01	7.150861e+02
1.040000e-06	2.311370e-06	1.150960e-08	1.662034e+01	7.544846e+02
1.050000e-06	2.413211e-06	1.206784e-08	1.735264e+01	7.913906e+02
1.060000e-06	2.514209e-06	1.259352e-08	1.807889e+01	8.259564e+02
1.070000e-06	2.614373e-06	1.308657e-08	1.879913e+01	8.583628e+02
1.080000e-06	2.713679e-06	1.355041e-08	1.951321e+01	8.887921e+02
1.090000e-06	2.812077e-06	1.398663e-08	2.022076e+01	9.174112e+02
1.100000e-06	2.909304e-06	1.439558e-08	2.091989e+01	9.443626e+02
1.110000e-06	3.005214e-06	1.478136e-08	2.160955e+01	9.697656e+02
1.120000e-06	3.100004e-06	1.514603e-08	2.229116e+01	9.937215e+02
1.130000e-06	3.193825e-06	1.549064e-08	2.296579e+01	1.016322e+03
1.140000e-06	3.286661e-06	1.581651e-08	2.363335e+01	1.037655e+03
1.150000e-06	3.378477e-06	1.612393e-08	2.429357e+01	1.057811e+03
1.160000e-06	3.469247e-06	1.641289e-08	2.494626e+01	1.076878e+03
1.170000e-06	3.558726e-06	1.668782e-08	2.558968e+01	1.094946e+03
1.180000e-06	3.646665e-06	1.695021e-08	2.622202e+01	1.112094e+03
1.190000e-06	3.733266e-06	1.720028e-08	2.684474e+01	1.128392e+03
1.200000e-06	3.818714e-06	1.743637e-08	2.745917e+01	1.143897e+03
1.210000e-06	3.902986e-06	1.765992e-08	2.806515e+01	1.158651e+03
1.220000e-06	3.986024e-06	1.787146e-08	2.866224e+01	1.172690e+03
1.230000e-06	4.067625e-06	1.807243e-08	2.924901e+01	1.186044e+03
1.240000e-06	4.147620e-06	1.826417e-08	2.982423e+01	1.198742e+03
1.250000e-06	4.226005e-06	1.844607e-08	3.038787e+01	1.210817e+03
1.260000e-06	4.302848e-06	1.861956e-08	3.094043e+01	1.222308e+03
1.270000e-06	4.378163e-06	1.878628e-08	3.148199e+01	1.233255e+03
1.280000e-06	4.451752e-06	1.894644e-08	3.201115e+01	1.243697e+03
1.290000e-06	4.523535e-06	1.909912e-08	3.252732e+01	1.253671e+03
1.300000e-06	4.593667e-06	1.924422e-08	3.303161e+01	1.263199e+03
1.310000e-06	4.662183e-06	1.938352e-08	3.352429e+01	1.272297e+03
1.320000e-06	4.729033e-06	1.951675e-08	3.400499e+01	1.280966e+03
1.330000e-06	4.794009e-06	1.964277e-08	3.447221e+01	1.289204e+03
1.340000e-06	4.857193e-06	1.976148e-08	3.492655e+01	1.297004e+03
1.350000e-06	4.918853e-06	1.987348e-08	3.536993e+01	1.304363e+03
1.360000e-06	4.978893e-06	1.997802e-08	3.580165e+01	1.311289e+03
1.370000e-06	5.037171e-06	2.007521e-08	3.622072e+01	1.317800e+03
1.380000e-06	5.093549e-06	2.016748e-08	3.662611e+01	1.323927e+03
1.390000e-06	5.148070e-06	2.025638e-08	3.701815e+01	1.329707e+03
1.400000e-06	5.200725e-06	2.034000e-08	3.739678e+01	1.335185e+03
1.410000e-06	5.251215e-06	2.041856e-08	3.775984e+01	1.340398e+03
1.420000e-06	5.299460e-06	2.049440e-08	3.810675e+01	1.345378e+03
1.430000e-06	5.345801e-06	2.056752e-08	3.843998e+01	1.350146e+03
1.440000e-06	5.390414e-06	2.063665e-08	3.876077e+01	1.354707e+03
1.450000e-06	5.433182e-06	2.070152e-08	3.906831e+01	1.359055e+03
1.460000e-06	5.473920e-06	2.076468e-08	3.936124e+01	1.363175e+03
1.470000e-06	5.512673e-06	2.082453e-08	3.963990e+01	1.367051e+03
1.480000e-06	5.549629e-06	2.087994e-08	3.990564e+01	1.370666e+03
1.490000e-06	5.584686e-06	2.092871e-08	4.015772e+01	1.374009e+03
1.500000e-06	5.617684e-06	2.097316e-08	4.039500e+01	1.377077e+03
1.510000e-06	5.648658e-06	2.101739e-08	4.061772e+01	1.379875e+03
1.520000e-06	5.677773e-06	2.105898e-08	4.082708e+01	1.382413e+03
1.530000e-06	5.704977e-06	2.109624e-08	4.102270e+01	1.384706e+03
1.540000e-06	5.729989e-06	2.112659e-08	4.120255e+01	1.386770e+03
1.550000e-06	5.752764e-06	2.115130e-08	4.136632e+01	1.388617e+03
1.560000e-06	5.773598e-06	2.117264e-08	4.151613e+01	1.390256e+03
1.570000e-06	5.792512e-06	2.119220e-08	4.165213e+01	1.391694e+03
1.580000e-06	5.809261e-06	2.121177e-08	4.177257e+01	1.392933e+03
1.590000e-06	5.823804e-06	2.122941e-08	4.187714e+01	1.393973e+03
1.600000e-06	5.836188e-06	2.124400e-08	4.196619e+01	1.394817e+03
1.610000e-06	5.846327e-06	2.125484e-08	4.203910e+01	1.395468e+03
1.620000e-06	5.854190e-06	2.126255e-08	4.209564e+01	1.395933e+03
1.630000e-06	5.859940e-06	2.126956e-08	4.213699e+01	1.396221e+03
1.640000e-06	5.863713e-06	2.127579e-08	4.216412e+01	1.396341e+03
1.650000e-06	5.865407e-06	2.127945e-08	4.217630e+01	1.396305e+03
1.660000e-06	5.864979e-06	2.127744e-08	4.217322e+01	1.396118e+03
1.670000e-06	5.862613e-06	2.126844e-08	4.215620e+01	1.395785e+03
1.680000e-06	5.858442e-06	2.125832e-08	4.212621e+01	1.395302e+03
1.690000e-06	5.852294e-06	2.124775e-08	4.208201e+01	1.394664e+03
1.700000e-06	5.844115e-06	2.123714e-08	4.202320e+01	1.393861e+03
1.710000e-06	5.834135e-06	2.122598e-08	4.195143e+01	1.392883e+03
1.720000e-06	5.822313e-06	2.121424e-08	4.186642e+01	1.391721e+03
1.730000e-06	5.808344e-06	2.119989e-08	4.176597e+01	1.390373e+03
1.740000e-06	5.792336e-06	2.115045e-08	4.165086e+01	1.388840e+03
1.750000e-06	5.774304e-06	2.108849e-08	4.152121e+01	1.387133e+03
1.760000e-06	5.753658e-06	2.107966e-08	4.137274e+01	1.385268e+03
1.770000e-06	5.730227e-06	2.106968e-08	4.120426e+01	1.383265e+03
1.780000e-06	5.704551e-06	2.106258e-08	4.101963e+01	1.381143e+03
1.790000e-06	5.677369e-06	2.106907e-08	4.082417e+01	1.378920e+03
1.800000e-06	5.649256e-06	2.095794e-08	4.062203e+01	1.376603e+03
1.810000e-06	5.619672e-06	2.090793e-08	4.040930e+01	1.374189e+03
1.820000e-06	5.587712e-06	2.092837e-08	4.017948e+01	1.371663e+03
1.830000e-06	5.553824e-06	2.085381e-08	3.993581e+01	1.369000e+03
1.840000e-06	5.518223e-06	2.088091e-08	3.967981e+01	1.366167e+03
1.850000e-06	5.480423e-06	2.083379e-08	3.940800e+01	1.363129e+03
1.860000e-06	5.440545e-06	2.068069e-08	3.912125e+01	1.359852e+03
1.870000e-06	5.398750e-06	2.066570e-08	3.882071e+01	1.356313e+03
1.880000e-06	5.355221e-06	2.058222e-08	3.850771e+01	1.352497e+03
1.890000e-06	5.310008e-06	2.053461e-08	3.818260e+01	1.348407e+03
1.900000e-06	5.262641e-06	2.052347e-08	3.784200e+01	1.344056e+03
1.910000e-06	5.213096e-06	2.039438e-08	3.748574e+01	1.339466e+03
1.920000e-06	5.161491e-06	2.037465e-08	3.711466e+01	1.334662e+03
1.930000e-06	5.107687e-06	2.028540e-08	3.672777e+01	1.329669e+03
1.940000e-06	5.051923e-06	2.015989e-08	3.632679e+01	1.324503e+03
1.950000e-06	4.994301e-06	2.013990e-08	3.591245e+01	1.319170e+03
1.960000e-06	4.934918e-06	2.003959e-08	3.548544e+01	1.313664e+03
1.970000e-06	4.873728e-06	1.994985e-08	3.504544e+01	1.307967e+03
1.980000e-06	4.810538e-06	1.984368e-08	3.459106e+01	1.302054e+03
1.990000e-06	4.745513e-06	1.975698e-08	3.412349e+01	1.295900e+03
2.000000e-06	4.678840e-06	1.968357e-08	3.364407e+01	1.289478e+03
2.010000e-06	4.610681e-06	1.955592e-08	3.315396e+01	1.282770e+03
2.020000e-06	4.540732e-06	1.946907e-08	3.265098e+01	1.275761e+03
2.030000e-06	4.468945e-06	1.933710e-08	3.213478e+01	1.268447e+03
2.040000e-06	4.395632e-06	1.922358e-08	3.160760e+01	1.260827e+03
2.050000e-06	4.320779e-06	1.910894e-08	3.106936e+01	1.252903e+03
2.060000e-06	4.244274e-06	1.896623e-08	3.051924e+01	1.244675e+03
2.070000e-06	4.165941e-06	1.885823e-08	2.995597e+01	1.236139e+03
2.080000e-06	4.086008e-06	1.871663e-08	2.938120e+01	1.227286e+03
2.090000e-06	4.004692e-06	1.858375e-08	2.879648e+01	1.218106e+03
2.100000e-06	3.921979e-06	1.843785e-08	2.820172e+01	1.208581e+03
2.110000e-06	3.838088e-06	1.829548e-08	2.759848e+01	1.198697e+03
2.120000e-06	3.752897e-06	1.814911e-08	2.698591e+01	1.188439e+03
2.130000e-06	3.666189e-06	1.797091e-08	2.636241e+01	1.177796e+03
2.140000e-06	3.578103e-06	1.779612e-08	2.572901e+01	1.166756e+03
2.150000e-06	3.488764e-06	1.761671e-08	2.508661e+01	1.155310e+03
2.160000e-06	3.398215e-06	1.744743e-08	2.443550e+01	1.143442e+03
2.170000e-06	3.306621e-06	1.726201e-08	2.377687e+01	1.131136e+03
2.180000e-06	3.213966e-06	1.707398e-08	2.311062e+01	1.118367e+03
2.190000e-06	3.119963e-06	1.687872e-08	2.243468e+01	1.105102e+03
2.200000e-06	3.024585e-06	1.666825e-08	2.174884e+01	1.091305e+03
2.210000e-06	2.928097e-06	1.645034e-08	2.105502e+01	1.076934e+03
2.220000e-06	2.830631e-06	1.622482e-08	2.035418e+01	1.061950e+03
2.230000e-06	2.732207e-06	1.599087e-08	1.964644e+01	1.046313e+03
2.240000e-06	2.632896e-06	1.573637e-08	1.893233e+01	1.029988e+03
2.250000e-06	2.532734e-06	1.547316e-08	1.821209e+01	1.012940e+03
2.260000e-06	2.431677e-06	1.519935e-08	1.748543e+01	9.951381e+02
2.270000e-06	2.329583e-06	1.491816e-08	1.675130e+01	9.765461e+02
2.280000e-06	2.226407e-06	1.462753e-08	1.600939e+01	9.571228e+02
2.290000e-06	2.122312e-06	1.432473e-08	1.526088e+01	9.368183e+02
2.300000e-06	2.017453e-06	1.400467e-08	1.450687e+01	9.155724e+02
2.310000e-06	1.911938e-06	1.366494e-08	1.374815e+01	8.933155e+02
2.320000e-06	1.805850e-06	1.330784e-08	1.298530e+01	8.699695e+02
2.330000e-06	1.699188e-06	1.293451e-08	1.221833e+01	8.454508e+02
2.340000e-06	1.592033e-06	1.254387e-08	1.144781e+01	8.196723e+02
2.350000e-06	1.484432e-06	1.213283e-08	1.067408e+01	7.925460e+02
2.360000e-06	1.376343e-06	1.170046e-08	9.896853e+00	7.639842e+02
2.370000e-06	1.267876e-06	1.124291e-08	9.116901e+00	7.339015e+02
2.380000e-06	1.159104e-06	1.076150e-08	8.334751e+00	7.022171e+02
2.390000e-06	1.049999e-06	1.025385e-08	7.550212e+00	6.688596e+02
2.400000e-06	9.405513e-07	9.719542e-09	6.763209e+00	6.337744e+02
2.410000e-06	8.307285e-07	9.155719e-09	5.973507e+00	5.969336e+02
2.420000e-06	7.205810e-07	8.561909e-09	5.181471e+00	5.583487e+02
2.430000e-06	6.101686e-07	7.943979e-09	4.387531e+00	5.180812e+02
2.440000e-06	4.995452e-07	7.304139e-09	3.592073e+00	4.762515e+02
2.450000e-06	3.887448e-07	6.644613e-09	2.795342e+00	4.330397e+02
2.460000e-06	2.778167e-07	5.967127e-09	1.997692e+00	3.886785e+02
2.470000e-06	1.667623e-07	5.276585e-09	1.199135e+00	3.434345e+02
2.480000e-06	5.562917e-08	4.577342e-09	4.000119e-01	2.975820e+02
2.490000e-06	-5.553735e-08	3.871651e-09	-3.993516e-01	2.513691e+02
2.500000e-06	-1.666921e-07	3.161617e-09	-1.198630e+00	2.049842e+02
2.510000e-06	-2.776765e-07	2.449924e-09	-1.996685e+00	1.585280e+02
2.520000e-06	-3.885181e-07	1.737393e-09	-2.793712e+00	1.119968e+02
2.530000e-06	-4.992693e-07	1.020812e-09	-3.590088e+00	6.528306e+01
2.540000e-06	-6.098316e-07	3.004555e-10	-4.385107e+00	1.819357e+01
2.550000e-06	-7.201152e-07	-4.261455e-10	-5.178122e+00	-2.951442e+01
2.560000e-06	-8.301046e-07	-1.164750e-09	-5.969022e+00	-7.808522e+01
2.570000e-06	-9.397927e-07	-1.921460e-09	-6.757754e+00	-1.277117e+02
2.580000e-06	-1.049223e-06	-2.696746e-09	-7.544632e+00	-1.784863e+02
2.590000e-06	-1.158352e-06	-3.485344e-09	-8.329348e+00	-2.303646e+02
2.600000e-06	-1.267046e-06	-4.287876e-09	-9.110930e+00	-2.831481e+02
2.610000e-06	-1.375292e-06	-5.102688e-09	-9.889292e+00	-3.364900e+02
2.620000e-06	-1.483068e-06	-5.922027e-09	-1.066428e+01	-3.899224e+02
2.630000e-06	-1.590365e-06	-6.736383e-09	-1.143581e+01	-4.429011e+02
2.640000e-06	-1.697227e-06	-7.532970e-09	-1.220423e+01	-4.948611e+02
2.650000e-06	-1.803520e-06	-8.303376e-09	-1.296855e+01	-5.452717e+02
2.660000e-06	-1.909150e-06	-9.041129e-09	-1.372810e+01	-5.936855e+02
2.670000e-06	-2.014091e-06	-9.743766e-09	-1.448270e+01	-6.397716e+02
2.680000e-06	-2.118225e-06	-1.041212e-08	-1.523149e+01	-6.833313e+02
2.690000e-06	-2.221460e-06	-1.104244e-08	-1.597382e+01	-7.242941e+02
2.700000e-06	-2.323800e-06	-1.163400e-08	-1.670972e+01	-7.626993e+02
2.710000e-06	-2.425160e-06	-1.218845e-08	-1.743856e+01	-7.986664e+02
2.720000e-06	-2.525471e-06	-1.270529e-08	-1.815987e+01	-8.323626e+02
2.730000e-06	-2.624928e-06	-1.318736e-08	-1.887503e+01	-8.639720e+02
2.740000e-06	-2.723561e-06	-1.363985e-08	-1.958427e+01	-8.936724e+02
2.750000e-06	-2.821274e-06	-1.406682e-08	-2.028689e+01	-9.216216e+02
2.760000e-06	-2.918086e-06	-1.447021e-08	-2.098304e+01	-9.479525e+02
2.770000e-06	-3.013931e-06	-1.485172e-08	-2.167223e+01	-9.727765e+02
2.780000e-06	-3.108784e-06	-1.521096e-08	-2.235429e+01	-9.961900e+02
2.790000e-06	-3.202439e-06	-1.554633e-08	-2.302773e+01	-1.018283e+03
2.800000e-06	-3.294790e-06	-1.586307e-08	-2.369180e+01	-1.039144e+03
2.810000e-06	-3.386017e-06	-1.616404e-08	-2.434778e+01	-1.058862e+03
2.820000e-06	-3.476089e-06	-1.644871e-08	-2.499546e+01	-1.077528e+03
2.830000e-06	-3.564944e-06	-1.671871e-08	-2.563439e+01	-1.095226e+03
2.840000e-06	-3.652593e-06	-1.697515e-08	-2.626465e+01	-1.112033e+03
2.850000e-06	-3.738929e-06	-1.721848e-08	-2.688546e+01	-1.128014e+03
2.860000e-06	-3.823809e-06	-1.745183e-08	-2.749581e+01	-1.143221e+03
2.870000e-06	-3.907336e-06	-1.767526e-08	-2.809643e+01	-1.157691e+03
2.880000e-06	-3.989575e-06	-1.788864e-08	-2.868778e+01	-1.171459e+03
2.890000e-06	-4.070357e-06	-1.809244e-08	-2.926866e+01	-1.184552e+03
2.900000e-06	-4.149651e-06	-1.828427e-08	-2.983883e+01	-1.197002e+03
2.910000e-06	-4.227303e-06	-1.846530e-08	-3.039721e+01	-1.208843e+03
2.920000e-06	-4.303181e-06	-1.863593e-08	-3.094282e+01	-1.220116e+03
2.930000e-06	-4.377451e-06	-1.879694e-08	-3.147688e+01	-1.230862e+03
2.940000e-06	-4.450157e-06	-1.895031e-08	-3.199968e+01	-1.241117e+03
