# Temperatura_=_72.3
# Concentracion g/m^3_=_28200.0
# C_Vs_to_Am_M_A/Vsm_=_65563218390.804596
# pendiente_HvsI_1/m_=_3716.3
# ordenada_HvsI_A/m_=_1297.0
# frecuencia_Hz_=_301948.31130832375

Tiempo_(s)	Campo_(V.s)	Magnetizacion_(V.s)	Campo_(kA/m)	Magnetizacion_(A/m)
0.000000e+00	-5.829010e-06	-2.190818e-08	-4.194481e+01	-1.435041e+03
1.000000e-08	-5.827326e-06	-2.190761e-08	-4.193270e+01	-1.434717e+03
2.000000e-08	-5.823593e-06	-2.189952e-08	-4.190583e+01	-1.434257e+03
3.000000e-08	-5.818003e-06	-2.188786e-08	-4.186560e+01	-1.433648e+03
4.000000e-08	-5.810663e-06	-2.187536e-08	-4.181279e+01	-1.432870e+03
5.000000e-08	-5.801453e-06	-2.185630e-08	-4.174652e+01	-1.431901e+03
6.000000e-08	-5.790061e-06	-2.183530e-08	-4.166454e+01	-1.430721e+03
7.000000e-08	-5.776548e-06	-2.181178e-08	-4.156730e+01	-1.429323e+03
8.000000e-08	-5.760855e-06	-2.178453e-08	-4.145438e+01	-1.427711e+03
9.000000e-08	-5.742975e-06	-2.180134e-08	-4.132572e+01	-1.425905e+03
1.000000e-07	-5.723039e-06	-2.181451e-08	-4.118226e+01	-1.423934e+03
1.100000e-07	-5.700949e-06	-2.174005e-08	-4.102330e+01	-1.421833e+03
1.200000e-07	-5.676655e-06	-2.167559e-08	-4.084849e+01	-1.419637e+03
1.300000e-07	-5.650257e-06	-2.163305e-08	-4.065853e+01	-1.417369e+03
1.400000e-07	-5.622196e-06	-2.151771e-08	-4.045661e+01	-1.415038e+03
1.500000e-07	-5.592740e-06	-2.153659e-08	-4.024464e+01	-1.412632e+03
1.600000e-07	-5.561704e-06	-2.160924e-08	-4.002131e+01	-1.410126e+03
1.700000e-07	-5.528871e-06	-2.144224e-08	-3.978505e+01	-1.407478e+03
1.800000e-07	-5.494134e-06	-2.144299e-08	-3.953509e+01	-1.404643e+03
1.900000e-07	-5.457417e-06	-2.142394e-08	-3.927088e+01	-1.401577e+03
2.000000e-07	-5.418794e-06	-2.124670e-08	-3.899295e+01	-1.398247e+03
2.100000e-07	-5.378392e-06	-2.129057e-08	-3.870222e+01	-1.394633e+03
2.200000e-07	-5.335907e-06	-2.124363e-08	-3.839651e+01	-1.390734e+03
2.300000e-07	-5.291288e-06	-2.114135e-08	-3.807544e+01	-1.386562e+03
2.400000e-07	-5.244681e-06	-2.111691e-08	-3.774006e+01	-1.382140e+03
2.500000e-07	-5.195788e-06	-2.099705e-08	-3.738823e+01	-1.377492e+03
2.600000e-07	-5.144514e-06	-2.092664e-08	-3.701927e+01	-1.372642e+03
2.700000e-07	-5.091071e-06	-2.087177e-08	-3.663470e+01	-1.367600e+03
2.800000e-07	-5.035833e-06	-2.076038e-08	-3.623721e+01	-1.362371e+03
2.900000e-07	-4.978867e-06	-2.069229e-08	-3.582729e+01	-1.356942e+03
3.000000e-07	-4.919946e-06	-2.060946e-08	-3.540331e+01	-1.351298e+03
3.100000e-07	-4.859175e-06	-2.050810e-08	-3.496600e+01	-1.345416e+03
3.200000e-07	-4.796669e-06	-2.040597e-08	-3.451622e+01	-1.339277e+03
3.300000e-07	-4.732374e-06	-2.033241e-08	-3.405356e+01	-1.332865e+03
3.400000e-07	-4.666205e-06	-2.022590e-08	-3.357742e+01	-1.326174e+03
3.500000e-07	-4.598298e-06	-2.009789e-08	-3.308877e+01	-1.319202e+03
3.600000e-07	-4.528789e-06	-2.000804e-08	-3.258859e+01	-1.311954e+03
3.700000e-07	-4.457723e-06	-1.987884e-08	-3.207721e+01	-1.304432e+03
3.800000e-07	-4.385228e-06	-1.976377e-08	-3.155555e+01	-1.296637e+03
3.900000e-07	-4.310963e-06	-1.964997e-08	-3.102114e+01	-1.288564e+03
4.000000e-07	-4.234746e-06	-1.950430e-08	-3.047269e+01	-1.280198e+03
4.100000e-07	-4.156831e-06	-1.937405e-08	-2.991203e+01	-1.271520e+03
4.200000e-07	-4.077278e-06	-1.924278e-08	-2.933957e+01	-1.262506e+03
4.300000e-07	-3.996221e-06	-1.910346e-08	-2.875630e+01	-1.253134e+03
4.400000e-07	-3.913875e-06	-1.894607e-08	-2.816375e+01	-1.243385e+03
4.500000e-07	-3.830330e-06	-1.879037e-08	-2.756257e+01	-1.233245e+03
4.600000e-07	-3.745628e-06	-1.862854e-08	-2.695307e+01	-1.222708e+03
4.700000e-07	-3.659730e-06	-1.845554e-08	-2.633495e+01	-1.211771e+03
4.800000e-07	-3.572662e-06	-1.828728e-08	-2.570842e+01	-1.200434e+03
4.900000e-07	-3.484511e-06	-1.811333e-08	-2.507409e+01	-1.188692e+03
5.000000e-07	-3.394889e-06	-1.793138e-08	-2.442919e+01	-1.176536e+03
5.100000e-07	-3.303719e-06	-1.773277e-08	-2.377314e+01	-1.163945e+03
5.200000e-07	-3.211402e-06	-1.752672e-08	-2.310884e+01	-1.150889e+03
5.300000e-07	-3.118012e-06	-1.731801e-08	-2.243681e+01	-1.137330e+03
5.400000e-07	-3.023503e-06	-1.710221e-08	-2.175674e+01	-1.123228e+03
5.500000e-07	-2.927947e-06	-1.687802e-08	-2.106914e+01	-1.108537e+03
5.600000e-07	-2.831348e-06	-1.664509e-08	-2.037402e+01	-1.093220e+03
5.700000e-07	-2.733500e-06	-1.639801e-08	-1.966992e+01	-1.077239e+03
5.800000e-07	-2.634408e-06	-1.613806e-08	-1.895686e+01	-1.060565e+03
5.900000e-07	-2.534372e-06	-1.587317e-08	-1.823701e+01	-1.043168e+03
6.000000e-07	-2.433513e-06	-1.559977e-08	-1.751125e+01	-1.025019e+03
6.100000e-07	-2.331760e-06	-1.531226e-08	-1.677905e+01	-1.006083e+03
6.200000e-07	-2.229158e-06	-1.501163e-08	-1.604073e+01	-9.863156e+02
6.300000e-07	-2.125838e-06	-1.469433e-08	-1.529726e+01	-9.656617e+02
6.400000e-07	-2.021807e-06	-1.435907e-08	-1.454866e+01	-9.440553e+02
6.500000e-07	-1.916958e-06	-1.401128e-08	-1.379419e+01	-9.214210e+02
6.600000e-07	-1.811244e-06	-1.364899e-08	-1.303348e+01	-8.976763e+02
6.700000e-07	-1.704675e-06	-1.326721e-08	-1.226663e+01	-8.727353e+02
6.800000e-07	-1.597440e-06	-1.286436e-08	-1.149498e+01	-8.465102e+02
6.900000e-07	-1.489709e-06	-1.244136e-08	-1.071976e+01	-8.189129e+02
7.000000e-07	-1.381573e-06	-1.199750e-08	-9.941626e+00	-7.898551e+02
7.100000e-07	-1.273080e-06	-1.152997e-08	-9.160918e+00	-7.592490e+02
7.200000e-07	-1.164202e-06	-1.103723e-08	-8.377451e+00	-7.270084e+02
7.300000e-07	-1.054977e-06	-1.051957e-08	-7.591480e+00	-6.930535e+02
7.400000e-07	-9.453960e-07	-9.976683e-09	-6.802949e+00	-6.573184e+02
7.500000e-07	-8.354679e-07	-9.406025e-09	-6.011921e+00	-6.197624e+02
7.600000e-07	-7.252615e-07	-8.807859e-09	-5.218889e+00	-5.803833e+02
7.700000e-07	-6.148739e-07	-8.179647e-09	-4.424554e+00	-5.392303e+02
7.800000e-07	-5.043100e-07	-7.524682e-09	-3.628951e+00	-4.964137e+02
7.900000e-07	-3.935915e-07	-6.849489e-09	-2.832234e+00	-4.521073e+02
8.000000e-07	-2.827527e-07	-6.157191e-09	-2.034652e+00	-4.065418e+02
8.100000e-07	-1.717597e-07	-5.450744e-09	-1.235961e+00	-3.599871e+02
8.200000e-07	-6.070240e-08	-4.732834e-09	-4.368067e-01	-3.127250e+02
8.300000e-07	5.038218e-08	-4.007267e-09	3.625438e-01	-2.650164e+02
8.400000e-07	1.614975e-07	-3.276294e-09	1.162115e+00	-2.170662e+02
8.500000e-07	2.725821e-07	-2.543164e-09	1.961466e+00	-1.689940e+02
8.600000e-07	3.835751e-07	-1.808878e-09	2.760157e+00	-1.208162e+02
8.700000e-07	4.944561e-07	-1.074788e-09	3.558043e+00	-7.244322e+01
8.800000e-07	6.052817e-07	-3.350888e-10	4.355530e+00	-2.369584e+01
8.900000e-07	7.159952e-07	4.156679e-10	5.152210e+00	2.566139e+01
9.000000e-07	8.264643e-07	1.184160e-09	5.947132e+00	7.587378e+01
9.100000e-07	9.366367e-07	1.968555e-09	6.739918e+00	1.271440e+02
9.200000e-07	1.046507e-06	2.766253e-09	7.530529e+00	1.795817e+02
9.300000e-07	1.156013e-06	3.578711e-09	8.318521e+00	2.331645e+02
9.400000e-07	1.265123e-06	4.403958e-09	9.103662e+00	2.877165e+02
9.500000e-07	1.373821e-06	5.242011e-09	9.885843e+00	3.429086e+02
9.600000e-07	1.482054e-06	6.085123e-09	1.066467e+01	3.982817e+02
9.700000e-07	1.589852e-06	6.924638e-09	1.144037e+01	4.532873e+02
9.800000e-07	1.697193e-06	7.749937e-09	1.221279e+01	5.073423e+02
9.900000e-07	1.803903e-06	8.549636e-09	1.298066e+01	5.598851e+02
1.000000e-06	1.909749e-06	9.315031e-09	1.374231e+01	6.104284e+02
1.010000e-06	2.014584e-06	1.004267e-08	1.449669e+01	6.585983e+02
1.020000e-06	2.118509e-06	1.073313e-08	1.524452e+01	7.041561e+02
1.030000e-06	2.221692e-06	1.138337e-08	1.598701e+01	7.470004e+02
1.040000e-06	2.324160e-06	1.199225e-08	1.672436e+01	7.871527e+02
1.050000e-06	2.425818e-06	1.256232e-08	1.745588e+01	8.247289e+02
1.060000e-06	2.526637e-06	1.309800e-08	1.818136e+01	8.599055e+02
1.070000e-06	2.626636e-06	1.360001e-08	1.890094e+01	8.928850e+02
1.080000e-06	2.725825e-06	1.407243e-08	1.961469e+01	9.238670e+02
1.090000e-06	2.824026e-06	1.451838e-08	2.032133e+01	9.530292e+02
1.100000e-06	2.920932e-06	1.493791e-08	2.101865e+01	9.805181e+02
1.110000e-06	3.016634e-06	1.533189e-08	2.170732e+01	1.006450e+03
1.120000e-06	3.111270e-06	1.570206e-08	2.238830e+01	1.030920e+03
1.130000e-06	3.204892e-06	1.605190e-08	2.306200e+01	1.054007e+03
1.140000e-06	3.297520e-06	1.638291e-08	2.372853e+01	1.075793e+03
1.150000e-06	3.389156e-06	1.669720e-08	2.438794e+01	1.096360e+03
1.160000e-06	3.479634e-06	1.699394e-08	2.503900e+01	1.115798e+03
1.170000e-06	3.568588e-06	1.727464e-08	2.567910e+01	1.134198e+03
1.180000e-06	3.656171e-06	1.754062e-08	2.630934e+01	1.151652e+03
1.190000e-06	3.742649e-06	1.779312e-08	2.693163e+01	1.168241e+03
1.200000e-06	3.827953e-06	1.803336e-08	2.754546e+01	1.184035e+03
1.210000e-06	3.912051e-06	1.826190e-08	2.815062e+01	1.199086e+03
1.220000e-06	3.994832e-06	1.847804e-08	2.874630e+01	1.213431e+03
1.230000e-06	4.076012e-06	1.868452e-08	2.933046e+01	1.227100e+03
1.240000e-06	4.155610e-06	1.888106e-08	2.990324e+01	1.240115e+03
1.250000e-06	4.233714e-06	1.906755e-08	3.046526e+01	1.252500e+03
1.260000e-06	4.310321e-06	1.924610e-08	3.101652e+01	1.264281e+03
1.270000e-06	4.385324e-06	1.941545e-08	3.155623e+01	1.275494e+03
1.280000e-06	4.458499e-06	1.957666e-08	3.208279e+01	1.286174e+03
1.290000e-06	4.529933e-06	1.973055e-08	3.259682e+01	1.296358e+03
1.300000e-06	4.599758e-06	1.987785e-08	3.309927e+01	1.306080e+03
1.310000e-06	4.668013e-06	2.002060e-08	3.359043e+01	1.315361e+03
1.320000e-06	4.734608e-06	2.015759e-08	3.406964e+01	1.324214e+03
1.330000e-06	4.799343e-06	2.028651e-08	3.453546e+01	1.332641e+03
1.340000e-06	4.862321e-06	2.040826e-08	3.498864e+01	1.340637e+03
1.350000e-06	4.923692e-06	2.052271e-08	3.543026e+01	1.348199e+03
1.360000e-06	4.983486e-06	2.062973e-08	3.586053e+01	1.355326e+03
1.370000e-06	5.041474e-06	2.073105e-08	3.627780e+01	1.362028e+03
1.380000e-06	5.097528e-06	2.082756e-08	3.668116e+01	1.368327e+03
1.390000e-06	5.151801e-06	2.091983e-08	3.707170e+01	1.374258e+03
1.400000e-06	5.204114e-06	2.100593e-08	3.744814e+01	1.379863e+03
1.410000e-06	5.254165e-06	2.108480e-08	3.780830e+01	1.385186e+03
1.420000e-06	5.302043e-06	2.115924e-08	3.815282e+01	1.390264e+03
1.430000e-06	5.348028e-06	2.123241e-08	3.848373e+01	1.395126e+03
1.440000e-06	5.392321e-06	2.130453e-08	3.880245e+01	1.399785e+03
1.450000e-06	5.434819e-06	2.137435e-08	3.910826e+01	1.404240e+03
1.460000e-06	5.475215e-06	2.144103e-08	3.939895e+01	1.408475e+03
1.470000e-06	5.513688e-06	2.150263e-08	3.967579e+01	1.412470e+03
1.480000e-06	5.550434e-06	2.155786e-08	3.994021e+01	1.416203e+03
1.490000e-06	5.585213e-06	2.160626e-08	4.019048e+01	1.419657e+03
1.500000e-06	5.617842e-06	2.165280e-08	4.042527e+01	1.422824e+03
1.510000e-06	5.648462e-06	2.169877e-08	4.064561e+01	1.425706e+03
1.520000e-06	5.677260e-06	2.174096e-08	4.085284e+01	1.428315e+03
1.530000e-06	5.704131e-06	2.177839e-08	4.104620e+01	1.430667e+03
1.540000e-06	5.728803e-06	2.181178e-08	4.122373e+01	1.432782e+03
1.550000e-06	5.751329e-06	2.183971e-08	4.138583e+01	1.434674e+03
1.560000e-06	5.771948e-06	2.186312e-08	4.153420e+01	1.436353e+03
1.570000e-06	5.790593e-06	2.188357e-08	4.166837e+01	1.437822e+03
1.580000e-06	5.807042e-06	2.190147e-08	4.178673e+01	1.439077e+03
1.590000e-06	5.821318e-06	2.191811e-08	4.188946e+01	1.440115e+03
1.600000e-06	5.833481e-06	2.193135e-08	4.197699e+01	1.440934e+03
1.610000e-06	5.843309e-06	2.194203e-08	4.204770e+01	1.441538e+03
1.620000e-06	5.850816e-06	2.195094e-08	4.210172e+01	1.441936e+03
1.630000e-06	5.856277e-06	2.195768e-08	4.214103e+01	1.442146e+03
1.640000e-06	5.859797e-06	2.196197e-08	4.216635e+01	1.442187e+03
1.650000e-06	5.861179e-06	2.196537e-08	4.217630e+01	1.442079e+03
1.660000e-06	5.860401e-06	2.196260e-08	4.217070e+01	1.441834e+03
1.670000e-06	5.857765e-06	2.195053e-08	4.215173e+01	1.441456e+03
1.680000e-06	5.853370e-06	2.193909e-08	4.212010e+01	1.440938e+03
1.690000e-06	5.846973e-06	2.192774e-08	4.207408e+01	1.440265e+03
1.700000e-06	5.838567e-06	2.191724e-08	4.201359e+01	1.439413e+03
1.710000e-06	5.828397e-06	2.190781e-08	4.194040e+01	1.438362e+03
1.720000e-06	5.816345e-06	2.189987e-08	4.185368e+01	1.437096e+03
1.730000e-06	5.802116e-06	2.189283e-08	4.175129e+01	1.435611e+03
1.740000e-06	5.785867e-06	2.181232e-08	4.163436e+01	1.433919e+03
1.750000e-06	5.767556e-06	2.172835e-08	4.150260e+01	1.432042e+03
1.760000e-06	5.746535e-06	2.174484e-08	4.135134e+01	1.430015e+03
1.770000e-06	5.722697e-06	2.173344e-08	4.117980e+01	1.427872e+03
1.780000e-06	5.696719e-06	2.174751e-08	4.099287e+01	1.425644e+03
1.790000e-06	5.669366e-06	2.178142e-08	4.079604e+01	1.423350e+03
1.800000e-06	5.641121e-06	2.157754e-08	4.059279e+01	1.420991e+03
1.810000e-06	5.611233e-06	2.154481e-08	4.037772e+01	1.418549e+03
1.820000e-06	5.578921e-06	2.160952e-08	4.014520e+01	1.415991e+03
1.830000e-06	5.544791e-06	2.147012e-08	3.989961e+01	1.413274e+03
1.840000e-06	5.508886e-06	2.158791e-08	3.964124e+01	1.410352e+03
1.850000e-06	5.470796e-06	2.155377e-08	3.936715e+01	1.407184e+03
1.860000e-06	5.430689e-06	2.133632e-08	3.907855e+01	1.403742e+03
1.870000e-06	5.388633e-06	2.137945e-08	3.877592e+01	1.400015e+03
1.880000e-06	5.344925e-06	2.125301e-08	3.846140e+01	1.396005e+03
1.890000e-06	5.299566e-06	2.119773e-08	3.813500e+01	1.391731e+03
1.900000e-06	5.251937e-06	2.120970e-08	3.779227e+01	1.387216e+03
1.910000e-06	5.202176e-06	2.103423e-08	3.743420e+01	1.382486e+03
1.920000e-06	5.150310e-06	2.106502e-08	3.706098e+01	1.377558e+03
1.930000e-06	5.096207e-06	2.096634e-08	3.667166e+01	1.372442e+03
1.940000e-06	5.040206e-06	2.082634e-08	3.626868e+01	1.367135e+03
1.950000e-06	4.982345e-06	2.080739e-08	3.585232e+01	1.361623e+03
1.960000e-06	4.922778e-06	2.068458e-08	3.542368e+01	1.355886e+03
1.970000e-06	4.861411e-06	2.062604e-08	3.498210e+01	1.349904e+03
1.980000e-06	4.798084e-06	2.048700e-08	3.452640e+01	1.343658e+03
1.990000e-06	4.733013e-06	2.039896e-08	3.405816e+01	1.337136e+03
2.000000e-06	4.666309e-06	2.033347e-08	3.357816e+01	1.330334e+03
2.010000e-06	4.598023e-06	2.017980e-08	3.308679e+01	1.323252e+03
2.020000e-06	4.527828e-06	2.010578e-08	3.258167e+01	1.315894e+03
2.030000e-06	4.455797e-06	1.995785e-08	3.206335e+01	1.308264e+03
2.040000e-06	4.382294e-06	1.985907e-08	3.153443e+01	1.300360e+03
2.050000e-06	4.307273e-06	1.974512e-08	3.099458e+01	1.292172e+03
2.060000e-06	4.230577e-06	1.958283e-08	3.044269e+01	1.283685e+03
2.070000e-06	4.152008e-06	1.947218e-08	2.987732e+01	1.274877e+03
2.080000e-06	4.071899e-06	1.931532e-08	2.930086e+01	1.265724e+03
2.090000e-06	3.990468e-06	1.918369e-08	2.871490e+01	1.256205e+03
2.100000e-06	3.907628e-06	1.902716e-08	2.811879e+01	1.246302e+03
2.110000e-06	3.823600e-06	1.888282e-08	2.751414e+01	1.236005e+03
2.120000e-06	3.738276e-06	1.873008e-08	2.690016e+01	1.225310e+03
2.130000e-06	3.651426e-06	1.854195e-08	2.627520e+01	1.214215e+03
2.140000e-06	3.563273e-06	1.836672e-08	2.564086e+01	1.202719e+03
2.150000e-06	3.473944e-06	1.817867e-08	2.499806e+01	1.190815e+03
2.160000e-06	3.383349e-06	1.800561e-08	2.434615e+01	1.178489e+03
2.170000e-06	3.291687e-06	1.781220e-08	2.368656e+01	1.165718e+03
2.180000e-06	3.198956e-06	1.761614e-08	2.301928e+01	1.152469e+03
2.190000e-06	3.104845e-06	1.740846e-08	2.234207e+01	1.138700e+03
2.200000e-06	3.009425e-06	1.718657e-08	2.165544e+01	1.124371e+03
2.210000e-06	2.912950e-06	1.695941e-08	2.096122e+01	1.109437e+03
2.220000e-06	2.815473e-06	1.672425e-08	2.025979e+01	1.093862e+03
2.230000e-06	2.717001e-06	1.648446e-08	1.955120e+01	1.077611e+03
2.240000e-06	2.617654e-06	1.622407e-08	1.883630e+01	1.060655e+03
2.250000e-06	2.517489e-06	1.595511e-08	1.811553e+01	1.042966e+03
2.260000e-06	2.416407e-06	1.567101e-08	1.738816e+01	1.024511e+03
2.270000e-06	2.314217e-06	1.537754e-08	1.665281e+01	1.005253e+03
2.280000e-06	2.210922e-06	1.507444e-08	1.590951e+01	9.851433e+02
2.290000e-06	2.106783e-06	1.475997e-08	1.516014e+01	9.641225e+02
2.300000e-06	2.001950e-06	1.442880e-08	1.440578e+01	9.421206e+02
2.310000e-06	1.896459e-06	1.407706e-08	1.364668e+01	9.190590e+02
2.320000e-06	1.790344e-06	1.370672e-08	1.288309e+01	8.948536e+02
2.330000e-06	1.683667e-06	1.331781e-08	1.211546e+01	8.694174e+02
2.340000e-06	1.576503e-06	1.291264e-08	1.134431e+01	8.426626e+02
2.350000e-06	1.468896e-06	1.248686e-08	1.056999e+01	8.145009e+02
2.360000e-06	1.360916e-06	1.204000e-08	9.792975e+00	7.848441e+02
2.370000e-06	1.252570e-06	1.156598e-08	9.013336e+00	7.536047e+02
2.380000e-06	1.143857e-06	1.106475e-08	8.231049e+00	7.206985e+02
2.390000e-06	1.034810e-06	1.053431e-08	7.446364e+00	6.860498e+02
2.400000e-06	9.253746e-07	9.974514e-09	6.658877e+00	6.496013e+02
2.410000e-06	8.155569e-07	9.389022e-09	5.868644e+00	6.113256e+02
2.420000e-06	7.054213e-07	8.776858e-09	5.076122e+00	5.712393e+02
2.430000e-06	5.950562e-07	8.139456e-09	4.281949e+00	5.294149e+02
2.440000e-06	4.845501e-07	7.475252e-09	3.486761e+00	4.859877e+02
2.450000e-06	3.738645e-07	6.788861e-09	2.690281e+00	4.411553e+02
2.460000e-06	2.629731e-07	6.084188e-09	1.892321e+00	3.951665e+02
2.470000e-06	1.519382e-07	5.367533e-09	1.093328e+00	3.482995e+02
2.480000e-06	4.084930e-08	4.644232e-09	2.939464e-01	3.008320e+02
2.490000e-06	-7.030513e-08	3.915740e-09	-5.059068e-01	2.530071e+02
2.500000e-06	-1.813939e-07	3.183027e-09	-1.305288e+00	2.049990e+02
2.510000e-06	-2.923351e-07	2.446002e-09	-2.103606e+00	1.568883e+02
2.520000e-06	-4.032009e-07	1.705397e-09	-2.901382e+00	1.086488e+02
2.530000e-06	-5.139353e-07	9.589772e-10	-3.698213e+00	6.015296e+01
2.540000e-06	-6.244664e-07	2.088729e-10	-4.493581e+00	1.119460e+01
2.550000e-06	-7.347682e-07	-5.491129e-10	-5.287298e+00	-3.847166e+01
2.560000e-06	-8.447886e-07	-1.320362e-09	-6.078991e+00	-8.908071e+01
2.570000e-06	-9.544543e-07	-2.108206e-09	-6.868131e+00	-1.408042e+02
2.580000e-06	-1.063701e-06	-2.915785e-09	-7.654259e+00	-1.937039e+02
2.590000e-06	-1.172553e-06	-3.739977e-09	-8.437542e+00	-2.476983e+02
2.600000e-06	-1.281056e-06	-4.578518e-09	-9.218315e+00	-3.025502e+02
2.610000e-06	-1.389189e-06	-5.426991e-09	-9.996425e+00	-3.578753e+02
2.620000e-06	-1.496949e-06	-6.277187e-09	-1.077186e+01	-4.131738e+02
2.630000e-06	-1.604221e-06	-7.119616e-09	-1.154377e+01	-4.678767e+02
2.640000e-06	-1.710902e-06	-7.941193e-09	-1.231143e+01	-5.214027e+02
2.650000e-06	-1.816986e-06	-8.734081e-09	-1.307480e+01	-5.732137e+02
2.660000e-06	-1.922411e-06	-9.491304e-09	-1.383343e+01	-6.228631e+02
2.670000e-06	-2.027126e-06	-1.020924e-08	-1.458694e+01	-6.700288e+02
2.680000e-06	-2.131117e-06	-1.088872e-08	-1.533525e+01	-7.145265e+02
2.690000e-06	-2.234300e-06	-1.152966e-08	-1.607773e+01	-7.563058e+02
2.700000e-06	-2.336437e-06	-1.213328e-08	-1.681271e+01	-7.954292e+02
2.710000e-06	-2.437478e-06	-1.269947e-08	-1.753978e+01	-8.320407e+02
2.720000e-06	-2.537590e-06	-1.322789e-08	-1.826018e+01	-8.663308e+02
2.730000e-06	-2.636904e-06	-1.371990e-08	-1.897482e+01	-8.985038e+02
2.740000e-06	-2.735367e-06	-1.418092e-08	-1.968335e+01	-9.287525e+02
2.750000e-06	-2.832902e-06	-1.461402e-08	-2.038520e+01	-9.572428e+02
2.760000e-06	-2.929546e-06	-1.502192e-08	-2.108064e+01	-9.841089e+02
2.770000e-06	-3.025238e-06	-1.540993e-08	-2.176922e+01	-1.009457e+03
2.780000e-06	-3.119847e-06	-1.577865e-08	-2.245002e+01	-1.033376e+03
2.790000e-06	-3.213218e-06	-1.612342e-08	-2.312191e+01	-1.055944e+03
2.800000e-06	-3.305373e-06	-1.644587e-08	-2.378505e+01	-1.077241e+03
2.810000e-06	-3.396380e-06	-1.675077e-08	-2.443992e+01	-1.097355e+03
2.820000e-06	-3.486174e-06	-1.704259e-08	-2.508606e+01	-1.116375e+03
2.830000e-06	-3.574803e-06	-1.732219e-08	-2.572383e+01	-1.134394e+03
2.840000e-06	-3.662326e-06	-1.758565e-08	-2.635363e+01	-1.151501e+03
2.850000e-06	-3.748433e-06	-1.783353e-08	-2.697325e+01	-1.167771e+03
2.860000e-06	-3.832998e-06	-1.806949e-08	-2.758177e+01	-1.183269e+03
2.870000e-06	-3.916281e-06	-1.829459e-08	-2.818106e+01	-1.198040e+03
2.880000e-06	-3.998266e-06	-1.850954e-08	-2.877101e+01	-1.212118e+03
2.890000e-06	-4.078839e-06	-1.871573e-08	-2.935080e+01	-1.225528e+03
2.900000e-06	-4.157868e-06	-1.891303e-08	-2.991949e+01	-1.238294e+03
2.910000e-06	-4.235151e-06	-1.910165e-08	-3.047561e+01	-1.250439e+03
2.920000e-06	-4.310718e-06	-1.927958e-08	-3.101938e+01	-1.261994e+03
2.930000e-06	-4.384691e-06	-1.944742e-08	-3.155168e+01	-1.272993e+03
2.940000e-06	-4.457113e-06	-1.960634e-08	-3.207282e+01	-1.283476e+03
