# Temperatura_=_84.19
# Concentracion g/m^3_=_41000.0
# C_Vs_to_Am_M_A/Vsm_=_65563218390.804596
# pendiente_HvsI_1/m_=_3716.3
# ordenada_HvsI_A/m_=_1297.0
# frecuencia_Hz_=_301998.99161374127

Tiempo_(s)	Campo_(V.s)	Magnetizacion_(V.s)	Campo_(kA/m)	Magnetizacion_(A/m)
0.000000e+00	-6.743298e-06	-2.307135e-08	-4.746805e+01	-1.510910e+03
1.000000e-08	-6.739869e-06	-2.306785e-08	-4.744392e+01	-1.510903e+03
2.000000e-08	-6.734260e-06	-2.305866e-08	-4.740443e+01	-1.510366e+03
3.000000e-08	-6.726580e-06	-2.304655e-08	-4.735037e+01	-1.509306e+03
4.000000e-08	-6.716546e-06	-2.303215e-08	-4.727974e+01	-1.507857e+03
5.000000e-08	-6.704017e-06	-2.301587e-08	-4.719154e+01	-1.506240e+03
6.000000e-08	-6.688986e-06	-2.299350e-08	-4.708573e+01	-1.504691e+03
7.000000e-08	-6.671601e-06	-2.296444e-08	-4.696336e+01	-1.503390e+03
8.000000e-08	-6.652186e-06	-2.297078e-08	-4.682669e+01	-1.502408e+03
9.000000e-08	-6.630379e-06	-2.299963e-08	-4.667318e+01	-1.501686e+03
1.000000e-07	-6.605717e-06	-2.296036e-08	-4.649958e+01	-1.501060e+03
1.100000e-07	-6.578388e-06	-2.290511e-08	-4.630720e+01	-1.500312e+03
1.200000e-07	-6.548857e-06	-2.288415e-08	-4.609933e+01	-1.499246e+03
1.300000e-07	-6.517484e-06	-2.281095e-08	-4.587848e+01	-1.497741e+03
1.400000e-07	-6.484286e-06	-2.274726e-08	-4.564479e+01	-1.495798e+03
1.500000e-07	-6.449048e-06	-2.282396e-08	-4.539674e+01	-1.493528e+03
1.600000e-07	-6.411783e-06	-2.275116e-08	-4.513442e+01	-1.491116e+03
1.700000e-07	-6.372517e-06	-2.268397e-08	-4.485801e+01	-1.488756e+03
1.800000e-07	-6.330862e-06	-2.270923e-08	-4.456479e+01	-1.486585e+03
1.900000e-07	-6.286715e-06	-2.259530e-08	-4.425403e+01	-1.484633e+03
2.000000e-07	-6.240289e-06	-2.259506e-08	-4.392723e+01	-1.482806e+03
2.100000e-07	-6.191366e-06	-2.259694e-08	-4.358285e+01	-1.480916e+03
2.200000e-07	-6.139857e-06	-2.254776e-08	-4.322025e+01	-1.478737e+03
2.300000e-07	-6.085875e-06	-2.251733e-08	-4.284026e+01	-1.476072e+03
2.400000e-07	-6.029536e-06	-2.241937e-08	-4.244367e+01	-1.472823e+03
2.500000e-07	-5.970900e-06	-2.236438e-08	-4.203092e+01	-1.469018e+03
2.600000e-07	-5.910065e-06	-2.232275e-08	-4.160268e+01	-1.464812e+03
2.700000e-07	-5.847228e-06	-2.224761e-08	-4.116036e+01	-1.460438e+03
2.800000e-07	-5.782302e-06	-2.219871e-08	-4.070332e+01	-1.456133e+03
2.900000e-07	-5.715080e-06	-2.214205e-08	-4.023013e+01	-1.452073e+03
3.000000e-07	-5.645605e-06	-2.208155e-08	-3.974107e+01	-1.448308e+03
3.100000e-07	-5.574073e-06	-2.200652e-08	-3.923754e+01	-1.444751e+03
3.200000e-07	-5.500426e-06	-2.196047e-08	-3.871911e+01	-1.441199e+03
3.300000e-07	-5.424498e-06	-2.189102e-08	-3.818463e+01	-1.437400e+03
3.400000e-07	-5.346401e-06	-2.180400e-08	-3.763489e+01	-1.433125e+03
3.500000e-07	-5.266151e-06	-2.174483e-08	-3.706998e+01	-1.428242e+03
3.600000e-07	-5.183955e-06	-2.165123e-08	-3.649138e+01	-1.422760e+03
3.700000e-07	-5.100112e-06	-2.157256e-08	-3.590119e+01	-1.416823e+03
3.800000e-07	-5.014604e-06	-2.149774e-08	-3.529927e+01	-1.410667e+03
3.900000e-07	-4.927460e-06	-2.141474e-08	-3.468584e+01	-1.404542e+03
4.000000e-07	-4.838592e-06	-2.132719e-08	-3.406027e+01	-1.398635e+03
4.100000e-07	-4.747862e-06	-2.123864e-08	-3.342159e+01	-1.393006e+03
4.200000e-07	-4.655531e-06	-2.114735e-08	-3.277165e+01	-1.387563e+03
4.300000e-07	-4.561744e-06	-2.104108e-08	-3.211146e+01	-1.382089e+03
4.400000e-07	-4.466337e-06	-2.093896e-08	-3.143986e+01	-1.376306e+03
4.500000e-07	-4.369229e-06	-2.083048e-08	-3.075629e+01	-1.369963e+03
4.600000e-07	-4.270392e-06	-2.072185e-08	-3.006054e+01	-1.362914e+03
4.700000e-07	-4.170015e-06	-2.061310e-08	-2.935396e+01	-1.355165e+03
4.800000e-07	-4.068264e-06	-2.050456e-08	-2.863771e+01	-1.346879e+03
4.900000e-07	-3.965086e-06	-2.039352e-08	-2.791140e+01	-1.338318e+03
5.000000e-07	-3.860526e-06	-2.027274e-08	-2.717538e+01	-1.329766e+03
5.100000e-07	-3.754515e-06	-2.014654e-08	-2.642913e+01	-1.321431e+03
5.200000e-07	-3.647040e-06	-2.001249e-08	-2.567258e+01	-1.313376e+03
5.300000e-07	-3.538264e-06	-1.987336e-08	-2.490688e+01	-1.305483e+03
5.400000e-07	-3.428258e-06	-1.972887e-08	-2.413252e+01	-1.297490e+03
5.500000e-07	-3.317015e-06	-1.958269e-08	-2.334944e+01	-1.289058e+03
5.600000e-07	-3.204505e-06	-1.943292e-08	-2.255745e+01	-1.279878e+03
5.700000e-07	-3.090619e-06	-1.927882e-08	-2.175578e+01	-1.269766e+03
5.800000e-07	-2.975294e-06	-1.912178e-08	-2.094397e+01	-1.258724e+03
5.900000e-07	-2.858715e-06	-1.896224e-08	-2.012333e+01	-1.246943e+03
6.000000e-07	-2.741125e-06	-1.879693e-08	-1.929558e+01	-1.234741e+03
6.100000e-07	-2.622569e-06	-1.862159e-08	-1.846103e+01	-1.222462e+03
6.200000e-07	-2.502984e-06	-1.843604e-08	-1.761924e+01	-1.210358e+03
6.300000e-07	-2.382534e-06	-1.824083e-08	-1.677136e+01	-1.198494e+03
6.400000e-07	-2.261270e-06	-1.803982e-08	-1.591774e+01	-1.186707e+03
6.500000e-07	-2.139066e-06	-1.783454e-08	-1.505752e+01	-1.174641e+03
6.600000e-07	-2.015960e-06	-1.762069e-08	-1.419093e+01	-1.161837e+03
6.700000e-07	-1.892123e-06	-1.739735e-08	-1.331921e+01	-1.147874e+03
6.800000e-07	-1.767701e-06	-1.716511e-08	-1.244336e+01	-1.132489e+03
6.900000e-07	-1.642768e-06	-1.692295e-08	-1.156393e+01	-1.115668e+03
7.000000e-07	-1.517321e-06	-1.667209e-08	-1.068087e+01	-1.097650e+03
7.100000e-07	-1.391380e-06	-1.640921e-08	-9.794335e+00	-1.078848e+03
7.200000e-07	-1.265034e-06	-1.613385e-08	-8.904943e+00	-1.059707e+03
7.300000e-07	-1.138307e-06	-1.584487e-08	-8.012874e+00	-1.040533e+03
7.400000e-07	-1.011151e-06	-1.553833e-08	-7.117792e+00	-1.021349e+03
7.500000e-07	-8.836079e-07	-1.521448e-08	-6.219975e+00	-1.001828e+03
7.600000e-07	-7.557425e-07	-1.487094e-08	-5.319894e+00	-9.813316e+02
7.700000e-07	-6.276052e-07	-1.450370e-08	-4.417897e+00	-9.590448e+02
7.800000e-07	-4.992786e-07	-1.411255e-08	-3.514569e+00	-9.341814e+02
7.900000e-07	-3.707973e-07	-1.369766e-08	-2.610151e+00	-9.061927e+02
8.000000e-07	-2.421585e-07	-1.325039e-08	-1.704625e+00	-8.749124e+02
8.100000e-07	-1.134070e-07	-1.276643e-08	-7.983054e-01	-8.405784e+02
8.200000e-07	1.539904e-08	-1.224143e-08	1.083983e-01	-8.037040e+02
8.300000e-07	1.442481e-07	-1.166788e-08	1.015405e+00	-7.648135e+02
8.400000e-07	2.731159e-07	-1.103993e-08	1.922543e+00	-7.241003e+02
8.500000e-07	4.019209e-07	-1.034882e-08	2.829239e+00	-6.810985e+02
8.600000e-07	5.305797e-07	-9.582904e-09	3.734906e+00	-6.344691e+02
8.700000e-07	6.591152e-07	-8.723799e-09	4.639706e+00	-5.819854e+02
8.800000e-07	7.875140e-07	-7.754001e-09	5.543542e+00	-5.207604e+02
8.900000e-07	9.156276e-07	-6.644238e-09	6.445372e+00	-4.477038e+02
9.000000e-07	1.043347e-06	-5.355425e-09	7.344424e+00	-3.601337e+02
9.100000e-07	1.170657e-06	-3.846474e-09	8.240601e+00	-2.564241e+02
9.200000e-07	1.297519e-06	-2.081369e-09	9.133620e+00	-1.365452e+02
9.300000e-07	1.423903e-06	-5.137002e-11	1.002327e+01	-2.369254e+00
9.400000e-07	1.549858e-06	2.193792e-09	1.090991e+01	1.423470e+02
9.500000e-07	1.675382e-06	4.544576e-09	1.179350e+01	2.923222e+02
9.600000e-07	1.800396e-06	6.886297e-09	1.267352e+01	4.414006e+02
9.700000e-07	1.924830e-06	9.095823e-09	1.354944e+01	5.833762e+02
9.800000e-07	2.048607e-06	1.105004e-08	1.442075e+01	7.128339e+02
9.900000e-07	2.171587e-06	1.269164e-08	1.528644e+01	8.258496e+02
1.000000e-06	2.293620e-06	1.403004e-08	1.614547e+01	9.204172e+02
1.010000e-06	2.414719e-06	1.510885e-08	1.699792e+01	9.965347e+02
1.020000e-06	2.534863e-06	1.598062e-08	1.784364e+01	1.055950e+03
1.030000e-06	2.653955e-06	1.669111e-08	1.868197e+01	1.101641e+03
1.040000e-06	2.772082e-06	1.727795e-08	1.951350e+01	1.137151e+03
1.050000e-06	2.889300e-06	1.777098e-08	2.033863e+01	1.165926e+03
1.060000e-06	3.005423e-06	1.818887e-08	2.115606e+01	1.190788e+03
1.070000e-06	3.120286e-06	1.854770e-08	2.196461e+01	1.213625e+03
1.080000e-06	3.233909e-06	1.886196e-08	2.276444e+01	1.235335e+03
1.090000e-06	3.346260e-06	1.914137e-08	2.355530e+01	1.256004e+03
1.100000e-06	3.457311e-06	1.939171e-08	2.433702e+01	1.275218e+03
1.110000e-06	3.567210e-06	1.961854e-08	2.511064e+01	1.292428e+03
1.120000e-06	3.676043e-06	1.982723e-08	2.587675e+01	1.307260e+03
1.130000e-06	3.783714e-06	2.002082e-08	2.663467e+01	1.319704e+03
1.140000e-06	3.890053e-06	2.020093e-08	2.738323e+01	1.330140e+03
1.150000e-06	3.994921e-06	2.036881e-08	2.812142e+01	1.339235e+03
1.160000e-06	4.098254e-06	2.052781e-08	2.884882e+01	1.347749e+03
1.170000e-06	4.200137e-06	2.067596e-08	2.956600e+01	1.356324e+03
1.180000e-06	4.300638e-06	2.081519e-08	3.027345e+01	1.365325e+03
1.190000e-06	4.399609e-06	2.094720e-08	3.097014e+01	1.374767e+03
1.200000e-06	4.496879e-06	2.107083e-08	3.165485e+01	1.384363e+03
1.210000e-06	4.592424e-06	2.118550e-08	3.232742e+01	1.393644e+03
1.220000e-06	4.686374e-06	2.129420e-08	3.298876e+01	1.402132e+03
1.230000e-06	4.778812e-06	2.139775e-08	3.363946e+01	1.409499e+03
1.240000e-06	4.869589e-06	2.149669e-08	3.427846e+01	1.415667e+03
1.250000e-06	4.958519e-06	2.159119e-08	3.490447e+01	1.420822e+03
1.260000e-06	5.045550e-06	2.167942e-08	3.551710e+01	1.425355e+03
1.270000e-06	5.130821e-06	2.176425e-08	3.611736e+01	1.429733e+03
1.280000e-06	5.214408e-06	2.184593e-08	3.670575e+01	1.434361e+03
1.290000e-06	5.296115e-06	2.192559e-08	3.728091e+01	1.439465e+03
1.300000e-06	5.375807e-06	2.200283e-08	3.784189e+01	1.445043e+03
1.310000e-06	5.453531e-06	2.207576e-08	3.838900e+01	1.450876e+03
1.320000e-06	5.529234e-06	2.214529e-08	3.892190e+01	1.456619e+03
1.330000e-06	5.602719e-06	2.221159e-08	3.943919e+01	1.461911e+03
1.340000e-06	5.674063e-06	2.227503e-08	3.994139e+01	1.466493e+03
1.350000e-06	5.743453e-06	2.233661e-08	4.042985e+01	1.470286e+03
1.360000e-06	5.810897e-06	2.239679e-08	4.090461e+01	1.473406e+03
1.370000e-06	5.876200e-06	2.245389e-08	4.136430e+01	1.476120e+03
1.380000e-06	5.939331e-06	2.250699e-08	4.180869e+01	1.478762e+03
1.390000e-06	6.000498e-06	2.255749e-08	4.223927e+01	1.481618e+03
1.400000e-06	6.059722e-06	2.260594e-08	4.265616e+01	1.484846e+03
1.410000e-06	6.116788e-06	2.265218e-08	4.305787e+01	1.488426e+03
1.420000e-06	6.171639e-06	2.269543e-08	4.344398e+01	1.492174e+03
1.430000e-06	6.224230e-06	2.273668e-08	4.381418e+01	1.495804e+03
1.440000e-06	6.274201e-06	2.277671e-08	4.416594e+01	1.499022e+03
1.450000e-06	6.321637e-06	2.281340e-08	4.449986e+01	1.501618e+03
1.460000e-06	6.366913e-06	2.284610e-08	4.481857e+01	1.503530e+03
1.470000e-06	6.410094e-06	2.287584e-08	4.512253e+01	1.504860e+03
1.480000e-06	6.450904e-06	2.290344e-08	4.540980e+01	1.505841e+03
1.490000e-06	6.489341e-06	2.292914e-08	4.568037e+01	1.506763e+03
1.500000e-06	6.525689e-06	2.295172e-08	4.593624e+01	1.507880e+03
1.510000e-06	6.559714e-06	2.297312e-08	4.617575e+01	1.509334e+03
1.520000e-06	6.591273e-06	2.299459e-08	4.639791e+01	1.511118e+03
1.530000e-06	6.620578e-06	2.301546e-08	4.660419e+01	1.513077e+03
1.540000e-06	6.647650e-06	2.303348e-08	4.679476e+01	1.514962e+03
1.550000e-06	6.672225e-06	2.304832e-08	4.696775e+01	1.516512e+03
1.560000e-06	6.694335e-06	2.306094e-08	4.712339e+01	1.517535e+03
1.570000e-06	6.714227e-06	2.307170e-08	4.726341e+01	1.517968e+03
1.580000e-06	6.731690e-06	2.308126e-08	4.738634e+01	1.517893e+03
1.590000e-06	6.746629e-06	2.308848e-08	4.749150e+01	1.517513e+03
1.600000e-06	6.759108e-06	2.309383e-08	4.757934e+01	1.517085e+03
1.610000e-06	6.768905e-06	2.309915e-08	4.764831e+01	1.516841e+03
1.620000e-06	6.776069e-06	2.310414e-08	4.769874e+01	1.516917e+03
1.630000e-06	6.780912e-06	2.310708e-08	4.773283e+01	1.517312e+03
1.640000e-06	6.783429e-06	2.310749e-08	4.775055e+01	1.517889e+03
1.650000e-06	6.783458e-06	2.310756e-08	4.775075e+01	1.518423e+03
1.660000e-06	6.781187e-06	2.310016e-08	4.773477e+01	1.518671e+03
1.670000e-06	6.776819e-06	2.309161e-08	4.770402e+01	1.518446e+03
1.680000e-06	6.770143e-06	2.308405e-08	4.765703e+01	1.517678e+03
1.690000e-06	6.761193e-06	2.307592e-08	4.759402e+01	1.516430e+03
1.700000e-06	6.750145e-06	2.306805e-08	4.751625e+01	1.514881e+03
1.710000e-06	6.736794e-06	2.306282e-08	4.742227e+01	1.513267e+03
1.720000e-06	6.721089e-06	2.306955e-08	4.731172e+01	1.511809e+03
1.730000e-06	6.703315e-06	2.302280e-08	4.718660e+01	1.510645e+03
1.740000e-06	6.683207e-06	2.294393e-08	4.704506e+01	1.509790e+03
1.750000e-06	6.659923e-06	2.294585e-08	4.688115e+01	1.509135e+03
1.760000e-06	6.633509e-06	2.294427e-08	4.669522e+01	1.508486e+03
1.770000e-06	6.604751e-06	2.292435e-08	4.649278e+01	1.507624e+03
1.780000e-06	6.573950e-06	2.298907e-08	4.627596e+01	1.506379e+03
1.790000e-06	6.541654e-06	2.291744e-08	4.604862e+01	1.504681e+03
1.800000e-06	6.507809e-06	2.284176e-08	4.581037e+01	1.502580e+03
1.810000e-06	6.471561e-06	2.292835e-08	4.555522e+01	1.500226e+03
1.820000e-06	6.432956e-06	2.283804e-08	4.528347e+01	1.497815e+03
1.830000e-06	6.392172e-06	2.285177e-08	4.499638e+01	1.495527e+03
1.840000e-06	6.349186e-06	2.286737e-08	4.469379e+01	1.493454e+03
1.850000e-06	6.304108e-06	2.271279e-08	4.437647e+01	1.491575e+03
1.860000e-06	6.256642e-06	2.273925e-08	4.404234e+01	1.489750e+03
1.870000e-06	6.206852e-06	2.264368e-08	4.369185e+01	1.487765e+03
1.880000e-06	6.154771e-06	2.260489e-08	4.332524e+01	1.485399e+03
1.890000e-06	6.099959e-06	2.263579e-08	4.293940e+01	1.482490e+03
1.900000e-06	6.042738e-06	2.250322e-08	4.253660e+01	1.478992e+03
1.910000e-06	5.983350e-06	2.252347e-08	4.211855e+01	1.474992e+03
1.920000e-06	5.921717e-06	2.245809e-08	4.168470e+01	1.470685e+03
1.930000e-06	5.857896e-06	2.237823e-08	4.123545e+01	1.466315e+03
1.940000e-06	5.791869e-06	2.234767e-08	4.077067e+01	1.462101e+03
1.950000e-06	5.723716e-06	2.225216e-08	4.029092e+01	1.458171e+03
1.960000e-06	5.653285e-06	2.223390e-08	3.979513e+01	1.454515e+03
1.970000e-06	5.580666e-06	2.212657e-08	3.928395e+01	1.450991e+03
1.980000e-06	5.506045e-06	2.207905e-08	3.875867e+01	1.447366e+03
1.990000e-06	5.429314e-06	2.201752e-08	3.821854e+01	1.443388e+03
2.000000e-06	5.350453e-06	2.192986e-08	3.766341e+01	1.438862e+03
2.010000e-06	5.269560e-06	2.188772e-08	3.709398e+01	1.433715e+03
2.020000e-06	5.186876e-06	2.177378e-08	3.651194e+01	1.428015e+03
2.030000e-06	5.102397e-06	2.171483e-08	3.591727e+01	1.421953e+03
2.040000e-06	5.015972e-06	2.162128e-08	3.530890e+01	1.415783e+03
2.050000e-06	4.927726e-06	2.153596e-08	3.468771e+01	1.409737e+03
2.060000e-06	4.837903e-06	2.144915e-08	3.405542e+01	1.403952e+03
2.070000e-06	4.746532e-06	2.135503e-08	3.341223e+01	1.398424e+03
2.080000e-06	4.653484e-06	2.127858e-08	3.275724e+01	1.393000e+03
2.090000e-06	4.558665e-06	2.117111e-08	3.208978e+01	1.387430e+03
2.100000e-06	4.462206e-06	2.108247e-08	3.141078e+01	1.381435e+03
2.110000e-06	4.364317e-06	2.097253e-08	3.072171e+01	1.374800e+03
2.120000e-06	4.265037e-06	2.086889e-08	3.002285e+01	1.367442e+03
2.130000e-06	4.164300e-06	2.074985e-08	2.931373e+01	1.359437e+03
2.140000e-06	4.061887e-06	2.063340e-08	2.859281e+01	1.350999e+03
2.150000e-06	3.957803e-06	2.051984e-08	2.786014e+01	1.342410e+03
2.160000e-06	3.852312e-06	2.039855e-08	2.711755e+01	1.333935e+03
2.170000e-06	3.745536e-06	2.028058e-08	2.636593e+01	1.325724e+03
2.180000e-06	3.637572e-06	2.015395e-08	2.560593e+01	1.317764e+03
2.190000e-06	3.528348e-06	2.002771e-08	2.483708e+01	1.309869e+03
2.200000e-06	3.417747e-06	1.988850e-08	2.405853e+01	1.301731e+03
2.210000e-06	3.305766e-06	1.974827e-08	2.327026e+01	1.293012e+03
2.220000e-06	3.192481e-06	1.959680e-08	2.247281e+01	1.283446e+03
2.230000e-06	3.077918e-06	1.944118e-08	2.166637e+01	1.272926e+03
2.240000e-06	2.962167e-06	1.927912e-08	2.085156e+01	1.261536e+03
2.250000e-06	2.845266e-06	1.911557e-08	2.002866e+01	1.249533e+03
2.260000e-06	2.727116e-06	1.894598e-08	1.919697e+01	1.237260e+03
2.270000e-06	2.607782e-06	1.877252e-08	1.835694e+01	1.225036e+03
2.280000e-06	2.487427e-06	1.859610e-08	1.750973e+01	1.213041e+03
2.290000e-06	2.366249e-06	1.840936e-08	1.665672e+01	1.201244e+03
2.300000e-06	2.244362e-06	1.821223e-08	1.579872e+01	1.189391e+03
2.310000e-06	2.121797e-06	1.800235e-08	1.493595e+01	1.177067e+03
2.320000e-06	1.998537e-06	1.778638e-08	1.406829e+01	1.163813e+03
2.330000e-06	1.874585e-06	1.755981e-08	1.319575e+01	1.149261e+03
2.340000e-06	1.749996e-06	1.732413e-08	1.231874e+01	1.133248e+03
2.350000e-06	1.624841e-06	1.707795e-08	1.143774e+01	1.115873e+03
2.360000e-06	1.499101e-06	1.682247e-08	1.055261e+01	1.097464e+03
2.370000e-06	1.372785e-06	1.655499e-08	9.663439e+00	1.078468e+03
2.380000e-06	1.245989e-06	1.627522e-08	8.770880e+00	1.059291e+03
2.390000e-06	1.118759e-06	1.598216e-08	7.875271e+00	1.040131e+03
2.400000e-06	9.911018e-07	1.567064e-08	6.976657e+00	1.020864e+03
2.410000e-06	8.630777e-07	1.533838e-08	6.075458e+00	1.001020e+03
2.420000e-06	7.347403e-07	1.498190e-08	5.172053e+00	9.798606e+02
2.430000e-06	6.061374e-07	1.460296e-08	4.266779e+00	9.565577e+02
2.440000e-06	4.773740e-07	1.419905e-08	3.360376e+00	9.304034e+02
2.450000e-06	3.484712e-07	1.376924e-08	2.452991e+00	9.010010e+02
2.460000e-06	2.194123e-07	1.330888e-08	1.544507e+00	8.683636e+02
2.470000e-06	9.027631e-08	1.281005e-08	6.354814e-01	8.328715e+02
2.480000e-06	-3.888603e-08	1.226894e-08	-2.737302e-01	7.950814e+02
2.490000e-06	-1.680460e-07	1.167644e-08	-1.182925e+00	7.554192e+02
2.500000e-06	-2.971512e-07	1.102304e-08	-2.091735e+00	7.138315e+02
2.510000e-06	-4.262040e-07	1.030029e-08	-3.000175e+00	6.694945e+02
2.520000e-06	-5.551794e-07	9.498541e-09	-3.908070e+00	6.206767e+02
2.530000e-06	-6.840357e-07	8.599806e-09	-4.815128e+00	5.648261e+02
2.540000e-06	-8.126776e-07	7.579909e-09	-5.720676e+00	4.989015e+02
2.550000e-06	-9.410089e-07	6.408244e-09	-6.624038e+00	4.199074e+02
2.560000e-06	-1.068979e-06	5.046261e-09	-7.524855e+00	3.255381e+02
2.570000e-06	-1.196523e-06	3.452331e-09	-8.422675e+00	2.147967e+02
2.580000e-06	-1.323550e-06	1.592242e-09	-9.316855e+00	8.844846e+01
2.590000e-06	-1.450070e-06	-5.316736e-10	-1.020747e+01	-5.080415e+01
2.600000e-06	-1.576078e-06	-2.851004e-09	-1.109448e+01	-1.984880e+02
2.610000e-06	-1.701469e-06	-5.247163e-09	-1.197714e+01	-3.488540e+02
2.620000e-06	-1.826192e-06	-7.589472e-09	-1.285510e+01	-4.956192e+02
2.630000e-06	-1.950164e-06	-9.739629e-09	-1.372778e+01	-6.328182e+02
2.640000e-06	-2.073283e-06	-1.159749e-08	-1.459444e+01	-7.556027e+02
2.650000e-06	-2.195597e-06	-1.313916e-08	-1.545545e+01	-8.608374e+02
2.660000e-06	-2.317174e-06	-1.439294e-08	-1.631127e+01	-9.473853e+02
2.670000e-06	-2.437934e-06	-1.540657e-08	-1.716133e+01	-1.016044e+03
2.680000e-06	-2.557800e-06	-1.622695e-08	-1.800510e+01	-1.069162e+03
2.690000e-06	-2.676630e-06	-1.689630e-08	-1.884159e+01	-1.110046e+03
2.700000e-06	-2.794383e-06	-1.744852e-08	-1.967048e+01	-1.142272e+03
2.710000e-06	-2.911003e-06	-1.791108e-08	-2.049140e+01	-1.169074e+03
2.720000e-06	-3.026353e-06	-1.830675e-08	-2.130339e+01	-1.192895e+03
2.730000e-06	-3.140466e-06	-1.865155e-08	-2.210666e+01	-1.215190e+03
2.740000e-06	-3.253259e-06	-1.895559e-08	-2.290065e+01	-1.236480e+03
2.750000e-06	-3.364701e-06	-1.922662e-08	-2.368512e+01	-1.256591e+03
2.760000e-06	-3.474864e-06	-1.947142e-08	-2.446059e+01	-1.275007e+03
2.770000e-06	-3.583825e-06	-1.969364e-08	-2.522760e+01	-1.291224e+03
2.780000e-06	-3.691703e-06	-1.989704e-08	-2.598698e+01	-1.305009e+03
2.790000e-06	-3.798478e-06	-2.008583e-08	-2.673860e+01	-1.316524e+03
2.800000e-06	-3.904065e-06	-2.026133e-08	-2.748186e+01	-1.326291e+03
2.810000e-06	-4.008194e-06	-2.042485e-08	-2.821485e+01	-1.335045e+03
2.820000e-06	-4.110653e-06	-2.057786e-08	-2.893609e+01	-1.343519e+03
2.830000e-06	-4.211544e-06	-2.072209e-08	-2.964629e+01	-1.352250e+03
2.840000e-06	-4.311004e-06	-2.085924e-08	-3.034642e+01	-1.361456e+03
2.850000e-06	-4.409082e-06	-2.098903e-08	-3.103682e+01	-1.371013e+03
2.860000e-06	-4.505739e-06	-2.111092e-08	-3.171722e+01	-1.380534e+03
2.870000e-06	-4.600744e-06	-2.122614e-08	-3.238599e+01	-1.389527e+03
2.880000e-06	-4.693954e-06	-2.133455e-08	-3.304212e+01	-1.397560e+03
2.890000e-06	-4.785478e-06	-2.143684e-08	-3.368638e+01	-1.404405e+03
2.900000e-06	-4.875323e-06	-2.153408e-08	-3.431883e+01	-1.410100e+03
2.910000e-06	-4.963487e-06	-2.162614e-08	-3.493944e+01	-1.414932e+03
2.920000e-06	-5.049786e-06	-2.171446e-08	-3.554693e+01	-1.419341e+03
2.930000e-06	-5.134109e-06	-2.179936e-08	-3.614050e+01	-1.423783e+03
2.940000e-06	-5.216676e-06	-2.188006e-08	-3.672171e+01	-1.428599e+03
