# Temperatura_=_83.96
# Concentracion g/m^3_=_41000.0
# C_Vs_to_Am_M_A/Vsm_=_65563218390.804596
# pendiente_HvsI_1/m_=_3716.3
# ordenada_HvsI_A/m_=_1297.0
# frecuencia_Hz_=_301998.42709537665

Tiempo_(s)	Campo_(V.s)	Magnetizacion_(V.s)	Campo_(kA/m)	Magnetizacion_(A/m)
0.000000e+00	-6.722066e-06	-2.396675e-08	-4.746270e+01	-1.569431e+03
1.000000e-08	-6.718218e-06	-2.395945e-08	-4.743553e+01	-1.569419e+03
2.000000e-08	-6.712276e-06	-2.395109e-08	-4.739357e+01	-1.568844e+03
3.000000e-08	-6.704240e-06	-2.394094e-08	-4.733683e+01	-1.567726e+03
4.000000e-08	-6.693814e-06	-2.392656e-08	-4.726322e+01	-1.566213e+03
5.000000e-08	-6.680844e-06	-2.390938e-08	-4.717164e+01	-1.564543e+03
6.000000e-08	-6.665429e-06	-2.388398e-08	-4.706280e+01	-1.562964e+03
7.000000e-08	-6.647745e-06	-2.385863e-08	-4.693794e+01	-1.561659e+03
8.000000e-08	-6.627963e-06	-2.387161e-08	-4.679827e+01	-1.560695e+03
9.000000e-08	-6.605815e-06	-2.386737e-08	-4.664189e+01	-1.560004e+03
1.000000e-07	-6.580866e-06	-2.383403e-08	-4.646573e+01	-1.559404e+03
1.100000e-07	-6.553294e-06	-2.380849e-08	-4.627105e+01	-1.558665e+03
1.200000e-07	-6.523597e-06	-2.377826e-08	-4.606136e+01	-1.557575e+03
1.300000e-07	-6.492022e-06	-2.368688e-08	-4.583842e+01	-1.556010e+03
1.400000e-07	-6.458600e-06	-2.367206e-08	-4.560244e+01	-1.553968e+03
1.500000e-07	-6.423161e-06	-2.370479e-08	-4.535221e+01	-1.551565e+03
1.600000e-07	-6.385688e-06	-2.359229e-08	-4.508763e+01	-1.548992e+03
1.700000e-07	-6.346207e-06	-2.361019e-08	-4.480886e+01	-1.546451e+03
1.800000e-07	-6.304284e-06	-2.358308e-08	-4.451285e+01	-1.544085e+03
1.900000e-07	-6.259914e-06	-2.349672e-08	-4.419957e+01	-1.541924e+03
2.000000e-07	-6.213349e-06	-2.351779e-08	-4.387078e+01	-1.539880e+03
2.100000e-07	-6.164277e-06	-2.345887e-08	-4.352430e+01	-1.537765e+03
2.200000e-07	-6.112527e-06	-2.341944e-08	-4.315891e+01	-1.535355e+03
2.300000e-07	-6.058294e-06	-2.336325e-08	-4.277598e+01	-1.532460e+03
2.400000e-07	-6.001727e-06	-2.328227e-08	-4.237658e+01	-1.528990e+03
2.500000e-07	-5.942952e-06	-2.324472e-08	-4.196159e+01	-1.524982e+03
2.600000e-07	-5.882014e-06	-2.317951e-08	-4.153132e+01	-1.520598e+03
2.700000e-07	-5.818988e-06	-2.310599e-08	-4.108631e+01	-1.516072e+03
2.800000e-07	-5.753845e-06	-2.303732e-08	-4.062635e+01	-1.511642e+03
2.900000e-07	-5.686459e-06	-2.298481e-08	-4.015055e+01	-1.507468e+03
3.000000e-07	-5.616896e-06	-2.293187e-08	-3.965939e+01	-1.503588e+03
3.100000e-07	-5.545241e-06	-2.287568e-08	-3.915346e+01	-1.499893e+03
3.200000e-07	-5.471493e-06	-2.282479e-08	-3.863274e+01	-1.496165e+03
3.300000e-07	-5.395533e-06	-2.272407e-08	-3.809641e+01	-1.492141e+03
3.400000e-07	-5.317366e-06	-2.264230e-08	-3.754449e+01	-1.487591e+03
3.500000e-07	-5.237114e-06	-2.256724e-08	-3.697785e+01	-1.482391e+03
3.600000e-07	-5.154892e-06	-2.247938e-08	-3.639731e+01	-1.476566e+03
3.700000e-07	-5.070976e-06	-2.241039e-08	-3.580480e+01	-1.470281e+03
3.800000e-07	-4.985496e-06	-2.232639e-08	-3.520124e+01	-1.463790e+03
3.900000e-07	-4.898350e-06	-2.222774e-08	-3.458593e+01	-1.457359e+03
4.000000e-07	-4.809514e-06	-2.212538e-08	-3.395868e+01	-1.451179e+03
4.100000e-07	-4.718970e-06	-2.203634e-08	-3.331938e+01	-1.445303e+03
4.200000e-07	-4.626764e-06	-2.193908e-08	-3.266833e+01	-1.439627e+03
4.300000e-07	-4.532940e-06	-2.183284e-08	-3.200587e+01	-1.433918e+03
4.400000e-07	-4.437491e-06	-2.172966e-08	-3.133193e+01	-1.427883e+03
4.500000e-07	-4.340408e-06	-2.161727e-08	-3.064645e+01	-1.421262e+03
4.600000e-07	-4.241694e-06	-2.150452e-08	-2.994946e+01	-1.413905e+03
4.700000e-07	-4.141453e-06	-2.139031e-08	-2.924169e+01	-1.405826e+03
4.800000e-07	-4.039848e-06	-2.128021e-08	-2.852428e+01	-1.397198e+03
4.900000e-07	-3.936825e-06	-2.116198e-08	-2.779686e+01	-1.388299e+03
5.000000e-07	-3.832303e-06	-2.103480e-08	-2.705886e+01	-1.379422e+03
5.100000e-07	-3.726395e-06	-2.090180e-08	-2.631107e+01	-1.370779e+03
5.200000e-07	-3.619061e-06	-2.076102e-08	-2.555322e+01	-1.362428e+03
5.300000e-07	-3.510356e-06	-2.061540e-08	-2.478568e+01	-1.354243e+03
5.400000e-07	-3.400471e-06	-2.046459e-08	-2.400981e+01	-1.345946e+03
5.500000e-07	-3.289334e-06	-2.031512e-08	-2.322510e+01	-1.337186e+03
5.600000e-07	-3.176870e-06	-2.016202e-08	-2.243102e+01	-1.327646e+03
5.700000e-07	-3.063074e-06	-2.000683e-08	-2.162754e+01	-1.317142e+03
5.800000e-07	-2.947989e-06	-1.984512e-08	-2.081496e+01	-1.305683e+03
5.900000e-07	-2.831664e-06	-1.967665e-08	-1.999362e+01	-1.293470e+03
6.000000e-07	-2.714258e-06	-1.949910e-08	-1.916464e+01	-1.280833e+03
6.100000e-07	-2.595866e-06	-1.931206e-08	-1.832871e+01	-1.268125e+03
6.200000e-07	-2.476488e-06	-1.911877e-08	-1.748582e+01	-1.255600e+03
6.300000e-07	-2.356234e-06	-1.891837e-08	-1.663673e+01	-1.243316e+03
6.400000e-07	-2.235173e-06	-1.871134e-08	-1.578196e+01	-1.231099e+03
6.500000e-07	-2.113278e-06	-1.849642e-08	-1.492129e+01	-1.218576e+03
6.600000e-07	-1.990553e-06	-1.827330e-08	-1.405476e+01	-1.205277e+03
6.700000e-07	-1.867080e-06	-1.804136e-08	-1.318295e+01	-1.190772e+03
6.800000e-07	-1.742875e-06	-1.780113e-08	-1.230597e+01	-1.174801e+03
6.900000e-07	-1.618058e-06	-1.755092e-08	-1.142467e+01	-1.157357e+03
7.000000e-07	-1.492804e-06	-1.729146e-08	-1.054029e+01	-1.138690e+03
7.100000e-07	-1.367181e-06	-1.701901e-08	-9.653294e+00	-1.119223e+03
7.200000e-07	-1.241137e-06	-1.673284e-08	-8.763332e+00	-1.099401e+03
7.300000e-07	-1.114670e-06	-1.643146e-08	-7.870388e+00	-1.079523e+03
7.400000e-07	-9.878164e-07	-1.611080e-08	-6.974706e+00	-1.059593e+03
7.500000e-07	-8.606322e-07	-1.577314e-08	-6.076692e+00	-1.039260e+03
7.600000e-07	-7.331444e-07	-1.541401e-08	-5.176536e+00	-1.017862e+03
7.700000e-07	-6.053739e-07	-1.503207e-08	-4.274382e+00	-9.945699e+02
7.800000e-07	-4.773970e-07	-1.462647e-08	-3.370772e+00	-9.685947e+02
7.900000e-07	-3.492865e-07	-1.419336e-08	-2.466218e+00	-9.393993e+02
8.000000e-07	-2.210611e-07	-1.372684e-08	-1.560853e+00	-9.068362e+02
8.100000e-07	-9.267203e-08	-1.322176e-08	-6.543323e-01	-8.711590e+02
8.200000e-07	3.584393e-08	-1.267346e-08	2.530843e-01	-8.328793e+02
8.300000e-07	1.643607e-07	-1.207465e-08	1.160507e+00	-7.924879e+02
8.400000e-07	2.927848e-07	-1.141819e-08	2.067275e+00	-7.501049e+02
8.500000e-07	4.211489e-07	-1.069350e-08	2.973619e+00	-7.051505e+02
8.600000e-07	5.494200e-07	-9.887298e-09	3.879307e+00	-6.561420e+02
8.700000e-07	6.775047e-07	-8.983258e-09	4.783679e+00	-6.006997e+02
8.800000e-07	8.053681e-07	-7.960470e-09	5.686487e+00	-5.358040e+02
8.900000e-07	9.329400e-07	-6.785961e-09	6.587238e+00	-4.582817e+02
9.000000e-07	1.060191e-06	-5.418082e-09	7.485726e+00	-3.654451e+02
9.100000e-07	1.187086e-06	-3.812669e-09	8.381695e+00	-2.557548e+02
9.200000e-07	1.313548e-06	-1.933201e-09	9.274612e+00	-1.293609e+02
9.300000e-07	1.439582e-06	2.208009e-10	1.016450e+01	1.160673e+01
9.400000e-07	1.565151e-06	2.573762e-09	1.105111e+01	1.630866e+02
9.500000e-07	1.690223e-06	5.008443e-09	1.193421e+01	3.194847e+02
9.600000e-07	1.814817e-06	7.430684e-09	1.281393e+01	4.743672e+02
9.700000e-07	1.938864e-06	9.715759e-09	1.368979e+01	6.213203e+02
9.800000e-07	2.062215e-06	1.172568e-08	1.456074e+01	7.548156e+02
9.900000e-07	2.184659e-06	1.340276e-08	1.542529e+01	8.709176e+02
1.000000e-06	2.306101e-06	1.476330e-08	1.628276e+01	9.677015e+02
1.010000e-06	2.426564e-06	1.585736e-08	1.713332e+01	1.045315e+03
1.020000e-06	2.546059e-06	1.673995e-08	1.797704e+01	1.105692e+03
1.030000e-06	2.664636e-06	1.745803e-08	1.881428e+01	1.151999e+03
1.040000e-06	2.782308e-06	1.805029e-08	1.964513e+01	1.187941e+03
1.050000e-06	2.899030e-06	1.854620e-08	2.046927e+01	1.217082e+03
1.060000e-06	3.014631e-06	1.896755e-08	2.128550e+01	1.242308e+03
1.070000e-06	3.128888e-06	1.933050e-08	2.209223e+01	1.265527e+03
1.080000e-06	3.241803e-06	1.964864e-08	2.288950e+01	1.287625e+03
1.090000e-06	3.353521e-06	1.992991e-08	2.367831e+01	1.308661e+03
1.100000e-06	3.464088e-06	2.018259e-08	2.445900e+01	1.328195e+03
1.110000e-06	3.573505e-06	2.041290e-08	2.523156e+01	1.345668e+03
1.120000e-06	3.681798e-06	2.062607e-08	2.599619e+01	1.360712e+03
1.130000e-06	3.788934e-06	2.082437e-08	2.675264e+01	1.373337e+03
1.140000e-06	3.894672e-06	2.100919e-08	2.749923e+01	1.383951e+03
1.150000e-06	3.998905e-06	2.118324e-08	2.823519e+01	1.393248e+03
1.160000e-06	4.101676e-06	2.134672e-08	2.896083e+01	1.402001e+03
1.170000e-06	4.202975e-06	2.149896e-08	2.967608e+01	1.410855e+03
1.180000e-06	4.302876e-06	2.164222e-08	3.038145e+01	1.420157e+03
1.190000e-06	4.401270e-06	2.177853e-08	3.107618e+01	1.429904e+03
1.200000e-06	4.497937e-06	2.190598e-08	3.175872e+01	1.439783e+03
1.210000e-06	4.592928e-06	2.202621e-08	3.242943e+01	1.449305e+03
1.220000e-06	4.686334e-06	2.214063e-08	3.308894e+01	1.457987e+03
1.230000e-06	4.778268e-06	2.225022e-08	3.373806e+01	1.465504e+03
1.240000e-06	4.868561e-06	2.235314e-08	3.437560e+01	1.471791e+03
1.250000e-06	4.956936e-06	2.244904e-08	3.499959e+01	1.477054e+03
1.260000e-06	5.043462e-06	2.253887e-08	3.561053e+01	1.481700e+03
1.270000e-06	5.128290e-06	2.262481e-08	3.620947e+01	1.486206e+03
1.280000e-06	5.211470e-06	2.270787e-08	3.679679e+01	1.490977e+03
1.290000e-06	5.292703e-06	2.278948e-08	3.737035e+01	1.496231e+03
1.300000e-06	5.371892e-06	2.286886e-08	3.792948e+01	1.501952e+03
1.310000e-06	5.449157e-06	2.294457e-08	3.847503e+01	1.507909e+03
1.320000e-06	5.524342e-06	2.301728e-08	3.900590e+01	1.513747e+03
1.330000e-06	5.597304e-06	2.308588e-08	3.952106e+01	1.519109e+03
1.340000e-06	5.668159e-06	2.315145e-08	4.002134e+01	1.523743e+03
1.350000e-06	5.737077e-06	2.321313e-08	4.050796e+01	1.527585e+03
1.360000e-06	5.803990e-06	2.327157e-08	4.098041e+01	1.530767e+03
1.370000e-06	5.868691e-06	2.332875e-08	4.143725e+01	1.533570e+03
1.380000e-06	5.931317e-06	2.338504e-08	4.187943e+01	1.536331e+03
1.390000e-06	5.992111e-06	2.344161e-08	4.230868e+01	1.539333e+03
1.400000e-06	6.050862e-06	2.349524e-08	4.272351e+01	1.542718e+03
1.410000e-06	6.107347e-06	2.354461e-08	4.312233e+01	1.546451e+03
1.420000e-06	6.161621e-06	2.358820e-08	4.350555e+01	1.550330e+03
1.430000e-06	6.213507e-06	2.362901e-08	4.387190e+01	1.554060e+03
1.440000e-06	6.262761e-06	2.366932e-08	4.421967e+01	1.557345e+03
1.450000e-06	6.309639e-06	2.370677e-08	4.455066e+01	1.559982e+03
1.460000e-06	6.354463e-06	2.374149e-08	4.486716e+01	1.561923e+03
1.470000e-06	6.397096e-06	2.377219e-08	4.516817e+01	1.563288e+03
1.480000e-06	6.437349e-06	2.380163e-08	4.545239e+01	1.564324e+03
1.490000e-06	6.475363e-06	2.382929e-08	4.572079e+01	1.565325e+03
1.500000e-06	6.511254e-06	2.385382e-08	4.597421e+01	1.566543e+03
1.510000e-06	6.544807e-06	2.387627e-08	4.621112e+01	1.568109e+03
1.520000e-06	6.575959e-06	2.389752e-08	4.643108e+01	1.569998e+03
1.530000e-06	6.604893e-06	2.391817e-08	4.663537e+01	1.572039e+03
1.540000e-06	6.631521e-06	2.393630e-08	4.682339e+01	1.573975e+03
1.550000e-06	6.655610e-06	2.395055e-08	4.699347e+01	1.575543e+03
1.560000e-06	6.677267e-06	2.396253e-08	4.714638e+01	1.576559e+03
1.570000e-06	6.696744e-06	2.397417e-08	4.728391e+01	1.576977e+03
1.580000e-06	6.713842e-06	2.398407e-08	4.740463e+01	1.576896e+03
1.590000e-06	6.728413e-06	2.399236e-08	4.750751e+01	1.576536e+03
1.600000e-06	6.740421e-06	2.400137e-08	4.759230e+01	1.576161e+03
1.610000e-06	6.749675e-06	2.401060e-08	4.765764e+01	1.576001e+03
1.620000e-06	6.756369e-06	2.401661e-08	4.770491e+01	1.576181e+03
1.630000e-06	6.760807e-06	2.401788e-08	4.773624e+01	1.576678e+03
1.640000e-06	6.762862e-06	2.401673e-08	4.775075e+01	1.577338e+03
1.650000e-06	6.762493e-06	2.401419e-08	4.774814e+01	1.577918e+03
1.660000e-06	6.759936e-06	2.400896e-08	4.773009e+01	1.578167e+03
1.670000e-06	6.755202e-06	2.400464e-08	4.769666e+01	1.577903e+03
1.680000e-06	6.748144e-06	2.399835e-08	4.764683e+01	1.577066e+03
1.690000e-06	6.738911e-06	2.398973e-08	4.758164e+01	1.575741e+03
1.700000e-06	6.727566e-06	2.397944e-08	4.750154e+01	1.574125e+03
1.710000e-06	6.713869e-06	2.397367e-08	4.740482e+01	1.572470e+03
1.720000e-06	6.697890e-06	2.396914e-08	4.729200e+01	1.571002e+03
1.730000e-06	6.679825e-06	2.391089e-08	4.716444e+01	1.569858e+03
1.740000e-06	6.659263e-06	2.387951e-08	4.701927e+01	1.569038e+03
1.750000e-06	6.635538e-06	2.387095e-08	4.685175e+01	1.568418e+03
1.760000e-06	6.608819e-06	2.383972e-08	4.666309e+01	1.567785e+03
1.770000e-06	6.579768e-06	2.385146e-08	4.645797e+01	1.566906e+03
1.780000e-06	6.548805e-06	2.388169e-08	4.623935e+01	1.565606e+03
1.790000e-06	6.516415e-06	2.378753e-08	4.601065e+01	1.563814e+03
1.800000e-06	6.482285e-06	2.382546e-08	4.576967e+01	1.561585e+03
1.810000e-06	6.445698e-06	2.383782e-08	4.551134e+01	1.559078e+03
1.820000e-06	6.406877e-06	2.373412e-08	4.523723e+01	1.556499e+03
1.830000e-06	6.365877e-06	2.377948e-08	4.494774e+01	1.554029e+03
1.840000e-06	6.322674e-06	2.367332e-08	4.464270e+01	1.551763e+03
1.850000e-06	6.277355e-06	2.360882e-08	4.432271e+01	1.549677e+03
1.860000e-06	6.229653e-06	2.360149e-08	4.398590e+01	1.547628e+03
1.870000e-06	6.179697e-06	2.350483e-08	4.363318e+01	1.545405e+03
1.880000e-06	6.127397e-06	2.353775e-08	4.326390e+01	1.542790e+03
1.890000e-06	6.072408e-06	2.346555e-08	4.287564e+01	1.539633e+03
1.900000e-06	6.015038e-06	2.338135e-08	4.247056e+01	1.535902e+03
1.910000e-06	5.955450e-06	2.337962e-08	4.204983e+01	1.531695e+03
1.920000e-06	5.893691e-06	2.330269e-08	4.161377e+01	1.527216e+03
1.930000e-06	5.829764e-06	2.327584e-08	4.116240e+01	1.522709e+03
1.940000e-06	5.763623e-06	2.318467e-08	4.069539e+01	1.518386e+03
1.950000e-06	5.695376e-06	2.312862e-08	4.021352e+01	1.514355e+03
1.960000e-06	5.624820e-06	2.305817e-08	3.971534e+01	1.510583e+03
1.970000e-06	5.552051e-06	2.297042e-08	3.920154e+01	1.506906e+03
1.980000e-06	5.477239e-06	2.293074e-08	3.867331e+01	1.503076e+03
1.990000e-06	5.400372e-06	2.284479e-08	3.813058e+01	1.498832e+03
2.000000e-06	5.321478e-06	2.279570e-08	3.757353e+01	1.493988e+03
2.010000e-06	5.240537e-06	2.270239e-08	3.700202e+01	1.488488e+03
2.020000e-06	5.157737e-06	2.260587e-08	3.641740e+01	1.482423e+03
2.030000e-06	5.073166e-06	2.252874e-08	3.582026e+01	1.476010e+03
2.040000e-06	4.986784e-06	2.244035e-08	3.521034e+01	1.469518e+03
2.050000e-06	4.898570e-06	2.235755e-08	3.458749e+01	1.463188e+03
2.060000e-06	4.808724e-06	2.225729e-08	3.395310e+01	1.457154e+03
2.070000e-06	4.717348e-06	2.217418e-08	3.330793e+01	1.451394e+03
2.080000e-06	4.624294e-06	2.207596e-08	3.265090e+01	1.445739e+03
2.090000e-06	4.529548e-06	2.197792e-08	3.198192e+01	1.439917e+03
2.100000e-06	4.433146e-06	2.187400e-08	3.130125e+01	1.433639e+03
2.110000e-06	4.335317e-06	2.176557e-08	3.061051e+01	1.426686e+03
2.120000e-06	4.236089e-06	2.165130e-08	2.990988e+01	1.418984e+03
2.130000e-06	4.135276e-06	2.152621e-08	2.919807e+01	1.410622e+03
2.140000e-06	4.032832e-06	2.140580e-08	2.847474e+01	1.401832e+03
2.150000e-06	3.928845e-06	2.128296e-08	2.774051e+01	1.392911e+03
2.160000e-06	3.823481e-06	2.116408e-08	2.699657e+01	1.384126e+03
2.170000e-06	3.716856e-06	2.104127e-08	2.624372e+01	1.375624e+03
2.180000e-06	3.608989e-06	2.091375e-08	2.548210e+01	1.367378e+03
2.190000e-06	3.499868e-06	2.077361e-08	2.471163e+01	1.359184e+03
2.200000e-06	3.389435e-06	2.063246e-08	2.393189e+01	1.350717e+03
2.210000e-06	3.277588e-06	2.048515e-08	2.314217e+01	1.341630e+03
2.220000e-06	3.164507e-06	2.032994e-08	2.234373e+01	1.331656e+03
2.230000e-06	3.050219e-06	2.016536e-08	2.153678e+01	1.320697e+03
2.240000e-06	2.934661e-06	1.999805e-08	2.072086e+01	1.308854e+03
2.250000e-06	2.817956e-06	1.982929e-08	1.989683e+01	1.296400e+03
2.260000e-06	2.700089e-06	1.965441e-08	1.906460e+01	1.283691e+03
2.270000e-06	2.581066e-06	1.947665e-08	1.822421e+01	1.271049e+03
2.280000e-06	2.460948e-06	1.929189e-08	1.737609e+01	1.258644e+03
2.290000e-06	2.339916e-06	1.909868e-08	1.652152e+01	1.246428e+03
2.300000e-06	2.218259e-06	1.889212e-08	1.566253e+01	1.234125e+03
2.310000e-06	2.095963e-06	1.867649e-08	1.479903e+01	1.221303e+03
2.320000e-06	1.972944e-06	1.845236e-08	1.393042e+01	1.207492e+03
2.330000e-06	1.849225e-06	1.821949e-08	1.305688e+01	1.192325e+03
2.340000e-06	1.724809e-06	1.797547e-08	1.217841e+01	1.175656e+03
2.350000e-06	1.599818e-06	1.772076e-08	1.129589e+01	1.157602e+03
2.360000e-06	1.474402e-06	1.745537e-08	1.041035e+01	1.138507e+03
2.370000e-06	1.348547e-06	1.717831e-08	9.521730e+00	1.118826e+03
2.380000e-06	1.222167e-06	1.688756e-08	8.629393e+00	1.098958e+03
2.390000e-06	1.095294e-06	1.657835e-08	7.733578e+00	1.079078e+03
2.400000e-06	9.679772e-07	1.625099e-08	6.834626e+00	1.059027e+03
2.410000e-06	8.402843e-07	1.590468e-08	5.933021e+00	1.038298e+03
2.420000e-06	7.122954e-07	1.553609e-08	5.029326e+00	1.016128e+03
2.430000e-06	5.840763e-07	1.514455e-08	4.124006e+00	9.916791e+02
2.440000e-06	4.557036e-07	1.472705e-08	3.217601e+00	9.642555e+02
2.450000e-06	3.271408e-07	1.428126e-08	2.309854e+00	9.334905e+02
2.460000e-06	1.984020e-07	1.380085e-08	1.400863e+00	8.994309e+02
2.470000e-06	6.960718e-08	1.327999e-08	4.914776e-01	8.624768e+02
2.480000e-06	-5.923286e-08	1.271440e-08	-4.182273e-01	8.231712e+02
2.490000e-06	-1.880770e-07	1.209358e-08	-1.327961e+00	7.818776e+02
2.500000e-06	-3.168685e-07	1.140882e-08	-2.237323e+00	7.384265e+02
2.510000e-06	-4.455647e-07	1.065059e-08	-3.146013e+00	6.918331e+02
2.520000e-06	-5.741090e-07	9.807848e-09	-4.053629e+00	6.401827e+02
2.530000e-06	-7.025441e-07	8.861789e-09	-4.960475e+00	5.807513e+02
2.540000e-06	-8.307677e-07	7.785731e-09	-5.865827e+00	5.103758e+02
2.550000e-06	-9.586487e-07	6.545593e-09	-6.768760e+00	4.260242e+02
2.560000e-06	-1.086192e-06	5.100494e-09	-7.669308e+00	3.254633e+02
2.570000e-06	-1.213308e-06	3.406511e-09	-8.566840e+00	2.078836e+02
2.580000e-06	-1.339897e-06	1.427021e-09	-9.460653e+00	7.433751e+01
2.590000e-06	-1.465924e-06	-8.250046e-10	-1.035050e+01	-7.212054e+01
2.600000e-06	-1.591366e-06	-3.258358e-09	-1.123621e+01	-2.266478e+02
2.610000e-06	-1.716150e-06	-5.755509e-09	-1.211727e+01	-3.831606e+02
2.620000e-06	-1.840199e-06	-8.191791e-09	-1.299315e+01	-5.351230e+02
2.630000e-06	-1.963534e-06	-1.041819e-08	-1.386399e+01	-6.764308e+02
2.640000e-06	-2.086115e-06	-1.232801e-08	-1.472949e+01	-8.022223e+02
2.650000e-06	-2.207910e-06	-1.390106e-08	-1.558946e+01	-9.094645e+02
2.660000e-06	-2.328984e-06	-1.517198e-08	-1.644433e+01	-9.972092e+02
2.670000e-06	-2.449325e-06	-1.619447e-08	-1.729403e+01	-1.066488e+03
2.680000e-06	-2.568775e-06	-1.702105e-08	-1.813743e+01	-1.119888e+03
2.690000e-06	-2.687062e-06	-1.769597e-08	-1.897262e+01	-1.160914e+03
2.700000e-06	-2.804148e-06	-1.825449e-08	-1.979933e+01	-1.193285e+03
2.710000e-06	-2.920102e-06	-1.872283e-08	-2.061805e+01	-1.220303e+03
2.720000e-06	-3.034893e-06	-1.912268e-08	-2.142856e+01	-1.244422e+03
2.730000e-06	-3.148468e-06	-1.946940e-08	-2.223049e+01	-1.267066e+03
2.740000e-06	-3.260671e-06	-1.977481e-08	-2.302272e+01	-1.288701e+03
2.750000e-06	-3.371509e-06	-2.004706e-08	-2.380532e+01	-1.309109e+03
2.760000e-06	-3.481154e-06	-2.029324e-08	-2.457949e+01	-1.327748e+03
2.770000e-06	-3.589734e-06	-2.051944e-08	-2.534614e+01	-1.344117e+03
2.780000e-06	-3.697234e-06	-2.072825e-08	-2.610517e+01	-1.358010e+03
2.790000e-06	-3.803506e-06	-2.092196e-08	-2.685553e+01	-1.369627e+03
2.800000e-06	-3.908467e-06	-2.110109e-08	-2.759663e+01	-1.379532e+03
2.810000e-06	-4.012051e-06	-2.126766e-08	-2.832802e+01	-1.388482e+03
2.820000e-06	-4.114015e-06	-2.142262e-08	-2.904796e+01	-1.397215e+03
2.830000e-06	-4.214345e-06	-2.156786e-08	-2.975635e+01	-1.406254e+03
2.840000e-06	-4.313293e-06	-2.170686e-08	-3.045500e+01	-1.415783e+03
2.850000e-06	-4.410847e-06	-2.183856e-08	-3.114380e+01	-1.425643e+03
2.860000e-06	-4.506914e-06	-2.196285e-08	-3.182211e+01	-1.435419e+03
2.870000e-06	-4.601324e-06	-2.208137e-08	-3.248871e+01	-1.444604e+03
2.880000e-06	-4.693990e-06	-2.219287e-08	-3.314300e+01	-1.452769e+03
2.890000e-06	-4.785058e-06	-2.229761e-08	-3.378601e+01	-1.459704e+03
2.900000e-06	-4.874442e-06	-2.239662e-08	-3.441712e+01	-1.465474e+03
2.910000e-06	-4.962060e-06	-2.249032e-08	-3.503577e+01	-1.470390e+03
2.920000e-06	-5.047762e-06	-2.258055e-08	-3.564089e+01	-1.474912e+03
2.930000e-06	-5.131608e-06	-2.266557e-08	-3.623290e+01	-1.479499e+03
2.940000e-06	-5.213734e-06	-2.274526e-08	-3.681277e+01	-1.484479e+03
