# Temperatura_=_83.63
# Concentracion g/m^3_=_41000.0
# C_Vs_to_Am_M_A/Vsm_=_65563218390.804596
# pendiente_HvsI_1/m_=_3716.3
# ordenada_HvsI_A/m_=_1297.0
# frecuencia_Hz_=_301996.7625882729

Tiempo_(s)	Campo_(V.s)	Magnetizacion_(V.s)	Campo_(kA/m)	Magnetizacion_(A/m)
0.000000e+00	-6.765400e-06	-2.284546e-08	-4.747151e+01	-1.497209e+03
1.000000e-08	-6.761970e-06	-2.283903e-08	-4.744744e+01	-1.497226e+03
2.000000e-08	-6.756333e-06	-2.283269e-08	-4.740789e+01	-1.496670e+03
3.000000e-08	-6.748593e-06	-2.282141e-08	-4.735358e+01	-1.495563e+03
4.000000e-08	-6.738505e-06	-2.280797e-08	-4.728279e+01	-1.494061e+03
5.000000e-08	-6.725940e-06	-2.279236e-08	-4.719462e+01	-1.492408e+03
6.000000e-08	-6.710933e-06	-2.277786e-08	-4.708932e+01	-1.490863e+03
7.000000e-08	-6.693618e-06	-2.276717e-08	-4.696783e+01	-1.489618e+03
8.000000e-08	-6.674132e-06	-2.274853e-08	-4.683110e+01	-1.488740e+03
9.000000e-08	-6.652224e-06	-2.273216e-08	-4.667737e+01	-1.488158e+03
1.000000e-07	-6.627523e-06	-2.273606e-08	-4.650405e+01	-1.487687e+03
1.100000e-07	-6.600124e-06	-2.270796e-08	-4.631180e+01	-1.487086e+03
1.200000e-07	-6.570502e-06	-2.265981e-08	-4.610395e+01	-1.486138e+03
1.300000e-07	-6.538974e-06	-2.263694e-08	-4.588272e+01	-1.484713e+03
1.400000e-07	-6.505616e-06	-2.260330e-08	-4.564865e+01	-1.482809e+03
1.500000e-07	-6.470285e-06	-2.253123e-08	-4.540074e+01	-1.480547e+03
1.600000e-07	-6.432900e-06	-2.254888e-08	-4.513842e+01	-1.478124e+03
1.700000e-07	-6.393479e-06	-2.252004e-08	-4.486181e+01	-1.475749e+03
1.800000e-07	-6.351708e-06	-2.245458e-08	-4.456871e+01	-1.473566e+03
1.900000e-07	-6.307447e-06	-2.247228e-08	-4.425814e+01	-1.471608e+03
2.000000e-07	-6.260889e-06	-2.240838e-08	-4.393145e+01	-1.469779e+03
2.100000e-07	-6.211881e-06	-2.237247e-08	-4.358757e+01	-1.467885e+03
2.200000e-07	-6.160248e-06	-2.234812e-08	-4.322527e+01	-1.465693e+03
2.300000e-07	-6.106125e-06	-2.227469e-08	-4.284550e+01	-1.463007e+03
2.400000e-07	-6.049625e-06	-2.221476e-08	-4.244905e+01	-1.459735e+03
2.500000e-07	-5.990877e-06	-2.216614e-08	-4.203683e+01	-1.455918e+03
2.600000e-07	-5.929944e-06	-2.213283e-08	-4.160928e+01	-1.451725e+03
2.700000e-07	-5.866856e-06	-2.206501e-08	-4.116660e+01	-1.447403e+03
2.800000e-07	-5.801628e-06	-2.199719e-08	-4.070891e+01	-1.443197e+03
2.900000e-07	-5.734143e-06	-2.194897e-08	-4.023537e+01	-1.439275e+03
3.000000e-07	-5.664495e-06	-2.187558e-08	-3.974667e+01	-1.435675e+03
3.100000e-07	-5.592805e-06	-2.183329e-08	-3.924363e+01	-1.432284e+03
3.200000e-07	-5.518907e-06	-2.177812e-08	-3.872511e+01	-1.428874e+03
3.300000e-07	-5.442716e-06	-2.170581e-08	-3.819049e+01	-1.425168e+03
3.400000e-07	-5.364321e-06	-2.162720e-08	-3.764041e+01	-1.420928e+03
3.500000e-07	-5.283826e-06	-2.153864e-08	-3.707559e+01	-1.416026e+03
3.600000e-07	-5.201423e-06	-2.146831e-08	-3.649739e+01	-1.410488e+03
3.700000e-07	-5.117357e-06	-2.139531e-08	-3.590751e+01	-1.404486e+03
3.800000e-07	-5.031696e-06	-2.132645e-08	-3.530644e+01	-1.398288e+03
3.900000e-07	-4.944327e-06	-2.123681e-08	-3.469339e+01	-1.392171e+03
4.000000e-07	-4.855230e-06	-2.114554e-08	-3.406821e+01	-1.386337e+03
4.100000e-07	-4.764396e-06	-2.105509e-08	-3.343085e+01	-1.380843e+03
4.200000e-07	-4.671878e-06	-2.095889e-08	-3.278167e+01	-1.375581e+03
4.300000e-07	-4.577743e-06	-2.086562e-08	-3.212114e+01	-1.370309e+03
4.400000e-07	-4.481967e-06	-2.076605e-08	-3.144910e+01	-1.364720e+03
4.500000e-07	-4.384549e-06	-2.066710e-08	-3.076553e+01	-1.358541e+03
4.600000e-07	-4.285472e-06	-2.056113e-08	-3.007033e+01	-1.351618e+03
4.700000e-07	-4.184854e-06	-2.045236e-08	-2.936431e+01	-1.343963e+03
4.800000e-07	-4.082875e-06	-2.034229e-08	-2.864874e+01	-1.335756e+03
4.900000e-07	-3.979511e-06	-2.023073e-08	-2.792346e+01	-1.327288e+03
5.000000e-07	-3.874676e-06	-2.011264e-08	-2.718785e+01	-1.318867e+03
5.100000e-07	-3.768338e-06	-1.998856e-08	-2.644170e+01	-1.310716e+03
5.200000e-07	-3.660548e-06	-1.986118e-08	-2.568536e+01	-1.302896e+03
5.300000e-07	-3.551452e-06	-1.972545e-08	-2.491985e+01	-1.295277e+03
5.400000e-07	-3.441144e-06	-1.958378e-08	-2.414584e+01	-1.287567e+03
5.500000e-07	-3.329528e-06	-1.944012e-08	-2.336265e+01	-1.279398e+03
5.600000e-07	-3.216506e-06	-1.929564e-08	-2.256960e+01	-1.270437e+03
5.700000e-07	-3.102076e-06	-1.914647e-08	-2.176667e+01	-1.260489e+03
5.800000e-07	-2.986352e-06	-1.899311e-08	-2.095466e+01	-1.249560e+03
5.900000e-07	-2.869457e-06	-1.883253e-08	-2.013443e+01	-1.237863e+03
6.000000e-07	-2.751455e-06	-1.866554e-08	-1.930643e+01	-1.225748e+03
6.100000e-07	-2.632517e-06	-1.849028e-08	-1.847187e+01	-1.213591e+03
6.200000e-07	-2.512679e-06	-1.830843e-08	-1.763099e+01	-1.201667e+03
6.300000e-07	-2.391847e-06	-1.812160e-08	-1.678313e+01	-1.190050e+03
6.400000e-07	-2.270055e-06	-1.792773e-08	-1.592854e+01	-1.178568e+03
6.500000e-07	-2.147440e-06	-1.772524e-08	-1.506817e+01	-1.166838e+03
6.600000e-07	-2.024025e-06	-1.751222e-08	-1.420219e+01	-1.154371e+03
6.700000e-07	-1.899845e-06	-1.729199e-08	-1.333084e+01	-1.140714e+03
6.800000e-07	-1.775033e-06	-1.706497e-08	-1.245507e+01	-1.125590e+03
6.900000e-07	-1.649649e-06	-1.683094e-08	-1.157527e+01	-1.108986e+03
7.000000e-07	-1.523752e-06	-1.658696e-08	-1.069187e+01	-1.091158e+03
7.100000e-07	-1.397427e-06	-1.633102e-08	-9.805478e+00	-1.072550e+03
7.200000e-07	-1.270702e-06	-1.606184e-08	-8.916270e+00	-1.053641e+03
7.300000e-07	-1.143573e-06	-1.577508e-08	-8.024230e+00	-1.034758e+03
7.400000e-07	-1.016086e-06	-1.547013e-08	-7.129678e+00	-1.015932e+03
7.500000e-07	-8.882101e-07	-1.514880e-08	-6.232399e+00	-9.968201e+02
7.600000e-07	-7.599598e-07	-1.481062e-08	-5.332492e+00	-9.767529e+02
7.700000e-07	-6.314191e-07	-1.445136e-08	-4.430546e+00	-9.548771e+02
7.800000e-07	-5.026598e-07	-1.406687e-08	-3.527067e+00	-9.303736e+02
7.900000e-07	-3.737676e-07	-1.365567e-08	-2.622655e+00	-9.026791e+02
8.000000e-07	-2.446716e-07	-1.321325e-08	-1.716814e+00	-8.716380e+02
8.100000e-07	-1.154377e-07	-1.273294e-08	-8.100042e-01	-8.375235e+02
8.200000e-07	1.379878e-08	-1.221177e-08	9.682336e-02	-8.008997e+02
8.300000e-07	1.429990e-07	-1.164502e-08	1.003396e+00	-7.623410e+02
8.400000e-07	2.721564e-07	-1.102392e-08	1.909669e+00	-7.220714e+02
8.500000e-07	4.013028e-07	-1.033832e-08	2.815864e+00	-6.796196e+02
8.600000e-07	5.303509e-07	-9.575669e-09	3.721370e+00	-6.335970e+02
8.700000e-07	6.592560e-07	-8.723435e-09	4.625873e+00	-5.816860e+02
8.800000e-07	7.880013e-07	-7.760718e-09	5.529253e+00	-5.208834e+02
8.900000e-07	9.164895e-07	-6.654172e-09	6.430830e+00	-4.479823e+02
9.000000e-07	1.044631e-06	-5.364282e-09	7.329972e+00	-3.602134e+02
9.100000e-07	1.172319e-06	-3.851590e-09	8.225934e+00	-2.559193e+02
9.200000e-07	1.299564e-06	-2.081108e-09	9.118791e+00	-1.351118e+02
9.300000e-07	1.426388e-06	-3.889798e-11	1.000869e+01	2.203820e-01
9.400000e-07	1.552740e-06	2.230518e-09	1.089528e+01	1.461434e+02
9.500000e-07	1.678609e-06	4.621434e-09	1.177848e+01	2.971677e+02
9.600000e-07	1.803933e-06	6.995277e-09	1.265785e+01	4.469356e+02
9.700000e-07	1.928688e-06	9.204676e-09	1.353323e+01	5.890834e+02
9.800000e-07	2.052818e-06	1.113740e-08	1.440423e+01	7.181136e+02
9.900000e-07	2.176214e-06	1.275064e-08	1.527008e+01	8.301101e+02
1.000000e-06	2.298743e-06	1.406086e-08	1.612983e+01	9.231631e+02
1.010000e-06	2.420239e-06	1.511421e-08	1.698235e+01	9.974349e+02
1.020000e-06	2.540700e-06	1.596219e-08	1.782760e+01	1.054873e+03
1.030000e-06	2.660207e-06	1.664864e-08	1.866616e+01	1.098654e+03
1.040000e-06	2.778796e-06	1.721437e-08	1.949827e+01	1.132479e+03
1.050000e-06	2.896415e-06	1.768939e-08	2.032358e+01	1.159895e+03
1.060000e-06	3.012993e-06	1.809193e-08	2.114159e+01	1.183748e+03
1.070000e-06	3.128402e-06	1.843781e-08	2.195139e+01	1.205889e+03
1.080000e-06	3.242458e-06	1.874161e-08	2.275170e+01	1.227134e+03
1.090000e-06	3.355152e-06	1.901380e-08	2.354245e+01	1.247465e+03
1.100000e-06	3.466604e-06	1.925934e-08	2.432449e+01	1.266375e+03
1.110000e-06	3.576882e-06	1.948134e-08	2.509829e+01	1.283250e+03
1.120000e-06	3.686021e-06	1.968424e-08	2.586410e+01	1.297693e+03
1.130000e-06	3.794066e-06	1.987145e-08	2.662223e+01	1.309703e+03
1.140000e-06	3.900802e-06	2.004632e-08	2.737118e+01	1.319698e+03
1.150000e-06	4.005969e-06	2.021160e-08	2.810911e+01	1.328393e+03
1.160000e-06	4.109624e-06	2.036804e-08	2.883644e+01	1.336586e+03
1.170000e-06	4.211842e-06	2.051571e-08	2.955368e+01	1.344936e+03
1.180000e-06	4.312670e-06	2.065287e-08	3.026117e+01	1.353798e+03
1.190000e-06	4.412056e-06	2.078154e-08	3.095855e+01	1.363157e+03
1.200000e-06	4.509733e-06	2.090081e-08	3.164392e+01	1.372682e+03
1.210000e-06	4.605605e-06	2.101185e-08	3.231664e+01	1.381861e+03
1.220000e-06	4.699846e-06	2.111712e-08	3.297791e+01	1.390189e+03
1.230000e-06	4.792579e-06	2.121911e-08	3.362860e+01	1.397330e+03
1.240000e-06	4.883725e-06	2.131832e-08	3.426816e+01	1.403221e+03
1.250000e-06	4.973044e-06	2.141218e-08	3.489489e+01	1.408083e+03
1.260000e-06	5.060457e-06	2.149896e-08	3.550825e+01	1.412346e+03
1.270000e-06	5.146061e-06	2.157919e-08	3.610892e+01	1.416510e+03
1.280000e-06	5.229946e-06	2.165649e-08	3.669752e+01	1.421000e+03
1.290000e-06	5.311998e-06	2.173335e-08	3.727326e+01	1.426044e+03
1.300000e-06	5.392025e-06	2.180995e-08	3.783480e+01	1.431619e+03
1.310000e-06	5.470044e-06	2.188382e-08	3.838225e+01	1.437480e+03
1.320000e-06	5.546040e-06	2.195547e-08	3.891549e+01	1.443247e+03
1.330000e-06	5.619853e-06	2.202350e-08	3.943343e+01	1.448532e+03
1.340000e-06	5.691510e-06	2.208579e-08	3.993623e+01	1.453064e+03
1.350000e-06	5.761188e-06	2.214428e-08	4.042515e+01	1.456765e+03
1.360000e-06	5.828860e-06	2.220070e-08	4.089999e+01	1.459769e+03
1.370000e-06	5.894361e-06	2.225542e-08	4.135960e+01	1.462367e+03
1.380000e-06	5.957711e-06	2.230789e-08	4.180411e+01	1.464914e+03
1.390000e-06	6.019109e-06	2.235951e-08	4.223493e+01	1.467711e+03
1.400000e-06	6.078564e-06	2.241089e-08	4.265211e+01	1.470917e+03
1.410000e-06	6.135804e-06	2.245870e-08	4.305376e+01	1.474502e+03
1.420000e-06	6.190812e-06	2.250132e-08	4.343974e+01	1.478262e+03
1.430000e-06	6.243564e-06	2.254082e-08	4.380989e+01	1.481892e+03
1.440000e-06	6.293748e-06	2.257818e-08	4.416201e+01	1.485081e+03
1.450000e-06	6.341393e-06	2.261331e-08	4.449633e+01	1.487614e+03
1.460000e-06	6.386826e-06	2.264557e-08	4.481513e+01	1.489434e+03
1.470000e-06	6.430128e-06	2.267545e-08	4.511897e+01	1.490661e+03
1.480000e-06	6.471035e-06	2.270328e-08	4.540601e+01	1.491548e+03
1.490000e-06	6.509609e-06	2.272813e-08	4.567667e+01	1.492404e+03
1.500000e-06	6.546063e-06	2.275050e-08	4.593246e+01	1.493494e+03
1.510000e-06	6.580212e-06	2.277302e-08	4.617208e+01	1.494962e+03
1.520000e-06	6.611958e-06	2.279568e-08	4.639484e+01	1.496787e+03
1.530000e-06	6.641421e-06	2.281570e-08	4.660157e+01	1.498797e+03
1.540000e-06	6.668563e-06	2.283112e-08	4.679202e+01	1.500726e+03
1.550000e-06	6.693205e-06	2.284271e-08	4.696493e+01	1.502298e+03
1.560000e-06	6.715423e-06	2.285318e-08	4.712083e+01	1.503317e+03
1.570000e-06	6.735393e-06	2.286410e-08	4.726096e+01	1.503725e+03
1.580000e-06	6.753003e-06	2.287505e-08	4.738452e+01	1.503620e+03
1.590000e-06	6.768067e-06	2.288517e-08	4.749022e+01	1.503224e+03
1.600000e-06	6.780518e-06	2.289414e-08	4.757759e+01	1.502810e+03
1.610000e-06	6.790304e-06	2.290076e-08	4.764625e+01	1.502619e+03
1.620000e-06	6.797530e-06	2.290497e-08	4.769696e+01	1.502783e+03
1.630000e-06	6.802449e-06	2.290714e-08	4.773147e+01	1.503287e+03
1.640000e-06	6.805053e-06	2.290643e-08	4.774975e+01	1.503974e+03
1.650000e-06	6.805196e-06	2.290351e-08	4.775075e+01	1.504596e+03
1.660000e-06	6.803051e-06	2.290139e-08	4.773570e+01	1.504894e+03
1.670000e-06	6.798742e-06	2.289520e-08	4.770546e+01	1.504674e+03
1.680000e-06	6.792082e-06	2.288929e-08	4.765873e+01	1.503873e+03
1.690000e-06	6.783137e-06	2.288314e-08	4.759597e+01	1.502572e+03
1.700000e-06	6.772043e-06	2.287418e-08	4.751812e+01	1.500974e+03
1.710000e-06	6.758672e-06	2.286109e-08	4.742430e+01	1.499340e+03
1.720000e-06	6.742973e-06	2.283903e-08	4.731414e+01	1.497908e+03
1.730000e-06	6.725151e-06	2.282548e-08	4.718909e+01	1.496821e+03
1.740000e-06	6.704955e-06	2.280083e-08	4.704738e+01	1.496089e+03
1.750000e-06	6.681660e-06	2.275482e-08	4.688392e+01	1.495584e+03
1.760000e-06	6.655280e-06	2.274625e-08	4.669882e+01	1.495088e+03
1.770000e-06	6.626467e-06	2.274691e-08	4.649664e+01	1.494363e+03
1.780000e-06	6.595710e-06	2.271235e-08	4.628082e+01	1.493221e+03
1.790000e-06	6.563419e-06	2.273887e-08	4.605424e+01	1.491585e+03
1.800000e-06	6.529450e-06	2.273030e-08	4.581589e+01	1.489509e+03
1.810000e-06	6.493119e-06	2.268249e-08	4.556097e+01	1.487153e+03
1.820000e-06	6.454368e-06	2.271461e-08	4.528906e+01	1.484729e+03
1.830000e-06	6.413448e-06	2.263410e-08	4.500193e+01	1.482425e+03
1.840000e-06	6.370405e-06	2.258459e-08	4.469990e+01	1.480344e+03
1.850000e-06	6.325260e-06	2.258419e-08	4.438313e+01	1.478462e+03
1.860000e-06	6.277724e-06	2.249086e-08	4.404958e+01	1.476634e+03
1.870000e-06	6.227805e-06	2.248782e-08	4.369931e+01	1.474642e+03
1.880000e-06	6.175556e-06	2.244068e-08	4.333268e+01	1.472260e+03
1.890000e-06	6.120667e-06	2.239775e-08	4.294754e+01	1.469328e+03
1.900000e-06	6.063346e-06	2.235692e-08	4.254533e+01	1.465811e+03
1.910000e-06	6.003775e-06	2.226072e-08	4.212733e+01	1.461808e+03
1.920000e-06	5.941927e-06	2.226253e-08	4.169336e+01	1.457529e+03
1.930000e-06	5.877940e-06	2.219116e-08	4.124437e+01	1.453231e+03
1.940000e-06	5.811825e-06	2.214195e-08	4.078046e+01	1.449135e+03
1.950000e-06	5.743517e-06	2.209593e-08	4.030115e+01	1.445357e+03
1.960000e-06	5.672921e-06	2.198967e-08	3.980579e+01	1.441870e+03
1.970000e-06	5.600124e-06	2.195462e-08	3.929499e+01	1.438505e+03
1.980000e-06	5.525204e-06	2.187043e-08	3.876929e+01	1.435004e+03
1.990000e-06	5.448123e-06	2.182532e-08	3.822843e+01	1.431095e+03
2.000000e-06	5.368936e-06	2.176216e-08	3.767279e+01	1.426580e+03
2.010000e-06	5.287805e-06	2.167843e-08	3.710351e+01	1.421394e+03
2.020000e-06	5.204890e-06	2.160408e-08	3.652171e+01	1.415631e+03
2.030000e-06	5.120130e-06	2.149479e-08	3.592696e+01	1.409511e+03
2.040000e-06	5.033491e-06	2.143320e-08	3.531904e+01	1.403318e+03
2.050000e-06	4.945045e-06	2.134413e-08	3.469842e+01	1.397307e+03
2.060000e-06	4.854960e-06	2.126920e-08	3.406632e+01	1.391623e+03
2.070000e-06	4.763289e-06	2.117415e-08	3.342308e+01	1.386252e+03
2.080000e-06	4.669926e-06	2.107875e-08	3.276797e+01	1.381023e+03
2.090000e-06	4.574830e-06	2.099118e-08	3.210070e+01	1.375654e+03
2.100000e-06	4.478082e-06	2.088457e-08	3.142184e+01	1.369843e+03
2.110000e-06	4.379909e-06	2.079118e-08	3.073298e+01	1.363356e+03
2.120000e-06	4.280341e-06	2.068146e-08	3.003433e+01	1.356109e+03
2.130000e-06	4.179191e-06	2.057852e-08	2.932458e+01	1.348189e+03
2.140000e-06	4.076404e-06	2.046082e-08	2.860334e+01	1.339833e+03
2.150000e-06	3.972087e-06	2.034518e-08	2.787137e+01	1.331351e+03
2.160000e-06	3.866437e-06	2.022515e-08	2.713004e+01	1.323028e+03
2.170000e-06	3.759547e-06	2.010919e-08	2.638001e+01	1.315025e+03
2.180000e-06	3.651329e-06	1.999038e-08	2.562067e+01	1.307319e+03
2.190000e-06	3.541728e-06	1.986029e-08	2.485162e+01	1.299705e+03
2.200000e-06	3.430744e-06	1.972833e-08	2.407287e+01	1.291846e+03
2.210000e-06	3.318358e-06	1.958581e-08	2.328428e+01	1.283375e+03
2.220000e-06	3.204656e-06	1.943831e-08	2.248645e+01	1.274005e+03
2.230000e-06	3.089715e-06	1.928220e-08	2.167994e+01	1.263625e+03
2.240000e-06	2.973523e-06	1.913105e-08	2.086464e+01	1.252332e+03
2.250000e-06	2.856122e-06	1.897243e-08	2.004085e+01	1.240410e+03
2.260000e-06	2.737544e-06	1.880564e-08	1.920882e+01	1.228236e+03
2.270000e-06	2.617890e-06	1.862906e-08	1.836923e+01	1.216157e+03
2.280000e-06	2.497255e-06	1.844873e-08	1.752276e+01	1.204372e+03
2.290000e-06	2.375721e-06	1.826457e-08	1.666997e+01	1.192849e+03
2.300000e-06	2.253467e-06	1.807201e-08	1.581214e+01	1.181318e+03
2.310000e-06	2.130585e-06	1.787146e-08	1.494990e+01	1.169335e+03
2.320000e-06	2.007019e-06	1.766154e-08	1.408287e+01	1.156408e+03
2.330000e-06	1.882655e-06	1.743966e-08	1.321023e+01	1.142144e+03
2.340000e-06	1.757542e-06	1.720370e-08	1.233234e+01	1.126372e+03
2.350000e-06	1.631850e-06	1.695868e-08	1.145038e+01	1.109200e+03
2.360000e-06	1.505639e-06	1.670457e-08	1.056478e+01	1.090979e+03
2.370000e-06	1.378914e-06	1.644228e-08	9.675574e+00	1.072190e+03
2.380000e-06	1.251681e-06	1.616724e-08	8.782807e+00	1.053268e+03
2.390000e-06	1.123956e-06	1.587644e-08	7.886581e+00	1.034429e+03
2.400000e-06	9.958388e-07	1.556751e-08	6.987609e+00	1.015545e+03
2.410000e-06	8.674249e-07	1.523871e-08	6.086553e+00	9.961225e+02
2.420000e-06	7.387198e-07	1.488863e-08	5.183455e+00	9.753897e+02
2.430000e-06	6.098014e-07	1.451740e-08	4.278859e+00	9.524794e+02
2.440000e-06	4.807349e-07	1.412281e-08	3.373224e+00	9.266575e+02
2.450000e-06	3.514951e-07	1.370098e-08	2.466373e+00	8.975233e+02
2.460000e-06	2.221154e-07	1.324597e-08	1.558541e+00	8.651113e+02
2.470000e-06	9.265069e-08	1.275084e-08	6.501120e-01	8.298456e+02
2.480000e-06	-3.686061e-08	1.221150e-08	-2.586438e-01	7.923358e+02
2.490000e-06	-1.663889e-07	1.162398e-08	-1.167519e+00	7.530517e+02
2.500000e-06	-2.959089e-07	1.098079e-08	-2.076336e+00	7.119566e+02
2.510000e-06	-4.253662e-07	1.026961e-08	-2.984713e+00	6.682028e+02
2.520000e-06	-5.547002e-07	9.475318e-09	-3.892224e+00	6.199905e+02
2.530000e-06	-6.838620e-07	8.578699e-09	-4.798528e+00	5.646634e+02
2.540000e-06	-8.128004e-07	7.558893e-09	-5.703264e+00	4.990603e+02
2.550000e-06	-9.414479e-07	6.385560e-09	-6.605959e+00	4.200781e+02
2.560000e-06	-1.069766e-06	5.021746e-09	-7.506342e+00	3.253449e+02
2.570000e-06	-1.197724e-06	3.426091e-09	-8.404195e+00	2.138621e+02
2.580000e-06	-1.325275e-06	1.560396e-09	-9.299203e+00	8.646965e+01
2.590000e-06	-1.452359e-06	-5.737686e-10	-1.019092e+01	-5.398488e+01
2.600000e-06	-1.578844e-06	-2.915792e-09	-1.107845e+01	-2.028337e+02
2.610000e-06	-1.704632e-06	-5.343884e-09	-1.196107e+01	-3.541174e+02
2.620000e-06	-1.829719e-06	-7.700445e-09	-1.283879e+01	-5.013656e+02
2.630000e-06	-1.954079e-06	-9.841139e-09	-1.371139e+01	-6.384845e+02
2.640000e-06	-2.077627e-06	-1.167760e-08	-1.457831e+01	-7.605813e+02
2.650000e-06	-2.200328e-06	-1.319270e-08	-1.543927e+01	-8.645679e+02
2.660000e-06	-2.322294e-06	-1.441680e-08	-1.629509e+01	-9.494360e+02
2.670000e-06	-2.443507e-06	-1.539989e-08	-1.714562e+01	-1.016167e+03
2.680000e-06	-2.563826e-06	-1.619391e-08	-1.798987e+01	-1.067314e+03
2.690000e-06	-2.683157e-06	-1.684136e-08	-1.882720e+01	-1.106367e+03
2.700000e-06	-2.801331e-06	-1.737510e-08	-1.965640e+01	-1.137041e+03
2.710000e-06	-2.918300e-06	-1.782243e-08	-2.047715e+01	-1.162634e+03
2.720000e-06	-3.034095e-06	-1.820564e-08	-2.128966e+01	-1.185587e+03
2.730000e-06	-3.148711e-06	-1.853969e-08	-2.209390e+01	-1.207297e+03
2.740000e-06	-3.261988e-06	-1.883396e-08	-2.288874e+01	-1.228188e+03
2.750000e-06	-3.373873e-06	-1.909623e-08	-2.367382e+01	-1.247986e+03
2.760000e-06	-3.484454e-06	-1.933333e-08	-2.444974e+01	-1.266091e+03
2.770000e-06	-3.593803e-06	-1.955030e-08	-2.521703e+01	-1.281950e+03
2.780000e-06	-3.702052e-06	-1.975042e-08	-2.597659e+01	-1.295322e+03
2.790000e-06	-3.809190e-06	-1.993471e-08	-2.672835e+01	-1.306394e+03
2.800000e-06	-3.915087e-06	-2.010353e-08	-2.747141e+01	-1.315733e+03
2.810000e-06	-4.019621e-06	-2.026099e-08	-2.820491e+01	-1.324117e+03
2.820000e-06	-4.122606e-06	-2.040981e-08	-2.892753e+01	-1.332310e+03
2.830000e-06	-4.223920e-06	-2.055044e-08	-2.963843e+01	-1.340856e+03
2.840000e-06	-4.323693e-06	-2.068567e-08	-3.033852e+01	-1.349952e+03
2.850000e-06	-4.422005e-06	-2.081490e-08	-3.102835e+01	-1.359435e+03
2.860000e-06	-4.518883e-06	-2.093530e-08	-3.170813e+01	-1.368876e+03
2.870000e-06	-4.614198e-06	-2.104736e-08	-3.237694e+01	-1.377744e+03
2.880000e-06	-4.707723e-06	-2.115168e-08	-3.303318e+01	-1.385589e+03
2.890000e-06	-4.799573e-06	-2.124921e-08	-3.367768e+01	-1.392183e+03
2.900000e-06	-4.889844e-06	-2.134096e-08	-3.431109e+01	-1.397590e+03
2.910000e-06	-4.978408e-06	-2.142905e-08	-3.493253e+01	-1.402133e+03
2.920000e-06	-5.064995e-06	-2.151504e-08	-3.554009e+01	-1.406291e+03
2.930000e-06	-5.149590e-06	-2.159768e-08	-3.613368e+01	-1.410550e+03
2.940000e-06	-5.232432e-06	-2.167723e-08	-3.671497e+01	-1.415262e+03
