# Temperatura_=_78.37
# Concentracion g/m^3_=_41000.0
# C_Vs_to_Am_M_A/Vsm_=_65563218390.804596
# pendiente_HvsI_1/m_=_3716.3
# ordenada_HvsI_A/m_=_1297.0
# frecuencia_Hz_=_301994.01663289126

Tiempo_(s)	Campo_(V.s)	Magnetizacion_(V.s)	Campo_(kA/m)	Magnetizacion_(A/m)
0.000000e+00	-6.706677e-06	-2.558958e-08	-4.746903e+01	-1.674994e+03
1.000000e-08	-6.703202e-06	-2.558563e-08	-4.744443e+01	-1.675096e+03
2.000000e-08	-6.697581e-06	-2.557873e-08	-4.740465e+01	-1.674798e+03
3.000000e-08	-6.689944e-06	-2.556953e-08	-4.735059e+01	-1.674036e+03
4.000000e-08	-6.680001e-06	-2.555781e-08	-4.728022e+01	-1.672857e+03
5.000000e-08	-6.667578e-06	-2.554155e-08	-4.719229e+01	-1.671405e+03
6.000000e-08	-6.652668e-06	-2.551985e-08	-4.708676e+01	-1.669874e+03
7.000000e-08	-6.635388e-06	-2.549189e-08	-4.696446e+01	-1.668450e+03
8.000000e-08	-6.615975e-06	-2.547927e-08	-4.682705e+01	-1.667255e+03
9.000000e-08	-6.594205e-06	-2.549770e-08	-4.667297e+01	-1.666311e+03
1.000000e-07	-6.569694e-06	-2.548358e-08	-4.649948e+01	-1.665536e+03
1.100000e-07	-6.542504e-06	-2.543674e-08	-4.630703e+01	-1.664773e+03
1.200000e-07	-6.513082e-06	-2.540381e-08	-4.609879e+01	-1.663839e+03
1.300000e-07	-6.481815e-06	-2.534998e-08	-4.587748e+01	-1.662583e+03
1.400000e-07	-6.448780e-06	-2.528956e-08	-4.564367e+01	-1.660933e+03
1.500000e-07	-6.413749e-06	-2.531592e-08	-4.539572e+01	-1.658912e+03
1.600000e-07	-6.376681e-06	-2.529150e-08	-4.513336e+01	-1.656628e+03
1.700000e-07	-6.337649e-06	-2.522828e-08	-4.485709e+01	-1.654234e+03
1.800000e-07	-6.296255e-06	-2.523128e-08	-4.456411e+01	-1.651874e+03
1.900000e-07	-6.252347e-06	-2.515218e-08	-4.425334e+01	-1.649632e+03
2.000000e-07	-6.206222e-06	-2.510325e-08	-4.392687e+01	-1.647502e+03
2.100000e-07	-6.157666e-06	-2.510391e-08	-4.358320e+01	-1.645386e+03
2.200000e-07	-6.106456e-06	-2.505818e-08	-4.322074e+01	-1.643125e+03
2.300000e-07	-6.052817e-06	-2.501754e-08	-4.284109e+01	-1.640550e+03
2.400000e-07	-5.996871e-06	-2.493675e-08	-4.244511e+01	-1.637533e+03
2.500000e-07	-5.938641e-06	-2.487608e-08	-4.203297e+01	-1.634036e+03
2.600000e-07	-5.878198e-06	-2.484883e-08	-4.160516e+01	-1.630120e+03
2.700000e-07	-5.815656e-06	-2.477318e-08	-4.116250e+01	-1.625931e+03
2.800000e-07	-5.750952e-06	-2.471595e-08	-4.070453e+01	-1.621656e+03
2.900000e-07	-5.684002e-06	-2.466356e-08	-4.023066e+01	-1.617462e+03
3.000000e-07	-5.614936e-06	-2.459162e-08	-3.974182e+01	-1.613442e+03
3.100000e-07	-5.543799e-06	-2.451946e-08	-3.923832e+01	-1.609584e+03
3.200000e-07	-5.470543e-06	-2.446243e-08	-3.871982e+01	-1.605771e+03
3.300000e-07	-5.395080e-06	-2.440005e-08	-3.818571e+01	-1.601815e+03
3.400000e-07	-5.317387e-06	-2.431492e-08	-3.763581e+01	-1.597515e+03
3.500000e-07	-5.237532e-06	-2.424440e-08	-3.707060e+01	-1.592719e+03
3.600000e-07	-5.155729e-06	-2.415800e-08	-3.649161e+01	-1.587370e+03
3.700000e-07	-5.072230e-06	-2.407213e-08	-3.590061e+01	-1.581531e+03
3.800000e-07	-4.987100e-06	-2.399610e-08	-3.529808e+01	-1.575359e+03
3.900000e-07	-4.900404e-06	-2.390276e-08	-3.468445e+01	-1.569063e+03
4.000000e-07	-4.812095e-06	-2.380911e-08	-3.405941e+01	-1.562831e+03
4.100000e-07	-4.722012e-06	-2.371624e-08	-3.342182e+01	-1.556774e+03
4.200000e-07	-4.630219e-06	-2.362248e-08	-3.277211e+01	-1.550883e+03
4.300000e-07	-4.536891e-06	-2.352083e-08	-3.211155e+01	-1.545031e+03
4.400000e-07	-4.441976e-06	-2.341633e-08	-3.143975e+01	-1.539003e+03
4.500000e-07	-4.345402e-06	-2.330985e-08	-3.075622e+01	-1.532569e+03
4.600000e-07	-4.247160e-06	-2.319570e-08	-3.006087e+01	-1.525546e+03
4.700000e-07	-4.147356e-06	-2.308021e-08	-2.935447e+01	-1.517861e+03
4.800000e-07	-4.046165e-06	-2.296194e-08	-2.863825e+01	-1.509572e+03
4.900000e-07	-3.943601e-06	-2.284218e-08	-2.791232e+01	-1.500853e+03
5.000000e-07	-3.839621e-06	-2.271502e-08	-2.717636e+01	-1.491934e+03
5.100000e-07	-3.734228e-06	-2.258167e-08	-2.643041e+01	-1.483030e+03
5.200000e-07	-3.627370e-06	-2.244414e-08	-2.567407e+01	-1.474264e+03
5.300000e-07	-3.519102e-06	-2.230234e-08	-2.490777e+01	-1.465624e+03
5.400000e-07	-3.409652e-06	-2.215671e-08	-2.413309e+01	-1.456954e+03
5.500000e-07	-3.298996e-06	-2.200516e-08	-2.334989e+01	-1.447995e+03
5.600000e-07	-3.187062e-06	-2.184729e-08	-2.255763e+01	-1.438461e+03
5.700000e-07	-3.073828e-06	-2.168253e-08	-2.175617e+01	-1.428126e+03
5.800000e-07	-2.959239e-06	-2.151524e-08	-2.094512e+01	-1.416889e+03
5.900000e-07	-2.843378e-06	-2.134191e-08	-2.012508e+01	-1.404809e+03
6.000000e-07	-2.726409e-06	-2.115907e-08	-1.929718e+01	-1.392085e+03
6.100000e-07	-2.608432e-06	-2.096828e-08	-1.846216e+01	-1.378992e+03
6.200000e-07	-2.489482e-06	-2.077012e-08	-1.762024e+01	-1.365783e+03
6.300000e-07	-2.369636e-06	-2.056455e-08	-1.677199e+01	-1.352601e+03
6.400000e-07	-2.249000e-06	-2.035144e-08	-1.591814e+01	-1.339416e+03
6.500000e-07	-2.127590e-06	-2.013151e-08	-1.505882e+01	-1.326017e+03
6.600000e-07	-2.005334e-06	-1.990237e-08	-1.419350e+01	-1.312058e+03
6.700000e-07	-1.882236e-06	-1.966124e-08	-1.332224e+01	-1.297156e+03
6.800000e-07	-1.758394e-06	-1.940719e-08	-1.244570e+01	-1.280998e+03
6.900000e-07	-1.633942e-06	-1.914170e-08	-1.156484e+01	-1.263437e+03
7.000000e-07	-1.509064e-06	-1.886627e-08	-1.068097e+01	-1.244531e+03
7.100000e-07	-1.383787e-06	-1.857921e-08	-9.794273e+00	-1.224521e+03
7.200000e-07	-1.258039e-06	-1.827985e-08	-8.904246e+00	-1.203737e+03
7.300000e-07	-1.131874e-06	-1.796607e-08	-8.011266e+00	-1.182468e+03
7.400000e-07	-1.005404e-06	-1.763267e-08	-7.116126e+00	-1.160830e+03
7.500000e-07	-8.786563e-07	-1.727781e-08	-6.219020e+00	-1.138672e+03
7.600000e-07	-7.515906e-07	-1.689982e-08	-5.319665e+00	-1.115562e+03
7.700000e-07	-6.242125e-07	-1.649783e-08	-4.418099e+00	-1.090855e+03
7.800000e-07	-4.966183e-07	-1.607167e-08	-3.515003e+00	-1.063840e+03
7.900000e-07	-3.688627e-07	-1.561689e-08	-2.610765e+00	-1.033912e+03
8.000000e-07	-2.409123e-07	-1.512590e-08	-1.705148e+00	-1.000717e+03
8.100000e-07	-1.128148e-07	-1.459415e-08	-7.984889e-01	-9.642243e+02
8.200000e-07	1.532964e-08	-1.402082e-08	1.085013e-01	-9.246691e+02
8.300000e-07	1.434804e-07	-1.339966e-08	1.015536e+00	-8.823792e+02
8.400000e-07	2.716264e-07	-1.271940e-08	1.922538e+00	-8.375041e+02
8.500000e-07	3.996945e-07	-1.196977e-08	2.828988e+00	-7.897200e+02
8.600000e-07	5.276476e-07	-1.113950e-08	3.734624e+00	-7.379938e+02
8.700000e-07	6.554714e-07	-1.021639e-08	4.639345e+00	-6.804908e+02
8.800000e-07	7.830851e-07	-9.179349e-09	5.542579e+00	-6.146847e+02
8.900000e-07	9.103886e-07	-7.998406e-09	6.443617e+00	-5.376836e+02
9.000000e-07	1.037341e-06	-6.639538e-09	7.342169e+00	-4.467341e+02
9.100000e-07	1.163937e-06	-5.059501e-09	8.238204e+00	-3.398150e+02
9.200000e-07	1.290212e-06	-3.212321e-09	9.131962e+00	-2.162023e+02
9.300000e-07	1.416141e-06	-1.077022e-09	1.002327e+01	-7.687632e+01
9.400000e-07	1.541559e-06	1.275997e-09	1.091096e+01	7.532875e+01
9.500000e-07	1.666426e-06	3.713225e-09	1.179476e+01	2.358897e+02
9.600000e-07	1.790816e-06	6.159330e-09	1.267517e+01	3.990626e+02
9.700000e-07	1.914728e-06	8.591786e-09	1.355221e+01	5.585806e+02
9.800000e-07	2.037985e-06	1.092156e-08	1.442461e+01	7.084581e+02
9.900000e-07	2.160271e-06	1.299089e-08	1.529013e+01	8.437519e+02
1.000000e-06	2.281499e-06	1.471811e-08	1.614817e+01	9.611416e+02
1.010000e-06	2.401829e-06	1.612554e-08	1.699985e+01	1.059227e+03
1.020000e-06	2.521236e-06	1.726516e-08	1.784500e+01	1.138499e+03
1.030000e-06	2.639715e-06	1.818962e-08	1.868358e+01	1.201018e+03
1.040000e-06	2.757320e-06	1.894658e-08	1.951597e+01	1.249868e+03
1.050000e-06	2.873939e-06	1.957362e-08	2.034138e+01	1.288527e+03
1.060000e-06	2.989425e-06	2.009772e-08	2.115878e+01	1.320269e+03
1.070000e-06	3.103601e-06	2.054214e-08	2.196690e+01	1.347717e+03
1.080000e-06	3.216447e-06	2.092550e-08	2.276561e+01	1.372610e+03
1.090000e-06	3.328025e-06	2.126335e-08	2.355535e+01	1.395798e+03
1.100000e-06	3.438491e-06	2.156360e-08	2.433721e+01	1.417429e+03
1.110000e-06	3.547890e-06	2.183195e-08	2.511153e+01	1.437240e+03
1.120000e-06	3.656170e-06	2.207432e-08	2.587792e+01	1.454880e+03
1.130000e-06	3.763282e-06	2.229675e-08	2.663604e+01	1.470161e+03
1.140000e-06	3.868984e-06	2.250280e-08	2.738419e+01	1.483197e+03
1.150000e-06	3.973191e-06	2.269313e-08	2.812175e+01	1.494410e+03
1.160000e-06	4.075957e-06	2.286976e-08	2.884912e+01	1.504419e+03
1.170000e-06	4.177291e-06	2.303390e-08	2.956635e+01	1.513875e+03
1.180000e-06	4.277270e-06	2.318790e-08	3.027399e+01	1.523291e+03
1.190000e-06	4.375752e-06	2.333344e-08	3.097103e+01	1.532921e+03
1.200000e-06	4.472469e-06	2.347144e-08	3.165558e+01	1.542727e+03
1.210000e-06	4.567479e-06	2.360158e-08	3.232805e+01	1.552435e+03
1.220000e-06	4.660929e-06	2.372304e-08	3.298948e+01	1.561649e+03
1.230000e-06	4.752937e-06	2.383586e-08	3.364070e+01	1.570002e+03
1.240000e-06	4.843291e-06	2.394244e-08	3.428022e+01	1.577273e+03
1.250000e-06	4.931671e-06	2.404352e-08	3.490576e+01	1.583461e+03
1.260000e-06	5.018187e-06	2.413783e-08	3.551810e+01	1.588778e+03
1.270000e-06	5.103046e-06	2.422638e-08	3.611872e+01	1.593583e+03
1.280000e-06	5.186291e-06	2.431123e-08	3.670792e+01	1.598269e+03
1.290000e-06	5.267666e-06	2.439379e-08	3.728389e+01	1.603151e+03
1.300000e-06	5.346984e-06	2.447328e-08	3.784529e+01	1.608380e+03
1.310000e-06	5.424340e-06	2.454917e-08	3.839281e+01	1.613918e+03
1.320000e-06	5.499650e-06	2.462244e-08	3.892584e+01	1.619559e+03
1.330000e-06	5.572709e-06	2.469247e-08	3.944294e+01	1.625015e+03
1.340000e-06	5.643709e-06	2.475860e-08	3.994547e+01	1.630007e+03
1.350000e-06	5.712793e-06	2.482228e-08	4.043444e+01	1.634360e+03
1.360000e-06	5.779858e-06	2.488379e-08	4.090912e+01	1.638048e+03
1.370000e-06	5.844784e-06	2.494437e-08	4.136865e+01	1.641199e+03
1.380000e-06	5.907595e-06	2.500270e-08	4.181323e+01	1.644049e+03
1.390000e-06	5.968511e-06	2.505680e-08	4.224438e+01	1.646861e+03
1.400000e-06	6.027449e-06	2.510672e-08	4.266154e+01	1.649841e+03
1.410000e-06	6.084163e-06	2.515138e-08	4.306295e+01	1.653078e+03
1.420000e-06	6.138640e-06	2.519195e-08	4.344853e+01	1.656519e+03
1.430000e-06	6.190817e-06	2.523171e-08	4.381783e+01	1.659988e+03
1.440000e-06	6.240377e-06	2.527194e-08	4.416862e+01	1.663251e+03
1.450000e-06	6.287461e-06	2.531064e-08	4.450187e+01	1.666090e+03
1.460000e-06	6.332468e-06	2.534701e-08	4.482043e+01	1.668371e+03
1.470000e-06	6.375368e-06	2.537886e-08	4.512406e+01	1.670088e+03
1.480000e-06	6.415888e-06	2.540583e-08	4.541086e+01	1.671361e+03
1.490000e-06	6.454115e-06	2.543045e-08	4.568143e+01	1.672400e+03
1.500000e-06	6.490253e-06	2.545375e-08	4.593721e+01	1.673434e+03
1.510000e-06	6.524089e-06	2.547659e-08	4.617669e+01	1.674643e+03
1.520000e-06	6.555496e-06	2.549836e-08	4.639899e+01	1.676106e+03
1.530000e-06	6.584672e-06	2.551846e-08	4.660549e+01	1.677776e+03
1.540000e-06	6.611549e-06	2.553563e-08	4.679573e+01	1.679498e+03
1.550000e-06	6.635909e-06	2.555037e-08	4.696814e+01	1.681066e+03
1.560000e-06	6.657876e-06	2.556358e-08	4.712362e+01	1.682284e+03
1.570000e-06	6.677665e-06	2.557588e-08	4.726369e+01	1.683030e+03
1.580000e-06	6.695107e-06	2.558833e-08	4.738714e+01	1.683296e+03
1.590000e-06	6.709986e-06	2.559857e-08	4.749245e+01	1.683185e+03
1.600000e-06	6.722385e-06	2.560637e-08	4.758021e+01	1.682882e+03
1.610000e-06	6.732110e-06	2.561193e-08	4.764904e+01	1.682592e+03
1.620000e-06	6.739228e-06	2.561608e-08	4.769942e+01	1.682480e+03
1.630000e-06	6.744069e-06	2.561806e-08	4.773368e+01	1.682616e+03
1.640000e-06	6.746480e-06	2.561771e-08	4.775075e+01	1.682955e+03
1.650000e-06	6.746454e-06	2.561724e-08	4.775057e+01	1.683356e+03
1.660000e-06	6.744233e-06	2.561297e-08	4.773484e+01	1.683624e+03
1.670000e-06	6.739910e-06	2.560665e-08	4.770424e+01	1.683571e+03
1.680000e-06	6.733312e-06	2.560006e-08	4.765755e+01	1.683077e+03
1.690000e-06	6.724451e-06	2.559199e-08	4.759483e+01	1.682126e+03
1.700000e-06	6.713454e-06	2.558191e-08	4.751700e+01	1.680809e+03
1.710000e-06	6.700151e-06	2.557335e-08	4.742284e+01	1.679300e+03
1.720000e-06	6.684532e-06	2.557377e-08	4.731229e+01	1.677796e+03
1.730000e-06	6.666800e-06	2.555049e-08	4.718679e+01	1.676462e+03
1.740000e-06	6.646717e-06	2.548477e-08	4.704464e+01	1.675380e+03
1.750000e-06	6.623552e-06	2.546551e-08	4.688068e+01	1.674525e+03
1.760000e-06	6.597303e-06	2.546896e-08	4.669489e+01	1.673779e+03
1.770000e-06	6.568668e-06	2.545721e-08	4.649222e+01	1.672966e+03
1.780000e-06	6.538033e-06	2.548810e-08	4.627539e+01	1.671910e+03
1.790000e-06	6.505865e-06	2.545767e-08	4.604770e+01	1.670491e+03
1.800000e-06	6.472121e-06	2.538948e-08	4.580887e+01	1.668675e+03
1.810000e-06	6.436062e-06	2.542530e-08	4.555365e+01	1.666526e+03
1.820000e-06	6.397694e-06	2.536844e-08	4.528209e+01	1.664176e+03
1.830000e-06	6.357123e-06	2.534133e-08	4.499493e+01	1.661783e+03
1.840000e-06	6.314289e-06	2.537917e-08	4.469176e+01	1.659470e+03
1.850000e-06	6.269431e-06	2.526735e-08	4.437426e+01	1.657283e+03
1.860000e-06	6.222248e-06	2.524112e-08	4.404030e+01	1.655177e+03
1.870000e-06	6.172694e-06	2.519683e-08	4.368956e+01	1.653023e+03
1.880000e-06	6.120835e-06	2.513272e-08	4.332251e+01	1.650648e+03
1.890000e-06	6.066313e-06	2.515836e-08	4.293661e+01	1.647896e+03
1.900000e-06	6.009386e-06	2.505807e-08	4.253369e+01	1.644674e+03
1.910000e-06	5.950265e-06	2.502522e-08	4.211524e+01	1.640985e+03
1.920000e-06	5.889025e-06	2.500230e-08	4.168179e+01	1.636932e+03
1.930000e-06	5.825683e-06	2.490347e-08	4.123346e+01	1.632685e+03
1.940000e-06	5.760098e-06	2.487617e-08	4.076926e+01	1.628429e+03
1.950000e-06	5.692392e-06	2.479755e-08	4.029004e+01	1.624306e+03
1.960000e-06	5.622413e-06	2.475584e-08	3.979474e+01	1.620364e+03
1.970000e-06	5.550177e-06	2.468180e-08	3.928346e+01	1.616547e+03
1.980000e-06	5.475876e-06	2.460265e-08	3.875758e+01	1.612699e+03
1.990000e-06	5.399505e-06	2.455516e-08	3.821703e+01	1.608621e+03
2.000000e-06	5.321043e-06	2.446124e-08	3.766168e+01	1.604123e+03
2.010000e-06	5.240552e-06	2.441275e-08	3.709198e+01	1.599092e+03
2.020000e-06	5.158261e-06	2.431831e-08	3.650953e+01	1.593521e+03
2.030000e-06	5.074213e-06	2.423899e-08	3.591465e+01	1.587517e+03
2.040000e-06	4.988377e-06	2.416282e-08	3.530711e+01	1.581267e+03
2.050000e-06	4.900699e-06	2.406179e-08	3.468654e+01	1.574980e+03
2.060000e-06	4.811290e-06	2.398014e-08	3.405371e+01	1.568818e+03
2.070000e-06	4.720357e-06	2.387705e-08	3.341010e+01	1.562842e+03
2.080000e-06	4.627819e-06	2.379488e-08	3.275513e+01	1.556991e+03
2.090000e-06	4.533585e-06	2.369037e-08	3.208815e+01	1.551094e+03
2.100000e-06	4.437659e-06	2.359188e-08	3.140920e+01	1.544921e+03
2.110000e-06	4.340244e-06	2.348879e-08	3.071971e+01	1.538252e+03
2.120000e-06	4.241472e-06	2.337703e-08	3.002062e+01	1.530949e+03
2.130000e-06	4.141257e-06	2.326241e-08	2.931130e+01	1.522992e+03
2.140000e-06	4.039413e-06	2.313632e-08	2.859046e+01	1.514494e+03
2.150000e-06	3.935922e-06	2.301925e-08	2.785797e+01	1.505661e+03
2.160000e-06	3.831005e-06	2.289034e-08	2.711538e+01	1.496727e+03
2.170000e-06	3.724844e-06	2.276644e-08	2.636398e+01	1.487876e+03
2.180000e-06	3.617486e-06	2.263195e-08	2.560411e+01	1.479177e+03
2.190000e-06	3.508851e-06	2.249430e-08	2.483522e+01	1.470551e+03
2.200000e-06	3.398940e-06	2.234974e-08	2.405728e+01	1.461794e+03
2.210000e-06	3.287621e-06	2.220277e-08	2.326937e+01	1.452624e+03
2.220000e-06	3.174946e-06	2.204887e-08	2.247188e+01	1.442770e+03
2.230000e-06	3.061064e-06	2.188703e-08	2.166583e+01	1.432053e+03
2.240000e-06	2.946003e-06	2.172055e-08	2.085145e+01	1.420440e+03
2.250000e-06	2.829792e-06	2.154431e-08	2.002892e+01	1.408055e+03
2.260000e-06	2.712391e-06	2.136367e-08	1.919797e+01	1.395139e+03
2.270000e-06	2.593835e-06	2.117572e-08	1.835884e+01	1.381971e+03
2.280000e-06	2.474177e-06	2.098311e-08	1.751192e+01	1.368767e+03
2.290000e-06	2.353568e-06	2.077949e-08	1.665826e+01	1.355600e+03
2.300000e-06	2.232221e-06	2.056861e-08	1.579938e+01	1.342361e+03
2.310000e-06	2.110245e-06	2.034754e-08	1.493606e+01	1.328770e+03
2.320000e-06	1.987612e-06	2.011834e-08	1.406807e+01	1.314454e+03
2.330000e-06	1.864274e-06	1.987766e-08	1.319510e+01	1.299046e+03
2.340000e-06	1.740297e-06	1.962575e-08	1.231761e+01	1.282294e+03
2.350000e-06	1.615792e-06	1.936108e-08	1.143637e+01	1.264139e+03
2.360000e-06	1.490817e-06	1.908236e-08	1.055182e+01	1.244723e+03
2.370000e-06	1.365395e-06	1.879165e-08	9.664100e+00	1.224342e+03
2.380000e-06	1.239464e-06	1.848569e-08	8.772770e+00	1.203324e+03
2.390000e-06	1.112998e-06	1.816405e-08	7.877662e+00	1.181899e+03
2.400000e-06	9.860431e-07	1.782285e-08	6.979091e+00	1.160075e+03
2.410000e-06	8.586649e-07	1.746166e-08	6.077524e+00	1.137578e+03
2.420000e-06	7.309338e-07	1.707676e-08	5.173459e+00	1.113871e+03
2.430000e-06	6.029630e-07	1.666580e-08	4.267697e+00	1.088262e+03
2.440000e-06	4.748324e-07	1.622546e-08	3.360805e+00	1.060062e+03
2.450000e-06	3.465152e-07	1.575453e-08	2.452592e+00	1.028760e+03
2.460000e-06	2.180742e-07	1.524928e-08	1.543502e+00	9.941393e+02
2.470000e-06	8.955482e-08	1.470382e-08	6.338579e-01	9.562959e+02
2.480000e-06	-3.899849e-08	1.411372e-08	-2.760264e-01	9.155336e+02
2.490000e-06	-1.675307e-07	1.346960e-08	-1.185762e+00	8.721401e+02
2.500000e-06	-2.960166e-07	1.276257e-08	-2.095169e+00	8.260967e+02
2.510000e-06	-4.244385e-07	1.198400e-08	-3.004123e+00	7.767978e+02
2.520000e-06	-5.527676e-07	1.112264e-08	-3.912421e+00	7.228672e+02
2.530000e-06	-6.809641e-07	1.015997e-08	-4.819779e+00	6.621477e+02
2.540000e-06	-8.089689e-07	9.072116e-09	-5.725782e+00	5.919044e+02
2.550000e-06	-9.367055e-07	7.828628e-09	-6.629885e+00	5.092353e+02
2.560000e-06	-1.064079e-06	6.393730e-09	-7.531419e+00	4.116268e+02
2.570000e-06	-1.190948e-06	4.724506e-09	-8.429383e+00	2.975509e+02
2.580000e-06	-1.317236e-06	2.774113e-09	-9.323235e+00	1.669774e+02
2.590000e-06	-1.442948e-06	5.374219e-10	-1.021301e+01	2.168045e+01
2.600000e-06	-1.568111e-06	-1.895705e-09	-1.109889e+01	-1.347430e+02
2.610000e-06	-1.692708e-06	-4.397701e-09	-1.198078e+01	-2.971735e+02
2.620000e-06	-1.816648e-06	-6.905767e-09	-1.285801e+01	-4.595481e+02
2.630000e-06	-1.939837e-06	-9.371310e-09	-1.372992e+01	-6.156212e+02
2.640000e-06	-2.062237e-06	-1.165672e-08	-1.459626e+01	-7.597681e+02
2.650000e-06	-2.183876e-06	-1.362332e-08	-1.545720e+01	-8.876852e+02
2.660000e-06	-2.304786e-06	-1.524523e-08	-1.631299e+01	-9.968569e+02
2.670000e-06	-2.424988e-06	-1.656321e-08	-1.716377e+01	-1.086716e+03
2.680000e-06	-2.544315e-06	-1.762990e-08	-1.800834e+01	-1.158481e+03
2.690000e-06	-2.662492e-06	-1.849613e-08	-1.884479e+01	-1.214725e+03
2.700000e-06	-2.779468e-06	-1.920709e-08	-1.967273e+01	-1.258779e+03
2.710000e-06	-2.895263e-06	-1.979870e-08	-2.049231e+01	-1.294101e+03
2.720000e-06	-3.009913e-06	-2.029702e-08	-2.130379e+01	-1.323729e+03
2.730000e-06	-3.123333e-06	-2.072196e-08	-2.210656e+01	-1.349921e+03
2.740000e-06	-3.235369e-06	-2.109038e-08	-2.289954e+01	-1.374025e+03
2.750000e-06	-3.346124e-06	-2.141476e-08	-2.368345e+01	-1.396558e+03
2.760000e-06	-3.455678e-06	-2.170367e-08	-2.445886e+01	-1.417451e+03
2.770000e-06	-3.564161e-06	-2.196215e-08	-2.522669e+01	-1.436369e+03
2.780000e-06	-3.671632e-06	-2.219638e-08	-2.598735e+01	-1.453003e+03
2.790000e-06	-3.777899e-06	-2.241357e-08	-2.673950e+01	-1.467288e+03
2.800000e-06	-3.882862e-06	-2.261518e-08	-2.748242e+01	-1.479474e+03
2.810000e-06	-3.986407e-06	-2.280115e-08	-2.821529e+01	-1.490087e+03
2.820000e-06	-4.088283e-06	-2.297331e-08	-2.893636e+01	-1.499783e+03
2.830000e-06	-4.188616e-06	-2.313336e-08	-2.964651e+01	-1.509171e+03
2.840000e-06	-4.287605e-06	-2.328333e-08	-3.034713e+01	-1.518663e+03
2.850000e-06	-4.385124e-06	-2.342417e-08	-3.103736e+01	-1.528388e+03
2.860000e-06	-4.481175e-06	-2.355692e-08	-3.171720e+01	-1.538194e+03
2.870000e-06	-4.575584e-06	-2.368396e-08	-3.238542e+01	-1.547739e+03
2.880000e-06	-4.668233e-06	-2.380407e-08	-3.304118e+01	-1.556621e+03
2.890000e-06	-4.759312e-06	-2.391670e-08	-3.368582e+01	-1.564523e+03
2.900000e-06	-4.848750e-06	-2.402109e-08	-3.431885e+01	-1.571316e+03
2.910000e-06	-4.936413e-06	-2.411784e-08	-3.493932e+01	-1.577092e+03
2.920000e-06	-5.022148e-06	-2.421013e-08	-3.554614e+01	-1.582140e+03
2.930000e-06	-5.106005e-06	-2.429828e-08	-3.613967e+01	-1.586846e+03
2.940000e-06	-5.188172e-06	-2.438303e-08	-3.672124e+01	-1.591584e+03
