# Temperatura_=_43.99
# Concentracion g/m^3_=_41000.0
# C_Vs_to_Am_M_A/Vsm_=_65563218390.804596
# pendiente_HvsI_1/m_=_3716.3
# ordenada_HvsI_A/m_=_1297.0
# frecuencia_Hz_=_301997.45045729226

Tiempo_(s)	Campo_(V.s)	Magnetizacion_(V.s)	Campo_(kA/m)	Magnetizacion_(A/m)
0.000000e+00	-6.744878e-06	-2.511285e-08	-4.746578e+01	-1.643294e+03
1.000000e-08	-6.741204e-06	-2.510705e-08	-4.743993e+01	-1.643654e+03
2.000000e-08	-6.735397e-06	-2.510228e-08	-4.739907e+01	-1.643760e+03
3.000000e-08	-6.727497e-06	-2.509394e-08	-4.734347e+01	-1.643437e+03
4.000000e-08	-6.717267e-06	-2.508204e-08	-4.727148e+01	-1.642613e+03
5.000000e-08	-6.704542e-06	-2.506753e-08	-4.718193e+01	-1.641344e+03
6.000000e-08	-6.689314e-06	-2.504909e-08	-4.707476e+01	-1.639794e+03
7.000000e-08	-6.671776e-06	-2.503210e-08	-4.695134e+01	-1.638185e+03
8.000000e-08	-6.652072e-06	-2.502512e-08	-4.681268e+01	-1.636732e+03
9.000000e-08	-6.629928e-06	-2.501146e-08	-4.665685e+01	-1.635576e+03
1.000000e-07	-6.605068e-06	-2.500065e-08	-4.648190e+01	-1.634743e+03
1.100000e-07	-6.577600e-06	-2.497944e-08	-4.628860e+01	-1.634140e+03
1.200000e-07	-6.547916e-06	-2.494050e-08	-4.607970e+01	-1.633585e+03
1.300000e-07	-6.516397e-06	-2.488620e-08	-4.585789e+01	-1.632863e+03
1.400000e-07	-6.483068e-06	-2.485956e-08	-4.562335e+01	-1.631791e+03
1.500000e-07	-6.447729e-06	-2.483066e-08	-4.537466e+01	-1.630273e+03
1.600000e-07	-6.410289e-06	-2.480781e-08	-4.511118e+01	-1.628322e+03
1.700000e-07	-6.370751e-06	-2.481738e-08	-4.483294e+01	-1.626052e+03
1.800000e-07	-6.328827e-06	-2.476877e-08	-4.453791e+01	-1.623635e+03
1.900000e-07	-6.284460e-06	-2.472258e-08	-4.422568e+01	-1.621239e+03
2.000000e-07	-6.237827e-06	-2.466886e-08	-4.389751e+01	-1.618974e+03
2.100000e-07	-6.188694e-06	-2.464375e-08	-4.355175e+01	-1.616853e+03
2.200000e-07	-6.136966e-06	-2.467256e-08	-4.318772e+01	-1.614789e+03
2.300000e-07	-6.082795e-06	-2.462599e-08	-4.280650e+01	-1.612621e+03
2.400000e-07	-6.026278e-06	-2.453721e-08	-4.240878e+01	-1.610169e+03
2.500000e-07	-5.967491e-06	-2.447581e-08	-4.199507e+01	-1.607295e+03
2.600000e-07	-5.906550e-06	-2.441207e-08	-4.156622e+01	-1.603948e+03
2.700000e-07	-5.843488e-06	-2.434909e-08	-4.112242e+01	-1.600185e+03
2.800000e-07	-5.778249e-06	-2.431728e-08	-4.066332e+01	-1.596155e+03
2.900000e-07	-5.710748e-06	-2.428358e-08	-4.018830e+01	-1.592053e+03
3.000000e-07	-5.641065e-06	-2.420036e-08	-3.969791e+01	-1.588056e+03
3.100000e-07	-5.569271e-06	-2.413972e-08	-3.919268e+01	-1.584267e+03
3.200000e-07	-5.495348e-06	-2.409998e-08	-3.867246e+01	-1.580676e+03
3.300000e-07	-5.419230e-06	-2.403415e-08	-3.813679e+01	-1.577162e+03
3.400000e-07	-5.340886e-06	-2.396766e-08	-3.758546e+01	-1.573522e+03
3.500000e-07	-5.260466e-06	-2.389129e-08	-3.701952e+01	-1.569540e+03
3.600000e-07	-5.178186e-06	-2.381144e-08	-3.644049e+01	-1.565044e+03
3.700000e-07	-5.094213e-06	-2.373915e-08	-3.584955e+01	-1.559968e+03
3.800000e-07	-5.008592e-06	-2.367523e-08	-3.524701e+01	-1.554368e+03
3.900000e-07	-4.921285e-06	-2.360063e-08	-3.463260e+01	-1.548407e+03
4.000000e-07	-4.832252e-06	-2.351163e-08	-3.400604e+01	-1.542306e+03
4.100000e-07	-4.741443e-06	-2.341469e-08	-3.336700e+01	-1.536270e+03
4.200000e-07	-4.648959e-06	-2.331533e-08	-3.271616e+01	-1.530422e+03
4.300000e-07	-4.554989e-06	-2.322438e-08	-3.205486e+01	-1.524764e+03
4.400000e-07	-4.459419e-06	-2.313009e-08	-3.138230e+01	-1.519168e+03
4.500000e-07	-4.362191e-06	-2.302827e-08	-3.069808e+01	-1.513413e+03
4.600000e-07	-4.263291e-06	-2.292208e-08	-3.000209e+01	-1.507256e+03
4.700000e-07	-4.162833e-06	-2.281173e-08	-2.929514e+01	-1.500501e+03
4.800000e-07	-4.061095e-06	-2.270611e-08	-2.857918e+01	-1.493067e+03
4.900000e-07	-3.957891e-06	-2.260443e-08	-2.785290e+01	-1.485009e+03
5.000000e-07	-3.853125e-06	-2.249455e-08	-2.711563e+01	-1.476504e+03
5.100000e-07	-3.746968e-06	-2.237115e-08	-2.636857e+01	-1.467795e+03
5.200000e-07	-3.639343e-06	-2.223607e-08	-2.561118e+01	-1.459107e+03
5.300000e-07	-3.530376e-06	-2.209289e-08	-2.484434e+01	-1.450570e+03
5.400000e-07	-3.420260e-06	-2.194818e-08	-2.406943e+01	-1.442174e+03
5.500000e-07	-3.308827e-06	-2.180470e-08	-2.328524e+01	-1.433753e+03
5.600000e-07	-3.196042e-06	-2.165898e-08	-2.249153e+01	-1.425038e+03
5.700000e-07	-3.081970e-06	-2.150888e-08	-2.168877e+01	-1.415726e+03
5.800000e-07	-2.966527e-06	-2.135209e-08	-2.087637e+01	-1.405577e+03
5.900000e-07	-2.849836e-06	-2.118930e-08	-2.005518e+01	-1.394485e+03
6.000000e-07	-2.732142e-06	-2.102002e-08	-1.922692e+01	-1.382515e+03
6.100000e-07	-2.613504e-06	-2.084145e-08	-1.839203e+01	-1.369879e+03
6.200000e-07	-2.493829e-06	-2.065329e-08	-1.754984e+01	-1.356871e+03
6.300000e-07	-2.373179e-06	-2.045430e-08	-1.670079e+01	-1.343764e+03
6.400000e-07	-2.251814e-06	-2.024766e-08	-1.584671e+01	-1.330712e+03
6.500000e-07	-2.129703e-06	-2.003406e-08	-1.498738e+01	-1.317683e+03
6.600000e-07	-2.006645e-06	-1.981372e-08	-1.412138e+01	-1.304449e+03
6.700000e-07	-1.882744e-06	-1.958658e-08	-1.324945e+01	-1.290641e+03
6.800000e-07	-1.758225e-06	-1.934852e-08	-1.237317e+01	-1.275845e+03
6.900000e-07	-1.633205e-06	-1.909991e-08	-1.149337e+01	-1.259724e+03
7.000000e-07	-1.507719e-06	-1.883866e-08	-1.061028e+01	-1.242120e+03
7.100000e-07	-1.381762e-06	-1.856326e-08	-9.723884e+00	-1.223102e+03
7.200000e-07	-1.255361e-06	-1.827575e-08	-8.834365e+00	-1.202938e+03
7.300000e-07	-1.128554e-06	-1.797548e-08	-7.941983e+00	-1.182001e+03
7.400000e-07	-1.001370e-06	-1.765838e-08	-7.046946e+00	-1.160625e+03
7.500000e-07	-8.738160e-07	-1.732381e-08	-6.149313e+00	-1.138962e+03
7.600000e-07	-7.458862e-07	-1.696923e-08	-5.249031e+00	-1.116878e+03
7.700000e-07	-6.176134e-07	-1.659234e-08	-4.346336e+00	-1.093934e+03
7.800000e-07	-4.890999e-07	-1.619289e-08	-3.441947e+00	-1.069456e+03
7.900000e-07	-3.604269e-07	-1.576998e-08	-2.536435e+00	-1.042690e+03
8.000000e-07	-2.316425e-07	-1.531851e-08	-1.630140e+00	-1.012990e+03
8.100000e-07	-1.027945e-07	-1.483064e-08	-7.233965e-01	-9.799846e+02
8.200000e-07	2.611038e-08	-1.430192e-08	1.837468e-01	-9.436620e+02
8.300000e-07	1.550361e-07	-1.373114e-08	1.091037e+00	-9.043252e+02
8.400000e-07	2.838840e-07	-1.311620e-08	1.997779e+00	-8.624171e+02
8.500000e-07	4.126841e-07	-1.244907e-08	2.904185e+00	-8.182407e+02
8.600000e-07	5.414505e-07	-1.171996e-08	3.810354e+00	-7.716433e+02
8.700000e-07	6.701027e-07	-1.091892e-08	4.715719e+00	-7.217545e+02
8.800000e-07	7.985587e-07	-1.003256e-08	5.619704e+00	-6.668667e+02
8.900000e-07	9.267033e-07	-9.040853e-09	6.521497e+00	-6.045216e+02
9.000000e-07	1.054443e-06	-7.915121e-09	7.420439e+00	-5.318209e+02
9.100000e-07	1.181698e-06	-6.621784e-09	8.315975e+00	-4.459262e+02
9.200000e-07	1.308491e-06	-5.124804e-09	9.208256e+00	-3.446602e+02
9.300000e-07	1.434859e-06	-3.384161e-09	1.009755e+01	-2.270862e+02
9.400000e-07	1.560777e-06	-1.373894e-09	1.098367e+01	-9.393824e+01
9.500000e-07	1.686272e-06	8.793675e-10	1.186681e+01	5.220681e+01
9.600000e-07	1.811317e-06	3.279064e-09	1.274680e+01	2.070726e+02
9.700000e-07	1.935734e-06	5.723626e-09	1.362236e+01	3.651345e+02
9.800000e-07	2.059436e-06	8.133090e-09	1.449289e+01	5.203059e+02
9.900000e-07	2.182313e-06	1.038594e-08	1.535761e+01	6.667347e+02
1.000000e-06	2.304312e-06	1.236852e-08	1.621615e+01	7.995621e+02
1.010000e-06	2.425444e-06	1.404690e-08	1.706859e+01	9.155004e+02
1.020000e-06	2.545565e-06	1.544264e-08	1.791392e+01	1.013130e+03
1.030000e-06	2.664617e-06	1.659694e-08	1.875173e+01	1.092875e+03
1.040000e-06	2.782663e-06	1.755249e-08	1.958246e+01	1.156674e+03
1.050000e-06	2.899791e-06	1.834637e-08	2.040672e+01	1.207453e+03
1.060000e-06	3.015865e-06	1.900811e-08	2.122357e+01	1.248497e+03
1.070000e-06	3.130680e-06	1.956547e-08	2.203156e+01	1.282870e+03
1.080000e-06	3.244180e-06	2.004187e-08	2.283029e+01	1.312989e+03
1.090000e-06	3.356332e-06	2.045465e-08	2.361954e+01	1.340408e+03
1.100000e-06	3.467250e-06	2.081954e-08	2.440010e+01	1.365834e+03
1.110000e-06	3.577120e-06	2.114513e-08	2.517329e+01	1.389327e+03
1.120000e-06	3.685870e-06	2.143667e-08	2.593861e+01	1.410596e+03
1.130000e-06	3.793360e-06	2.169768e-08	2.669504e+01	1.429319e+03
1.140000e-06	3.899511e-06	2.193339e-08	2.744206e+01	1.445378e+03
1.150000e-06	4.004227e-06	2.214877e-08	2.817898e+01	1.458979e+03
1.160000e-06	4.107500e-06	2.234661e-08	2.890574e+01	1.470636e+03
1.170000e-06	4.209339e-06	2.252980e-08	2.962241e+01	1.481045e+03
1.180000e-06	4.309752e-06	2.270023e-08	3.032906e+01	1.490898e+03
1.190000e-06	4.408627e-06	2.286111e-08	3.102487e+01	1.500714e+03
1.200000e-06	4.505808e-06	2.301232e-08	3.170876e+01	1.510726e+03
1.210000e-06	4.601268e-06	2.315315e-08	3.238054e+01	1.520855e+03
1.220000e-06	4.695129e-06	2.328395e-08	3.304107e+01	1.530783e+03
1.230000e-06	4.787446e-06	2.340675e-08	3.369073e+01	1.540088e+03
1.240000e-06	4.878124e-06	2.352197e-08	3.432886e+01	1.548394e+03
1.250000e-06	4.966992e-06	2.362722e-08	3.495425e+01	1.555502e+03
1.260000e-06	5.053993e-06	2.372306e-08	3.556651e+01	1.561451e+03
1.270000e-06	5.139232e-06	2.381330e-08	3.616636e+01	1.566505e+03
1.280000e-06	5.222700e-06	2.389914e-08	3.675375e+01	1.571068e+03
1.290000e-06	5.304330e-06	2.398188e-08	3.732820e+01	1.575567e+03
1.300000e-06	5.383962e-06	2.406215e-08	3.788860e+01	1.580325e+03
1.310000e-06	5.461605e-06	2.413981e-08	3.843500e+01	1.585480e+03
1.320000e-06	5.537263e-06	2.421381e-08	3.896743e+01	1.590957e+03
1.330000e-06	5.610711e-06	2.428343e-08	3.948430e+01	1.596514e+03
1.340000e-06	5.681965e-06	2.434912e-08	3.998574e+01	1.601822e+03
1.350000e-06	5.751208e-06	2.441189e-08	4.047303e+01	1.606585e+03
1.360000e-06	5.818472e-06	2.447193e-08	4.094638e+01	1.610622e+03
1.370000e-06	5.883580e-06	2.452765e-08	4.140457e+01	1.613927e+03
1.380000e-06	5.946551e-06	2.457910e-08	4.184771e+01	1.616663e+03
1.390000e-06	6.007591e-06	2.462816e-08	4.227727e+01	1.619101e+03
1.400000e-06	6.066643e-06	2.467662e-08	4.269284e+01	1.621537e+03
1.410000e-06	6.123431e-06	2.472325e-08	4.309247e+01	1.624192e+03
1.420000e-06	6.178015e-06	2.476630e-08	4.347660e+01	1.627157e+03
1.430000e-06	6.230390e-06	2.480813e-08	4.384517e+01	1.630358e+03
1.440000e-06	6.280200e-06	2.484741e-08	4.419570e+01	1.633596e+03
1.450000e-06	6.327503e-06	2.488085e-08	4.452859e+01	1.636609e+03
1.460000e-06	6.372615e-06	2.491009e-08	4.484605e+01	1.639159e+03
1.470000e-06	6.415589e-06	2.493648e-08	4.514848e+01	1.641109e+03
1.480000e-06	6.456168e-06	2.496099e-08	4.543405e+01	1.642464e+03
1.490000e-06	6.494381e-06	2.498436e-08	4.570296e+01	1.643368e+03
1.500000e-06	6.530461e-06	2.500708e-08	4.595687e+01	1.644059e+03
1.510000e-06	6.564258e-06	2.502917e-08	4.619470e+01	1.644791e+03
1.520000e-06	6.595643e-06	2.505038e-08	4.641557e+01	1.645759e+03
1.530000e-06	6.624798e-06	2.506996e-08	4.662075e+01	1.647040e+03
1.540000e-06	6.651685e-06	2.508564e-08	4.680996e+01	1.648571e+03
1.550000e-06	6.675992e-06	2.509750e-08	4.698101e+01	1.650174e+03
1.560000e-06	6.697856e-06	2.510767e-08	4.713487e+01	1.651615e+03
1.570000e-06	6.717546e-06	2.511702e-08	4.727344e+01	1.652676e+03
1.580000e-06	6.734877e-06	2.512576e-08	4.739541e+01	1.653229e+03
1.590000e-06	6.749651e-06	2.513363e-08	4.749937e+01	1.653270e+03
1.600000e-06	6.761856e-06	2.514159e-08	4.758526e+01	1.652924e+03
1.610000e-06	6.771397e-06	2.514924e-08	4.765241e+01	1.652401e+03
1.620000e-06	6.778388e-06	2.515466e-08	4.770160e+01	1.651932e+03
1.630000e-06	6.783070e-06	2.515701e-08	4.773456e+01	1.651696e+03
1.640000e-06	6.785371e-06	2.515627e-08	4.775075e+01	1.651766e+03
1.650000e-06	6.785255e-06	2.515323e-08	4.774993e+01	1.652088e+03
1.660000e-06	6.782887e-06	2.514986e-08	4.773327e+01	1.652495e+03
1.670000e-06	6.778297e-06	2.514430e-08	4.770096e+01	1.652766e+03
1.680000e-06	6.771396e-06	2.513656e-08	4.765240e+01	1.652691e+03
1.690000e-06	6.762311e-06	2.512818e-08	4.758847e+01	1.652139e+03
1.700000e-06	6.751060e-06	2.512038e-08	4.750929e+01	1.651097e+03
1.710000e-06	6.737461e-06	2.511510e-08	4.741359e+01	1.649674e+03
1.720000e-06	6.721571e-06	2.510364e-08	4.730177e+01	1.648071e+03
1.730000e-06	6.703568e-06	2.507627e-08	4.717507e+01	1.646513e+03
1.740000e-06	6.683137e-06	2.505751e-08	4.703129e+01	1.645189e+03
1.750000e-06	6.659590e-06	2.503152e-08	4.686558e+01	1.644190e+03
1.760000e-06	6.633028e-06	2.501053e-08	4.667866e+01	1.643484e+03
1.770000e-06	6.604067e-06	2.501938e-08	4.647486e+01	1.642932e+03
1.780000e-06	6.573099e-06	2.501330e-08	4.625692e+01	1.642328e+03
1.790000e-06	6.540666e-06	2.499530e-08	4.602868e+01	1.641464e+03
1.800000e-06	6.506585e-06	2.500816e-08	4.578884e+01	1.640193e+03
1.810000e-06	6.470091e-06	2.497608e-08	4.553203e+01	1.638468e+03
1.820000e-06	6.431271e-06	2.496384e-08	4.525883e+01	1.636353e+03
1.830000e-06	6.390244e-06	2.494959e-08	4.497012e+01	1.633995e+03
1.840000e-06	6.347023e-06	2.489341e-08	4.466596e+01	1.631571e+03
1.850000e-06	6.301730e-06	2.490618e-08	4.434722e+01	1.629230e+03
1.860000e-06	6.254061e-06	2.483372e-08	4.401176e+01	1.627039e+03
1.870000e-06	6.204031e-06	2.473148e-08	4.365968e+01	1.624963e+03
1.880000e-06	6.151615e-06	2.470838e-08	4.329081e+01	1.622876e+03
1.890000e-06	6.096591e-06	2.468195e-08	4.290359e+01	1.620600e+03
1.900000e-06	6.039221e-06	2.467389e-08	4.249986e+01	1.617967e+03
1.910000e-06	5.979628e-06	2.464222e-08	4.208049e+01	1.614876e+03
1.920000e-06	5.917865e-06	2.458180e-08	4.164584e+01	1.611325e+03
1.930000e-06	5.853896e-06	2.451393e-08	4.119567e+01	1.607418e+03
1.940000e-06	5.787718e-06	2.446221e-08	4.072996e+01	1.603332e+03
1.950000e-06	5.719413e-06	2.443790e-08	4.024927e+01	1.599263e+03
1.960000e-06	5.648827e-06	2.435703e-08	3.975254e+01	1.595358e+03
1.970000e-06	5.576061e-06	2.430386e-08	3.924046e+01	1.591672e+03
1.980000e-06	5.501193e-06	2.424476e-08	3.871359e+01	1.588140e+03
1.990000e-06	5.424172e-06	2.416731e-08	3.817157e+01	1.584597e+03
2.000000e-06	5.345103e-06	2.411635e-08	3.761513e+01	1.580827e+03
2.010000e-06	5.264083e-06	2.405403e-08	3.704498e+01	1.576625e+03
2.020000e-06	5.181239e-06	2.398367e-08	3.646197e+01	1.571863e+03
2.030000e-06	5.096580e-06	2.388329e-08	3.586620e+01	1.566531e+03
2.040000e-06	5.010044e-06	2.380416e-08	3.525723e+01	1.560741e+03
2.050000e-06	4.921637e-06	2.373610e-08	3.463508e+01	1.554689e+03
2.060000e-06	4.831609e-06	2.366412e-08	3.400152e+01	1.548599e+03
2.070000e-06	4.740078e-06	2.357580e-08	3.335739e+01	1.542644e+03
2.080000e-06	4.646862e-06	2.348060e-08	3.270140e+01	1.536895e+03
2.090000e-06	4.551939e-06	2.339579e-08	3.203340e+01	1.531291e+03
2.100000e-06	4.455360e-06	2.329769e-08	3.135374e+01	1.525654e+03
2.110000e-06	4.357329e-06	2.320283e-08	3.066387e+01	1.519744e+03
2.120000e-06	4.257798e-06	2.309997e-08	2.996344e+01	1.513330e+03
2.130000e-06	4.156698e-06	2.298997e-08	2.925196e+01	1.506264e+03
2.140000e-06	4.054082e-06	2.287161e-08	2.852982e+01	1.498528e+03
2.150000e-06	3.949888e-06	2.275186e-08	2.779658e+01	1.490237e+03
2.160000e-06	3.844323e-06	2.262998e-08	2.705369e+01	1.481609e+03
2.170000e-06	3.737581e-06	2.251184e-08	2.630251e+01	1.472888e+03
2.180000e-06	3.629523e-06	2.239802e-08	2.554207e+01	1.464264e+03
2.190000e-06	3.520150e-06	2.227451e-08	2.477238e+01	1.455806e+03
2.200000e-06	3.409487e-06	2.214154e-08	2.399361e+01	1.447430e+03
2.210000e-06	3.297371e-06	2.199471e-08	2.320462e+01	1.438912e+03
2.220000e-06	3.183914e-06	2.184232e-08	2.240618e+01	1.429959e+03
2.230000e-06	3.069159e-06	2.168363e-08	2.159862e+01	1.420284e+03
2.240000e-06	2.953130e-06	2.152591e-08	2.078209e+01	1.409702e+03
2.250000e-06	2.836003e-06	2.136241e-08	1.995783e+01	1.398187e+03
2.260000e-06	2.717822e-06	2.119045e-08	1.912615e+01	1.385876e+03
2.270000e-06	2.598458e-06	2.101037e-08	1.828615e+01	1.373032e+03
2.280000e-06	2.477954e-06	2.082479e-08	1.743812e+01	1.359952e+03
2.290000e-06	2.356650e-06	2.063747e-08	1.658447e+01	1.346864e+03
2.300000e-06	2.234704e-06	2.044127e-08	1.572630e+01	1.333841e+03
2.310000e-06	2.112046e-06	2.023024e-08	1.486312e+01	1.320759e+03
2.320000e-06	1.988647e-06	2.000332e-08	1.399472e+01	1.307313e+03
2.330000e-06	1.864468e-06	1.976719e-08	1.312083e+01	1.293098e+03
2.340000e-06	1.739565e-06	1.952414e-08	1.224186e+01	1.277721e+03
2.350000e-06	1.614185e-06	1.927264e-08	1.135952e+01	1.260920e+03
2.360000e-06	1.488443e-06	1.900824e-08	1.047463e+01	1.242640e+03
2.370000e-06	1.362290e-06	1.873025e-08	9.586852e+00	1.223050e+03
2.380000e-06	1.235585e-06	1.843819e-08	8.695195e+00	1.202482e+03
2.390000e-06	1.108337e-06	1.813104e-08	7.799706e+00	1.181310e+03
2.400000e-06	9.805940e-07	1.780728e-08	6.900742e+00	1.159801e+03
2.410000e-06	8.524650e-07	1.746341e-08	5.999059e+00	1.137980e+03
2.420000e-06	7.240976e-07	1.709701e-08	5.095698e+00	1.115571e+03
2.430000e-06	5.954766e-07	1.670809e-08	4.190552e+00	1.092010e+03
2.440000e-06	4.666329e-07	1.629592e-08	3.283840e+00	1.066563e+03
2.450000e-06	3.376616e-07	1.586122e-08	2.376229e+00	1.038504e+03
2.460000e-06	2.085700e-07	1.539776e-08	1.467771e+00	1.007297e+03
2.470000e-06	7.937476e-08	1.489727e-08	5.585847e-01	9.727344e+02
2.480000e-06	-4.984744e-08	1.435636e-08	-3.507918e-01	9.349630e+02
2.490000e-06	-1.790120e-07	1.377184e-08	-1.259763e+00	8.943809e+02
2.500000e-06	-3.081234e-07	1.313817e-08	-2.168359e+00	8.514050e+02
2.510000e-06	-4.371688e-07	1.244671e-08	-3.076491e+00	8.061646e+02
2.520000e-06	-5.661128e-07	1.168734e-08	-3.983910e+00	7.581999e+02
2.530000e-06	-6.949130e-07	1.084791e-08	-4.890317e+00	7.062552e+02
2.540000e-06	-8.235073e-07	9.917490e-09	-5.795274e+00	6.482497e+02
2.550000e-06	-9.518547e-07	8.877220e-09	-6.698495e+00	5.814692e+02
2.560000e-06	-1.079837e-06	7.698234e-09	-7.599143e+00	5.029725e+02
2.570000e-06	-1.207320e-06	6.343458e-09	-8.496281e+00	4.101514e+02
2.580000e-06	-1.334251e-06	4.768036e-09	-9.389537e+00	3.013388e+02
2.590000e-06	-1.460649e-06	2.933469e-09	-1.027904e+01	1.763338e+02
2.600000e-06	-1.586500e-06	8.254421e-10	-1.116469e+01	3.672327e+01
2.610000e-06	-1.711823e-06	-1.515391e-09	-1.204662e+01	-1.140896e+02
2.620000e-06	-1.836543e-06	-3.989920e-09	-1.292432e+01	-2.711760e+02
2.630000e-06	-1.960527e-06	-6.489563e-09	-1.379683e+01	-4.286550e+02
2.640000e-06	-2.083638e-06	-8.894845e-09	-1.466320e+01	-5.804485e+02
2.650000e-06	-2.205869e-06	-1.107734e-08	-1.552338e+01	-7.210794e+02
2.660000e-06	-2.327335e-06	-1.296381e-08	-1.637818e+01	-8.463617e+02
2.670000e-06	-2.448041e-06	-1.454875e-08	-1.722762e+01	-9.538577e+02
2.680000e-06	-2.567874e-06	-1.586299e-08	-1.807092e+01	-1.043026e+03
2.690000e-06	-2.686669e-06	-1.694754e-08	-1.890692e+01	-1.115049e+03
2.700000e-06	-2.804363e-06	-1.784377e-08	-1.973517e+01	-1.172401e+03
2.710000e-06	-2.920904e-06	-1.859101e-08	-2.055530e+01	-1.218250e+03
2.720000e-06	-3.036233e-06	-1.922205e-08	-2.136691e+01	-1.255845e+03
2.730000e-06	-3.150305e-06	-1.975924e-08	-2.216967e+01	-1.287991e+03
2.740000e-06	-3.263065e-06	-2.021834e-08	-2.296320e+01	-1.316714e+03
2.750000e-06	-3.374511e-06	-2.061581e-08	-2.374747e+01	-1.343163e+03
2.760000e-06	-3.484644e-06	-2.096465e-08	-2.452251e+01	-1.367710e+03
2.770000e-06	-3.593588e-06	-2.127252e-08	-2.528918e+01	-1.390213e+03
2.780000e-06	-3.701434e-06	-2.154847e-08	-2.604813e+01	-1.410330e+03
2.790000e-06	-3.808145e-06	-2.180033e-08	-2.679909e+01	-1.427810e+03
2.800000e-06	-3.913578e-06	-2.203098e-08	-2.754106e+01	-1.442679e+03
2.810000e-06	-4.017503e-06	-2.224366e-08	-2.827240e+01	-1.455296e+03
2.820000e-06	-4.119889e-06	-2.243968e-08	-2.899293e+01	-1.466281e+03
2.830000e-06	-4.220763e-06	-2.261867e-08	-2.970281e+01	-1.476349e+03
2.840000e-06	-4.320158e-06	-2.278245e-08	-3.040229e+01	-1.486134e+03
2.850000e-06	-4.418112e-06	-2.293452e-08	-3.109162e+01	-1.496030e+03
2.860000e-06	-4.514529e-06	-2.307733e-08	-3.177013e+01	-1.506120e+03
2.870000e-06	-4.609377e-06	-2.321254e-08	-3.243761e+01	-1.516203e+03
2.880000e-06	-4.702552e-06	-2.333999e-08	-3.309330e+01	-1.525892e+03
2.890000e-06	-4.794005e-06	-2.345871e-08	-3.373689e+01	-1.534770e+03
2.900000e-06	-4.883791e-06	-2.356978e-08	-3.436875e+01	-1.542528e+03
2.910000e-06	-4.971790e-06	-2.367297e-08	-3.498802e+01	-1.549076e+03
2.920000e-06	-5.057943e-06	-2.376984e-08	-3.559430e+01	-1.554563e+03
2.930000e-06	-5.142242e-06	-2.386107e-08	-3.618754e+01	-1.559332e+03
2.940000e-06	-5.224736e-06	-2.394631e-08	-3.676808e+01	-1.563813e+03
