# Temperatura_=_90.0
# Concentracion g/m^3_=_41000.0
# C_Vs_to_Am_M_A/Vsm_=_65563218390.804596
# pendiente_HvsI_1/m_=_3716.3
# ordenada_HvsI_A/m_=_1297.0
# frecuencia_Hz_=_301996.0864886952

Tiempo_(s)	Campo_(V.s)	Magnetizacion_(V.s)	Campo_(kA/m)	Magnetizacion_(A/m)
0.000000e+00	-6.722593e-06	-2.349309e-08	-4.747193e+01	-1.539187e+03
1.000000e-08	-6.719359e-06	-2.348865e-08	-4.744910e+01	-1.539205e+03
2.000000e-08	-6.713954e-06	-2.348002e-08	-4.741093e+01	-1.538654e+03
3.000000e-08	-6.706523e-06	-2.346709e-08	-4.735845e+01	-1.537537e+03
4.000000e-08	-6.696798e-06	-2.345216e-08	-4.728978e+01	-1.536001e+03
5.000000e-08	-6.684555e-06	-2.343653e-08	-4.720333e+01	-1.534283e+03
6.000000e-08	-6.669850e-06	-2.341956e-08	-4.709949e+01	-1.532640e+03
7.000000e-08	-6.652795e-06	-2.339556e-08	-4.697905e+01	-1.531269e+03
8.000000e-08	-6.633570e-06	-2.337685e-08	-4.684329e+01	-1.530247e+03
9.000000e-08	-6.611989e-06	-2.339149e-08	-4.669090e+01	-1.529512e+03
1.000000e-07	-6.587685e-06	-2.338210e-08	-4.651927e+01	-1.528885e+03
1.100000e-07	-6.560720e-06	-2.333084e-08	-4.632886e+01	-1.528128e+03
1.200000e-07	-6.531510e-06	-2.329489e-08	-4.612259e+01	-1.527021e+03
1.300000e-07	-6.500374e-06	-2.325329e-08	-4.590273e+01	-1.525432e+03
1.400000e-07	-6.467446e-06	-2.318394e-08	-4.567020e+01	-1.523356e+03
1.500000e-07	-6.432551e-06	-2.319182e-08	-4.542379e+01	-1.520912e+03
1.600000e-07	-6.395596e-06	-2.318840e-08	-4.516283e+01	-1.518303e+03
1.700000e-07	-6.356699e-06	-2.310290e-08	-4.488816e+01	-1.515747e+03
1.800000e-07	-6.315439e-06	-2.310195e-08	-4.459679e+01	-1.513398e+03
1.900000e-07	-6.271680e-06	-2.304388e-08	-4.428779e+01	-1.511296e+03
2.000000e-07	-6.225730e-06	-2.297418e-08	-4.396331e+01	-1.509348e+03
2.100000e-07	-6.177371e-06	-2.299376e-08	-4.362182e+01	-1.507350e+03
2.200000e-07	-6.126349e-06	-2.294954e-08	-4.326153e+01	-1.505053e+03
2.300000e-07	-6.072812e-06	-2.289192e-08	-4.288347e+01	-1.502236e+03
2.400000e-07	-6.016991e-06	-2.281861e-08	-4.248929e+01	-1.498782e+03
2.500000e-07	-5.958888e-06	-2.274307e-08	-4.207899e+01	-1.494714e+03
2.600000e-07	-5.898529e-06	-2.270258e-08	-4.165277e+01	-1.490194e+03
2.700000e-07	-5.836066e-06	-2.263434e-08	-4.121168e+01	-1.485472e+03
2.800000e-07	-5.771448e-06	-2.257697e-08	-4.075538e+01	-1.480816e+03
2.900000e-07	-5.704619e-06	-2.251337e-08	-4.028346e+01	-1.476426e+03
3.000000e-07	-5.635641e-06	-2.243803e-08	-3.979637e+01	-1.472369e+03
3.100000e-07	-5.564533e-06	-2.236847e-08	-3.929424e+01	-1.468563e+03
3.200000e-07	-5.491296e-06	-2.230217e-08	-3.877707e+01	-1.464795e+03
3.300000e-07	-5.415904e-06	-2.224725e-08	-3.824468e+01	-1.460788e+03
3.400000e-07	-5.338328e-06	-2.216231e-08	-3.769688e+01	-1.456286e+03
3.500000e-07	-5.258634e-06	-2.208010e-08	-3.713411e+01	-1.451134e+03
3.600000e-07	-5.176949e-06	-2.199323e-08	-3.655729e+01	-1.445328e+03
3.700000e-07	-5.093503e-06	-2.190361e-08	-3.596803e+01	-1.439012e+03
3.800000e-07	-5.008449e-06	-2.182786e-08	-3.536742e+01	-1.432440e+03
3.900000e-07	-4.921775e-06	-2.173754e-08	-3.475537e+01	-1.425889e+03
4.000000e-07	-4.833415e-06	-2.164619e-08	-3.413141e+01	-1.419576e+03
4.100000e-07	-4.743352e-06	-2.154986e-08	-3.349542e+01	-1.413583e+03
4.200000e-07	-4.651583e-06	-2.145155e-08	-3.284739e+01	-1.407828e+03
4.300000e-07	-4.558167e-06	-2.134512e-08	-3.218773e+01	-1.402089e+03
4.400000e-07	-4.463120e-06	-2.123464e-08	-3.151655e+01	-1.396071e+03
4.500000e-07	-4.366421e-06	-2.112743e-08	-3.083371e+01	-1.389495e+03
4.600000e-07	-4.268103e-06	-2.101266e-08	-3.013943e+01	-1.382188e+03
4.700000e-07	-4.168211e-06	-2.089821e-08	-2.943403e+01	-1.374141e+03
4.800000e-07	-4.066952e-06	-2.078321e-08	-2.871899e+01	-1.365510e+03
4.900000e-07	-3.964349e-06	-2.066774e-08	-2.799445e+01	-1.356571e+03
5.000000e-07	-3.860248e-06	-2.054388e-08	-2.725934e+01	-1.347631e+03
5.100000e-07	-3.754737e-06	-2.041265e-08	-2.651427e+01	-1.338923e+03
5.200000e-07	-3.647789e-06	-2.027556e-08	-2.575905e+01	-1.330529e+03
5.300000e-07	-3.539467e-06	-2.013409e-08	-2.499413e+01	-1.322343e+03
5.400000e-07	-3.429961e-06	-1.998829e-08	-2.422085e+01	-1.314094e+03
5.500000e-07	-3.319180e-06	-1.983522e-08	-2.343856e+01	-1.305421e+03
5.600000e-07	-3.206999e-06	-1.967993e-08	-2.264638e+01	-1.295988e+03
5.700000e-07	-3.093523e-06	-1.951956e-08	-2.184507e+01	-1.285584e+03
5.800000e-07	-2.978822e-06	-1.935795e-08	-2.103510e+01	-1.274195e+03
5.900000e-07	-2.862856e-06	-1.919280e-08	-2.021620e+01	-1.262011e+03
6.000000e-07	-2.745739e-06	-1.902091e-08	-1.938918e+01	-1.249370e+03
6.100000e-07	-2.627607e-06	-1.883807e-08	-1.855498e+01	-1.236649e+03
6.200000e-07	-2.508500e-06	-1.864514e-08	-1.771390e+01	-1.224137e+03
6.300000e-07	-2.388374e-06	-1.844664e-08	-1.686563e+01	-1.211929e+03
6.400000e-07	-2.267359e-06	-1.824352e-08	-1.601107e+01	-1.199877e+03
6.500000e-07	-2.145686e-06	-1.803546e-08	-1.515187e+01	-1.187616e+03
6.600000e-07	-2.023318e-06	-1.781843e-08	-1.428777e+01	-1.174662e+03
6.700000e-07	-1.900108e-06	-1.759213e-08	-1.341771e+01	-1.160551e+03
6.800000e-07	-1.776121e-06	-1.735378e-08	-1.254217e+01	-1.144979e+03
6.900000e-07	-1.651499e-06	-1.710512e-08	-1.166215e+01	-1.127905e+03
7.000000e-07	-1.526380e-06	-1.684911e-08	-1.077861e+01	-1.109561e+03
7.100000e-07	-1.400888e-06	-1.658372e-08	-9.892443e+00	-1.090380e+03
7.200000e-07	-1.275014e-06	-1.630684e-08	-9.003574e+00	-1.070849e+03
7.300000e-07	-1.148733e-06	-1.601523e-08	-8.111837e+00	-1.051325e+03
7.400000e-07	-1.022069e-06	-1.570518e-08	-7.217394e+00	-1.031880e+03
7.500000e-07	-8.950033e-07	-1.537666e-08	-6.320111e+00	-1.012217e+03
7.600000e-07	-7.676083e-07	-1.503061e-08	-5.420505e+00	-9.916963e+02
7.700000e-07	-6.399345e-07	-1.466363e-08	-4.518930e+00	-9.694748e+02
7.800000e-07	-5.119705e-07	-1.427297e-08	-3.615306e+00	-9.447148e+02
7.900000e-07	-3.838506e-07	-1.385676e-08	-2.710580e+00	-9.168108e+02
8.000000e-07	-2.555693e-07	-1.340983e-08	-1.804716e+00	-8.855525e+02
8.100000e-07	-1.270780e-07	-1.292603e-08	-8.973676e-01	-8.511638e+02
8.200000e-07	1.511043e-09	-1.240013e-08	1.067031e-02	-8.141827e+02
8.300000e-07	1.301060e-07	-1.182874e-08	9.187500e-01	-7.751937e+02
8.400000e-07	2.586823e-07	-1.120598e-08	1.826698e+00	-7.344711e+02
8.500000e-07	3.871916e-07	-1.052027e-08	2.734173e+00	-6.916258e+02
8.600000e-07	5.155778e-07	-9.756415e-09	3.640779e+00	-6.453629e+02
8.700000e-07	6.437642e-07	-8.899225e-09	4.545974e+00	-5.934425e+02
8.800000e-07	7.717264e-07	-7.930619e-09	5.449586e+00	-5.328938e+02
8.900000e-07	8.994595e-07	-6.822928e-09	6.351579e+00	-4.604745e+02
9.000000e-07	1.026821e-06	-5.538295e-09	7.250947e+00	-3.733027e+02
9.100000e-07	1.153753e-06	-4.034229e-09	8.147282e+00	-2.695389e+02
9.200000e-07	1.280301e-06	-2.271625e-09	9.040910e+00	-1.489684e+02
9.300000e-07	1.406422e-06	-2.304618e-10	9.931521e+00	-1.334761e+01
9.400000e-07	1.532073e-06	2.046655e-09	1.081881e+01	1.335837e+02
9.500000e-07	1.657304e-06	4.448020e-09	1.170314e+01	2.864512e+02
9.600000e-07	1.782097e-06	6.850957e-09	1.258437e+01	4.389061e+02
9.700000e-07	1.906322e-06	9.123567e-09	1.346159e+01	5.844791e+02
9.800000e-07	2.029739e-06	1.113334e-08	1.433311e+01	7.174656e+02
9.900000e-07	2.152237e-06	1.281917e-08	1.519813e+01	8.336744e+02
1.000000e-06	2.273894e-06	1.419105e-08	1.605722e+01	9.308977e+02
1.010000e-06	2.394727e-06	1.529273e-08	1.691049e+01	1.009026e+03
1.020000e-06	2.514592e-06	1.617978e-08	1.775692e+01	1.069803e+03
1.030000e-06	2.633407e-06	1.690038e-08	1.859594e+01	1.116294e+03
1.040000e-06	2.751303e-06	1.749567e-08	1.942847e+01	1.152193e+03
1.050000e-06	2.868272e-06	1.799489e-08	2.025445e+01	1.181126e+03
1.060000e-06	2.984117e-06	1.841868e-08	2.107249e+01	1.206080e+03
1.070000e-06	3.098696e-06	1.878551e-08	2.188160e+01	1.229066e+03
1.080000e-06	3.212039e-06	1.910654e-08	2.268197e+01	1.251050e+03
1.090000e-06	3.324143e-06	1.939114e-08	2.347360e+01	1.272123e+03
1.100000e-06	3.435015e-06	1.964628e-08	2.425654e+01	1.291830e+03
1.110000e-06	3.544731e-06	1.987808e-08	2.503130e+01	1.309558e+03
1.120000e-06	3.653333e-06	2.009150e-08	2.579819e+01	1.324870e+03
1.130000e-06	3.760763e-06	2.029098e-08	2.655682e+01	1.337707e+03
1.140000e-06	3.866894e-06	2.047807e-08	2.730627e+01	1.348439e+03
1.150000e-06	3.971572e-06	2.065245e-08	2.804546e+01	1.357749e+03
1.160000e-06	4.074719e-06	2.081612e-08	2.877384e+01	1.366440e+03
1.170000e-06	4.176454e-06	2.096970e-08	2.949224e+01	1.375203e+03
1.180000e-06	4.276804e-06	2.111403e-08	3.020087e+01	1.384445e+03
1.190000e-06	4.375640e-06	2.125159e-08	3.089881e+01	1.394205e+03
1.200000e-06	4.472801e-06	2.138132e-08	3.158491e+01	1.404193e+03
1.210000e-06	4.568238e-06	2.150263e-08	3.225885e+01	1.413916e+03
1.220000e-06	4.662061e-06	2.161698e-08	3.292138e+01	1.422860e+03
1.230000e-06	4.754429e-06	2.172519e-08	3.357365e+01	1.430655e+03
1.240000e-06	4.845197e-06	2.182951e-08	3.421461e+01	1.437191e+03
1.250000e-06	4.934059e-06	2.192974e-08	3.484211e+01	1.442645e+03
1.260000e-06	5.021084e-06	2.202396e-08	3.545664e+01	1.447412e+03
1.270000e-06	5.106403e-06	2.211271e-08	3.605912e+01	1.451982e+03
1.280000e-06	5.189953e-06	2.219808e-08	3.664912e+01	1.456789e+03
1.290000e-06	5.271605e-06	2.228128e-08	3.722571e+01	1.462089e+03
1.300000e-06	5.351269e-06	2.236201e-08	3.778826e+01	1.467896e+03
1.310000e-06	5.429003e-06	2.243923e-08	3.833718e+01	1.473998e+03
1.320000e-06	5.504760e-06	2.251280e-08	3.887215e+01	1.480038e+03
1.330000e-06	5.578348e-06	2.258296e-08	3.939179e+01	1.485637e+03
1.340000e-06	5.649776e-06	2.265032e-08	3.989618e+01	1.490514e+03
1.350000e-06	5.719187e-06	2.271523e-08	4.038633e+01	1.494572e+03
1.360000e-06	5.786600e-06	2.277860e-08	4.086237e+01	1.497918e+03
1.370000e-06	5.851879e-06	2.284007e-08	4.132334e+01	1.500825e+03
1.380000e-06	5.915038e-06	2.289776e-08	4.176934e+01	1.503639e+03
1.390000e-06	5.976249e-06	2.295218e-08	4.220159e+01	1.506664e+03
1.400000e-06	6.035445e-06	2.300454e-08	4.261960e+01	1.510074e+03
1.410000e-06	6.092443e-06	2.305395e-08	4.302210e+01	1.513856e+03
1.420000e-06	6.147270e-06	2.309931e-08	4.340926e+01	1.517827e+03
1.430000e-06	6.199838e-06	2.314307e-08	4.378047e+01	1.521693e+03
1.440000e-06	6.249838e-06	2.318612e-08	4.413355e+01	1.525145e+03
1.450000e-06	6.297299e-06	2.322490e-08	4.446870e+01	1.527959e+03
1.460000e-06	6.342578e-06	2.326068e-08	4.478844e+01	1.530064e+03
1.470000e-06	6.385853e-06	2.329426e-08	4.509403e+01	1.531560e+03
1.480000e-06	6.426827e-06	2.332404e-08	4.538337e+01	1.532687e+03
1.490000e-06	6.465408e-06	2.335099e-08	4.565581e+01	1.533745e+03
1.500000e-06	6.501861e-06	2.337573e-08	4.591322e+01	1.535001e+03
1.510000e-06	6.536043e-06	2.340116e-08	4.615460e+01	1.536606e+03
1.520000e-06	6.567754e-06	2.342639e-08	4.637853e+01	1.538554e+03
1.530000e-06	6.597188e-06	2.344964e-08	4.658638e+01	1.540682e+03
1.540000e-06	6.624402e-06	2.346895e-08	4.677855e+01	1.542729e+03
1.550000e-06	6.649100e-06	2.348312e-08	4.695296e+01	1.544420e+03
1.560000e-06	6.671292e-06	2.349454e-08	4.710967e+01	1.545551e+03
1.570000e-06	6.691302e-06	2.350463e-08	4.725097e+01	1.546052e+03
1.580000e-06	6.709019e-06	2.351429e-08	4.737608e+01	1.546011e+03
1.590000e-06	6.724176e-06	2.352200e-08	4.748311e+01	1.545641e+03
1.600000e-06	6.736773e-06	2.352859e-08	4.757206e+01	1.545218e+03
1.610000e-06	6.746739e-06	2.353564e-08	4.764244e+01	1.544989e+03
1.620000e-06	6.754114e-06	2.354250e-08	4.769452e+01	1.545100e+03
1.630000e-06	6.759128e-06	2.354755e-08	4.772993e+01	1.545550e+03
1.640000e-06	6.761810e-06	2.354913e-08	4.774886e+01	1.546196e+03
1.650000e-06	6.762077e-06	2.354724e-08	4.775075e+01	1.546797e+03
1.660000e-06	6.760055e-06	2.354040e-08	4.773647e+01	1.547090e+03
1.670000e-06	6.755934e-06	2.353004e-08	4.770737e+01	1.546874e+03
1.680000e-06	6.749536e-06	2.352206e-08	4.766219e+01	1.546073e+03
1.690000e-06	6.740839e-06	2.351489e-08	4.760078e+01	1.544754e+03
1.700000e-06	6.730055e-06	2.350466e-08	4.752463e+01	1.543109e+03
1.710000e-06	6.717000e-06	2.349242e-08	4.743244e+01	1.541396e+03
1.720000e-06	6.701582e-06	2.348804e-08	4.732357e+01	1.539852e+03
1.730000e-06	6.684061e-06	2.347164e-08	4.719984e+01	1.538631e+03
1.740000e-06	6.664257e-06	2.340259e-08	4.705999e+01	1.537749e+03
1.750000e-06	6.641417e-06	2.337068e-08	4.689871e+01	1.537089e+03
1.760000e-06	6.615435e-06	2.337774e-08	4.671523e+01	1.536438e+03
1.770000e-06	6.586997e-06	2.335785e-08	4.651442e+01	1.535556e+03
1.780000e-06	6.556551e-06	2.337651e-08	4.629942e+01	1.534254e+03
1.790000e-06	6.524512e-06	2.337384e-08	4.607317e+01	1.532450e+03
1.800000e-06	6.490891e-06	2.328123e-08	4.583576e+01	1.530197e+03
1.810000e-06	6.454979e-06	2.330345e-08	4.558217e+01	1.527657e+03
1.820000e-06	6.416686e-06	2.328528e-08	4.531176e+01	1.525047e+03
1.830000e-06	6.376234e-06	2.321896e-08	4.502610e+01	1.522568e+03
1.840000e-06	6.333572e-06	2.326990e-08	4.472484e+01	1.520330e+03
1.850000e-06	6.288855e-06	2.316539e-08	4.440907e+01	1.518315e+03
1.860000e-06	6.241845e-06	2.309481e-08	4.407711e+01	1.516377e+03
1.870000e-06	6.192437e-06	2.307794e-08	4.372821e+01	1.514283e+03
1.880000e-06	6.140728e-06	2.299615e-08	4.336307e+01	1.511786e+03
1.890000e-06	6.086318e-06	2.302322e-08	4.297885e+01	1.508705e+03
1.900000e-06	6.029462e-06	2.294581e-08	4.257735e+01	1.504978e+03
1.910000e-06	5.970482e-06	2.287818e-08	4.216086e+01	1.500691e+03
1.920000e-06	5.909367e-06	2.284978e-08	4.172930e+01	1.496052e+03
1.930000e-06	5.846092e-06	2.274193e-08	4.128248e+01	1.491330e+03
1.940000e-06	5.780542e-06	2.272285e-08	4.081959e+01	1.486772e+03
1.950000e-06	5.712833e-06	2.263948e-08	4.034146e+01	1.482527e+03
1.960000e-06	5.642921e-06	2.259098e-08	3.984778e+01	1.478598e+03
1.970000e-06	5.570827e-06	2.252728e-08	3.933868e+01	1.474842e+03
1.980000e-06	5.496637e-06	2.241728e-08	3.881478e+01	1.471007e+03
1.990000e-06	5.420317e-06	2.237258e-08	3.827585e+01	1.466817e+03
2.000000e-06	5.341901e-06	2.227683e-08	3.772210e+01	1.462049e+03
2.010000e-06	5.261448e-06	2.222526e-08	3.715398e+01	1.456610e+03
2.020000e-06	5.179156e-06	2.213515e-08	3.657287e+01	1.450561e+03
2.030000e-06	5.095067e-06	2.203981e-08	3.597908e+01	1.444103e+03
2.040000e-06	5.009135e-06	2.196183e-08	3.537226e+01	1.437509e+03
2.050000e-06	4.921402e-06	2.185271e-08	3.475273e+01	1.431042e+03
2.060000e-06	4.832015e-06	2.177266e-08	3.412152e+01	1.424867e+03
2.070000e-06	4.741069e-06	2.166704e-08	3.347930e+01	1.418996e+03
2.080000e-06	4.648433e-06	2.158395e-08	3.282514e+01	1.413283e+03
2.090000e-06	4.554119e-06	2.147945e-08	3.215914e+01	1.407464e+03
2.100000e-06	4.458149e-06	2.137390e-08	3.148144e+01	1.401238e+03
2.110000e-06	4.360690e-06	2.126879e-08	3.079324e+01	1.394363e+03
2.120000e-06	4.261847e-06	2.115175e-08	3.009525e+01	1.386731e+03
2.130000e-06	4.161453e-06	2.103946e-08	2.938631e+01	1.378408e+03
2.140000e-06	4.059488e-06	2.091221e-08	2.866628e+01	1.369609e+03
2.150000e-06	3.955958e-06	2.079432e-08	2.793520e+01	1.360636e+03
2.160000e-06	3.850996e-06	2.066511e-08	2.719401e+01	1.351775e+03
2.170000e-06	3.744777e-06	2.054079e-08	2.644394e+01	1.343204e+03
2.180000e-06	3.637304e-06	2.040770e-08	2.568501e+01	1.334925e+03
2.190000e-06	3.528500e-06	2.027416e-08	2.491669e+01	1.326754e+03
2.200000e-06	3.418413e-06	2.013374e-08	2.413930e+01	1.318371e+03
2.210000e-06	3.306940e-06	1.998593e-08	2.335213e+01	1.309410e+03
2.220000e-06	3.194110e-06	1.983204e-08	2.255537e+01	1.299578e+03
2.230000e-06	3.080128e-06	1.966969e-08	2.175048e+01	1.288743e+03
2.240000e-06	2.964898e-06	1.950519e-08	2.093678e+01	1.276980e+03
2.250000e-06	2.848429e-06	1.933332e-08	2.011433e+01	1.264556e+03
2.260000e-06	2.730868e-06	1.916037e-08	1.928416e+01	1.251838e+03
2.270000e-06	2.612194e-06	1.898200e-08	1.844614e+01	1.239182e+03
2.280000e-06	2.492404e-06	1.879928e-08	1.760024e+01	1.226804e+03
2.290000e-06	2.371694e-06	1.860505e-08	1.674784e+01	1.214697e+03
2.300000e-06	2.250247e-06	1.840282e-08	1.589023e+01	1.202612e+03
2.310000e-06	2.128133e-06	1.818965e-08	1.502792e+01	1.190117e+03
2.320000e-06	2.005324e-06	1.796976e-08	1.416070e+01	1.176719e+03
2.330000e-06	1.881789e-06	1.774183e-08	1.328835e+01	1.162007e+03
2.340000e-06	1.757530e-06	1.750366e-08	1.241089e+01	1.145782e+03
2.350000e-06	1.632617e-06	1.725423e-08	1.152881e+01	1.128122e+03
2.360000e-06	1.507208e-06	1.699243e-08	1.064323e+01	1.109361e+03
2.370000e-06	1.381416e-06	1.672049e-08	9.754941e+00	1.089975e+03
2.380000e-06	1.255238e-06	1.643585e-08	8.863928e+00	1.070419e+03
2.390000e-06	1.128664e-06	1.613970e-08	7.970115e+00	1.050942e+03
2.400000e-06	1.001657e-06	1.582563e-08	7.073254e+00	1.031464e+03
2.410000e-06	8.741976e-07	1.549155e-08	6.173191e+00	1.011529e+03
2.420000e-06	7.463502e-07	1.513420e-08	5.270390e+00	9.903896e+02
2.430000e-06	6.182130e-07	1.475317e-08	4.365542e+00	9.671757e+02
2.440000e-06	4.898628e-07	1.434898e-08	3.459191e+00	9.411236e+02
2.450000e-06	3.613365e-07	1.391947e-08	2.551596e+00	9.117834e+02
2.460000e-06	2.326044e-07	1.346151e-08	1.642548e+00	8.791349e+02
2.470000e-06	1.037455e-07	1.296625e-08	7.326038e-01	8.435607e+02
2.480000e-06	-2.512634e-08	1.242547e-08	-1.774309e-01	8.056586e+02
2.490000e-06	-1.539885e-07	1.183121e-08	-1.087397e+00	7.659260e+02
2.500000e-06	-2.827970e-07	1.117832e-08	-1.996986e+00	7.243921e+02
2.510000e-06	-4.115477e-07	1.046115e-08	-2.906165e+00	6.802993e+02
2.520000e-06	-5.401645e-07	9.666604e-09	-3.814399e+00	6.319382e+02
2.530000e-06	-6.685774e-07	8.775086e-09	-4.721193e+00	5.767141e+02
2.540000e-06	-7.968238e-07	7.761733e-09	-5.626812e+00	5.114714e+02
2.550000e-06	-9.248050e-07	6.594733e-09	-6.530558e+00	4.330386e+02
2.560000e-06	-1.052340e-06	5.235318e-09	-7.431150e+00	3.388994e+02
2.570000e-06	-1.179333e-06	3.640992e-09	-8.327918e+00	2.278502e+02
2.580000e-06	-1.305769e-06	1.775645e-09	-9.220758e+00	1.004968e+02
2.590000e-06	-1.431754e-06	-3.652314e-10	-1.011041e+01	-4.053483e+01
2.600000e-06	-1.557374e-06	-2.722178e-09	-1.099748e+01	-1.907415e+02
2.610000e-06	-1.682563e-06	-5.175658e-09	-1.188151e+01	-3.442357e+02
2.620000e-06	-1.807047e-06	-7.583025e-09	-1.276055e+01	-4.945066e+02
2.630000e-06	-1.930643e-06	-9.796073e-09	-1.363333e+01	-6.353086e+02
2.640000e-06	-2.053355e-06	-1.170974e-08	-1.449987e+01	-7.615076e+02
2.650000e-06	-2.175274e-06	-1.329516e-08	-1.536081e+01	-8.697245e+02
2.660000e-06	-2.296548e-06	-1.457725e-08	-1.621719e+01	-9.586586e+02
2.670000e-06	-2.417097e-06	-1.560845e-08	-1.706845e+01	-1.029044e+03
2.680000e-06	-2.536672e-06	-1.644249e-08	-1.791284e+01	-1.083268e+03
2.690000e-06	-2.655169e-06	-1.712335e-08	-1.874961e+01	-1.124754e+03
2.700000e-06	-2.772662e-06	-1.768480e-08	-1.957929e+01	-1.157249e+03
2.710000e-06	-2.889012e-06	-1.815446e-08	-2.040091e+01	-1.184161e+03
2.720000e-06	-3.004088e-06	-1.855610e-08	-2.121352e+01	-1.208086e+03
2.730000e-06	-3.117907e-06	-1.890649e-08	-2.201726e+01	-1.230580e+03
2.740000e-06	-3.230490e-06	-1.921542e-08	-2.281227e+01	-1.252201e+03
2.750000e-06	-3.341796e-06	-1.949023e-08	-2.359827e+01	-1.272760e+03
2.760000e-06	-3.451761e-06	-1.973719e-08	-2.437479e+01	-1.291689e+03
2.770000e-06	-3.560600e-06	-1.996258e-08	-2.514336e+01	-1.308414e+03
2.780000e-06	-3.668328e-06	-2.017139e-08	-2.590409e+01	-1.322645e+03
2.790000e-06	-3.774866e-06	-2.036539e-08	-2.665641e+01	-1.334511e+03
2.800000e-06	-3.880186e-06	-2.054550e-08	-2.740013e+01	-1.344536e+03
2.810000e-06	-3.984101e-06	-2.071468e-08	-2.813393e+01	-1.353483e+03
2.820000e-06	-4.086458e-06	-2.087383e-08	-2.885673e+01	-1.362132e+03
2.830000e-06	-4.187236e-06	-2.102243e-08	-2.956838e+01	-1.371070e+03
2.840000e-06	-4.286568e-06	-2.116289e-08	-3.026982e+01	-1.380548e+03
2.850000e-06	-4.384528e-06	-2.129627e-08	-3.096157e+01	-1.390455e+03
2.860000e-06	-4.481027e-06	-2.142197e-08	-3.164300e+01	-1.400394e+03
2.870000e-06	-4.575897e-06	-2.154030e-08	-3.231293e+01	-1.409840e+03
2.880000e-06	-4.669037e-06	-2.165306e-08	-3.297064e+01	-1.418321e+03
2.890000e-06	-4.760497e-06	-2.176111e-08	-3.361649e+01	-1.425571e+03
2.900000e-06	-4.850326e-06	-2.186342e-08	-3.425083e+01	-1.431605e+03
2.910000e-06	-4.938413e-06	-2.196045e-08	-3.487286e+01	-1.436706e+03
2.920000e-06	-5.024594e-06	-2.205323e-08	-3.548143e+01	-1.441327e+03
2.930000e-06	-5.108894e-06	-2.214126e-08	-3.607671e+01	-1.445951e+03
2.940000e-06	-5.191449e-06	-2.222506e-08	-3.665968e+01	-1.450950e+03
