# Temperatura_=_79.12
# Concentracion g/m^3_=_41000.0
# C_Vs_to_Am_M_A/Vsm_=_65563218390.804596
# pendiente_HvsI_1/m_=_3716.3
# ordenada_HvsI_A/m_=_1297.0
# frecuencia_Hz_=_301997.15151615965

Tiempo_(s)	Campo_(V.s)	Magnetizacion_(V.s)	Campo_(kA/m)	Magnetizacion_(A/m)
0.000000e+00	-6.727736e-06	-2.556080e-08	-4.746961e+01	-1.673939e+03
1.000000e-08	-6.724358e-06	-2.555561e-08	-4.744578e+01	-1.674044e+03
2.000000e-08	-6.718880e-06	-2.554778e-08	-4.740712e+01	-1.673744e+03
3.000000e-08	-6.711327e-06	-2.553641e-08	-4.735383e+01	-1.672977e+03
4.000000e-08	-6.701410e-06	-2.552353e-08	-4.728386e+01	-1.671797e+03
5.000000e-08	-6.688991e-06	-2.550965e-08	-4.719623e+01	-1.670354e+03
6.000000e-08	-6.674078e-06	-2.549325e-08	-4.709101e+01	-1.668849e+03
7.000000e-08	-6.656818e-06	-2.547221e-08	-4.696923e+01	-1.667470e+03
8.000000e-08	-6.637414e-06	-2.545552e-08	-4.683231e+01	-1.666337e+03
9.000000e-08	-6.615663e-06	-2.546281e-08	-4.667885e+01	-1.665464e+03
1.000000e-07	-6.591203e-06	-2.545378e-08	-4.650626e+01	-1.664755e+03
1.100000e-07	-6.564085e-06	-2.540704e-08	-4.631492e+01	-1.664039e+03
1.200000e-07	-6.534715e-06	-2.536471e-08	-4.610769e+01	-1.663120e+03
1.300000e-07	-6.503480e-06	-2.533491e-08	-4.588730e+01	-1.661840e+03
1.400000e-07	-6.470429e-06	-2.529184e-08	-4.565411e+01	-1.660124e+03
1.500000e-07	-6.435351e-06	-2.526750e-08	-4.540660e+01	-1.658005e+03
1.600000e-07	-6.398242e-06	-2.527533e-08	-4.514476e+01	-1.655603e+03
1.700000e-07	-6.359129e-06	-2.521476e-08	-4.486879e+01	-1.653090e+03
1.800000e-07	-6.317709e-06	-2.516860e-08	-4.457654e+01	-1.650629e+03
1.900000e-07	-6.273845e-06	-2.512998e-08	-4.426704e+01	-1.648318e+03
2.000000e-07	-6.227727e-06	-2.507741e-08	-4.394164e+01	-1.646158e+03
2.100000e-07	-6.179129e-06	-2.507025e-08	-4.359875e+01	-1.644055e+03
2.200000e-07	-6.127861e-06	-2.504347e-08	-4.323701e+01	-1.641839e+03
2.300000e-07	-6.074129e-06	-2.501101e-08	-4.285788e+01	-1.639328e+03
2.400000e-07	-6.018121e-06	-2.493109e-08	-4.246270e+01	-1.636380e+03
2.500000e-07	-5.959810e-06	-2.485665e-08	-4.205127e+01	-1.632941e+03
2.600000e-07	-5.899219e-06	-2.482324e-08	-4.162375e+01	-1.629060e+03
2.700000e-07	-5.836566e-06	-2.474142e-08	-4.118168e+01	-1.624880e+03
2.800000e-07	-5.771787e-06	-2.468193e-08	-4.072462e+01	-1.620588e+03
2.900000e-07	-5.704775e-06	-2.464659e-08	-4.025179e+01	-1.616358e+03
3.000000e-07	-5.635630e-06	-2.457094e-08	-3.976392e+01	-1.612292e+03
3.100000e-07	-5.564413e-06	-2.449648e-08	-3.926143e+01	-1.608388e+03
3.200000e-07	-5.491041e-06	-2.444155e-08	-3.874373e+01	-1.604538e+03
3.300000e-07	-5.415426e-06	-2.437956e-08	-3.821020e+01	-1.600559e+03
3.400000e-07	-5.337602e-06	-2.429260e-08	-3.766110e+01	-1.596248e+03
3.500000e-07	-5.257570e-06	-2.422316e-08	-3.709641e+01	-1.591450e+03
3.600000e-07	-5.175560e-06	-2.414391e-08	-3.651775e+01	-1.586102e+03
3.700000e-07	-5.091915e-06	-2.404986e-08	-3.592757e+01	-1.580259e+03
3.800000e-07	-5.006642e-06	-2.396975e-08	-3.532590e+01	-1.574072e+03
3.900000e-07	-4.919741e-06	-2.387622e-08	-3.471275e+01	-1.567747e+03
4.000000e-07	-4.831256e-06	-2.378725e-08	-3.408841e+01	-1.561472e+03
4.100000e-07	-4.741024e-06	-2.369781e-08	-3.345175e+01	-1.555362e+03
4.200000e-07	-4.649052e-06	-2.360283e-08	-3.280282e+01	-1.549414e+03
4.300000e-07	-4.555485e-06	-2.350047e-08	-3.214263e+01	-1.543508e+03
4.400000e-07	-4.460362e-06	-2.339168e-08	-3.147146e+01	-1.537438e+03
4.500000e-07	-4.363634e-06	-2.328032e-08	-3.078896e+01	-1.530978e+03
4.600000e-07	-4.265173e-06	-2.316620e-08	-3.009424e+01	-1.523947e+03
4.700000e-07	-4.165155e-06	-2.305607e-08	-2.938854e+01	-1.516270e+03
4.800000e-07	-4.063721e-06	-2.294194e-08	-2.867284e+01	-1.508002e+03
4.900000e-07	-3.960864e-06	-2.282598e-08	-2.794709e+01	-1.499308e+03
5.000000e-07	-3.856642e-06	-2.269936e-08	-2.721173e+01	-1.490410e+03
5.100000e-07	-3.750937e-06	-2.256546e-08	-2.646589e+01	-1.481515e+03
5.200000e-07	-3.643750e-06	-2.242815e-08	-2.570960e+01	-1.472742e+03
5.300000e-07	-3.535252e-06	-2.228441e-08	-2.494406e+01	-1.464076e+03
5.400000e-07	-3.425537e-06	-2.213355e-08	-2.416993e+01	-1.455363e+03
5.500000e-07	-3.314625e-06	-2.197539e-08	-2.338736e+01	-1.446354e+03
5.600000e-07	-3.202495e-06	-2.181364e-08	-2.259619e+01	-1.436773e+03
5.700000e-07	-3.089000e-06	-2.164660e-08	-2.179539e+01	-1.426403e+03
5.800000e-07	-2.974041e-06	-2.148101e-08	-2.098426e+01	-1.415156e+03
5.900000e-07	-2.857802e-06	-2.131415e-08	-2.016410e+01	-1.403095e+03
6.000000e-07	-2.740442e-06	-2.114168e-08	-1.933603e+01	-1.390422e+03
6.100000e-07	-2.622140e-06	-2.095809e-08	-1.850132e+01	-1.377403e+03
6.200000e-07	-2.502974e-06	-2.076035e-08	-1.766050e+01	-1.364281e+03
6.300000e-07	-2.382858e-06	-2.055009e-08	-1.681299e+01	-1.351185e+03
6.400000e-07	-2.261807e-06	-2.033219e-08	-1.595888e+01	-1.338070e+03
6.500000e-07	-2.139928e-06	-2.010723e-08	-1.509892e+01	-1.324713e+03
6.600000e-07	-2.017225e-06	-1.987374e-08	-1.423315e+01	-1.310765e+03
6.700000e-07	-1.893700e-06	-1.963425e-08	-1.336159e+01	-1.295844e+03
6.800000e-07	-1.769533e-06	-1.938522e-08	-1.248548e+01	-1.279651e+03
6.900000e-07	-1.644826e-06	-1.912723e-08	-1.160557e+01	-1.262054e+03
7.000000e-07	-1.519642e-06	-1.885798e-08	-1.072230e+01	-1.243131e+03
7.100000e-07	-1.393984e-06	-1.857472e-08	-9.835684e+00	-1.223138e+03
7.200000e-07	-1.267858e-06	-1.827517e-08	-8.945762e+00	-1.202413e+03
7.300000e-07	-1.141382e-06	-1.795752e-08	-8.053373e+00	-1.181244e+03
7.400000e-07	-1.014607e-06	-1.762069e-08	-7.158871e+00	-1.159735e+03
7.500000e-07	-8.875020e-07	-1.726485e-08	-6.262044e+00	-1.137716e+03
7.600000e-07	-7.600645e-07	-1.688943e-08	-5.362869e+00	-1.114733e+03
7.700000e-07	-6.323082e-07	-1.649083e-08	-4.461445e+00	-1.090124e+03
7.800000e-07	-5.042616e-07	-1.606790e-08	-3.557973e+00	-1.063168e+03
7.900000e-07	-3.759693e-07	-1.561665e-08	-2.652767e+00	-1.033259e+03
8.000000e-07	-2.475320e-07	-1.513074e-08	-1.746538e+00	-1.000058e+03
8.100000e-07	-1.190146e-07	-1.460194e-08	-8.397441e-01	-9.635535e+02
8.200000e-07	9.620380e-09	-1.402520e-08	6.787955e-02	-9.240020e+02
8.300000e-07	1.382826e-07	-1.339869e-08	9.756955e-01	-8.817464e+02
8.400000e-07	2.668806e-07	-1.271568e-08	1.883058e+00	-8.369369e+02
8.500000e-07	3.954503e-07	-1.196682e-08	2.790221e+00	-7.892315e+02
8.600000e-07	5.238894e-07	-1.113881e-08	3.696463e+00	-7.375595e+02
8.700000e-07	6.521709e-07	-1.021678e-08	4.601592e+00	-6.800344e+02
8.800000e-07	7.803281e-07	-9.179601e-09	5.505845e+00	-6.140725e+02
8.900000e-07	9.081617e-07	-7.995950e-09	6.407814e+00	-5.367319e+02
9.000000e-07	1.035512e-06	-6.629410e-09	7.306370e+00	-4.452289e+02
9.100000e-07	1.162466e-06	-5.036863e-09	8.202137e+00	-3.375428e+02
9.200000e-07	1.289045e-06	-3.172527e-09	9.095251e+00	-2.129850e+02
9.300000e-07	1.415228e-06	-1.014591e-09	9.985579e+00	-7.260606e+01
9.400000e-07	1.541006e-06	1.359036e-09	1.087304e+01	8.066382e+01
9.500000e-07	1.666312e-06	3.806628e-09	1.175718e+01	2.421932e+02
9.600000e-07	1.791131e-06	6.259045e-09	1.263787e+01	4.061345e+02
9.700000e-07	1.915346e-06	8.699786e-09	1.351431e+01	5.661387e+02
9.800000e-07	2.038802e-06	1.103541e-08	1.438539e+01	7.161724e+02
9.900000e-07	2.161388e-06	1.310237e-08	1.525034e+01	8.512861e+02
1.000000e-06	2.283144e-06	1.481800e-08	1.610942e+01	9.681943e+02
1.010000e-06	2.404078e-06	1.620967e-08	1.696271e+01	1.065565e+03
1.020000e-06	2.523994e-06	1.733465e-08	1.780881e+01	1.143978e+03
1.030000e-06	2.642859e-06	1.824910e-08	1.864751e+01	1.205588e+03
1.040000e-06	2.760780e-06	1.899835e-08	1.947953e+01	1.253565e+03
1.050000e-06	2.877717e-06	1.961656e-08	2.030462e+01	1.291448e+03
1.060000e-06	2.993529e-06	2.013275e-08	2.112176e+01	1.322549e+03
1.070000e-06	3.108111e-06	2.057005e-08	2.193023e+01	1.349500e+03
1.080000e-06	3.221462e-06	2.094768e-08	2.273002e+01	1.374024e+03
1.090000e-06	3.333541e-06	2.127878e-08	2.352082e+01	1.396946e+03
1.100000e-06	3.444409e-06	2.157122e-08	2.430308e+01	1.418379e+03
1.110000e-06	3.554211e-06	2.183518e-08	2.507783e+01	1.438032e+03
1.120000e-06	3.662872e-06	2.207707e-08	2.584452e+01	1.455535e+03
1.130000e-06	3.770251e-06	2.230111e-08	2.660217e+01	1.470689e+03
1.140000e-06	3.876334e-06	2.250912e-08	2.735067e+01	1.483609e+03
1.150000e-06	3.981012e-06	2.270151e-08	2.808926e+01	1.494721e+03
1.160000e-06	4.084171e-06	2.287922e-08	2.881712e+01	1.504651e+03
1.170000e-06	4.185936e-06	2.304286e-08	2.953516e+01	1.514052e+03
1.180000e-06	4.286292e-06	2.319512e-08	3.024325e+01	1.523433e+03
1.190000e-06	4.385069e-06	2.333815e-08	3.094020e+01	1.533040e+03
1.200000e-06	4.482170e-06	2.347386e-08	3.162533e+01	1.542826e+03
1.210000e-06	4.577560e-06	2.360255e-08	3.229839e+01	1.552505e+03
1.220000e-06	4.671348e-06	2.372419e-08	3.296013e+01	1.561679e+03
1.230000e-06	4.763575e-06	2.383882e-08	3.361087e+01	1.569978e+03
1.240000e-06	4.854188e-06	2.394771e-08	3.425022e+01	1.577187e+03
1.250000e-06	4.943015e-06	2.404940e-08	3.487696e+01	1.583316e+03
1.260000e-06	5.029995e-06	2.414297e-08	3.549068e+01	1.588587e+03
1.270000e-06	5.115287e-06	2.423013e-08	3.609248e+01	1.593364e+03
1.280000e-06	5.198851e-06	2.431347e-08	3.668209e+01	1.598044e+03
1.290000e-06	5.280536e-06	2.439546e-08	3.725844e+01	1.602938e+03
1.300000e-06	5.360194e-06	2.447538e-08	3.782050e+01	1.608188e+03
1.310000e-06	5.437818e-06	2.455210e-08	3.836820e+01	1.613743e+03
1.320000e-06	5.513414e-06	2.462612e-08	3.890159e+01	1.619388e+03
1.330000e-06	5.586903e-06	2.469730e-08	3.942011e+01	1.624825e+03
1.340000e-06	5.658285e-06	2.476414e-08	3.992377e+01	1.629775e+03
1.350000e-06	5.727635e-06	2.482648e-08	4.041309e+01	1.634067e+03
1.360000e-06	5.794980e-06	2.488518e-08	4.088826e+01	1.637685e+03
1.370000e-06	5.860179e-06	2.494211e-08	4.134830e+01	1.640770e+03
1.380000e-06	5.923313e-06	2.499790e-08	4.179376e+01	1.643566e+03
1.390000e-06	5.984517e-06	2.505242e-08	4.222560e+01	1.646343e+03
1.400000e-06	6.043656e-06	2.510562e-08	4.264287e+01	1.649307e+03
1.410000e-06	6.100581e-06	2.515552e-08	4.304453e+01	1.652541e+03
1.420000e-06	6.155289e-06	2.519925e-08	4.343053e+01	1.655982e+03
1.430000e-06	6.207683e-06	2.523802e-08	4.380022e+01	1.659442e+03
1.440000e-06	6.257567e-06	2.527523e-08	4.415219e+01	1.662680e+03
1.450000e-06	6.304990e-06	2.531060e-08	4.448680e+01	1.665471e+03
1.460000e-06	6.350201e-06	2.534486e-08	4.480580e+01	1.667686e+03
1.470000e-06	6.393299e-06	2.537715e-08	4.510989e+01	1.669324e+03
1.480000e-06	6.434063e-06	2.540575e-08	4.539751e+01	1.670518e+03
1.490000e-06	6.472466e-06	2.543152e-08	4.566848e+01	1.671488e+03
1.500000e-06	6.508717e-06	2.545527e-08	4.592425e+01	1.672474e+03
1.510000e-06	6.542707e-06	2.547757e-08	4.616408e+01	1.673659e+03
1.520000e-06	6.574301e-06	2.549873e-08	4.638701e+01	1.675121e+03
1.530000e-06	6.603640e-06	2.551907e-08	4.659401e+01	1.676804e+03
1.540000e-06	6.630800e-06	2.553705e-08	4.678565e+01	1.678546e+03
1.550000e-06	6.655490e-06	2.555209e-08	4.695986e+01	1.680130e+03
1.560000e-06	6.677681e-06	2.556434e-08	4.711643e+01	1.681351e+03
1.570000e-06	6.697618e-06	2.557542e-08	4.725710e+01	1.682086e+03
1.580000e-06	6.715189e-06	2.558639e-08	4.738109e+01	1.682328e+03
1.590000e-06	6.730242e-06	2.559601e-08	4.748729e+01	1.682184e+03
1.600000e-06	6.742734e-06	2.560425e-08	4.757543e+01	1.681849e+03
1.610000e-06	6.752595e-06	2.561038e-08	4.764501e+01	1.681533e+03
1.620000e-06	6.759866e-06	2.561544e-08	4.769632e+01	1.681406e+03
1.630000e-06	6.764792e-06	2.561874e-08	4.773107e+01	1.681537e+03
1.640000e-06	6.767409e-06	2.561817e-08	4.774954e+01	1.681881e+03
1.650000e-06	6.767581e-06	2.561594e-08	4.775075e+01	1.682290e+03
1.660000e-06	6.765483e-06	2.561260e-08	4.773594e+01	1.682563e+03
1.670000e-06	6.761245e-06	2.560594e-08	4.770605e+01	1.682511e+03
1.680000e-06	6.754664e-06	2.559983e-08	4.765961e+01	1.682013e+03
1.690000e-06	6.745855e-06	2.559302e-08	4.759745e+01	1.681057e+03
1.700000e-06	6.734990e-06	2.558461e-08	4.752079e+01	1.679743e+03
1.710000e-06	6.721790e-06	2.557572e-08	4.742766e+01	1.678250e+03
1.720000e-06	6.706216e-06	2.556814e-08	4.731777e+01	1.676780e+03
1.730000e-06	6.688558e-06	2.555074e-08	4.719318e+01	1.675500e+03
1.740000e-06	6.668564e-06	2.549375e-08	4.705211e+01	1.674485e+03
1.750000e-06	6.645468e-06	2.546433e-08	4.688914e+01	1.673700e+03
1.760000e-06	6.619319e-06	2.547138e-08	4.670464e+01	1.673014e+03
1.770000e-06	6.590782e-06	2.546556e-08	4.650329e+01	1.672235e+03
1.780000e-06	6.560197e-06	2.545889e-08	4.628749e+01	1.671178e+03
1.790000e-06	6.528074e-06	2.546252e-08	4.606083e+01	1.669716e+03
1.800000e-06	6.494330e-06	2.540914e-08	4.582274e+01	1.667819e+03
1.810000e-06	6.458231e-06	2.540147e-08	4.556804e+01	1.665561e+03
1.820000e-06	6.419763e-06	2.539592e-08	4.529661e+01	1.663092e+03
1.830000e-06	6.379097e-06	2.533697e-08	4.500968e+01	1.660585e+03
1.840000e-06	6.336263e-06	2.534640e-08	4.470746e+01	1.658183e+03
1.850000e-06	6.291408e-06	2.527251e-08	4.439096e+01	1.655944e+03
1.860000e-06	6.244162e-06	2.521256e-08	4.405760e+01	1.653827e+03
1.870000e-06	6.194539e-06	2.517515e-08	4.370747e+01	1.651700e+03
1.880000e-06	6.142652e-06	2.509835e-08	4.334137e+01	1.649381e+03
1.890000e-06	6.088123e-06	2.512210e-08	4.295663e+01	1.646697e+03
1.900000e-06	6.031165e-06	2.505459e-08	4.255474e+01	1.643541e+03
1.910000e-06	5.971993e-06	2.500404e-08	4.213724e+01	1.639901e+03
1.920000e-06	5.910589e-06	2.499891e-08	4.170398e+01	1.635873e+03
1.930000e-06	5.846970e-06	2.488747e-08	4.125510e+01	1.631623e+03
1.940000e-06	5.781180e-06	2.485118e-08	4.079090e+01	1.627341e+03
1.950000e-06	5.713322e-06	2.478862e-08	4.031210e+01	1.623175e+03
1.960000e-06	5.643204e-06	2.472813e-08	3.981736e+01	1.619187e+03
1.970000e-06	5.570856e-06	2.466678e-08	3.930689e+01	1.615327e+03
1.980000e-06	5.496501e-06	2.458615e-08	3.878225e+01	1.611448e+03
1.990000e-06	5.419982e-06	2.453572e-08	3.824235e+01	1.607351e+03
2.000000e-06	5.341276e-06	2.443982e-08	3.768702e+01	1.602848e+03
2.010000e-06	5.260582e-06	2.438578e-08	3.711766e+01	1.597817e+03
2.020000e-06	5.178168e-06	2.430060e-08	3.653616e+01	1.592245e+03
2.030000e-06	5.094055e-06	2.421423e-08	3.594267e+01	1.586233e+03
2.040000e-06	5.007975e-06	2.413813e-08	3.533531e+01	1.579963e+03
2.050000e-06	4.920010e-06	2.403469e-08	3.471465e+01	1.573641e+03
2.060000e-06	4.830416e-06	2.395398e-08	3.408249e+01	1.567430e+03
2.070000e-06	4.739288e-06	2.385154e-08	3.343950e+01	1.561399e+03
2.080000e-06	4.646554e-06	2.376840e-08	3.278519e+01	1.555491e+03
2.090000e-06	4.552028e-06	2.367082e-08	3.211824e+01	1.549545e+03
2.100000e-06	4.455861e-06	2.357010e-08	3.143970e+01	1.543335e+03
2.110000e-06	4.358320e-06	2.346188e-08	3.075147e+01	1.536649e+03
2.120000e-06	4.259380e-06	2.334408e-08	3.005336e+01	1.529344e+03
2.130000e-06	4.158932e-06	2.322523e-08	2.934463e+01	1.521402e+03
2.140000e-06	4.056796e-06	2.309869e-08	2.862397e+01	1.512928e+03
2.150000e-06	3.952994e-06	2.298513e-08	2.789157e+01	1.504120e+03
2.160000e-06	3.847805e-06	2.286100e-08	2.714937e+01	1.495203e+03
2.170000e-06	3.741334e-06	2.273728e-08	2.639814e+01	1.486355e+03
2.180000e-06	3.633648e-06	2.260348e-08	2.563832e+01	1.477639e+03
2.190000e-06	3.524754e-06	2.246741e-08	2.486998e+01	1.468980e+03
2.200000e-06	3.414506e-06	2.232378e-08	2.409210e+01	1.460176e+03
2.210000e-06	3.302832e-06	2.217618e-08	2.330415e+01	1.450955e+03
2.220000e-06	3.189854e-06	2.202005e-08	2.250700e+01	1.441058e+03
2.230000e-06	3.075691e-06	2.185403e-08	2.170149e+01	1.430316e+03
2.240000e-06	2.960367e-06	2.168468e-08	2.088778e+01	1.418705e+03
2.250000e-06	2.843848e-06	2.150928e-08	2.006565e+01	1.406353e+03
2.260000e-06	2.726067e-06	2.133108e-08	1.923461e+01	1.393499e+03
2.270000e-06	2.607058e-06	2.114655e-08	1.839490e+01	1.380413e+03
2.280000e-06	2.486999e-06	2.095761e-08	1.754778e+01	1.367297e+03
2.290000e-06	2.366132e-06	2.075702e-08	1.669497e+01	1.354211e+03
2.300000e-06	2.244564e-06	2.054526e-08	1.583721e+01	1.341030e+03
2.310000e-06	2.122280e-06	2.032055e-08	1.497440e+01	1.327469e+03
2.320000e-06	1.999316e-06	2.008806e-08	1.410679e+01	1.313150e+03
2.330000e-06	1.875675e-06	1.984638e-08	1.323440e+01	1.297714e+03
2.340000e-06	1.751379e-06	1.959561e-08	1.235740e+01	1.280925e+03
2.350000e-06	1.626496e-06	1.933360e-08	1.147625e+01	1.262740e+03
2.360000e-06	1.501057e-06	1.905702e-08	1.059117e+01	1.243321e+03
2.370000e-06	1.375095e-06	1.876603e-08	9.702403e+00	1.222973e+03
2.380000e-06	1.248668e-06	1.845907e-08	8.810361e+00	1.202032e+03
2.390000e-06	1.121763e-06	1.813553e-08	7.914942e+00	1.180721e+03
2.400000e-06	9.943725e-07	1.779385e-08	7.016101e+00	1.159033e+03
2.410000e-06	8.665819e-07	1.743310e-08	6.114435e+00	1.136673e+03
2.420000e-06	7.384603e-07	1.704817e-08	5.210434e+00	1.113083e+03
2.430000e-06	6.100864e-07	1.663809e-08	4.304652e+00	1.087555e+03
2.440000e-06	4.815569e-07	1.619971e-08	3.397773e+00	1.059397e+03
2.450000e-06	3.529202e-07	1.573208e-08	2.490137e+00	1.028102e+03
2.460000e-06	2.241770e-07	1.522987e-08	1.581750e+00	9.934692e+02
2.470000e-06	9.536265e-08	1.468505e-08	6.728606e-01	9.556181e+02
2.480000e-06	-3.349912e-08	1.409321e-08	-2.363634e-01	9.148716e+02
2.490000e-06	-1.623947e-07	1.344708e-08	-1.145826e+00	8.715267e+02
2.500000e-06	-2.912677e-07	1.273896e-08	-2.055129e+00	8.255579e+02
2.510000e-06	-4.200463e-07	1.195838e-08	-2.963766e+00	7.763329e+02
2.520000e-06	-5.487270e-07	1.109583e-08	-3.871712e+00	7.224308e+02
2.530000e-06	-6.773080e-07	1.013270e-08	-4.778955e+00	6.616388e+02
2.540000e-06	-8.056952e-07	9.043299e-09	-5.684830e+00	5.911663e+02
2.550000e-06	-9.337984e-07	7.797149e-09	-6.588702e+00	5.080681e+02
2.560000e-06	-1.061466e-06	6.357655e-09	-7.489497e+00	4.098126e+02
2.570000e-06	-1.188608e-06	4.679871e-09	-8.386589e+00	2.948869e+02
2.580000e-06	-1.315248e-06	2.714361e-09	-9.280138e+00	1.633117e+02
2.590000e-06	-1.441428e-06	4.544880e-10	-1.017044e+01	1.694394e+01
2.600000e-06	-1.567154e-06	-1.999064e-09	-1.105754e+01	-1.405164e+02
2.610000e-06	-1.692334e-06	-4.511255e-09	-1.194078e+01	-3.038414e+02
2.620000e-06	-1.816786e-06	-7.027517e-09	-1.281889e+01	-4.668717e+02
2.630000e-06	-1.940367e-06	-9.502353e-09	-1.369086e+01	-6.232930e+02
2.640000e-06	-2.063126e-06	-1.179228e-08	-1.455702e+01	-7.674503e+02
2.650000e-06	-2.185121e-06	-1.375318e-08	-1.541779e+01	-8.950515e+02
2.660000e-06	-2.306413e-06	-1.536230e-08	-1.627361e+01	-1.003632e+03
2.670000e-06	-2.426989e-06	-1.666457e-08	-1.712437e+01	-1.092703e+03
2.680000e-06	-2.546596e-06	-1.771644e-08	-1.796829e+01	-1.163576e+03
2.690000e-06	-2.665134e-06	-1.857041e-08	-1.880467e+01	-1.218917e+03
2.700000e-06	-2.782656e-06	-1.927094e-08	-1.963388e+01	-1.262133e+03
2.710000e-06	-2.899002e-06	-1.985257e-08	-2.045480e+01	-1.296735e+03
2.720000e-06	-3.014078e-06	-2.034092e-08	-2.126676e+01	-1.325784e+03
2.730000e-06	-3.127901e-06	-2.075826e-08	-2.206987e+01	-1.351537e+03
2.740000e-06	-3.240461e-06	-2.112145e-08	-2.286407e+01	-1.375320e+03
2.750000e-06	-3.351722e-06	-2.144147e-08	-2.364911e+01	-1.397619e+03
2.760000e-06	-3.461670e-06	-2.172609e-08	-2.442488e+01	-1.418335e+03
2.770000e-06	-3.570499e-06	-2.198064e-08	-2.519275e+01	-1.437105e+03
2.780000e-06	-3.678202e-06	-2.221177e-08	-2.595269e+01	-1.453607e+03
2.790000e-06	-3.784704e-06	-2.242661e-08	-2.670414e+01	-1.467769e+03
2.800000e-06	-3.889972e-06	-2.262691e-08	-2.744690e+01	-1.479845e+03
2.810000e-06	-3.993845e-06	-2.281287e-08	-2.817980e+01	-1.490367e+03
2.820000e-06	-4.096237e-06	-2.298505e-08	-2.890226e+01	-1.499993e+03
2.830000e-06	-4.197078e-06	-2.314386e-08	-2.961377e+01	-1.509335e+03
2.840000e-06	-4.296381e-06	-2.329211e-08	-3.031444e+01	-1.518798e+03
2.850000e-06	-4.394258e-06	-2.343196e-08	-3.100504e+01	-1.528502e+03
2.860000e-06	-4.490684e-06	-2.356349e-08	-3.168540e+01	-1.538286e+03
2.870000e-06	-4.585478e-06	-2.368876e-08	-3.235425e+01	-1.547798e+03
2.880000e-06	-4.678531e-06	-2.380742e-08	-3.301082e+01	-1.556633e+03
2.890000e-06	-4.769928e-06	-2.391795e-08	-3.365569e+01	-1.564478e+03
2.900000e-06	-4.859731e-06	-2.402208e-08	-3.428933e+01	-1.571208e+03
2.910000e-06	-4.947769e-06	-2.412062e-08	-3.491051e+01	-1.576930e+03
2.920000e-06	-5.033952e-06	-2.421375e-08	-3.551860e+01	-1.581938e+03
2.930000e-06	-5.118234e-06	-2.430104e-08	-3.611327e+01	-1.586626e+03
2.940000e-06	-5.200656e-06	-2.438413e-08	-3.669483e+01	-1.591367e+03
