# Temperatura_=_49.29
# Concentracion g/m^3_=_41000.0
# C_Vs_to_Am_M_A/Vsm_=_65563218390.804596
# pendiente_HvsI_1/m_=_3716.3
# ordenada_HvsI_A/m_=_1297.0
# frecuencia_Hz_=_302000.29069529136

Tiempo_(s)	Campo_(V.s)	Magnetizacion_(V.s)	Campo_(kA/m)	Magnetizacion_(A/m)
0.000000e+00	-6.766167e-06	-2.553256e-08	-4.746882e+01	-1.671283e+03
1.000000e-08	-6.763195e-06	-2.552936e-08	-4.744797e+01	-1.671607e+03
2.000000e-08	-6.757988e-06	-2.552201e-08	-4.741144e+01	-1.671676e+03
3.000000e-08	-6.750645e-06	-2.551305e-08	-4.735993e+01	-1.671328e+03
4.000000e-08	-6.741030e-06	-2.550214e-08	-4.729247e+01	-1.670497e+03
5.000000e-08	-6.728946e-06	-2.548651e-08	-4.720769e+01	-1.669240e+03
6.000000e-08	-6.714312e-06	-2.546916e-08	-4.710503e+01	-1.667715e+03
7.000000e-08	-6.697278e-06	-2.544599e-08	-4.698552e+01	-1.666137e+03
8.000000e-08	-6.678087e-06	-2.542850e-08	-4.685089e+01	-1.664712e+03
9.000000e-08	-6.656651e-06	-2.545379e-08	-4.670050e+01	-1.663573e+03
1.000000e-07	-6.632580e-06	-2.544786e-08	-4.653163e+01	-1.662743e+03
1.100000e-07	-6.605721e-06	-2.539317e-08	-4.634320e+01	-1.662132e+03
1.200000e-07	-6.576477e-06	-2.536493e-08	-4.613803e+01	-1.661562e+03
1.300000e-07	-6.545337e-06	-2.532999e-08	-4.591957e+01	-1.660826e+03
1.400000e-07	-6.512377e-06	-2.523216e-08	-4.568833e+01	-1.659748e+03
1.500000e-07	-6.477435e-06	-2.523178e-08	-4.544319e+01	-1.658239e+03
1.600000e-07	-6.440456e-06	-2.528527e-08	-4.518376e+01	-1.656313e+03
1.700000e-07	-6.401475e-06	-2.518539e-08	-4.491029e+01	-1.654083e+03
1.800000e-07	-6.360229e-06	-2.521431e-08	-4.462092e+01	-1.651713e+03
1.900000e-07	-6.316478e-06	-2.518133e-08	-4.431398e+01	-1.649365e+03
2.000000e-07	-6.270426e-06	-2.505425e-08	-4.399089e+01	-1.647143e+03
2.100000e-07	-6.221959e-06	-2.508821e-08	-4.365087e+01	-1.645055e+03
2.200000e-07	-6.170762e-06	-2.506551e-08	-4.329169e+01	-1.643010e+03
2.300000e-07	-6.117059e-06	-2.502534e-08	-4.291493e+01	-1.640849e+03
2.400000e-07	-6.061045e-06	-2.495619e-08	-4.252196e+01	-1.638396e+03
2.500000e-07	-6.002643e-06	-2.487340e-08	-4.211224e+01	-1.635513e+03
2.600000e-07	-5.942015e-06	-2.483737e-08	-4.168689e+01	-1.632154e+03
2.700000e-07	-5.879339e-06	-2.477730e-08	-4.124718e+01	-1.628377e+03
2.800000e-07	-5.814510e-06	-2.474940e-08	-4.079236e+01	-1.624330e+03
2.900000e-07	-5.747389e-06	-2.469789e-08	-4.032147e+01	-1.620205e+03
3.000000e-07	-5.678041e-06	-2.461596e-08	-3.983495e+01	-1.616178e+03
3.100000e-07	-5.606655e-06	-2.455218e-08	-3.933414e+01	-1.612350e+03
3.200000e-07	-5.533151e-06	-2.449618e-08	-3.881845e+01	-1.608713e+03
3.300000e-07	-5.457413e-06	-2.446363e-08	-3.828711e+01	-1.605147e+03
3.400000e-07	-5.379481e-06	-2.438170e-08	-3.774037e+01	-1.601456e+03
3.500000e-07	-5.299317e-06	-2.430378e-08	-3.717797e+01	-1.597427e+03
3.600000e-07	-5.217190e-06	-2.422998e-08	-3.660180e+01	-1.592892e+03
3.700000e-07	-5.133421e-06	-2.414613e-08	-3.601410e+01	-1.587786e+03
3.800000e-07	-5.048010e-06	-2.408909e-08	-3.541490e+01	-1.582164e+03
3.900000e-07	-4.960979e-06	-2.401915e-08	-3.480432e+01	-1.576186e+03
4.000000e-07	-4.872207e-06	-2.393714e-08	-3.418153e+01	-1.570066e+03
4.100000e-07	-4.781608e-06	-2.382960e-08	-3.354592e+01	-1.564004e+03
4.200000e-07	-4.689341e-06	-2.372975e-08	-3.289861e+01	-1.558120e+03
4.300000e-07	-4.595457e-06	-2.363890e-08	-3.223996e+01	-1.552411e+03
4.400000e-07	-4.499991e-06	-2.354478e-08	-3.157020e+01	-1.546751e+03
4.500000e-07	-4.402877e-06	-2.344910e-08	-3.088889e+01	-1.540923e+03
4.600000e-07	-4.304061e-06	-2.333792e-08	-3.019563e+01	-1.534686e+03
4.700000e-07	-4.203645e-06	-2.322439e-08	-2.949116e+01	-1.527851e+03
4.800000e-07	-4.101842e-06	-2.310869e-08	-2.877694e+01	-1.520336e+03
4.900000e-07	-3.998684e-06	-2.300102e-08	-2.805323e+01	-1.512197e+03
5.000000e-07	-3.893994e-06	-2.289033e-08	-2.731876e+01	-1.503610e+03
5.100000e-07	-3.787803e-06	-2.277047e-08	-2.657377e+01	-1.494811e+03
5.200000e-07	-3.680166e-06	-2.263648e-08	-2.581862e+01	-1.486021e+03
5.300000e-07	-3.571235e-06	-2.249361e-08	-2.505441e+01	-1.477369e+03
5.400000e-07	-3.461158e-06	-2.235014e-08	-2.428215e+01	-1.468841e+03
5.500000e-07	-3.349850e-06	-2.220370e-08	-2.350126e+01	-1.460275e+03
5.600000e-07	-3.237161e-06	-2.205820e-08	-2.271067e+01	-1.451405e+03
5.700000e-07	-3.123041e-06	-2.190450e-08	-2.191005e+01	-1.441934e+03
5.800000e-07	-3.007535e-06	-2.174335e-08	-2.109970e+01	-1.431626e+03
5.900000e-07	-2.890781e-06	-2.157329e-08	-2.028060e+01	-1.420380e+03
6.000000e-07	-2.772943e-06	-2.139855e-08	-1.945390e+01	-1.408261e+03
6.100000e-07	-2.654185e-06	-2.121620e-08	-1.862074e+01	-1.395481e+03
6.200000e-07	-2.534518e-06	-2.102686e-08	-1.778120e+01	-1.382329e+03
6.300000e-07	-2.413757e-06	-2.083001e-08	-1.693399e+01	-1.369075e+03
6.400000e-07	-2.292060e-06	-2.062347e-08	-1.608021e+01	-1.355870e+03
6.500000e-07	-2.169655e-06	-2.040992e-08	-1.522147e+01	-1.342679e+03
6.600000e-07	-2.046454e-06	-2.018672e-08	-1.435713e+01	-1.329275e+03
6.700000e-07	-1.922454e-06	-1.995441e-08	-1.348720e+01	-1.315287e+03
6.800000e-07	-1.797813e-06	-1.971031e-08	-1.261276e+01	-1.300302e+03
6.900000e-07	-1.672570e-06	-1.945618e-08	-1.173410e+01	-1.283983e+03
7.000000e-07	-1.546765e-06	-1.919186e-08	-1.085151e+01	-1.266171e+03
7.100000e-07	-1.420516e-06	-1.891558e-08	-9.965793e+00	-1.246927e+03
7.200000e-07	-1.293907e-06	-1.862643e-08	-9.077553e+00	-1.226515e+03
7.300000e-07	-1.166920e-06	-1.832205e-08	-8.186658e+00	-1.205302e+03
7.400000e-07	-1.039501e-06	-1.799872e-08	-7.292738e+00	-1.183616e+03
7.500000e-07	-9.116742e-07	-1.765592e-08	-6.395955e+00	-1.161607e+03
7.600000e-07	-7.834623e-07	-1.729691e-08	-5.496470e+00	-1.139144e+03
7.700000e-07	-6.549239e-07	-1.691737e-08	-4.594694e+00	-1.115792e+03
7.800000e-07	-5.261714e-07	-1.651446e-08	-3.691416e+00	-1.090883e+03
7.900000e-07	-3.972260e-07	-1.608624e-08	-2.786785e+00	-1.063669e+03
8.000000e-07	-2.680903e-07	-1.562707e-08	-1.880818e+00	-1.033505e+03
8.100000e-07	-1.388053e-07	-1.513055e-08	-9.738047e-01	-1.000019e+03
8.200000e-07	-9.414866e-09	-1.459409e-08	-6.605107e-02	-9.631882e+02
8.300000e-07	1.200121e-07	-1.401737e-08	8.419584e-01	-9.233008e+02
8.400000e-07	2.494621e-07	-1.339477e-08	1.750130e+00	-8.807795e+02
8.500000e-07	3.788834e-07	-1.271744e-08	2.658100e+00	-8.359038e+02
8.600000e-07	5.081698e-07	-1.197544e-08	3.565123e+00	-7.884957e+02
8.700000e-07	6.372848e-07	-1.115913e-08	4.470945e+00	-7.376601e+02
8.800000e-07	7.662071e-07	-1.025557e-08	5.375414e+00	-6.816649e+02
8.900000e-07	8.948757e-07	-9.245606e-09	6.278103e+00	-6.180287e+02
9.000000e-07	1.023126e-06	-8.100615e-09	7.177855e+00	-5.438307e+02
9.100000e-07	1.150840e-06	-6.785949e-09	8.073850e+00	-4.562120e+02
9.200000e-07	1.278099e-06	-5.264395e-09	8.966649e+00	-3.529780e+02
9.300000e-07	1.404980e-06	-3.493763e-09	9.856798e+00	-2.331818e+02
9.400000e-07	1.531468e-06	-1.445069e-09	1.074419e+01	-9.755883e+01
9.500000e-07	1.657488e-06	8.492509e-10	1.162829e+01	5.129572e+01
9.600000e-07	1.782927e-06	3.273552e-09	1.250833e+01	2.090654e+02
9.700000e-07	1.907765e-06	5.726335e-09	1.338415e+01	3.701612e+02
9.800000e-07	2.032013e-06	8.161874e-09	1.425582e+01	5.284095e+02
9.900000e-07	2.155488e-06	1.047681e-08	1.512207e+01	6.778538e+02
1.000000e-06	2.278109e-06	1.252823e-08	1.598234e+01	8.135230e+02
1.010000e-06	2.399918e-06	1.425856e-08	1.683690e+01	9.320228e+02
1.020000e-06	2.520747e-06	1.569029e-08	1.768459e+01	1.031846e+03
1.030000e-06	2.640446e-06	1.686795e-08	1.852435e+01	1.113358e+03
1.040000e-06	2.759163e-06	1.784242e-08	1.935722e+01	1.178481e+03
1.050000e-06	2.876961e-06	1.865168e-08	2.018365e+01	1.230164e+03
1.060000e-06	2.993723e-06	1.932493e-08	2.100281e+01	1.271751e+03
1.070000e-06	3.109348e-06	1.989249e-08	2.181399e+01	1.306392e+03
1.080000e-06	3.223705e-06	2.037650e-08	2.261627e+01	1.336601e+03
1.090000e-06	3.336684e-06	2.079645e-08	2.340889e+01	1.364026e+03
1.100000e-06	3.448335e-06	2.116487e-08	2.419219e+01	1.389451e+03
1.110000e-06	3.558814e-06	2.149158e-08	2.496727e+01	1.412985e+03
1.120000e-06	3.668178e-06	2.178282e-08	2.573452e+01	1.434360e+03
1.130000e-06	3.776415e-06	2.204552e-08	2.649388e+01	1.453245e+03
1.140000e-06	3.883345e-06	2.228565e-08	2.724405e+01	1.469499e+03
1.150000e-06	3.988766e-06	2.250614e-08	2.798365e+01	1.483297e+03
1.160000e-06	4.092701e-06	2.270834e-08	2.871281e+01	1.495124e+03
1.170000e-06	4.195212e-06	2.289313e-08	2.943199e+01	1.505657e+03
1.180000e-06	4.296321e-06	2.306388e-08	3.014133e+01	1.515587e+03
1.190000e-06	4.395967e-06	2.322505e-08	3.084041e+01	1.525445e+03
1.200000e-06	4.493986e-06	2.337761e-08	3.152807e+01	1.535483e+03
1.210000e-06	4.590249e-06	2.352013e-08	3.220342e+01	1.545647e+03
1.220000e-06	4.684785e-06	2.365259e-08	3.286665e+01	1.555639e+03
1.230000e-06	4.777759e-06	2.377607e-08	3.351892e+01	1.565043e+03
1.240000e-06	4.869204e-06	2.389302e-08	3.416046e+01	1.573481e+03
1.250000e-06	4.958898e-06	2.400210e-08	3.478972e+01	1.580739e+03
1.260000e-06	5.046715e-06	2.410279e-08	3.540581e+01	1.586838e+03
1.270000e-06	5.132706e-06	2.419576e-08	3.600909e+01	1.592020e+03
1.280000e-06	5.216927e-06	2.428345e-08	3.659995e+01	1.596679e+03
1.290000e-06	5.299358e-06	2.436805e-08	3.717825e+01	1.601237e+03
1.300000e-06	5.379799e-06	2.444906e-08	3.774260e+01	1.606024e+03
1.310000e-06	5.458192e-06	2.452651e-08	3.829257e+01	1.611194e+03
1.320000e-06	5.534578e-06	2.460081e-08	3.882847e+01	1.616692e+03
1.330000e-06	5.608784e-06	2.467111e-08	3.934907e+01	1.622290e+03
1.340000e-06	5.680775e-06	2.473858e-08	3.985413e+01	1.627671e+03
1.350000e-06	5.750730e-06	2.480351e-08	4.034491e+01	1.632536e+03
1.360000e-06	5.818745e-06	2.486651e-08	4.082207e+01	1.636696e+03
1.370000e-06	5.884657e-06	2.492680e-08	4.128449e+01	1.640131e+03
1.380000e-06	5.948367e-06	2.498319e-08	4.173145e+01	1.642982e+03
1.390000e-06	6.010065e-06	2.503517e-08	4.216430e+01	1.645509e+03
1.400000e-06	6.069833e-06	2.508380e-08	4.258361e+01	1.647999e+03
1.410000e-06	6.127468e-06	2.513035e-08	4.298795e+01	1.650678e+03
1.420000e-06	6.182863e-06	2.517403e-08	4.337659e+01	1.653646e+03
1.430000e-06	6.235982e-06	2.521545e-08	4.374925e+01	1.656847e+03
1.440000e-06	6.286581e-06	2.525396e-08	4.410423e+01	1.660097e+03
1.450000e-06	6.334617e-06	2.528957e-08	4.444124e+01	1.663145e+03
1.460000e-06	6.380370e-06	2.532266e-08	4.476222e+01	1.665759e+03
1.470000e-06	6.424030e-06	2.535259e-08	4.506852e+01	1.667795e+03
1.480000e-06	6.465367e-06	2.537985e-08	4.535852e+01	1.669248e+03
1.490000e-06	6.504294e-06	2.540390e-08	4.563162e+01	1.670245e+03
1.500000e-06	6.541063e-06	2.542480e-08	4.588958e+01	1.671009e+03
1.510000e-06	6.575596e-06	2.544523e-08	4.613185e+01	1.671788e+03
1.520000e-06	6.607699e-06	2.546632e-08	4.635707e+01	1.672774e+03
1.530000e-06	6.637524e-06	2.548711e-08	4.656631e+01	1.674051e+03
1.540000e-06	6.665169e-06	2.550642e-08	4.676026e+01	1.675570e+03
1.550000e-06	6.690381e-06	2.552260e-08	4.693713e+01	1.677167e+03
1.560000e-06	6.713046e-06	2.553458e-08	4.709614e+01	1.678622e+03
1.570000e-06	6.733410e-06	2.554288e-08	4.723901e+01	1.679726e+03
1.580000e-06	6.751458e-06	2.555024e-08	4.736563e+01	1.680348e+03
1.590000e-06	6.766950e-06	2.555807e-08	4.747431e+01	1.680477e+03
1.600000e-06	6.779885e-06	2.556553e-08	4.756506e+01	1.680224e+03
1.610000e-06	6.790132e-06	2.557306e-08	4.763695e+01	1.679784e+03
1.620000e-06	6.797702e-06	2.558044e-08	4.769006e+01	1.679375e+03
1.630000e-06	6.802930e-06	2.558589e-08	4.772674e+01	1.679170e+03
1.640000e-06	6.805869e-06	2.558691e-08	4.774735e+01	1.679242e+03
1.650000e-06	6.806353e-06	2.558597e-08	4.775075e+01	1.679542e+03
1.660000e-06	6.804485e-06	2.558308e-08	4.773765e+01	1.679918e+03
1.670000e-06	6.800464e-06	2.557336e-08	4.770944e+01	1.680160e+03
1.680000e-06	6.794181e-06	2.556651e-08	4.766536e+01	1.680068e+03
1.690000e-06	6.785656e-06	2.555840e-08	4.760555e+01	1.679516e+03
1.700000e-06	6.774981e-06	2.554832e-08	4.753066e+01	1.678490e+03
1.710000e-06	6.761984e-06	2.554057e-08	4.743948e+01	1.677096e+03
1.720000e-06	6.746595e-06	2.553933e-08	4.733151e+01	1.675523e+03
1.730000e-06	6.729075e-06	2.552991e-08	4.720860e+01	1.673991e+03
1.740000e-06	6.709369e-06	2.545597e-08	4.707035e+01	1.672680e+03
1.750000e-06	6.686687e-06	2.543560e-08	4.691122e+01	1.671680e+03
1.760000e-06	6.660801e-06	2.545506e-08	4.672961e+01	1.670963e+03
1.770000e-06	6.632400e-06	2.542494e-08	4.653036e+01	1.670397e+03
1.780000e-06	6.601899e-06	2.544487e-08	4.631638e+01	1.669782e+03
1.790000e-06	6.569761e-06	2.549119e-08	4.609091e+01	1.668919e+03
1.800000e-06	6.536107e-06	2.538894e-08	4.585481e+01	1.667664e+03
1.810000e-06	6.500183e-06	2.541461e-08	4.560278e+01	1.665970e+03
1.820000e-06	6.461822e-06	2.541406e-08	4.533366e+01	1.663898e+03
1.830000e-06	6.421287e-06	2.529191e-08	4.504928e+01	1.661588e+03
1.840000e-06	6.378546e-06	2.537704e-08	4.474943e+01	1.659213e+03
1.850000e-06	6.333732e-06	2.530074e-08	4.443502e+01	1.656913e+03
1.860000e-06	6.286578e-06	2.523693e-08	4.410421e+01	1.654756e+03
1.870000e-06	6.237002e-06	2.522702e-08	4.375641e+01	1.652704e+03
1.880000e-06	6.185144e-06	2.510479e-08	4.339259e+01	1.650634e+03
1.890000e-06	6.130631e-06	2.516859e-08	4.301015e+01	1.648370e+03
1.900000e-06	6.073679e-06	2.510777e-08	4.261059e+01	1.645747e+03
1.910000e-06	6.014507e-06	2.503797e-08	4.219547e+01	1.642662e+03
1.920000e-06	5.953048e-06	2.503001e-08	4.176429e+01	1.639113e+03
1.930000e-06	5.889431e-06	2.491168e-08	4.131798e+01	1.635200e+03
1.940000e-06	5.823644e-06	2.492858e-08	4.085644e+01	1.631097e+03
1.950000e-06	5.755720e-06	2.485162e-08	4.037991e+01	1.626998e+03
1.960000e-06	5.685496e-06	2.481101e-08	3.988725e+01	1.623052e+03
1.970000e-06	5.613011e-06	2.475476e-08	3.937872e+01	1.619316e+03
1.980000e-06	5.538532e-06	2.464364e-08	3.885621e+01	1.615732e+03
1.990000e-06	5.461897e-06	2.461591e-08	3.831856e+01	1.612141e+03
2.000000e-06	5.383031e-06	2.451898e-08	3.776527e+01	1.608332e+03
2.010000e-06	5.302135e-06	2.449938e-08	3.719774e+01	1.604104e+03
2.020000e-06	5.219504e-06	2.441301e-08	3.661803e+01	1.599327e+03
2.030000e-06	5.135109e-06	2.430405e-08	3.602595e+01	1.593989e+03
2.040000e-06	5.048771e-06	2.423174e-08	3.542023e+01	1.588192e+03
2.050000e-06	4.960606e-06	2.414393e-08	3.480170e+01	1.582129e+03
2.060000e-06	4.870816e-06	2.409335e-08	3.417177e+01	1.576014e+03
2.070000e-06	4.779489e-06	2.398835e-08	3.353105e+01	1.570022e+03
2.080000e-06	4.686464e-06	2.391279e-08	3.287843e+01	1.564223e+03
2.090000e-06	4.591671e-06	2.381126e-08	3.221340e+01	1.558559e+03
2.100000e-06	4.495181e-06	2.371016e-08	3.153646e+01	1.552859e+03
2.110000e-06	4.397204e-06	2.361288e-08	3.084909e+01	1.546886e+03
2.120000e-06	4.297897e-06	2.350955e-08	3.015239e+01	1.540413e+03
2.130000e-06	4.197071e-06	2.341226e-08	2.944503e+01	1.533290e+03
2.140000e-06	4.094564e-06	2.329044e-08	2.872589e+01	1.525496e+03
2.150000e-06	3.990450e-06	2.317760e-08	2.799546e+01	1.517140e+03
2.160000e-06	3.884929e-06	2.304947e-08	2.725516e+01	1.508434e+03
2.170000e-06	3.778111e-06	2.293162e-08	2.650577e+01	1.499618e+03
2.180000e-06	3.670030e-06	2.280630e-08	2.574752e+01	1.490881e+03
2.190000e-06	3.560632e-06	2.268200e-08	2.498002e+01	1.482295e+03
2.200000e-06	3.449879e-06	2.254461e-08	2.420302e+01	1.473780e+03
2.210000e-06	3.337753e-06	2.239683e-08	2.341639e+01	1.465122e+03
2.220000e-06	3.224334e-06	2.224383e-08	2.262068e+01	1.456032e+03
2.230000e-06	3.109686e-06	2.208599e-08	2.181636e+01	1.446227e+03
2.240000e-06	2.993745e-06	2.192814e-08	2.100296e+01	1.435522e+03
2.250000e-06	2.876529e-06	2.176337e-08	2.018062e+01	1.423886e+03
2.260000e-06	2.758162e-06	2.159380e-08	1.935020e+01	1.411453e+03
2.270000e-06	2.638699e-06	2.141028e-08	1.851210e+01	1.398479e+03
2.280000e-06	2.518165e-06	2.122156e-08	1.766647e+01	1.385258e+03
2.290000e-06	2.396755e-06	2.102575e-08	1.681471e+01	1.372018e+03
2.300000e-06	2.274574e-06	2.082598e-08	1.595753e+01	1.358837e+03
2.310000e-06	2.151670e-06	2.061204e-08	1.509529e+01	1.345595e+03
2.320000e-06	2.028127e-06	2.038697e-08	1.422856e+01	1.331993e+03
2.330000e-06	1.903895e-06	2.015207e-08	1.335699e+01	1.317629e+03
2.340000e-06	1.778890e-06	1.990886e-08	1.248001e+01	1.302107e+03
2.350000e-06	1.653205e-06	1.965479e-08	1.159825e+01	1.285157e+03
2.360000e-06	1.527020e-06	1.938590e-08	1.071298e+01	1.266712e+03
2.370000e-06	1.400414e-06	1.910424e-08	9.824767e+00	1.246929e+03
2.380000e-06	1.273368e-06	1.880803e-08	8.933461e+00	1.226130e+03
2.390000e-06	1.145881e-06	1.849796e-08	8.039057e+00	1.204683e+03
2.400000e-06	1.017912e-06	1.816821e-08	7.141280e+00	1.182857e+03
2.410000e-06	8.895203e-07	1.781789e-08	6.240532e+00	1.160690e+03
2.420000e-06	7.608313e-07	1.744556e-08	5.337699e+00	1.137918e+03
2.430000e-06	6.318757e-07	1.705226e-08	4.432996e+00	1.113991e+03
2.440000e-06	5.027692e-07	1.663610e-08	3.527235e+00	1.088186e+03
2.450000e-06	3.735351e-07	1.619559e-08	2.620578e+00	1.059776e+03
2.460000e-06	2.441317e-07	1.572592e-08	1.712734e+00	1.028217e+03
2.470000e-06	1.146549e-07	1.521495e-08	8.043747e-01	9.932812e+02
2.480000e-06	-1.485348e-08	1.466170e-08	-1.042063e-01	9.550939e+02
2.490000e-06	-1.443973e-07	1.406716e-08	-1.013036e+00	9.140293e+02
2.500000e-06	-2.738931e-07	1.342415e-08	-1.921528e+00	8.704865e+02
2.510000e-06	-4.032786e-07	1.272335e-08	-2.829247e+00	8.245864e+02
2.520000e-06	-5.325865e-07	1.195475e-08	-3.736422e+00	7.758692e+02
2.530000e-06	-6.617877e-07	1.110623e-08	-4.642847e+00	7.230847e+02
2.540000e-06	-7.908341e-07	1.016283e-08	-5.548187e+00	6.641559e+02
2.550000e-06	-9.196690e-07	9.103577e-09	-6.452044e+00	5.963624e+02
2.560000e-06	-1.048171e-06	7.901098e-09	-7.353562e+00	5.167404e+02
2.570000e-06	-1.176219e-06	6.518811e-09	-8.251901e+00	4.226398e+02
2.580000e-06	-1.303688e-06	4.912560e-09	-9.146174e+00	3.123352e+02
2.590000e-06	-1.430620e-06	3.040851e-09	-1.003668e+01	1.855604e+02
2.600000e-06	-1.557123e-06	8.863328e-10	-1.092418e+01	4.384384e+01
2.610000e-06	-1.683175e-06	-1.500048e-09	-1.180851e+01	-1.094456e+02
2.620000e-06	-1.808555e-06	-3.997840e-09	-1.268812e+01	-2.693748e+02
2.630000e-06	-1.933040e-06	-6.511373e-09	-1.356146e+01	-4.300102e+02
2.640000e-06	-2.056699e-06	-8.962675e-09	-1.442901e+01	-5.851714e+02
2.650000e-06	-2.179570e-06	-1.121668e-08	-1.529102e+01	-7.292375e+02
2.660000e-06	-2.301608e-06	-1.316872e-08	-1.614720e+01	-8.578555e+02
2.670000e-06	-2.422872e-06	-1.480428e-08	-1.699794e+01	-9.684203e+02
2.680000e-06	-2.543310e-06	-1.615469e-08	-1.784288e+01	-1.060248e+03
2.690000e-06	-2.662755e-06	-1.726364e-08	-1.868087e+01	-1.134425e+03
2.700000e-06	-2.781150e-06	-1.817702e-08	-1.951148e+01	-1.193387e+03
2.710000e-06	-2.898385e-06	-1.893684e-08	-2.033395e+01	-1.240331e+03
2.720000e-06	-3.014330e-06	-1.957749e-08	-2.114738e+01	-1.278582e+03
2.730000e-06	-3.129054e-06	-2.012286e-08	-2.195224e+01	-1.311062e+03
2.740000e-06	-3.242512e-06	-2.058699e-08	-2.274821e+01	-1.339927e+03
2.750000e-06	-3.354659e-06	-2.098729e-08	-2.353499e+01	-1.366442e+03
2.760000e-06	-3.465515e-06	-2.133873e-08	-2.431272e+01	-1.391070e+03
2.770000e-06	-3.575120e-06	-2.165003e-08	-2.508166e+01	-1.413720e+03
2.780000e-06	-3.683583e-06	-2.192940e-08	-2.584260e+01	-1.434060e+03
2.790000e-06	-3.790883e-06	-2.218334e-08	-2.659537e+01	-1.451816e+03
2.800000e-06	-3.896970e-06	-2.241617e-08	-2.733964e+01	-1.466974e+03
2.810000e-06	-4.001675e-06	-2.263097e-08	-2.807421e+01	-1.479851e+03
2.820000e-06	-4.104871e-06	-2.282799e-08	-2.879820e+01	-1.491033e+03
2.830000e-06	-4.206460e-06	-2.300765e-08	-2.951091e+01	-1.501226e+03
2.840000e-06	-4.306454e-06	-2.317435e-08	-3.021242e+01	-1.511073e+03
2.850000e-06	-4.405055e-06	-2.333000e-08	-3.090417e+01	-1.520993e+03
2.860000e-06	-4.502243e-06	-2.347506e-08	-3.158600e+01	-1.531107e+03
2.870000e-06	-4.597830e-06	-2.361131e-08	-3.225660e+01	-1.541242e+03
2.880000e-06	-4.691664e-06	-2.373883e-08	-3.291491e+01	-1.551031e+03
2.890000e-06	-4.783791e-06	-2.385691e-08	-3.356124e+01	-1.560058e+03
2.900000e-06	-4.874258e-06	-2.396681e-08	-3.419592e+01	-1.568002e+03
2.910000e-06	-4.963040e-06	-2.407198e-08	-3.481878e+01	-1.574745e+03
2.920000e-06	-5.050037e-06	-2.417260e-08	-3.542912e+01	-1.580408e+03
2.930000e-06	-5.135048e-06	-2.426634e-08	-3.602552e+01	-1.585311e+03
2.940000e-06	-5.218215e-06	-2.435217e-08	-3.660899e+01	-1.589876e+03
