# Temperatura_=_81.52
# Concentracion g/m^3_=_28200.0
# C_Vs_to_Am_M_A/Vsm_=_65563218390.804596
# pendiente_HvsI_1/m_=_3716.3
# ordenada_HvsI_A/m_=_1297.0
# frecuencia_Hz_=_302502.5606751434

Tiempo_(s)	Campo_(V.s)	Magnetizacion_(V.s)	Campo_(kA/m)	Magnetizacion_(A/m)
0.000000e+00	-7.847107e-06	-2.841334e-08	-5.683724e+01	-1.860667e+03
1.000000e-08	-7.842388e-06	-2.840727e-08	-5.680306e+01	-1.859947e+03
2.000000e-08	-7.835163e-06	-2.839370e-08	-5.675073e+01	-1.859101e+03
3.000000e-08	-7.825197e-06	-2.838052e-08	-5.667855e+01	-1.858173e+03
4.000000e-08	-7.812386e-06	-2.836447e-08	-5.658576e+01	-1.857180e+03
5.000000e-08	-7.796730e-06	-2.834118e-08	-5.647235e+01	-1.856106e+03
6.000000e-08	-7.778530e-06	-2.831254e-08	-5.634053e+01	-1.854905e+03
7.000000e-08	-7.758135e-06	-2.827111e-08	-5.619281e+01	-1.853522e+03
8.000000e-08	-7.735311e-06	-2.827971e-08	-5.602749e+01	-1.851910e+03
9.000000e-08	-7.709539e-06	-2.834235e-08	-5.584083e+01	-1.850049e+03
1.000000e-07	-7.680542e-06	-2.826813e-08	-5.563080e+01	-1.847958e+03
1.100000e-07	-7.648649e-06	-2.817717e-08	-5.539980e+01	-1.845687e+03
1.200000e-07	-7.614088e-06	-2.815420e-08	-5.514947e+01	-1.843311e+03
1.300000e-07	-7.576949e-06	-2.811587e-08	-5.488047e+01	-1.840901e+03
1.400000e-07	-7.537525e-06	-2.801042e-08	-5.459491e+01	-1.838503e+03
1.500000e-07	-7.495919e-06	-2.793897e-08	-5.429356e+01	-1.836118e+03
1.600000e-07	-7.451875e-06	-2.805981e-08	-5.397455e+01	-1.833700e+03
1.700000e-07	-7.405170e-06	-2.791277e-08	-5.363626e+01	-1.831158e+03
1.800000e-07	-7.355770e-06	-2.780714e-08	-5.327845e+01	-1.828381e+03
1.900000e-07	-7.303453e-06	-2.786801e-08	-5.289951e+01	-1.825265e+03
2.000000e-07	-7.248283e-06	-2.773232e-08	-5.249991e+01	-1.821734e+03
2.100000e-07	-7.190518e-06	-2.769513e-08	-5.208151e+01	-1.817764e+03
2.200000e-07	-7.130091e-06	-2.761231e-08	-5.164384e+01	-1.813382e+03
2.300000e-07	-7.067034e-06	-2.754316e-08	-5.118711e+01	-1.808660e+03
2.400000e-07	-7.001350e-06	-2.749717e-08	-5.071135e+01	-1.803684e+03
2.500000e-07	-6.933000e-06	-2.738916e-08	-5.021629e+01	-1.798535e+03
2.600000e-07	-6.861974e-06	-2.733335e-08	-4.970185e+01	-1.793259e+03
2.700000e-07	-6.788263e-06	-2.722668e-08	-4.916795e+01	-1.787858e+03
2.800000e-07	-6.711857e-06	-2.714281e-08	-4.861453e+01	-1.782287e+03
2.900000e-07	-6.632685e-06	-2.703775e-08	-4.804108e+01	-1.776469e+03
3.000000e-07	-6.550928e-06	-2.693570e-08	-4.744891e+01	-1.770322e+03
3.100000e-07	-6.466931e-06	-2.686701e-08	-4.684052e+01	-1.763782e+03
3.200000e-07	-6.380782e-06	-2.675625e-08	-4.621653e+01	-1.756819e+03
3.300000e-07	-6.292323e-06	-2.666468e-08	-4.557581e+01	-1.749449e+03
3.400000e-07	-6.201488e-06	-2.650937e-08	-4.491789e+01	-1.741723e+03
3.500000e-07	-6.108448e-06	-2.639692e-08	-4.424399e+01	-1.733709e+03
3.600000e-07	-6.013217e-06	-2.628923e-08	-4.355422e+01	-1.725463e+03
3.700000e-07	-5.915723e-06	-2.614883e-08	-4.284807e+01	-1.717012e+03
3.800000e-07	-5.816053e-06	-2.601825e-08	-4.212615e+01	-1.708335e+03
3.900000e-07	-5.714363e-06	-2.587989e-08	-4.138960e+01	-1.699371e+03
4.000000e-07	-5.610672e-06	-2.573985e-08	-4.063856e+01	-1.690027e+03
4.100000e-07	-5.504994e-06	-2.556616e-08	-3.987312e+01	-1.680210e+03
4.200000e-07	-5.397365e-06	-2.542417e-08	-3.909356e+01	-1.669846e+03
4.300000e-07	-5.287827e-06	-2.526208e-08	-3.830017e+01	-1.658902e+03
4.400000e-07	-5.176381e-06	-2.508969e-08	-3.749295e+01	-1.647395e+03
4.500000e-07	-5.062984e-06	-2.490555e-08	-3.667161e+01	-1.635374e+03
4.600000e-07	-4.947663e-06	-2.471938e-08	-3.583633e+01	-1.622906e+03
4.700000e-07	-4.830483e-06	-2.452271e-08	-3.498759e+01	-1.610041e+03
4.800000e-07	-4.711544e-06	-2.431437e-08	-3.412610e+01	-1.596790e+03
4.900000e-07	-4.590865e-06	-2.411258e-08	-3.325202e+01	-1.583109e+03
5.000000e-07	-4.468425e-06	-2.388977e-08	-3.236517e+01	-1.568905e+03
5.100000e-07	-4.344295e-06	-2.365623e-08	-3.146609e+01	-1.554052e+03
5.200000e-07	-4.218743e-06	-2.340821e-08	-3.055670e+01	-1.538422e+03
5.300000e-07	-4.091675e-06	-2.315816e-08	-2.963634e+01	-1.521917e+03
5.400000e-07	-3.963010e-06	-2.288906e-08	-2.870440e+01	-1.504487e+03
5.500000e-07	-3.832823e-06	-2.261116e-08	-2.776145e+01	-1.486140e+03
5.600000e-07	-3.701121e-06	-2.232337e-08	-2.680752e+01	-1.466926e+03
5.700000e-07	-3.568041e-06	-2.202026e-08	-2.584361e+01	-1.446904e+03
5.800000e-07	-3.433642e-06	-2.170088e-08	-2.487015e+01	-1.426110e+03
5.900000e-07	-3.297926e-06	-2.136666e-08	-2.388715e+01	-1.404519e+03
6.000000e-07	-3.160883e-06	-2.102375e-08	-2.289453e+01	-1.382027e+03
6.100000e-07	-3.022584e-06	-2.066076e-08	-2.189282e+01	-1.358458e+03
6.200000e-07	-2.883069e-06	-2.027859e-08	-2.088231e+01	-1.333584e+03
6.300000e-07	-2.742306e-06	-1.986878e-08	-1.986275e+01	-1.307168e+03
6.400000e-07	-2.600365e-06	-1.943572e-08	-1.883466e+01	-1.279006e+03
6.500000e-07	-2.457463e-06	-1.897736e-08	-1.779961e+01	-1.248952e+03
6.600000e-07	-2.313708e-06	-1.849438e-08	-1.675837e+01	-1.216929e+03
6.700000e-07	-2.169142e-06	-1.798171e-08	-1.571128e+01	-1.182901e+03
6.800000e-07	-2.023827e-06	-1.743751e-08	-1.465875e+01	-1.146831e+03
6.900000e-07	-1.877757e-06	-1.686215e-08	-1.360075e+01	-1.108622e+03
7.000000e-07	-1.731070e-06	-1.624127e-08	-1.253828e+01	-1.068066e+03
7.100000e-07	-1.583896e-06	-1.557802e-08	-1.147229e+01	-1.024827e+03
7.200000e-07	-1.436298e-06	-1.486089e-08	-1.040322e+01	-9.784474e+02
7.300000e-07	-1.288225e-06	-1.408650e-08	-9.330723e+00	-9.284174e+02
7.400000e-07	-1.139691e-06	-1.325286e-08	-8.254879e+00	-8.742619e+02
7.500000e-07	-9.908256e-07	-1.236097e-08	-7.176632e+00	-8.156500e+02
7.600000e-07	-8.416385e-07	-1.141080e-08	-6.096057e+00	-7.524880e+02
7.700000e-07	-6.921372e-07	-1.039454e-08	-5.013206e+00	-6.849743e+02
7.800000e-07	-5.424241e-07	-9.317094e-09	-3.928822e+00	-6.135958e+02
7.900000e-07	-3.926060e-07	-8.184295e-09	-2.843678e+00	-5.390601e+02
8.000000e-07	-2.426432e-07	-7.007947e-09	-1.757485e+00	-4.621746e+02
8.100000e-07	-9.251555e-08	-5.798503e-09	-6.700978e-01	-3.836972e+02
8.200000e-07	5.769440e-08	-4.573668e-09	4.178853e-01	-3.041937e+02
8.300000e-07	2.079111e-07	-3.343140e-09	1.505917e+00	-2.239364e+02
8.400000e-07	3.580289e-07	-2.107687e-09	2.593233e+00	-1.428732e+02
8.500000e-07	5.080013e-07	-8.615061e-10	3.679496e+00	-6.067824e+01
8.600000e-07	6.578675e-07	4.028191e-10	4.764988e+00	2.312311e+01
8.700000e-07	8.075896e-07	1.694256e-09	5.849438e+00	1.089784e+02
8.800000e-07	9.571025e-07	3.025777e-09	6.932372e+00	1.971225e+02
8.900000e-07	1.106334e-06	4.398625e-09	8.013267e+00	2.874228e+02
9.000000e-07	1.255222e-06	5.805712e-09	9.091678e+00	3.792942e+02
9.100000e-07	1.403641e-06	7.229343e-09	1.016669e+01	4.717044e+02
9.200000e-07	1.551500e-06	8.641990e-09	1.123764e+01	5.632725e+02
9.300000e-07	1.698817e-06	1.000763e-08	1.230467e+01	6.524415e+02
9.400000e-07	1.845598e-06	1.129958e-08	1.336782e+01	7.376897e+02
9.500000e-07	1.991772e-06	1.250068e-08	1.442657e+01	8.177377e+02
9.600000e-07	2.137184e-06	1.360269e-08	1.547980e+01	8.917090e+02
9.700000e-07	2.281695e-06	1.461055e-08	1.652650e+01	9.592145e+02
9.800000e-07	2.425369e-06	1.553102e-08	1.756715e+01	1.020348e+03
9.900000e-07	2.568163e-06	1.637270e-08	1.860141e+01	1.075601e+03
1.000000e-06	2.709909e-06	1.714239e-08	1.962810e+01	1.125720e+03
1.010000e-06	2.850552e-06	1.784779e-08	2.064678e+01	1.171544e+03
1.020000e-06	2.989953e-06	1.849928e-08	2.165648e+01	1.213852e+03
1.030000e-06	3.128154e-06	1.910130e-08	2.265748e+01	1.253260e+03
1.040000e-06	3.265180e-06	1.966094e-08	2.364997e+01	1.290173e+03
1.050000e-06	3.400879e-06	2.018037e-08	2.463285e+01	1.324798e+03
1.060000e-06	3.535280e-06	2.066293e-08	2.560632e+01	1.357204e+03
1.070000e-06	3.668476e-06	2.111192e-08	2.657107e+01	1.387404e+03
1.080000e-06	3.800391e-06	2.153319e-08	2.752654e+01	1.415428e+03
1.090000e-06	3.930888e-06	2.192766e-08	2.847175e+01	1.441380e+03
1.100000e-06	4.059979e-06	2.229808e-08	2.940676e+01	1.465455e+03
1.110000e-06	4.187691e-06	2.264835e-08	3.033179e+01	1.487916e+03
1.120000e-06	4.313978e-06	2.297952e-08	3.124650e+01	1.509050e+03
1.130000e-06	4.438852e-06	2.329177e-08	3.215097e+01	1.529117e+03
1.140000e-06	4.562194e-06	2.358469e-08	3.304434e+01	1.548305e+03
1.150000e-06	4.683798e-06	2.386062e-08	3.392513e+01	1.566704e+03
1.160000e-06	4.803678e-06	2.411925e-08	3.479343e+01	1.584318e+03
1.170000e-06	4.921887e-06	2.436409e-08	3.564963e+01	1.601087e+03
1.180000e-06	5.038306e-06	2.459667e-08	3.649286e+01	1.616937e+03
1.190000e-06	5.152732e-06	2.482210e-08	3.732166e+01	1.631821e+03
1.200000e-06	5.265122e-06	2.503705e-08	3.813571e+01	1.645750e+03
1.210000e-06	5.375598e-06	2.523955e-08	3.893590e+01	1.658800e+03
1.220000e-06	5.484251e-06	2.543055e-08	3.972288e+01	1.671102e+03
1.230000e-06	5.590949e-06	2.561115e-08	4.049570e+01	1.682810e+03
1.240000e-06	5.695568e-06	2.578264e-08	4.125347e+01	1.694061e+03
1.250000e-06	5.798128e-06	2.594637e-08	4.199632e+01	1.704946e+03
1.260000e-06	5.898624e-06	2.610378e-08	4.272422e+01	1.715490e+03
1.270000e-06	5.996866e-06	2.625478e-08	4.343579e+01	1.725658e+03
1.280000e-06	6.092777e-06	2.640071e-08	4.413049e+01	1.735373e+03
1.290000e-06	6.186526e-06	2.653964e-08	4.480952e+01	1.744547e+03
1.300000e-06	6.278067e-06	2.667108e-08	4.547256e+01	1.753117e+03
1.310000e-06	6.367302e-06	2.679520e-08	4.611889e+01	1.761068e+03
1.320000e-06	6.454262e-06	2.691185e-08	4.674875e+01	1.768440e+03
1.330000e-06	6.539063e-06	2.702138e-08	4.736297e+01	1.775321e+03
1.340000e-06	6.621592e-06	2.712407e-08	4.796074e+01	1.781823e+03
1.350000e-06	6.701618e-06	2.722021e-08	4.854037e+01	1.788053e+03
1.360000e-06	6.779182e-06	2.731024e-08	4.910217e+01	1.794086e+03
1.370000e-06	6.854232e-06	2.739815e-08	4.964577e+01	1.799951e+03
1.380000e-06	6.926698e-06	2.748418e-08	5.017065e+01	1.805629e+03
1.390000e-06	6.996678e-06	2.756661e-08	5.067752e+01	1.811066e+03
1.400000e-06	7.064172e-06	2.764417e-08	5.116638e+01	1.816201e+03
1.410000e-06	7.129093e-06	2.771579e-08	5.163661e+01	1.820985e+03
1.420000e-06	7.191504e-06	2.778251e-08	5.208865e+01	1.825401e+03
1.430000e-06	7.251477e-06	2.784544e-08	5.252304e+01	1.829474e+03
1.440000e-06	7.308891e-06	2.790576e-08	5.293890e+01	1.833261e+03
1.450000e-06	7.363680e-06	2.796361e-08	5.333574e+01	1.836832e+03
1.460000e-06	7.415695e-06	2.801861e-08	5.371249e+01	1.840251e+03
1.470000e-06	7.464674e-06	2.807007e-08	5.406725e+01	1.843551e+03
1.480000e-06	7.510783e-06	2.811818e-08	5.440122e+01	1.846729e+03
1.490000e-06	7.554334e-06	2.816436e-08	5.471667e+01	1.849742e+03
1.500000e-06	7.595164e-06	2.820775e-08	5.501240e+01	1.852525e+03
1.510000e-06	7.633195e-06	2.824554e-08	5.528786e+01	1.855010e+03
1.520000e-06	7.668654e-06	2.827688e-08	5.554469e+01	1.857148e+03
1.530000e-06	7.701424e-06	2.830356e-08	5.578204e+01	1.858928e+03
1.540000e-06	7.731413e-06	2.832685e-08	5.599926e+01	1.860380e+03
1.550000e-06	7.758733e-06	2.834690e-08	5.619714e+01	1.861565e+03
1.560000e-06	7.783173e-06	2.836492e-08	5.637416e+01	1.862563e+03
1.570000e-06	7.804728e-06	2.838128e-08	5.653029e+01	1.863443e+03
1.580000e-06	7.823616e-06	2.839636e-08	5.666709e+01	1.864252e+03
1.590000e-06	7.839677e-06	2.841046e-08	5.678342e+01	1.864997e+03
1.600000e-06	7.852716e-06	2.842035e-08	5.687787e+01	1.865649e+03
1.610000e-06	7.862644e-06	2.842556e-08	5.694977e+01	1.866152e+03
1.620000e-06	7.869582e-06	2.842878e-08	5.700003e+01	1.866448e+03
1.630000e-06	7.873832e-06	2.843162e-08	5.703081e+01	1.866491e+03
1.640000e-06	7.875307e-06	2.843411e-08	5.704150e+01	1.866266e+03
1.650000e-06	7.873935e-06	2.842870e-08	5.703156e+01	1.865793e+03
1.660000e-06	7.869961e-06	2.841363e-08	5.700278e+01	1.865118e+03
1.670000e-06	7.863316e-06	2.840848e-08	5.695464e+01	1.864301e+03
1.680000e-06	7.854071e-06	2.839945e-08	5.688768e+01	1.863392e+03
1.690000e-06	7.842241e-06	2.838301e-08	5.680200e+01	1.862416e+03
1.700000e-06	7.827614e-06	2.836924e-08	5.669605e+01	1.861367e+03
1.710000e-06	7.810434e-06	2.836470e-08	5.657161e+01	1.860206e+03
1.720000e-06	7.791026e-06	2.836836e-08	5.643105e+01	1.858880e+03
1.730000e-06	7.769177e-06	2.825430e-08	5.627279e+01	1.857335e+03
1.740000e-06	7.744200e-06	2.816474e-08	5.609188e+01	1.855544e+03
1.750000e-06	7.715540e-06	2.821321e-08	5.588429e+01	1.853513e+03
1.760000e-06	7.683486e-06	2.819744e-08	5.565212e+01	1.851285e+03
1.770000e-06	7.648938e-06	2.813486e-08	5.540189e+01	1.848929e+03
1.780000e-06	7.612199e-06	2.817310e-08	5.513578e+01	1.846521e+03
1.790000e-06	7.573289e-06	2.823450e-08	5.485395e+01	1.844116e+03
1.800000e-06	7.532423e-06	2.799520e-08	5.455796e+01	1.841728e+03
1.810000e-06	7.489232e-06	2.804263e-08	5.424512e+01	1.839326e+03
1.820000e-06	7.443347e-06	2.807295e-08	5.391278e+01	1.836829e+03
1.830000e-06	7.394875e-06	2.791668e-08	5.356169e+01	1.834129e+03
1.840000e-06	7.343453e-06	2.802994e-08	5.318924e+01	1.831118e+03
1.850000e-06	7.289099e-06	2.784442e-08	5.279554e+01	1.827708e+03
1.860000e-06	7.232047e-06	2.786777e-08	5.238231e+01	1.823861e+03
1.870000e-06	7.172412e-06	2.782113e-08	5.195037e+01	1.819591e+03
1.880000e-06	7.110254e-06	2.764511e-08	5.150015e+01	1.814955e+03
1.890000e-06	7.045221e-06	2.770867e-08	5.102911e+01	1.810041e+03
1.900000e-06	6.977463e-06	2.752665e-08	5.053834e+01	1.804933e+03
1.910000e-06	6.906989e-06	2.750814e-08	5.002789e+01	1.799690e+03
1.920000e-06	6.833759e-06	2.741930e-08	4.949748e+01	1.794326e+03
1.930000e-06	6.757890e-06	2.732688e-08	4.894795e+01	1.788809e+03
1.940000e-06	6.679314e-06	2.729492e-08	4.837882e+01	1.783069e+03
1.950000e-06	6.598237e-06	2.711286e-08	4.779157e+01	1.777022e+03
1.960000e-06	6.514706e-06	2.705811e-08	4.718655e+01	1.770597e+03
1.970000e-06	6.428729e-06	2.689431e-08	4.656382e+01	1.763754e+03
1.980000e-06	6.340358e-06	2.684261e-08	4.592374e+01	1.756495e+03
1.990000e-06	6.249820e-06	2.673387e-08	4.526796e+01	1.748863e+03
2.000000e-06	6.157166e-06	2.660085e-08	4.459686e+01	1.740922e+03
2.010000e-06	6.062262e-06	2.650265e-08	4.390946e+01	1.732737e+03
2.020000e-06	5.965190e-06	2.633869e-08	4.320636e+01	1.724343e+03
2.030000e-06	5.866004e-06	2.621895e-08	4.248795e+01	1.715734e+03
2.040000e-06	5.764738e-06	2.606043e-08	4.175447e+01	1.706858e+03
2.050000e-06	5.661389e-06	2.595428e-08	4.100591e+01	1.697632e+03
2.060000e-06	5.556098e-06	2.578149e-08	4.024328e+01	1.687957e+03
2.070000e-06	5.448904e-06	2.562281e-08	3.946686e+01	1.677753e+03
2.080000e-06	5.339812e-06	2.545564e-08	3.867670e+01	1.666974e+03
2.090000e-06	5.228794e-06	2.529010e-08	3.787259e+01	1.655622e+03
2.100000e-06	5.115844e-06	2.511837e-08	3.705448e+01	1.643740e+03
2.110000e-06	5.001017e-06	2.493315e-08	3.622278e+01	1.631392e+03
2.120000e-06	4.884216e-06	2.475184e-08	3.537678e+01	1.618636e+03
2.130000e-06	4.765514e-06	2.453296e-08	3.451701e+01	1.605495e+03
2.140000e-06	4.644978e-06	2.432146e-08	3.364396e+01	1.591943e+03
2.150000e-06	4.522742e-06	2.409867e-08	3.275859e+01	1.577899e+03
2.160000e-06	4.398836e-06	2.388594e-08	3.186113e+01	1.563243e+03
2.170000e-06	4.273305e-06	2.364655e-08	3.095190e+01	1.547846e+03
2.180000e-06	4.146252e-06	2.340585e-08	3.003164e+01	1.531597e+03
2.190000e-06	4.017626e-06	2.314717e-08	2.909999e+01	1.514431e+03
2.200000e-06	3.887552e-06	2.287854e-08	2.815786e+01	1.496341e+03
2.210000e-06	3.756005e-06	2.259180e-08	2.720505e+01	1.477366e+03
2.220000e-06	3.622997e-06	2.229503e-08	2.624166e+01	1.457569e+03
2.230000e-06	3.488699e-06	2.198613e-08	2.526893e+01	1.436993e+03
2.240000e-06	3.353136e-06	2.165643e-08	2.428704e+01	1.415635e+03
2.250000e-06	3.216293e-06	2.131473e-08	2.329587e+01	1.393414e+03
2.260000e-06	3.078215e-06	2.095229e-08	2.229577e+01	1.370173e+03
2.270000e-06	2.938959e-06	2.057741e-08	2.128712e+01	1.345695e+03
2.280000e-06	2.798509e-06	2.017821e-08	2.026983e+01	1.319741e+03
2.290000e-06	2.656997e-06	1.976266e-08	1.924485e+01	1.292094e+03
2.300000e-06	2.514577e-06	1.931908e-08	1.821329e+01	1.262590e+03
2.310000e-06	2.371235e-06	1.884824e-08	1.717505e+01	1.231132e+03
2.320000e-06	2.227002e-06	1.834171e-08	1.613036e+01	1.197678e+03
2.330000e-06	2.081983e-06	1.779981e-08	1.507997e+01	1.162197e+03
2.340000e-06	1.936291e-06	1.722545e-08	1.402471e+01	1.124613e+03
2.350000e-06	1.789998e-06	1.661384e-08	1.296510e+01	1.084755e+03
2.360000e-06	1.643148e-06	1.596328e-08	1.190145e+01	1.042323e+03
2.370000e-06	1.495748e-06	1.526607e-08	1.083382e+01	9.968902e+02
2.380000e-06	1.347868e-06	1.451437e-08	9.762718e+00	9.479537e+02
2.390000e-06	1.199538e-06	1.370240e-08	8.688352e+00	8.950175e+02
2.400000e-06	1.050755e-06	1.282642e-08	7.610703e+00	8.376987e+02
2.410000e-06	9.015891e-07	1.188783e-08	6.530284e+00	7.758282e+02
2.420000e-06	7.521603e-07	1.088904e-08	5.447959e+00	7.095185e+02
2.430000e-06	6.024895e-07	9.828357e-09	4.363881e+00	6.391783e+02
2.440000e-06	4.525752e-07	8.709802e-09	3.278039e+00	5.654624e+02
2.450000e-06	3.024966e-07	7.542324e-09	2.191008e+00	4.891644e+02
2.460000e-06	1.522762e-07	6.337980e-09	1.102949e+00	4.110718e+02
2.470000e-06	1.977550e-09	5.110400e-09	1.432356e-02	3.318180e+02
2.480000e-06	-1.483469e-07	3.874473e-09	-1.074489e+00	2.517659e+02
2.490000e-06	-2.986626e-07	2.635973e-09	-2.163238e+00	1.709545e+02
2.500000e-06	-4.488933e-07	1.389407e-09	-3.251371e+00	8.912632e+01
2.510000e-06	-5.989782e-07	1.278291e-10	-4.338448e+00	5.832809e+00
2.520000e-06	-7.489157e-07	-1.159877e-09	-5.424458e+00	-7.940061e+01
2.530000e-06	-8.986323e-07	-2.483444e-09	-6.508868e+00	-1.668874e+02
2.540000e-06	-1.047925e-06	-3.848524e-09	-7.590211e+00	-2.566123e+02
2.550000e-06	-1.196775e-06	-5.250593e-09	-8.668337e+00	-3.481233e+02
2.560000e-06	-1.345242e-06	-6.672607e-09	-9.743701e+00	-4.405094e+02
2.570000e-06	-1.493270e-06	-8.094711e-09	-1.081587e+01	-5.324747e+02
2.580000e-06	-1.640697e-06	-9.487166e-09	-1.188371e+01	-6.224915e+02
2.590000e-06	-1.787490e-06	-1.081661e-08	-1.294693e+01	-7.090062e+02
2.600000e-06	-1.933719e-06	-1.206109e-08	-1.400609e+01	-7.906508e+02
2.610000e-06	-2.079310e-06	-1.320967e-08	-1.506061e+01	-8.664216e+02
2.620000e-06	-2.224067e-06	-1.425902e-08	-1.610910e+01	-9.357866e+02
2.630000e-06	-2.367868e-06	-1.521434e-08	-1.715066e+01	-9.987071e+02
2.640000e-06	-2.510739e-06	-1.608705e-08	-1.818549e+01	-1.055574e+03
2.650000e-06	-2.652627e-06	-1.688735e-08	-1.921320e+01	-1.107077e+03
2.660000e-06	-2.793427e-06	-1.762152e-08	-2.023302e+01	-1.154045e+03
2.670000e-06	-2.933089e-06	-1.829618e-08	-2.124461e+01	-1.197287e+03
2.680000e-06	-3.071567e-06	-1.891886e-08	-2.224762e+01	-1.237475e+03
2.690000e-06	-3.208850e-06	-1.949484e-08	-2.324197e+01	-1.275073e+03
2.700000e-06	-3.344915e-06	-2.002747e-08	-2.422750e+01	-1.310341e+03
2.710000e-06	-3.479756e-06	-2.052335e-08	-2.520416e+01	-1.343381e+03
2.720000e-06	-3.613315e-06	-2.098762e-08	-2.617154e+01	-1.374211e+03
2.730000e-06	-3.745539e-06	-2.142069e-08	-2.712924e+01	-1.402852e+03
2.740000e-06	-3.876448e-06	-2.182681e-08	-2.807743e+01	-1.429382e+03
2.750000e-06	-4.006026e-06	-2.220797e-08	-2.901598e+01	-1.453970e+03
2.760000e-06	-4.134181e-06	-2.256439e-08	-2.994422e+01	-1.476864e+03
2.770000e-06	-4.260914e-06	-2.289819e-08	-3.086215e+01	-1.498350e+03
2.780000e-06	-4.386260e-06	-2.321347e-08	-3.177004e+01	-1.518701e+03
2.790000e-06	-4.510082e-06	-2.351373e-08	-3.266689e+01	-1.538128e+03
2.800000e-06	-4.632322e-06	-2.379834e-08	-3.355229e+01	-1.556750e+03
2.810000e-06	-4.752873e-06	-2.406705e-08	-3.442545e+01	-1.574594e+03
2.820000e-06	-4.871534e-06	-2.431969e-08	-3.528492e+01	-1.591614e+03
2.830000e-06	-4.988245e-06	-2.455951e-08	-3.613027e+01	-1.607735e+03
2.840000e-06	-5.102919e-06	-2.479152e-08	-3.696086e+01	-1.622898e+03
2.850000e-06	-5.215545e-06	-2.501566e-08	-3.777662e+01	-1.637096e+03
2.860000e-06	-5.326202e-06	-2.522804e-08	-3.857812e+01	-1.650387e+03
2.870000e-06	-5.434949e-06	-2.542607e-08	-3.936578e+01	-1.662890e+03
2.880000e-06	-5.541863e-06	-2.561102e-08	-4.014017e+01	-1.674753e+03
2.890000e-06	-5.646845e-06	-2.578573e-08	-4.090057e+01	-1.686124e+03
2.900000e-06	-5.749702e-06	-2.595207e-08	-4.164556e+01	-1.697110e+03
2.910000e-06	-5.850420e-06	-2.611247e-08	-4.237507e+01	-1.707754e+03
2.920000e-06	-5.949071e-06	-2.626875e-08	-4.308961e+01	-1.718038e+03
2.930000e-06	-6.045600e-06	-2.641819e-08	-4.378878e+01	-1.727893e+03
2.940000e-06	-6.139842e-06	-2.655865e-08	-4.447138e+01	-1.737231e+03
