# Temperatura_=_45.8
# Concentracion g/m^3_=_28200.0
# C_Vs_to_Am_M_A/Vsm_=_65563218390.804596
# pendiente_HvsI_1/m_=_3716.3
# ordenada_HvsI_A/m_=_1297.0
# frecuencia_Hz_=_302507.4364632125

Tiempo_(s)	Campo_(V.s)	Magnetizacion_(V.s)	Campo_(kA/m)	Magnetizacion_(A/m)
0.000000e+00	-7.870898e-06	-2.421875e-08	-5.684124e+01	-1.585467e+03
1.000000e-08	-7.866574e-06	-2.421718e-08	-5.681002e+01	-1.584872e+03
2.000000e-08	-7.859758e-06	-2.421009e-08	-5.676080e+01	-1.584161e+03
3.000000e-08	-7.850306e-06	-2.419975e-08	-5.669254e+01	-1.583386e+03
4.000000e-08	-7.838030e-06	-2.418758e-08	-5.660388e+01	-1.582582e+03
5.000000e-08	-7.822818e-06	-2.417112e-08	-5.649403e+01	-1.581749e+03
6.000000e-08	-7.804902e-06	-2.414884e-08	-5.636464e+01	-1.580863e+03
7.000000e-08	-7.784755e-06	-2.411860e-08	-5.621915e+01	-1.579876e+03
8.000000e-08	-7.762278e-06	-2.410909e-08	-5.605682e+01	-1.578739e+03
9.000000e-08	-7.736896e-06	-2.415040e-08	-5.587352e+01	-1.577418e+03
1.000000e-07	-7.708311e-06	-2.411628e-08	-5.566709e+01	-1.575903e+03
1.100000e-07	-7.676799e-06	-2.404637e-08	-5.543952e+01	-1.574222e+03
1.200000e-07	-7.642507e-06	-2.402267e-08	-5.519188e+01	-1.572424e+03
1.300000e-07	-7.605579e-06	-2.400020e-08	-5.492519e+01	-1.570571e+03
1.400000e-07	-7.566370e-06	-2.393318e-08	-5.464204e+01	-1.568714e+03
1.500000e-07	-7.524987e-06	-2.386014e-08	-5.434318e+01	-1.566876e+03
1.600000e-07	-7.481207e-06	-2.391505e-08	-5.402701e+01	-1.565041e+03
1.700000e-07	-7.434803e-06	-2.385733e-08	-5.369190e+01	-1.563153e+03
1.800000e-07	-7.385737e-06	-2.375512e-08	-5.333756e+01	-1.561129e+03
1.900000e-07	-7.333727e-06	-2.379630e-08	-5.296196e+01	-1.558878e+03
2.000000e-07	-7.278795e-06	-2.373323e-08	-5.256526e+01	-1.556323e+03
2.100000e-07	-7.221232e-06	-2.368828e-08	-5.214955e+01	-1.553420e+03
2.200000e-07	-7.161074e-06	-2.364434e-08	-5.171511e+01	-1.550170e+03
2.300000e-07	-7.098343e-06	-2.356378e-08	-5.126209e+01	-1.546611e+03
2.400000e-07	-7.032959e-06	-2.353198e-08	-5.078990e+01	-1.542808e+03
2.500000e-07	-6.964846e-06	-2.345423e-08	-5.029801e+01	-1.538833e+03
2.600000e-07	-6.894043e-06	-2.340345e-08	-4.978669e+01	-1.534740e+03
2.700000e-07	-6.820518e-06	-2.333029e-08	-4.925572e+01	-1.530551e+03
2.800000e-07	-6.744254e-06	-2.325472e-08	-4.870497e+01	-1.526251e+03
2.900000e-07	-6.665255e-06	-2.316843e-08	-4.813446e+01	-1.521793e+03
3.000000e-07	-6.583575e-06	-2.308436e-08	-4.754459e+01	-1.517113e+03
3.100000e-07	-6.499584e-06	-2.303234e-08	-4.693803e+01	-1.512152e+03
3.200000e-07	-6.413512e-06	-2.294754e-08	-4.631645e+01	-1.506869e+03
3.300000e-07	-6.325167e-06	-2.288639e-08	-4.567845e+01	-1.501255e+03
3.400000e-07	-6.234432e-06	-2.278750e-08	-4.502318e+01	-1.495332e+03
3.500000e-07	-6.141433e-06	-2.268261e-08	-4.435157e+01	-1.489139e+03
3.600000e-07	-6.046188e-06	-2.259611e-08	-4.366374e+01	-1.482719e+03
3.700000e-07	-5.948716e-06	-2.249528e-08	-4.295983e+01	-1.476094e+03
3.800000e-07	-5.849115e-06	-2.238817e-08	-4.224054e+01	-1.469261e+03
3.900000e-07	-5.747490e-06	-2.227750e-08	-4.150663e+01	-1.462178e+03
4.000000e-07	-5.643834e-06	-2.216893e-08	-4.075807e+01	-1.454781e+03
4.100000e-07	-5.538154e-06	-2.203360e-08	-3.999487e+01	-1.446997e+03
4.200000e-07	-5.430505e-06	-2.190841e-08	-3.921746e+01	-1.438762e+03
4.300000e-07	-5.320922e-06	-2.177836e-08	-3.842609e+01	-1.430041e+03
4.400000e-07	-5.209444e-06	-2.163977e-08	-3.762103e+01	-1.420836e+03
4.500000e-07	-5.096017e-06	-2.149429e-08	-3.680190e+01	-1.411178e+03
4.600000e-07	-4.980711e-06	-2.134727e-08	-3.596919e+01	-1.401117e+03
4.700000e-07	-4.863504e-06	-2.118907e-08	-3.512276e+01	-1.390696e+03
4.800000e-07	-4.744420e-06	-2.101592e-08	-3.426276e+01	-1.379932e+03
4.900000e-07	-4.623614e-06	-2.084492e-08	-3.339034e+01	-1.368800e+03
5.000000e-07	-4.501115e-06	-2.066745e-08	-3.250569e+01	-1.357233e+03
5.100000e-07	-4.376885e-06	-2.047967e-08	-3.160854e+01	-1.345129e+03
5.200000e-07	-4.251074e-06	-2.027706e-08	-3.069997e+01	-1.332378e+03
5.300000e-07	-4.123744e-06	-2.007114e-08	-2.978043e+01	-1.318884e+03
5.400000e-07	-3.994856e-06	-1.985311e-08	-2.884964e+01	-1.304588e+03
5.500000e-07	-3.864502e-06	-1.962025e-08	-2.790826e+01	-1.289477e+03
5.600000e-07	-3.732708e-06	-1.937647e-08	-2.695649e+01	-1.273574e+03
5.700000e-07	-3.599505e-06	-1.912623e-08	-2.599454e+01	-1.256925e+03
5.800000e-07	-3.464921e-06	-1.886445e-08	-2.502261e+01	-1.239564e+03
5.900000e-07	-3.328999e-06	-1.859010e-08	-2.404103e+01	-1.221482e+03
6.000000e-07	-3.191794e-06	-1.830287e-08	-2.305017e+01	-1.202616e+03
6.100000e-07	-3.053350e-06	-1.799809e-08	-2.205037e+01	-1.182834e+03
6.200000e-07	-2.913623e-06	-1.767252e-08	-2.104131e+01	-1.161958e+03
6.300000e-07	-2.772554e-06	-1.732358e-08	-2.002255e+01	-1.139791e+03
6.400000e-07	-2.630319e-06	-1.695778e-08	-1.899537e+01	-1.116145e+03
6.500000e-07	-2.487104e-06	-1.657004e-08	-1.796112e+01	-1.090875e+03
6.600000e-07	-2.343003e-06	-1.616136e-08	-1.692046e+01	-1.063886e+03
6.700000e-07	-2.198105e-06	-1.572794e-08	-1.587405e+01	-1.035120e+03
6.800000e-07	-2.052467e-06	-1.526678e-08	-1.482229e+01	-1.004528e+03
6.900000e-07	-1.906099e-06	-1.477402e-08	-1.376527e+01	-9.720224e+02
7.000000e-07	-1.759048e-06	-1.424421e-08	-1.270331e+01	-9.374363e+02
7.100000e-07	-1.611468e-06	-1.367969e-08	-1.163753e+01	-9.004991e+02
7.200000e-07	-1.463463e-06	-1.306893e-08	-1.056869e+01	-8.608436e+02
7.300000e-07	-1.315044e-06	-1.240553e-08	-9.496851e+00	-8.180485e+02
7.400000e-07	-1.166241e-06	-1.169058e-08	-8.422243e+00	-7.717127e+02
7.500000e-07	-1.017065e-06	-1.092458e-08	-7.344936e+00	-7.215456e+02
7.600000e-07	-8.675512e-07	-1.010705e-08	-6.265193e+00	-6.674527e+02
7.700000e-07	-7.177364e-07	-9.236601e-09	-5.183275e+00	-6.095930e+02
7.800000e-07	-5.676430e-07	-8.313478e-09	-4.099346e+00	-5.483885e+02
7.900000e-07	-4.173278e-07	-7.342007e-09	-3.013816e+00	-4.844791e+02
8.000000e-07	-2.668334e-07	-6.333134e-09	-1.926990e+00	-4.186245e+02
8.100000e-07	-1.162181e-07	-5.300144e-09	-8.392916e-01	-3.515746e+02
8.200000e-07	3.449151e-08	-4.258844e-09	2.490872e-01	-2.839332e+02
8.300000e-07	1.852639e-07	-3.219435e-09	1.337920e+00	-2.160499e+02
8.400000e-07	3.359974e-07	-2.182733e-09	2.426472e+00	-1.479643e+02
8.500000e-07	4.865900e-07	-1.143545e-09	3.514006e+00	-7.942323e+01
8.600000e-07	6.370550e-07	-9.476663e-11	4.600619e+00	-9.967261e+00
8.700000e-07	7.873491e-07	9.728650e-10	5.685997e+00	6.092607e+01
8.800000e-07	9.373203e-07	2.070229e-09	6.769044e+00	1.336741e+02
8.900000e-07	1.086927e-06	3.204626e-09	7.849457e+00	2.084318e+02
9.000000e-07	1.236159e-06	4.373361e-09	8.927164e+00	2.849815e+02
9.100000e-07	1.384986e-06	5.566695e-09	1.000195e+01	3.626947e+02
9.200000e-07	1.533379e-06	6.767957e-09	1.107360e+01	4.405755e+02
9.300000e-07	1.681244e-06	7.948329e-09	1.214143e+01	5.173794e+02
9.400000e-07	1.828487e-06	9.080422e-09	1.320478e+01	5.917806e+02
9.500000e-07	1.975058e-06	1.014556e-08	1.426328e+01	6.625547e+02
9.600000e-07	2.120923e-06	1.113559e-08	1.531667e+01	7.287404e+02
9.700000e-07	2.266068e-06	1.204787e-08	1.636486e+01	7.897475e+02
9.800000e-07	2.410397e-06	1.288191e-08	1.740716e+01	8.453947e+02
9.900000e-07	2.553719e-06	1.364487e-08	1.844218e+01	8.958753e+02
1.000000e-06	2.695977e-06	1.434405e-08	1.946953e+01	9.416635e+02
1.010000e-06	2.837172e-06	1.498676e-08	2.048920e+01	9.833882e+02
1.020000e-06	2.977238e-06	1.557699e-08	2.150071e+01	1.021703e+03
1.030000e-06	3.116066e-06	1.612089e-08	2.250329e+01	1.057180e+03
1.040000e-06	3.253649e-06	1.662339e-08	2.349687e+01	1.090248e+03
1.050000e-06	3.390020e-06	1.708777e-08	2.448170e+01	1.121174e+03
1.060000e-06	3.525095e-06	1.752043e-08	2.545717e+01	1.150096e+03
1.070000e-06	3.658870e-06	1.792471e-08	2.642325e+01	1.177075e+03
1.080000e-06	3.791373e-06	1.830266e-08	2.738015e+01	1.202156e+03
1.090000e-06	3.922472e-06	1.865411e-08	2.832691e+01	1.225418e+03
1.100000e-06	4.052155e-06	1.898405e-08	2.926344e+01	1.247001e+03
1.110000e-06	4.180433e-06	1.929467e-08	3.018982e+01	1.267099e+03
1.120000e-06	4.307242e-06	1.958699e-08	3.110560e+01	1.285938e+03
1.130000e-06	4.432588e-06	1.986148e-08	3.201081e+01	1.303733e+03
1.140000e-06	4.556409e-06	2.011958e-08	3.290501e+01	1.320654e+03
1.150000e-06	4.678649e-06	2.036370e-08	3.378779e+01	1.336805e+03
1.160000e-06	4.799200e-06	2.059510e-08	3.465837e+01	1.352217e+03
1.170000e-06	4.918042e-06	2.081141e-08	3.551661e+01	1.366868e+03
1.180000e-06	5.035109e-06	2.101436e-08	3.636204e+01	1.380714e+03
1.190000e-06	5.150250e-06	2.120780e-08	3.719355e+01	1.393722e+03
1.200000e-06	5.263381e-06	2.139148e-08	3.801055e+01	1.405897e+03
1.210000e-06	5.374516e-06	2.156779e-08	3.881313e+01	1.417291e+03
1.220000e-06	5.483770e-06	2.173565e-08	3.960213e+01	1.428000e+03
1.230000e-06	5.591119e-06	2.189529e-08	4.037737e+01	1.438141e+03
1.240000e-06	5.696423e-06	2.204672e-08	4.113784e+01	1.447821e+03
1.250000e-06	5.799589e-06	2.218969e-08	4.188288e+01	1.457118e+03
1.260000e-06	5.900650e-06	2.232519e-08	4.261271e+01	1.466056e+03
1.270000e-06	5.999593e-06	2.245233e-08	4.332725e+01	1.474616e+03
1.280000e-06	6.096224e-06	2.257180e-08	4.402509e+01	1.482741e+03
1.290000e-06	6.190548e-06	2.268398e-08	4.470627e+01	1.490369e+03
1.300000e-06	6.282704e-06	2.278992e-08	4.537179e+01	1.497456e+03
1.310000e-06	6.372615e-06	2.289002e-08	4.602110e+01	1.503999e+03
1.320000e-06	6.460196e-06	2.298439e-08	4.665358e+01	1.510043e+03
1.330000e-06	6.545470e-06	2.307319e-08	4.726940e+01	1.515677e+03
1.340000e-06	6.628556e-06	2.315758e-08	4.786943e+01	1.521011e+03
1.350000e-06	6.709298e-06	2.323900e-08	4.845252e+01	1.526148e+03
1.360000e-06	6.787493e-06	2.331559e-08	4.901722e+01	1.531166e+03
1.370000e-06	6.863137e-06	2.338896e-08	4.956350e+01	1.536092e+03
1.380000e-06	6.936123e-06	2.345851e-08	5.009059e+01	1.540906e+03
1.390000e-06	7.006603e-06	2.352456e-08	5.059957e+01	1.545549e+03
1.400000e-06	7.074694e-06	2.358868e-08	5.109130e+01	1.549946e+03
1.410000e-06	7.140178e-06	2.365044e-08	5.156421e+01	1.554030e+03
1.420000e-06	7.203113e-06	2.370866e-08	5.201870e+01	1.557763e+03
1.430000e-06	7.263675e-06	2.376106e-08	5.245606e+01	1.561147e+03
1.440000e-06	7.321670e-06	2.380931e-08	5.287489e+01	1.564222e+03
1.450000e-06	7.376993e-06	2.385536e-08	5.327441e+01	1.567054e+03
1.460000e-06	7.429591e-06	2.389868e-08	5.365426e+01	1.569714e+03
1.470000e-06	7.479139e-06	2.393967e-08	5.401208e+01	1.572254e+03
1.480000e-06	7.525755e-06	2.397749e-08	5.434873e+01	1.574695e+03
1.490000e-06	7.569831e-06	2.401198e-08	5.466703e+01	1.577024e+03
1.500000e-06	7.611196e-06	2.404126e-08	5.496576e+01	1.579196e+03
1.510000e-06	7.649760e-06	2.406639e-08	5.524426e+01	1.581158e+03
1.520000e-06	7.685762e-06	2.409120e-08	5.550425e+01	1.582862e+03
1.530000e-06	7.719027e-06	2.411418e-08	5.574448e+01	1.584285e+03
1.540000e-06	7.749498e-06	2.413604e-08	5.596453e+01	1.585439e+03
1.550000e-06	7.777321e-06	2.415209e-08	5.616546e+01	1.586367e+03
1.560000e-06	7.802288e-06	2.416535e-08	5.634576e+01	1.587132e+03
1.570000e-06	7.824378e-06	2.417665e-08	5.650529e+01	1.587800e+03
1.580000e-06	7.843792e-06	2.418532e-08	5.664549e+01	1.588416e+03
1.590000e-06	7.860416e-06	2.419483e-08	5.676555e+01	1.588998e+03
1.600000e-06	7.874073e-06	2.420218e-08	5.686418e+01	1.589529e+03
1.610000e-06	7.884608e-06	2.420822e-08	5.694025e+01	1.589964e+03
1.620000e-06	7.892072e-06	2.421201e-08	5.699416e+01	1.590248e+03
1.630000e-06	7.896748e-06	2.421472e-08	5.702792e+01	1.590331e+03
1.640000e-06	7.898628e-06	2.421648e-08	5.704150e+01	1.590186e+03
1.650000e-06	7.897715e-06	2.421379e-08	5.703491e+01	1.589820e+03
1.660000e-06	7.894209e-06	2.420108e-08	5.700959e+01	1.589268e+03
1.670000e-06	7.888056e-06	2.419293e-08	5.696516e+01	1.588583e+03
1.680000e-06	7.879198e-06	2.418540e-08	5.690119e+01	1.587821e+03
1.690000e-06	7.867713e-06	2.417387e-08	5.681824e+01	1.587022e+03
1.700000e-06	7.853443e-06	2.416402e-08	5.671519e+01	1.586197e+03
1.710000e-06	7.836552e-06	2.416026e-08	5.659321e+01	1.585329e+03
1.720000e-06	7.817447e-06	2.416125e-08	5.645524e+01	1.584375e+03
1.730000e-06	7.795925e-06	2.409957e-08	5.629981e+01	1.583285e+03
1.740000e-06	7.771317e-06	2.401869e-08	5.612210e+01	1.582017e+03
1.750000e-06	7.743110e-06	2.404310e-08	5.591840e+01	1.580555e+03
1.760000e-06	7.711459e-06	2.404568e-08	5.568983e+01	1.578916e+03
1.770000e-06	7.677154e-06	2.399792e-08	5.544209e+01	1.577144e+03
1.780000e-06	7.640586e-06	2.400731e-08	5.517800e+01	1.575299e+03
1.790000e-06	7.601796e-06	2.406002e-08	5.489787e+01	1.573438e+03
1.800000e-06	7.561100e-06	2.393655e-08	5.460398e+01	1.571594e+03
1.810000e-06	7.518235e-06	2.392191e-08	5.429442e+01	1.569761e+03
1.820000e-06	7.472675e-06	2.397239e-08	5.396540e+01	1.567894e+03
1.830000e-06	7.424454e-06	2.385247e-08	5.361716e+01	1.565917e+03
1.840000e-06	7.373309e-06	2.389877e-08	5.324781e+01	1.563739e+03
1.850000e-06	7.319185e-06	2.378989e-08	5.285694e+01	1.561275e+03
1.860000e-06	7.262367e-06	2.374619e-08	5.244662e+01	1.558473e+03
1.870000e-06	7.202981e-06	2.376097e-08	5.201775e+01	1.555318e+03
1.880000e-06	7.141035e-06	2.363310e-08	5.157039e+01	1.551840e+03
1.890000e-06	7.076265e-06	2.366140e-08	5.110265e+01	1.548098e+03
1.900000e-06	7.008724e-06	2.356677e-08	5.061489e+01	1.544165e+03
1.910000e-06	6.938473e-06	2.350152e-08	5.010755e+01	1.540100e+03
1.920000e-06	6.865491e-06	2.345202e-08	4.958050e+01	1.535937e+03
1.930000e-06	6.789858e-06	2.337991e-08	4.903430e+01	1.531671e+03
1.940000e-06	6.711517e-06	2.336535e-08	4.846855e+01	1.527263e+03
1.950000e-06	6.630609e-06	2.324508e-08	4.788425e+01	1.522652e+03
1.960000e-06	6.547256e-06	2.318996e-08	4.728231e+01	1.517776e+03
1.970000e-06	6.461458e-06	2.307566e-08	4.666269e+01	1.512586e+03
1.980000e-06	6.373291e-06	2.299636e-08	4.602598e+01	1.507064e+03
1.990000e-06	6.282891e-06	2.293836e-08	4.537314e+01	1.501225e+03
2.000000e-06	6.190276e-06	2.283650e-08	4.470430e+01	1.495103e+03
2.010000e-06	6.095383e-06	2.276422e-08	4.401901e+01	1.488743e+03
2.020000e-06	5.998339e-06	2.264150e-08	4.331819e+01	1.482175e+03
2.030000e-06	5.899132e-06	2.253333e-08	4.260175e+01	1.475403e+03
2.040000e-06	5.797855e-06	2.240775e-08	4.187036e+01	1.468395e+03
2.050000e-06	5.694570e-06	2.231400e-08	4.112447e+01	1.461095e+03
2.060000e-06	5.589295e-06	2.219903e-08	4.036420e+01	1.453427e+03
2.070000e-06	5.482120e-06	2.207220e-08	3.959021e+01	1.445325e+03
2.080000e-06	5.373029e-06	2.194490e-08	3.880239e+01	1.436743e+03
2.090000e-06	5.262002e-06	2.180779e-08	3.800059e+01	1.427673e+03
2.100000e-06	5.149030e-06	2.167007e-08	3.718474e+01	1.418138e+03
2.110000e-06	5.034109e-06	2.151748e-08	3.635481e+01	1.408186e+03
2.120000e-06	4.917204e-06	2.137127e-08	3.551056e+01	1.397863e+03
2.130000e-06	4.798392e-06	2.120041e-08	3.465254e+01	1.387197e+03
2.140000e-06	4.677757e-06	2.102477e-08	3.378135e+01	1.376174e+03
2.150000e-06	4.555435e-06	2.084395e-08	3.289798e+01	1.364739e+03
2.160000e-06	4.431404e-06	2.066961e-08	3.200226e+01	1.352799e+03
2.170000e-06	4.305728e-06	2.047804e-08	3.109467e+01	1.340242e+03
2.180000e-06	4.178534e-06	2.027548e-08	3.017611e+01	1.326967e+03
2.190000e-06	4.049750e-06	2.006631e-08	2.924607e+01	1.312903e+03
2.200000e-06	3.919450e-06	1.984720e-08	2.830508e+01	1.298022e+03
2.210000e-06	3.787722e-06	1.961098e-08	2.735378e+01	1.282340e+03
2.220000e-06	3.654545e-06	1.936107e-08	2.639202e+01	1.265899e+03
2.230000e-06	3.520043e-06	1.910273e-08	2.542069e+01	1.248738e+03
2.240000e-06	3.384334e-06	1.882465e-08	2.444064e+01	1.230865e+03
2.250000e-06	3.247299e-06	1.853533e-08	2.345101e+01	1.212232e+03
2.260000e-06	3.108939e-06	1.823450e-08	2.245182e+01	1.192727e+03
2.270000e-06	2.969352e-06	1.792412e-08	2.144376e+01	1.172183e+03
2.280000e-06	2.828586e-06	1.759158e-08	2.042719e+01	1.150403e+03
2.290000e-06	2.686750e-06	1.723887e-08	1.940289e+01	1.127196e+03
2.300000e-06	2.543981e-06	1.686616e-08	1.837186e+01	1.102401e+03
2.310000e-06	2.400325e-06	1.647159e-08	1.733442e+01	1.075908e+03
2.320000e-06	2.255801e-06	1.604861e-08	1.629072e+01	1.047653e+03
2.330000e-06	2.110474e-06	1.559471e-08	1.524121e+01	1.017588e+03
2.340000e-06	1.964463e-06	1.510801e-08	1.418676e+01	9.856411e+02
2.350000e-06	1.817848e-06	1.458438e-08	1.312795e+01	9.516712e+02
2.360000e-06	1.670572e-06	1.402456e-08	1.206436e+01	9.154383e+02
2.370000e-06	1.522694e-06	1.342590e-08	1.099644e+01	8.766000e+02
2.380000e-06	1.374325e-06	1.278485e-08	9.924963e+00	8.347441e+02
2.390000e-06	1.225563e-06	1.209490e-08	8.850646e+00	7.894549e+02
2.400000e-06	1.076456e-06	1.134874e-08	7.773841e+00	7.404009e+02
2.410000e-06	9.269581e-07	1.054497e-08	6.694211e+00	6.874240e+02
2.420000e-06	7.771173e-07	9.686962e-09	5.612106e+00	6.306073e+02
2.430000e-06	6.269903e-07	8.776252e-09	4.527934e+00	5.703001e+02
2.440000e-06	4.766760e-07	7.815398e-09	3.442410e+00	5.070877e+02
2.450000e-06	3.262350e-07	6.813260e-09	2.355970e+00	4.417081e+02
2.460000e-06	1.756933e-07	5.785946e-09	1.268804e+00	3.749281e+02
2.470000e-06	2.511121e-08	4.746090e-09	1.813456e-01	3.074061e+02
2.480000e-06	-1.255343e-07	3.701542e-09	-9.065709e-01	2.395727e+02
2.490000e-06	-2.761626e-07	2.659311e-09	-1.994363e+00	1.715578e+02
2.500000e-06	-4.266977e-07	1.615137e-09	-3.081482e+00	1.031858e+02
2.510000e-06	-5.771481e-07	5.610801e-10	-4.167989e+00	3.404366e+01
2.520000e-06	-7.274260e-07	-5.083116e-10	-5.253251e+00	-3.638985e+01
2.530000e-06	-8.774731e-07	-1.601843e-09	-6.336845e+00	-1.085793e+02
2.540000e-06	-1.027219e-06	-2.729458e-09	-7.418268e+00	-1.827685e+02
2.550000e-06	-1.176572e-06	-3.892509e-09	-8.496844e+00	-2.588538e+02
2.560000e-06	-1.325594e-06	-5.080427e-09	-9.573036e+00	-3.363229e+02
2.570000e-06	-1.474227e-06	-6.280981e-09	-1.064642e+01	-4.142760e+02
2.580000e-06	-1.622270e-06	-7.474341e-09	-1.171554e+01	-4.915241e+02
2.590000e-06	-1.769610e-06	-8.632778e-09	-1.277959e+01	-5.667456e+02
2.600000e-06	-1.916244e-06	-9.732455e-09	-1.383853e+01	-6.386694e+02
2.610000e-06	-2.062205e-06	-1.075968e-08	-1.489262e+01	-7.062452e+02
2.620000e-06	-2.207467e-06	-1.170891e-08	-1.594166e+01	-7.687694e+02
2.630000e-06	-2.351920e-06	-1.257924e-08	-1.698485e+01	-8.259446e+02
2.640000e-06	-2.495392e-06	-1.337445e-08	-1.802096e+01	-8.778643e+02
2.650000e-06	-2.637824e-06	-1.410159e-08	-1.904957e+01	-9.249344e+02
2.660000e-06	-2.779233e-06	-1.476831e-08	-2.007078e+01	-9.677535e+02
2.670000e-06	-2.919520e-06	-1.538044e-08	-2.108389e+01	-1.006980e+03
2.680000e-06	-3.058612e-06	-1.594270e-08	-2.208837e+01	-1.043219e+03
2.690000e-06	-3.196501e-06	-1.645946e-08	-2.308416e+01	-1.076942e+03
2.700000e-06	-3.333184e-06	-1.693667e-08	-2.407125e+01	-1.108462e+03
2.710000e-06	-3.468631e-06	-1.738099e-08	-2.504941e+01	-1.137950e+03
2.720000e-06	-3.602875e-06	-1.779605e-08	-2.601887e+01	-1.165481e+03
2.730000e-06	-3.735814e-06	-1.818533e-08	-2.697892e+01	-1.191099e+03
2.740000e-06	-3.867276e-06	-1.854786e-08	-2.792830e+01	-1.214871e+03
2.750000e-06	-3.997388e-06	-1.888404e-08	-2.886793e+01	-1.236917e+03
2.760000e-06	-4.126187e-06	-1.919974e-08	-2.979808e+01	-1.257419e+03
2.770000e-06	-4.253501e-06	-1.949890e-08	-3.071750e+01	-1.276595e+03
2.780000e-06	-4.379425e-06	-1.978185e-08	-3.162688e+01	-1.294670e+03
2.790000e-06	-4.503886e-06	-2.004853e-08	-3.252570e+01	-1.311828e+03
2.800000e-06	-4.626697e-06	-2.029936e-08	-3.341261e+01	-1.328194e+03
2.810000e-06	-4.747894e-06	-2.053615e-08	-3.428786e+01	-1.343818e+03
2.820000e-06	-4.867352e-06	-2.076081e-08	-3.515054e+01	-1.358692e+03
2.830000e-06	-4.984933e-06	-2.097368e-08	-3.599968e+01	-1.372774e+03
2.840000e-06	-5.100468e-06	-2.117610e-08	-3.683404e+01	-1.386024e+03
2.850000e-06	-5.213870e-06	-2.136635e-08	-3.765299e+01	-1.398435e+03
2.860000e-06	-5.325177e-06	-2.154471e-08	-3.845682e+01	-1.410046e+03
2.870000e-06	-5.434459e-06	-2.171324e-08	-3.924602e+01	-1.420940e+03
2.880000e-06	-5.541898e-06	-2.187348e-08	-4.002191e+01	-1.431233e+03
2.890000e-06	-5.647510e-06	-2.202464e-08	-4.078461e+01	-1.441036e+03
2.900000e-06	-5.751090e-06	-2.216777e-08	-4.153264e+01	-1.450438e+03
2.910000e-06	-5.852419e-06	-2.230587e-08	-4.226440e+01	-1.459481e+03
2.920000e-06	-5.951545e-06	-2.243835e-08	-4.298026e+01	-1.468155e+03
2.930000e-06	-6.048628e-06	-2.256436e-08	-4.368136e+01	-1.476412e+03
2.940000e-06	-6.143600e-06	-2.268231e-08	-4.436722e+01	-1.484189e+03
