# Temperatura_=_88.1
# Concentracion g/m^3_=_28200.0
# C_Vs_to_Am_M_A/Vsm_=_65563218390.804596
# pendiente_HvsI_1/m_=_3716.3
# ordenada_HvsI_A/m_=_1297.0
# frecuencia_Hz_=_302504.1807838254

Tiempo_(s)	Campo_(V.s)	Magnetizacion_(V.s)	Campo_(kA/m)	Magnetizacion_(A/m)
0.000000e+00	-7.820162e-06	-2.948890e-08	-5.683704e+01	-1.931724e+03
1.000000e-08	-7.815701e-06	-2.948365e-08	-5.680462e+01	-1.930958e+03
2.000000e-08	-7.808745e-06	-2.947259e-08	-5.675406e+01	-1.930070e+03
3.000000e-08	-7.799099e-06	-2.945855e-08	-5.668395e+01	-1.929105e+03
4.000000e-08	-7.786606e-06	-2.944004e-08	-5.659315e+01	-1.928076e+03
5.000000e-08	-7.771225e-06	-2.941638e-08	-5.648136e+01	-1.926959e+03
6.000000e-08	-7.753197e-06	-2.938870e-08	-5.635034e+01	-1.925702e+03
7.000000e-08	-7.732983e-06	-2.935437e-08	-5.620342e+01	-1.924243e+03
8.000000e-08	-7.710415e-06	-2.934352e-08	-5.603939e+01	-1.922535e+03
9.000000e-08	-7.684866e-06	-2.938301e-08	-5.585370e+01	-1.920561e+03
1.000000e-07	-7.656223e-06	-2.934037e-08	-5.564552e+01	-1.918347e+03
1.100000e-07	-7.624702e-06	-2.925679e-08	-5.541643e+01	-1.915957e+03
1.200000e-07	-7.590437e-06	-2.921368e-08	-5.516740e+01	-1.913474e+03
1.300000e-07	-7.553609e-06	-2.917061e-08	-5.489972e+01	-1.910977e+03
1.400000e-07	-7.514491e-06	-2.908421e-08	-5.461542e+01	-1.908511e+03
1.500000e-07	-7.473194e-06	-2.901701e-08	-5.431527e+01	-1.906075e+03
1.600000e-07	-7.429495e-06	-2.908553e-08	-5.399767e+01	-1.903609e+03
1.700000e-07	-7.383229e-06	-2.899205e-08	-5.366141e+01	-1.901008e+03
1.800000e-07	-7.334290e-06	-2.888258e-08	-5.330571e+01	-1.898147e+03
1.900000e-07	-7.282412e-06	-2.889939e-08	-5.292867e+01	-1.894909e+03
2.000000e-07	-7.227706e-06	-2.879192e-08	-5.253106e+01	-1.891215e+03
2.100000e-07	-7.170401e-06	-2.873137e-08	-5.211456e+01	-1.887042e+03
2.200000e-07	-7.110438e-06	-2.866564e-08	-5.167875e+01	-1.882428e+03
2.300000e-07	-7.047883e-06	-2.858524e-08	-5.122410e+01	-1.877453e+03
2.400000e-07	-6.982678e-06	-2.853444e-08	-5.075019e+01	-1.872222e+03
2.500000e-07	-6.914808e-06	-2.843142e-08	-5.025692e+01	-1.866825e+03
2.600000e-07	-6.844329e-06	-2.836090e-08	-4.974467e+01	-1.861315e+03
2.700000e-07	-6.771124e-06	-2.826889e-08	-4.921262e+01	-1.855693e+03
2.800000e-07	-6.695204e-06	-2.817797e-08	-4.866083e+01	-1.849907e+03
2.900000e-07	-6.616563e-06	-2.807147e-08	-4.808926e+01	-1.843872e+03
3.000000e-07	-6.535184e-06	-2.796283e-08	-4.749780e+01	-1.837494e+03
3.100000e-07	-6.451523e-06	-2.788231e-08	-4.688975e+01	-1.830701e+03
3.200000e-07	-6.365783e-06	-2.776605e-08	-4.626659e+01	-1.823460e+03
3.300000e-07	-6.277750e-06	-2.766362e-08	-4.562677e+01	-1.815790e+03
3.400000e-07	-6.187375e-06	-2.752643e-08	-4.496992e+01	-1.807748e+03
3.500000e-07	-6.094803e-06	-2.740349e-08	-4.429710e+01	-1.799408e+03
3.600000e-07	-6.000094e-06	-2.728675e-08	-4.360876e+01	-1.790835e+03
3.700000e-07	-5.903176e-06	-2.714654e-08	-4.290436e+01	-1.782059e+03
3.800000e-07	-5.804103e-06	-2.700903e-08	-4.218429e+01	-1.773057e+03
3.900000e-07	-5.702994e-06	-2.686267e-08	-4.144943e+01	-1.763761e+03
4.000000e-07	-5.599919e-06	-2.671382e-08	-4.070028e+01	-1.754067e+03
4.100000e-07	-5.494837e-06	-2.654390e-08	-3.993655e+01	-1.743871e+03
4.200000e-07	-5.387767e-06	-2.639025e-08	-3.915836e+01	-1.733091e+03
4.300000e-07	-5.278799e-06	-2.622445e-08	-3.836638e+01	-1.721691e+03
4.400000e-07	-5.167953e-06	-2.604623e-08	-3.756075e+01	-1.709691e+03
4.500000e-07	-5.055227e-06	-2.585606e-08	-3.674146e+01	-1.697150e+03
4.600000e-07	-4.940486e-06	-2.565948e-08	-3.590752e+01	-1.684146e+03
4.700000e-07	-4.823770e-06	-2.545428e-08	-3.505922e+01	-1.670744e+03
4.800000e-07	-4.705326e-06	-2.523901e-08	-3.419837e+01	-1.656963e+03
4.900000e-07	-4.585215e-06	-2.502522e-08	-3.332540e+01	-1.642764e+03
5.000000e-07	-4.463352e-06	-2.479415e-08	-3.243970e+01	-1.628049e+03
5.100000e-07	-4.339758e-06	-2.455097e-08	-3.154142e+01	-1.612682e+03
5.200000e-07	-4.214655e-06	-2.429818e-08	-3.063216e+01	-1.596521e+03
5.300000e-07	-4.088106e-06	-2.404102e-08	-2.971241e+01	-1.579451e+03
5.400000e-07	-3.960071e-06	-2.376708e-08	-2.878185e+01	-1.561410e+03
5.500000e-07	-3.830514e-06	-2.347934e-08	-2.784022e+01	-1.542401e+03
5.600000e-07	-3.699399e-06	-2.317919e-08	-2.688728e+01	-1.522473e+03
5.700000e-07	-3.566867e-06	-2.286478e-08	-2.592403e+01	-1.501694e+03
5.800000e-07	-3.433038e-06	-2.253296e-08	-2.495136e+01	-1.480107e+03
5.900000e-07	-3.298000e-06	-2.218694e-08	-2.396991e+01	-1.457698e+03
6.000000e-07	-3.161740e-06	-2.183018e-08	-2.297957e+01	-1.434371e+03
6.100000e-07	-3.024160e-06	-2.145518e-08	-2.197963e+01	-1.409950e+03
6.200000e-07	-2.885269e-06	-2.105939e-08	-2.097017e+01	-1.384202e+03
6.300000e-07	-2.745120e-06	-2.063552e-08	-1.995156e+01	-1.356881e+03
6.400000e-07	-2.603851e-06	-2.018813e-08	-1.892482e+01	-1.327768e+03
6.500000e-07	-2.461585e-06	-1.971374e-08	-1.789083e+01	-1.296705e+03
6.600000e-07	-2.318370e-06	-1.921315e-08	-1.684994e+01	-1.263607e+03
6.700000e-07	-2.174271e-06	-1.868369e-08	-1.580263e+01	-1.228432e+03
6.800000e-07	-2.029371e-06	-1.812092e-08	-1.474949e+01	-1.191146e+03
6.900000e-07	-1.883736e-06	-1.752407e-08	-1.369102e+01	-1.151653e+03
7.000000e-07	-1.737490e-06	-1.688314e-08	-1.262810e+01	-1.109750e+03
7.100000e-07	-1.590766e-06	-1.619728e-08	-1.156171e+01	-1.065097e+03
7.200000e-07	-1.443594e-06	-1.545737e-08	-1.049206e+01	-1.017232e+03
7.300000e-07	-1.295970e-06	-1.465703e-08	-9.419129e+00	-9.656290e+02
7.400000e-07	-1.147911e-06	-1.379596e-08	-8.343030e+00	-9.097920e+02
7.500000e-07	-9.994980e-07	-1.287571e-08	-7.264364e+00	-8.493677e+02
7.600000e-07	-8.508319e-07	-1.189399e-08	-6.183857e+00	-7.842421e+02
7.700000e-07	-7.018793e-07	-1.084648e-08	-5.101268e+00	-7.146010e+02
7.800000e-07	-5.526915e-07	-9.734479e-09	-4.016969e+00	-6.409293e+02
7.900000e-07	-4.033317e-07	-8.564620e-09	-2.931420e+00	-5.639444e+02
8.000000e-07	-2.538812e-07	-7.348314e-09	-1.845212e+00	-4.844741e+02
8.100000e-07	-1.043301e-07	-6.097903e-09	-7.582725e-01	-4.033027e+02
8.200000e-07	4.532890e-08	-4.830657e-09	3.294510e-01	-3.210225e+02
8.300000e-07	1.949803e-07	-3.554254e-09	1.417119e+00	-2.379268e+02
8.400000e-07	3.445852e-07	-2.271277e-09	2.504450e+00	-1.539736e+02
8.500000e-07	4.941139e-07	-9.788907e-10	3.591226e+00	-6.883421e+01
8.600000e-07	6.435011e-07	3.312333e-10	4.676974e+00	1.798025e+01
8.700000e-07	7.927340e-07	1.669449e-09	5.761601e+00	1.069389e+02
8.800000e-07	9.417918e-07	3.047883e-09	6.844955e+00	1.982985e+02
8.900000e-07	1.090570e-06	4.469473e-09	7.926279e+00	2.919412e+02
9.000000e-07	1.238990e-06	5.926877e-09	9.004998e+00	3.872820e+02
9.100000e-07	1.387003e-06	7.403238e-09	1.008075e+01	4.832703e+02
9.200000e-07	1.534492e-06	8.871898e-09	1.115271e+01	5.784865e+02
9.300000e-07	1.681448e-06	1.029571e-08	1.222078e+01	6.713181e+02
9.400000e-07	1.827873e-06	1.164237e-08	1.328500e+01	7.601767e+02
9.500000e-07	1.973667e-06	1.289532e-08	1.434464e+01	8.437135e+02
9.600000e-07	2.118639e-06	1.404818e-08	1.539829e+01	9.209885e+02
9.700000e-07	2.262690e-06	1.510183e-08	1.644526e+01	9.915626e+02
9.800000e-07	2.405909e-06	1.606346e-08	1.748617e+01	1.055499e+03
9.900000e-07	2.548256e-06	1.694357e-08	1.852075e+01	1.113278e+03
1.000000e-06	2.689620e-06	1.774707e-08	1.954820e+01	1.165658e+03
1.010000e-06	2.829903e-06	1.848331e-08	2.056777e+01	1.213501e+03
1.020000e-06	2.968952e-06	1.916187e-08	2.157838e+01	1.257621e+03
1.030000e-06	3.106732e-06	1.978959e-08	2.257977e+01	1.298671e+03
1.040000e-06	3.243303e-06	2.037205e-08	2.357237e+01	1.337091e+03
1.050000e-06	3.378636e-06	2.091308e-08	2.455597e+01	1.373116e+03
1.060000e-06	3.512685e-06	2.141682e-08	2.553024e+01	1.406834e+03
1.070000e-06	3.645554e-06	2.188498e-08	2.649593e+01	1.438269e+03
1.080000e-06	3.777220e-06	2.232419e-08	2.745288e+01	1.467455e+03
1.090000e-06	3.907443e-06	2.273562e-08	2.839935e+01	1.494498e+03
1.100000e-06	4.036167e-06	2.312016e-08	2.933492e+01	1.519590e+03
1.110000e-06	4.163457e-06	2.348152e-08	3.026006e+01	1.542995e+03
1.120000e-06	4.289357e-06	2.382261e-08	3.117510e+01	1.565004e+03
1.130000e-06	4.413890e-06	2.414555e-08	3.208021e+01	1.585884e+03
1.140000e-06	4.536893e-06	2.445261e-08	3.297420e+01	1.605830e+03
1.150000e-06	4.658197e-06	2.474232e-08	3.385584e+01	1.624944e+03
1.160000e-06	4.777823e-06	2.501388e-08	3.472528e+01	1.643237e+03
1.170000e-06	4.895744e-06	2.526979e-08	3.558233e+01	1.660660e+03
1.180000e-06	5.011871e-06	2.551281e-08	3.642634e+01	1.677142e+03
1.190000e-06	5.126043e-06	2.574644e-08	3.725614e+01	1.692638e+03
1.200000e-06	5.238197e-06	2.596837e-08	3.807128e+01	1.707157e+03
1.210000e-06	5.348445e-06	2.617784e-08	3.887256e+01	1.720773e+03
1.220000e-06	5.456926e-06	2.637615e-08	3.966101e+01	1.733610e+03
1.230000e-06	5.563495e-06	2.656363e-08	4.043555e+01	1.745819e+03
1.240000e-06	5.667944e-06	2.674146e-08	4.119469e+01	1.757535e+03
1.250000e-06	5.770303e-06	2.691276e-08	4.193864e+01	1.768849e+03
1.260000e-06	5.870592e-06	2.707878e-08	4.266754e+01	1.779790e+03
1.270000e-06	5.968663e-06	2.723679e-08	4.338032e+01	1.790329e+03
1.280000e-06	6.064393e-06	2.738748e-08	4.407609e+01	1.800397e+03
1.290000e-06	6.157957e-06	2.753152e-08	4.475611e+01	1.809916e+03
1.300000e-06	6.249392e-06	2.766780e-08	4.542066e+01	1.818829e+03
1.310000e-06	6.338535e-06	2.779543e-08	4.606856e+01	1.827126e+03
1.320000e-06	6.425375e-06	2.791372e-08	4.669971e+01	1.834848e+03
1.330000e-06	6.509999e-06	2.802782e-08	4.731476e+01	1.842081e+03
1.340000e-06	6.592377e-06	2.813941e-08	4.791348e+01	1.848930e+03
1.350000e-06	6.672373e-06	2.824610e-08	4.849489e+01	1.855495e+03
1.360000e-06	6.749905e-06	2.834748e-08	4.905840e+01	1.861843e+03
1.370000e-06	6.824806e-06	2.844167e-08	4.960278e+01	1.867997e+03
1.380000e-06	6.897064e-06	2.853063e-08	5.012795e+01	1.873934e+03
1.390000e-06	6.966903e-06	2.861305e-08	5.063554e+01	1.879602e+03
1.400000e-06	7.034332e-06	2.868969e-08	5.112561e+01	1.884944e+03
1.410000e-06	7.099196e-06	2.876398e-08	5.159705e+01	1.889919e+03
1.420000e-06	7.161545e-06	2.883386e-08	5.205020e+01	1.894517e+03
1.430000e-06	7.221496e-06	2.889999e-08	5.248593e+01	1.898771e+03
1.440000e-06	7.278946e-06	2.896265e-08	5.290347e+01	1.902740e+03
1.450000e-06	7.333816e-06	2.902454e-08	5.330226e+01	1.906496e+03
1.460000e-06	7.385857e-06	2.908634e-08	5.368050e+01	1.910099e+03
1.470000e-06	7.434786e-06	2.914420e-08	5.403612e+01	1.913577e+03
1.480000e-06	7.480902e-06	2.919690e-08	5.437129e+01	1.916918e+03
1.490000e-06	7.524535e-06	2.924343e-08	5.468842e+01	1.920076e+03
1.500000e-06	7.565493e-06	2.928425e-08	5.498610e+01	1.922982e+03
1.510000e-06	7.603681e-06	2.932042e-08	5.526365e+01	1.925569e+03
1.520000e-06	7.639224e-06	2.935300e-08	5.552197e+01	1.927796e+03
1.530000e-06	7.671993e-06	2.938258e-08	5.576014e+01	1.929657e+03
1.540000e-06	7.702070e-06	2.940918e-08	5.597874e+01	1.931189e+03
1.550000e-06	7.729574e-06	2.943348e-08	5.617864e+01	1.932459e+03
1.560000e-06	7.754201e-06	2.945583e-08	5.635763e+01	1.933547e+03
1.570000e-06	7.775999e-06	2.947428e-08	5.651606e+01	1.934523e+03
1.580000e-06	7.795161e-06	2.948965e-08	5.665533e+01	1.935424e+03
1.590000e-06	7.811464e-06	2.950311e-08	5.677382e+01	1.936250e+03
1.600000e-06	7.824752e-06	2.951224e-08	5.687039e+01	1.936963e+03
1.610000e-06	7.834940e-06	2.951626e-08	5.694444e+01	1.937503e+03
1.620000e-06	7.842136e-06	2.951793e-08	5.699674e+01	1.937807e+03
1.630000e-06	7.846618e-06	2.952037e-08	5.702932e+01	1.937834e+03
1.640000e-06	7.848294e-06	2.952293e-08	5.704150e+01	1.937575e+03
1.650000e-06	7.847191e-06	2.952159e-08	5.703349e+01	1.937057e+03
1.660000e-06	7.843543e-06	2.950999e-08	5.700697e+01	1.936336e+03
1.670000e-06	7.837215e-06	2.950116e-08	5.696098e+01	1.935476e+03
1.680000e-06	7.828217e-06	2.948873e-08	5.689558e+01	1.934528e+03
1.690000e-06	7.816569e-06	2.946942e-08	5.681092e+01	1.933517e+03
1.700000e-06	7.802141e-06	2.945150e-08	5.670606e+01	1.932428e+03
1.710000e-06	7.785162e-06	2.944135e-08	5.658266e+01	1.931215e+03
1.720000e-06	7.765977e-06	2.943802e-08	5.644322e+01	1.929818e+03
1.730000e-06	7.744427e-06	2.936627e-08	5.628659e+01	1.928183e+03
1.740000e-06	7.719778e-06	2.927268e-08	5.610744e+01	1.926283e+03
1.750000e-06	7.691520e-06	2.928342e-08	5.590206e+01	1.924131e+03
1.760000e-06	7.659854e-06	2.927690e-08	5.567192e+01	1.921781e+03
1.770000e-06	7.625584e-06	2.922609e-08	5.542284e+01	1.919314e+03
1.780000e-06	7.589134e-06	2.923437e-08	5.515792e+01	1.916813e+03
1.790000e-06	7.550471e-06	2.927225e-08	5.487692e+01	1.914334e+03
1.800000e-06	7.509852e-06	2.912222e-08	5.458170e+01	1.911892e+03
1.810000e-06	7.467024e-06	2.910688e-08	5.427042e+01	1.909442e+03
1.820000e-06	7.421547e-06	2.913815e-08	5.393990e+01	1.906890e+03
1.830000e-06	7.373458e-06	2.901708e-08	5.359039e+01	1.904115e+03
1.840000e-06	7.322455e-06	2.907801e-08	5.321969e+01	1.900993e+03
1.850000e-06	7.268435e-06	2.896433e-08	5.282708e+01	1.897433e+03
1.860000e-06	7.211705e-06	2.891411e-08	5.241477e+01	1.893394e+03
1.870000e-06	7.152456e-06	2.888157e-08	5.198414e+01	1.888897e+03
1.880000e-06	7.090660e-06	2.871878e-08	5.153500e+01	1.884013e+03
1.890000e-06	7.026011e-06	2.872811e-08	5.106514e+01	1.878844e+03
1.900000e-06	6.958662e-06	2.860563e-08	5.057565e+01	1.873485e+03
1.910000e-06	6.888687e-06	2.853326e-08	5.006707e+01	1.868003e+03
1.920000e-06	6.816007e-06	2.846625e-08	4.953883e+01	1.862415e+03
1.930000e-06	6.740719e-06	2.836296e-08	4.899163e+01	1.856681e+03
1.940000e-06	6.662704e-06	2.831141e-08	4.842462e+01	1.850725e+03
1.950000e-06	6.582103e-06	2.815019e-08	4.783881e+01	1.844453e+03
1.960000e-06	6.499034e-06	2.807473e-08	4.723507e+01	1.837782e+03
1.970000e-06	6.413534e-06	2.794625e-08	4.661365e+01	1.830668e+03
1.980000e-06	6.325675e-06	2.784552e-08	4.597509e+01	1.823114e+03
1.990000e-06	6.235575e-06	2.774566e-08	4.532024e+01	1.815169e+03
2.000000e-06	6.143377e-06	2.760346e-08	4.465014e+01	1.806905e+03
2.010000e-06	6.048982e-06	2.749605e-08	4.396408e+01	1.798392e+03
2.020000e-06	5.952406e-06	2.733780e-08	4.326217e+01	1.789672e+03
2.030000e-06	5.853726e-06	2.721170e-08	4.254495e+01	1.780739e+03
2.040000e-06	5.753007e-06	2.706372e-08	4.181293e+01	1.771534e+03
2.050000e-06	5.650218e-06	2.693122e-08	4.106586e+01	1.761964e+03
2.060000e-06	5.545390e-06	2.676333e-08	4.030397e+01	1.751919e+03
2.070000e-06	5.438694e-06	2.658628e-08	3.952850e+01	1.741310e+03
2.080000e-06	5.330231e-06	2.641574e-08	3.874018e+01	1.730086e+03
2.090000e-06	5.219829e-06	2.623666e-08	3.793778e+01	1.718251e+03
2.100000e-06	5.107391e-06	2.606252e-08	3.712058e+01	1.705855e+03
2.110000e-06	4.993097e-06	2.587191e-08	3.628990e+01	1.692974e+03
2.120000e-06	4.876912e-06	2.568204e-08	3.544546e+01	1.679680e+03
2.130000e-06	4.758768e-06	2.546093e-08	3.458678e+01	1.666007e+03
2.140000e-06	4.638729e-06	2.523825e-08	3.371434e+01	1.651933e+03
2.150000e-06	4.517007e-06	2.500940e-08	3.282967e+01	1.637377e+03
2.160000e-06	4.393680e-06	2.478366e-08	3.193332e+01	1.622210e+03
2.170000e-06	4.268768e-06	2.453886e-08	3.102546e+01	1.606287e+03
2.180000e-06	4.142271e-06	2.428238e-08	3.010608e+01	1.589484e+03
2.190000e-06	4.014139e-06	2.401484e-08	2.917481e+01	1.571722e+03
2.200000e-06	3.884511e-06	2.373250e-08	2.823268e+01	1.552984e+03
2.210000e-06	3.753494e-06	2.343788e-08	2.728044e+01	1.533311e+03
2.220000e-06	3.621123e-06	2.313205e-08	2.631837e+01	1.512766e+03
2.230000e-06	3.487426e-06	2.281484e-08	2.534666e+01	1.491406e+03
2.240000e-06	3.352404e-06	2.247282e-08	2.436532e+01	1.469237e+03
2.250000e-06	3.216104e-06	2.211576e-08	2.337469e+01	1.446185e+03
2.260000e-06	3.078612e-06	2.173963e-08	2.237539e+01	1.422097e+03
2.270000e-06	2.939979e-06	2.134914e-08	2.136781e+01	1.396752e+03
2.280000e-06	2.800238e-06	2.093620e-08	2.035217e+01	1.369903e+03
2.290000e-06	2.659355e-06	2.050348e-08	1.932823e+01	1.341320e+03
2.300000e-06	2.517413e-06	2.004651e-08	1.829659e+01	1.310824e+03
2.310000e-06	2.374565e-06	1.956071e-08	1.725837e+01	1.278311e+03
2.320000e-06	2.230854e-06	1.903850e-08	1.621387e+01	1.243731e+03
2.330000e-06	2.086333e-06	1.848054e-08	1.516349e+01	1.207052e+03
2.340000e-06	1.941092e-06	1.789011e-08	1.410788e+01	1.168203e+03
2.350000e-06	1.795235e-06	1.726046e-08	1.304779e+01	1.127016e+03
2.360000e-06	1.648791e-06	1.658779e-08	1.198343e+01	1.083190e+03
2.370000e-06	1.501842e-06	1.586521e-08	1.091541e+01	1.036294e+03
2.380000e-06	1.354451e-06	1.508660e-08	9.844168e+00	9.858105e+02
2.390000e-06	1.206695e-06	1.424695e-08	8.770276e+00	9.312258e+02
2.400000e-06	1.058545e-06	1.334516e-08	7.693516e+00	8.721341e+02
2.410000e-06	9.100766e-07	1.238179e-08	6.614448e+00	8.083448e+02
2.420000e-06	7.613407e-07	1.135559e-08	5.533434e+00	7.399551e+02
2.430000e-06	6.122237e-07	1.026329e-08	4.449650e+00	6.673684e+02
2.440000e-06	4.628214e-07	9.107705e-09	3.363792e+00	5.912461e+02
2.450000e-06	3.132394e-07	7.897962e-09	2.276628e+00	5.123993e+02
2.460000e-06	1.635482e-07	6.650560e-09	1.188670e+00	4.316410e+02
2.470000e-06	1.378340e-08	5.381519e-09	1.001779e-01	3.496316e+02
2.480000e-06	-1.360329e-07	4.104106e-09	-9.886891e-01	2.667570e+02
2.490000e-06	-2.857929e-07	2.824528e-09	-2.077146e+00	1.830700e+02
2.500000e-06	-4.354663e-07	1.536033e-09	-3.164975e+00	9.831376e+01
2.510000e-06	-5.850507e-07	2.280792e-10	-4.252156e+00	1.202864e+01
2.520000e-06	-7.344444e-07	-1.107819e-09	-5.337952e+00	-7.628011e+01
2.530000e-06	-8.835601e-07	-2.478648e-09	-6.421726e+00	-1.669486e+02
2.540000e-06	-1.032374e-06	-3.892521e-09	-7.503309e+00	-2.599790e+02
2.550000e-06	-1.180802e-06	-5.347012e-09	-8.582083e+00	-3.549242e+02
2.560000e-06	-1.328712e-06	-6.826308e-09	-9.657099e+00	-4.508605e+02
2.570000e-06	-1.476126e-06	-8.306795e-09	-1.072850e+01	-5.464590e+02
2.580000e-06	-1.623100e-06	-9.756394e-09	-1.179671e+01	-6.401409e+02
2.590000e-06	-1.769553e-06	-1.114328e-08	-1.286113e+01	-7.302882e+02
2.600000e-06	-1.915368e-06	-1.244373e-08	-1.392092e+01	-8.154634e+02
2.610000e-06	-2.060540e-06	-1.364243e-08	-1.497603e+01	-8.945966e+02
2.620000e-06	-2.204975e-06	-1.473832e-08	-1.602579e+01	-9.671015e+02
2.630000e-06	-2.348469e-06	-1.573770e-08	-1.706870e+01	-1.032903e+03
2.640000e-06	-2.490938e-06	-1.665039e-08	-1.810417e+01	-1.092375e+03
2.650000e-06	-2.632329e-06	-1.748780e-08	-1.913180e+01	-1.146213e+03
2.660000e-06	-2.772562e-06	-1.825443e-08	-2.015101e+01	-1.195265e+03
2.670000e-06	-2.911712e-06	-1.895794e-08	-2.116236e+01	-1.240376e+03
2.680000e-06	-3.049766e-06	-1.960550e-08	-2.216573e+01	-1.282250e+03
2.690000e-06	-3.186681e-06	-2.020337e-08	-2.316084e+01	-1.321391e+03
2.700000e-06	-3.322439e-06	-2.076027e-08	-2.414753e+01	-1.358087e+03
2.710000e-06	-3.456880e-06	-2.127858e-08	-2.512465e+01	-1.392463e+03
2.720000e-06	-3.590003e-06	-2.176123e-08	-2.609219e+01	-1.424550e+03
2.730000e-06	-3.721858e-06	-2.221170e-08	-2.705051e+01	-1.454373e+03
2.740000e-06	-3.852395e-06	-2.263142e-08	-2.799926e+01	-1.482015e+03
2.750000e-06	-3.981669e-06	-2.302601e-08	-2.893882e+01	-1.507641e+03
2.760000e-06	-4.109642e-06	-2.339824e-08	-2.986893e+01	-1.531500e+03
2.770000e-06	-4.236120e-06	-2.374879e-08	-3.078817e+01	-1.553881e+03
2.780000e-06	-4.361125e-06	-2.407926e-08	-3.169672e+01	-1.575061e+03
2.790000e-06	-4.484639e-06	-2.439026e-08	-3.259442e+01	-1.595261e+03
2.800000e-06	-4.606521e-06	-2.468445e-08	-3.348025e+01	-1.614609e+03
2.810000e-06	-4.726695e-06	-2.496321e-08	-3.435368e+01	-1.633142e+03
2.820000e-06	-4.845015e-06	-2.522742e-08	-3.521363e+01	-1.650822e+03
2.830000e-06	-4.961450e-06	-2.547833e-08	-3.605989e+01	-1.667581e+03
2.840000e-06	-5.075943e-06	-2.571725e-08	-3.689202e+01	-1.683362e+03
2.850000e-06	-5.188358e-06	-2.594670e-08	-3.770905e+01	-1.698157e+03
2.860000e-06	-5.298770e-06	-2.616623e-08	-3.851153e+01	-1.712022e+03
2.870000e-06	-5.407333e-06	-2.637363e-08	-3.930056e+01	-1.725068e+03
2.880000e-06	-5.514088e-06	-2.656832e-08	-4.007646e+01	-1.737444e+03
2.890000e-06	-5.618939e-06	-2.675212e-08	-4.083852e+01	-1.749290e+03
2.900000e-06	-5.721623e-06	-2.692696e-08	-4.158483e+01	-1.760715e+03
2.910000e-06	-5.822117e-06	-2.709411e-08	-4.231522e+01	-1.771765e+03
2.920000e-06	-5.920566e-06	-2.725438e-08	-4.303075e+01	-1.782426e+03
2.930000e-06	-6.016940e-06	-2.740695e-08	-4.373120e+01	-1.792639e+03
2.940000e-06	-6.111080e-06	-2.755084e-08	-4.441541e+01	-1.802323e+03
