# Temperatura_=_93.7
# Concentracion g/m^3_=_28200.0
# C_Vs_to_Am_M_A/Vsm_=_65563218390.804596
# pendiente_HvsI_1/m_=_3716.3
# ordenada_HvsI_A/m_=_1297.0
# frecuencia_Hz_=_302507.7249556311

Tiempo_(s)	Campo_(V.s)	Magnetizacion_(V.s)	Campo_(kA/m)	Magnetizacion_(A/m)
0.000000e+00	-7.902478e-06	-3.007715e-08	-5.684311e+01	-1.970502e+03
1.000000e-08	-7.898404e-06	-3.007284e-08	-5.681381e+01	-1.969709e+03
2.000000e-08	-7.891820e-06	-3.005926e-08	-5.676645e+01	-1.968781e+03
3.000000e-08	-7.882542e-06	-3.004422e-08	-5.669971e+01	-1.967773e+03
4.000000e-08	-7.870416e-06	-3.002822e-08	-5.661249e+01	-1.966708e+03
5.000000e-08	-7.855328e-06	-3.000864e-08	-5.650395e+01	-1.965570e+03
6.000000e-08	-7.837523e-06	-2.998198e-08	-5.637588e+01	-1.964311e+03
7.000000e-08	-7.817512e-06	-2.994635e-08	-5.623194e+01	-1.962865e+03
8.000000e-08	-7.795198e-06	-2.992544e-08	-5.607144e+01	-1.961173e+03
9.000000e-08	-7.769958e-06	-2.997876e-08	-5.588988e+01	-1.959206e+03
1.000000e-07	-7.741461e-06	-2.994076e-08	-5.568490e+01	-1.956976e+03
1.100000e-07	-7.710018e-06	-2.983975e-08	-5.545873e+01	-1.954540e+03
1.200000e-07	-7.675793e-06	-2.979821e-08	-5.521254e+01	-1.951980e+03
1.300000e-07	-7.638879e-06	-2.976812e-08	-5.494702e+01	-1.949385e+03
1.400000e-07	-7.599657e-06	-2.969168e-08	-5.466489e+01	-1.946816e+03
1.500000e-07	-7.558223e-06	-2.959006e-08	-5.436685e+01	-1.944288e+03
1.600000e-07	-7.514422e-06	-2.964010e-08	-5.405179e+01	-1.941762e+03
1.700000e-07	-7.468118e-06	-2.959899e-08	-5.371872e+01	-1.939143e+03
1.800000e-07	-7.419048e-06	-2.944293e-08	-5.336576e+01	-1.936309e+03
1.900000e-07	-7.367016e-06	-2.946804e-08	-5.299149e+01	-1.933136e+03
2.000000e-07	-7.312121e-06	-2.939702e-08	-5.259663e+01	-1.929530e+03
2.100000e-07	-7.254500e-06	-2.930698e-08	-5.218215e+01	-1.925448e+03
2.200000e-07	-7.194232e-06	-2.925703e-08	-5.174864e+01	-1.920906e+03
2.300000e-07	-7.131437e-06	-2.916296e-08	-5.129695e+01	-1.915971e+03
2.400000e-07	-7.065965e-06	-2.912623e-08	-5.082600e+01	-1.910735e+03
2.500000e-07	-6.997777e-06	-2.901221e-08	-5.033553e+01	-1.905293e+03
2.600000e-07	-6.926954e-06	-2.894629e-08	-4.982609e+01	-1.899705e+03
2.700000e-07	-6.853345e-06	-2.884103e-08	-4.929661e+01	-1.893987e+03
2.800000e-07	-6.776993e-06	-2.873323e-08	-4.874741e+01	-1.888105e+03
2.900000e-07	-6.697863e-06	-2.864573e-08	-4.817822e+01	-1.881986e+03
3.000000e-07	-6.616061e-06	-2.853439e-08	-4.758981e+01	-1.875546e+03
3.100000e-07	-6.532029e-06	-2.845593e-08	-4.698537e+01	-1.868714e+03
3.200000e-07	-6.445872e-06	-2.834030e-08	-4.636563e+01	-1.861453e+03
3.300000e-07	-6.357369e-06	-2.824050e-08	-4.572902e+01	-1.853772e+03
3.400000e-07	-6.266444e-06	-2.809428e-08	-4.507499e+01	-1.845718e+03
3.500000e-07	-6.173310e-06	-2.796486e-08	-4.440508e+01	-1.837357e+03
3.600000e-07	-6.077976e-06	-2.785915e-08	-4.371933e+01	-1.828749e+03
3.700000e-07	-5.980318e-06	-2.772125e-08	-4.301687e+01	-1.819921e+03
3.800000e-07	-5.880495e-06	-2.757742e-08	-4.229884e+01	-1.810855e+03
3.900000e-07	-5.778670e-06	-2.742877e-08	-4.156640e+01	-1.801487e+03
4.000000e-07	-5.674780e-06	-2.728163e-08	-4.081911e+01	-1.791720e+03
4.100000e-07	-5.568826e-06	-2.710742e-08	-4.005698e+01	-1.781452e+03
4.200000e-07	-5.460961e-06	-2.694788e-08	-3.928109e+01	-1.770603e+03
4.300000e-07	-5.351199e-06	-2.678376e-08	-3.849157e+01	-1.759138e+03
4.400000e-07	-5.239399e-06	-2.660495e-08	-3.768738e+01	-1.747070e+03
4.500000e-07	-5.125555e-06	-2.641213e-08	-3.686850e+01	-1.734458e+03
4.600000e-07	-5.009731e-06	-2.621662e-08	-3.603536e+01	-1.721374e+03
4.700000e-07	-4.892057e-06	-2.601193e-08	-3.518893e+01	-1.707878e+03
4.800000e-07	-4.772668e-06	-2.579405e-08	-3.433016e+01	-1.693990e+03
4.900000e-07	-4.651568e-06	-2.557648e-08	-3.345907e+01	-1.679667e+03
5.000000e-07	-4.528727e-06	-2.534861e-08	-3.257547e+01	-1.664814e+03
5.100000e-07	-4.404201e-06	-2.510809e-08	-3.167974e+01	-1.649293e+03
5.200000e-07	-4.278094e-06	-2.485136e-08	-3.077265e+01	-1.632963e+03
5.300000e-07	-4.150419e-06	-2.458821e-08	-2.985427e+01	-1.615710e+03
5.400000e-07	-4.021211e-06	-2.430804e-08	-2.892487e+01	-1.597476e+03
5.500000e-07	-3.890456e-06	-2.401667e-08	-2.798433e+01	-1.578264e+03
5.600000e-07	-3.758173e-06	-2.371061e-08	-2.703282e+01	-1.558127e+03
5.700000e-07	-3.624498e-06	-2.339134e-08	-2.607128e+01	-1.537135e+03
5.800000e-07	-3.489544e-06	-2.305696e-08	-2.510055e+01	-1.515338e+03
5.900000e-07	-3.353302e-06	-2.271212e-08	-2.412055e+01	-1.492720e+03
6.000000e-07	-3.215671e-06	-2.235482e-08	-2.313056e+01	-1.469182e+03
6.100000e-07	-3.076649e-06	-2.197611e-08	-2.213057e+01	-1.444542e+03
6.200000e-07	-2.936266e-06	-2.157801e-08	-2.112078e+01	-1.418556e+03
6.300000e-07	-2.794636e-06	-2.115177e-08	-2.010202e+01	-1.390966e+03
6.400000e-07	-2.651931e-06	-2.069887e-08	-1.907554e+01	-1.361543e+03
6.500000e-07	-2.508208e-06	-2.021558e-08	-1.804172e+01	-1.330124e+03
6.600000e-07	-2.363584e-06	-1.970752e-08	-1.700143e+01	-1.296621e+03
6.700000e-07	-2.218155e-06	-1.917092e-08	-1.595535e+01	-1.261002e+03
6.800000e-07	-2.071966e-06	-1.860077e-08	-1.490380e+01	-1.223241e+03
6.900000e-07	-1.925127e-06	-1.799716e-08	-1.384758e+01	-1.183257e+03
7.000000e-07	-1.777719e-06	-1.735023e-08	-1.278726e+01	-1.140853e+03
7.100000e-07	-1.629813e-06	-1.665786e-08	-1.172336e+01	-1.095690e+03
7.200000e-07	-1.481407e-06	-1.591044e-08	-1.065587e+01	-1.047293e+03
7.300000e-07	-1.332540e-06	-1.510066e-08	-9.585061e+00	-9.951078e+02
7.400000e-07	-1.183237e-06	-1.422646e-08	-8.511109e+00	-9.385998e+02
7.500000e-07	-1.033499e-06	-1.329081e-08	-7.434031e+00	-8.773689e+02
7.600000e-07	-8.833992e-07	-1.229337e-08	-6.354355e+00	-8.112552e+02
7.700000e-07	-7.330176e-07	-1.123040e-08	-5.272650e+00	-7.404071e+02
7.800000e-07	-5.824222e-07	-1.009867e-08	-4.189406e+00	-6.652878e+02
7.900000e-07	-4.315917e-07	-8.902824e-09	-3.104471e+00	-5.866134e+02
8.000000e-07	-2.805764e-07	-7.656801e-09	-2.018207e+00	-5.052297e+02
8.100000e-07	-1.294696e-07	-6.373145e-09	-9.312846e-01	-4.219549e+02
8.200000e-07	2.172891e-08	-5.069933e-09	1.562976e-01	-3.374229e+02
8.300000e-07	1.729618e-07	-3.759378e-09	1.244127e+00	-2.519678e+02
8.400000e-07	3.241385e-07	-2.442204e-09	2.331552e+00	-1.655790e+02
8.500000e-07	4.752681e-07	-1.112456e-09	3.418639e+00	-7.794504e+01
8.600000e-07	6.262818e-07	2.359572e-10	4.504891e+00	1.142107e+01
8.700000e-07	7.770281e-07	1.612724e-09	5.589220e+00	1.029980e+02
8.800000e-07	9.275200e-07	3.029487e-09	6.671720e+00	1.970553e+02
8.900000e-07	1.077755e-06	4.492788e-09	7.752370e+00	2.934825e+02
9.000000e-07	1.227632e-06	5.994650e-09	8.830450e+00	3.916872e+02
9.100000e-07	1.377083e-06	7.516157e-09	9.905460e+00	4.905905e+02
9.200000e-07	1.526019e-06	9.030313e-09	1.097677e+01	5.887242e+02
9.300000e-07	1.674382e-06	1.049883e-08	1.204395e+01	6.844099e+02
9.400000e-07	1.822215e-06	1.188870e-08	1.310733e+01	7.759862e+02
9.500000e-07	1.969490e-06	1.317954e-08	1.416669e+01	8.620350e+02
9.600000e-07	2.116089e-06	1.436317e-08	1.522119e+01	9.415628e+02
9.700000e-07	2.261884e-06	1.544259e-08	1.626990e+01	1.014101e+03
9.800000e-07	2.406810e-06	1.642643e-08	1.731236e+01	1.079712e+03
9.900000e-07	2.550835e-06	1.732809e-08	1.834834e+01	1.138902e+03
1.000000e-06	2.693836e-06	1.815438e-08	1.937696e+01	1.192470e+03
1.010000e-06	2.835740e-06	1.891003e-08	2.039769e+01	1.241335e+03
1.020000e-06	2.976464e-06	1.960137e-08	2.140992e+01	1.286361e+03
1.030000e-06	3.116007e-06	2.023961e-08	2.241367e+01	1.328242e+03
1.040000e-06	3.254380e-06	2.083253e-08	2.340900e+01	1.367441e+03
1.050000e-06	3.391436e-06	2.138416e-08	2.439485e+01	1.404200e+03
1.060000e-06	3.527079e-06	2.190010e-08	2.537054e+01	1.438602e+03
1.070000e-06	3.661444e-06	2.237862e-08	2.633704e+01	1.470653e+03
1.080000e-06	3.794555e-06	2.282318e-08	2.729451e+01	1.500378e+03
1.090000e-06	3.926305e-06	2.323731e-08	2.824220e+01	1.527875e+03
1.100000e-06	4.056737e-06	2.362782e-08	2.918041e+01	1.553341e+03
1.110000e-06	4.185704e-06	2.399733e-08	3.010808e+01	1.577056e+03
1.120000e-06	4.313084e-06	2.434669e-08	3.102433e+01	1.599335e+03
1.130000e-06	4.438995e-06	2.467627e-08	3.193002e+01	1.620467e+03
1.140000e-06	4.563427e-06	2.498775e-08	3.282507e+01	1.640668e+03
1.150000e-06	4.686339e-06	2.528104e-08	3.370918e+01	1.660049e+03
1.160000e-06	4.807591e-06	2.555565e-08	3.458135e+01	1.678621e+03
1.170000e-06	4.926989e-06	2.581495e-08	3.544020e+01	1.696322e+03
1.180000e-06	5.044563e-06	2.606096e-08	3.628592e+01	1.713066e+03
1.190000e-06	5.160361e-06	2.629595e-08	3.711885e+01	1.728790e+03
1.200000e-06	5.274209e-06	2.652038e-08	3.793777e+01	1.743491e+03
1.210000e-06	5.385969e-06	2.673318e-08	3.874167e+01	1.757241e+03
1.220000e-06	5.495841e-06	2.693419e-08	3.953199e+01	1.770174e+03
1.230000e-06	5.603856e-06	2.712403e-08	4.030895e+01	1.782452e+03
1.240000e-06	5.709835e-06	2.730431e-08	4.107126e+01	1.794233e+03
1.250000e-06	5.813636e-06	2.747787e-08	4.181792e+01	1.805623e+03
1.260000e-06	5.915270e-06	2.764341e-08	4.254897e+01	1.816665e+03
1.270000e-06	6.014815e-06	2.780132e-08	4.326501e+01	1.827332e+03
1.280000e-06	6.112097e-06	2.795253e-08	4.396476e+01	1.837549e+03
1.290000e-06	6.207053e-06	2.809717e-08	4.464779e+01	1.847223e+03
1.300000e-06	6.299786e-06	2.823466e-08	4.531483e+01	1.856284e+03
1.310000e-06	6.390314e-06	2.836672e-08	4.596600e+01	1.864707e+03
1.320000e-06	6.478482e-06	2.849264e-08	4.660020e+01	1.872526e+03
1.330000e-06	6.564326e-06	2.861121e-08	4.721768e+01	1.879825e+03
1.340000e-06	6.647953e-06	2.872362e-08	4.781922e+01	1.886719e+03
1.350000e-06	6.729126e-06	2.882850e-08	4.840310e+01	1.893317e+03
1.360000e-06	6.807812e-06	2.892568e-08	4.896909e+01	1.899701e+03
1.370000e-06	6.883988e-06	2.901822e-08	4.951703e+01	1.905902e+03
1.380000e-06	6.957494e-06	2.910676e-08	5.004577e+01	1.911903e+03
1.390000e-06	7.028467e-06	2.919106e-08	5.055628e+01	1.917649e+03
1.400000e-06	7.096986e-06	2.927197e-08	5.104914e+01	1.923074e+03
1.410000e-06	7.162930e-06	2.934870e-08	5.152349e+01	1.928127e+03
1.420000e-06	7.226304e-06	2.942095e-08	5.197934e+01	1.932791e+03
1.430000e-06	7.287216e-06	2.948860e-08	5.241748e+01	1.937092e+03
1.440000e-06	7.345645e-06	2.955245e-08	5.283777e+01	1.941091e+03
1.450000e-06	7.401491e-06	2.961262e-08	5.323947e+01	1.944866e+03
1.460000e-06	7.454632e-06	2.967008e-08	5.362172e+01	1.948487e+03
1.470000e-06	7.504766e-06	2.972576e-08	5.398234e+01	1.951993e+03
1.480000e-06	7.551910e-06	2.977875e-08	5.432145e+01	1.955380e+03
1.490000e-06	7.596417e-06	2.982759e-08	5.464159e+01	1.958603e+03
1.500000e-06	7.638250e-06	2.987120e-08	5.494250e+01	1.961588e+03
1.510000e-06	7.677256e-06	2.991013e-08	5.522307e+01	1.964259e+03
1.520000e-06	7.713575e-06	2.994576e-08	5.548432e+01	1.966562e+03
1.530000e-06	7.747200e-06	2.997616e-08	5.572618e+01	1.968480e+03
1.540000e-06	7.778050e-06	3.000131e-08	5.594808e+01	1.970042e+03
1.550000e-06	7.806221e-06	3.002271e-08	5.615072e+01	1.971317e+03
1.560000e-06	7.831525e-06	3.004255e-08	5.633274e+01	1.972389e+03
1.570000e-06	7.853909e-06	3.006084e-08	5.649375e+01	1.973338e+03
1.580000e-06	7.873636e-06	3.007754e-08	5.663564e+01	1.974216e+03
1.590000e-06	7.890550e-06	3.009457e-08	5.675731e+01	1.975030e+03
1.600000e-06	7.904435e-06	3.010660e-08	5.685718e+01	1.975749e+03
1.610000e-06	7.915219e-06	3.011249e-08	5.693476e+01	1.976311e+03
1.620000e-06	7.922973e-06	3.011535e-08	5.699053e+01	1.976646e+03
1.630000e-06	7.927930e-06	3.011674e-08	5.702619e+01	1.976703e+03
1.640000e-06	7.930059e-06	3.011691e-08	5.704150e+01	1.976462e+03
1.650000e-06	7.929353e-06	3.011536e-08	5.703642e+01	1.975943e+03
1.660000e-06	7.926044e-06	3.010099e-08	5.701262e+01	1.975200e+03
1.670000e-06	7.920096e-06	3.009108e-08	5.696983e+01	1.974302e+03
1.680000e-06	7.911462e-06	3.008117e-08	5.690773e+01	1.973311e+03
1.690000e-06	7.900252e-06	3.006606e-08	5.682709e+01	1.972260e+03
1.700000e-06	7.886226e-06	3.005035e-08	5.672620e+01	1.971146e+03
1.710000e-06	7.869457e-06	3.003975e-08	5.660559e+01	1.969926e+03
1.720000e-06	7.850383e-06	3.003337e-08	5.646838e+01	1.968539e+03
1.730000e-06	7.828897e-06	2.996177e-08	5.631383e+01	1.966920e+03
1.740000e-06	7.804425e-06	2.983944e-08	5.613780e+01	1.965030e+03
1.750000e-06	7.776411e-06	2.985959e-08	5.593630e+01	1.962869e+03
1.760000e-06	7.744883e-06	2.987322e-08	5.570951e+01	1.960483e+03
1.770000e-06	7.710642e-06	2.981426e-08	5.546322e+01	1.957948e+03
1.780000e-06	7.674219e-06	2.980114e-08	5.520122e+01	1.955353e+03
1.790000e-06	7.635518e-06	2.987327e-08	5.492284e+01	1.952771e+03
1.800000e-06	7.594836e-06	2.973507e-08	5.463022e+01	1.950232e+03
1.810000e-06	7.552026e-06	2.964749e-08	5.432228e+01	1.947710e+03
1.820000e-06	7.506470e-06	2.975132e-08	5.399459e+01	1.945128e+03
1.830000e-06	7.458298e-06	2.959917e-08	5.364809e+01	1.942367e+03
1.840000e-06	7.407273e-06	2.963878e-08	5.328106e+01	1.939301e+03
1.850000e-06	7.353111e-06	2.955964e-08	5.289147e+01	1.935824e+03
1.860000e-06	7.296202e-06	2.947696e-08	5.248212e+01	1.931877e+03
1.870000e-06	7.236799e-06	2.949215e-08	5.205483e+01	1.927460e+03
1.880000e-06	7.174872e-06	2.929467e-08	5.160938e+01	1.922626e+03
1.890000e-06	7.110077e-06	2.931140e-08	5.114331e+01	1.917465e+03
1.900000e-06	7.042493e-06	2.919934e-08	5.065717e+01	1.912072e+03
1.910000e-06	6.972234e-06	2.911499e-08	5.015179e+01	1.906520e+03
1.920000e-06	6.899206e-06	2.907251e-08	4.962650e+01	1.900839e+03
1.930000e-06	6.823569e-06	2.893346e-08	4.908243e+01	1.895008e+03
1.940000e-06	6.745211e-06	2.890240e-08	4.851880e+01	1.888964e+03
1.950000e-06	6.664170e-06	2.873835e-08	4.793586e+01	1.882622e+03
1.960000e-06	6.580626e-06	2.864971e-08	4.733492e+01	1.875906e+03
1.970000e-06	6.494656e-06	2.852095e-08	4.671654e+01	1.868767e+03
1.980000e-06	6.406308e-06	2.842225e-08	4.608105e+01	1.861201e+03
1.990000e-06	6.315717e-06	2.834287e-08	4.542942e+01	1.853245e+03
2.000000e-06	6.222949e-06	2.818140e-08	4.476213e+01	1.844964e+03
2.010000e-06	6.127900e-06	2.807879e-08	4.407844e+01	1.836420e+03
2.020000e-06	6.030687e-06	2.791603e-08	4.337918e+01	1.827653e+03
2.030000e-06	5.931427e-06	2.778591e-08	4.266519e+01	1.818658e+03
2.040000e-06	5.830020e-06	2.762443e-08	4.193576e+01	1.809383e+03
2.050000e-06	5.726415e-06	2.749697e-08	4.119053e+01	1.799739e+03
2.060000e-06	5.620828e-06	2.734250e-08	4.043103e+01	1.789622e+03
2.070000e-06	5.513417e-06	2.716386e-08	3.965841e+01	1.778943e+03
2.080000e-06	5.404094e-06	2.699577e-08	3.887205e+01	1.767653e+03
2.090000e-06	5.292748e-06	2.681514e-08	3.807113e+01	1.755752e+03
2.100000e-06	5.179404e-06	2.664243e-08	3.725584e+01	1.743286e+03
2.110000e-06	5.064215e-06	2.644036e-08	3.642727e+01	1.730328e+03
2.120000e-06	4.947062e-06	2.624764e-08	3.558458e+01	1.716944e+03
2.130000e-06	4.827910e-06	2.602314e-08	3.472751e+01	1.703167e+03
2.140000e-06	4.706954e-06	2.579873e-08	3.385746e+01	1.688975e+03
2.150000e-06	4.584324e-06	2.556547e-08	3.297538e+01	1.674284e+03
2.160000e-06	4.460003e-06	2.533915e-08	3.208113e+01	1.658967e+03
2.170000e-06	4.333970e-06	2.509567e-08	3.117456e+01	1.642880e+03
2.180000e-06	4.206363e-06	2.483973e-08	3.025668e+01	1.625899e+03
2.190000e-06	4.077274e-06	2.456984e-08	2.932813e+01	1.607945e+03
2.200000e-06	3.946718e-06	2.428414e-08	2.838903e+01	1.589007e+03
2.210000e-06	3.814651e-06	2.398595e-08	2.743906e+01	1.569125e+03
2.220000e-06	3.681165e-06	2.367296e-08	2.647889e+01	1.548370e+03
2.230000e-06	3.546305e-06	2.335101e-08	2.550883e+01	1.526799e+03
2.240000e-06	3.410023e-06	2.300712e-08	2.452855e+01	1.504420e+03
2.250000e-06	3.272482e-06	2.264817e-08	2.353920e+01	1.481159e+03
2.260000e-06	3.133778e-06	2.226780e-08	2.254149e+01	1.456854e+03
2.270000e-06	2.993814e-06	2.187470e-08	2.153472e+01	1.431278e+03
2.280000e-06	2.852534e-06	2.145962e-08	2.051849e+01	1.404170e+03
2.290000e-06	2.710118e-06	2.102354e-08	1.949408e+01	1.375289e+03
2.300000e-06	2.566789e-06	2.055876e-08	1.846310e+01	1.344451e+03
2.310000e-06	2.422538e-06	2.006523e-08	1.742549e+01	1.311547e+03
2.320000e-06	2.277399e-06	1.953681e-08	1.638150e+01	1.276533e+03
2.330000e-06	2.131561e-06	1.897199e-08	1.533248e+01	1.239387e+03
2.340000e-06	1.985106e-06	1.837322e-08	1.427901e+01	1.200050e+03
2.350000e-06	1.838040e-06	1.773657e-08	1.322116e+01	1.158364e+03
2.360000e-06	1.690380e-06	1.705769e-08	1.215903e+01	1.114031e+03
2.370000e-06	1.542163e-06	1.632928e-08	1.109289e+01	1.066611e+03
2.380000e-06	1.393428e-06	1.554398e-08	1.002303e+01	1.015564e+03
2.390000e-06	1.244181e-06	1.469653e-08	8.949483e+00	9.603378e+02
2.400000e-06	1.094441e-06	1.378321e-08	7.872394e+00	9.004832e+02
2.410000e-06	9.442716e-07	1.280150e-08	6.792215e+00	8.357619e+02
2.420000e-06	7.937881e-07	1.175249e-08	5.709776e+00	7.662307e+02
2.430000e-06	6.430219e-07	1.063766e-08	4.625304e+00	6.922663e+02
2.440000e-06	4.920121e-07	9.460601e-09	3.539080e+00	6.145225e+02
2.450000e-06	3.408394e-07	8.227041e-09	2.451683e+00	5.338234e+02
2.460000e-06	1.895728e-07	6.952859e-09	1.363611e+00	4.510118e+02
2.470000e-06	3.822865e-08	5.652666e-09	2.749815e-01	3.667886e+02
2.480000e-06	-1.131402e-07	4.336842e-09	-8.138258e-01	2.815816e+02
2.490000e-06	-2.644926e-07	3.014229e-09	-1.902514e+00	1.954782e+02
2.500000e-06	-4.158287e-07	1.682476e-09	-2.991087e+00	1.082435e+02
2.510000e-06	-5.670798e-07	3.340220e-10	-4.079047e+00	1.942356e+01
2.520000e-06	-7.181294e-07	-1.042530e-09	-5.165557e+00	-7.148306e+01
2.530000e-06	-8.689624e-07	-2.456224e-09	-6.250510e+00	-1.648254e+02
2.540000e-06	-1.019523e-06	-3.910943e-09	-7.333505e+00	-2.606156e+02
2.550000e-06	-1.169662e-06	-5.405642e-09	-8.413463e+00	-3.584039e+02
2.560000e-06	-1.319339e-06	-6.925699e-09	-9.490105e+00	-4.572448e+02
2.570000e-06	-1.468478e-06	-8.448422e-09	-1.056287e+01	-5.557662e+02
2.580000e-06	-1.617083e-06	-9.943732e-09	-1.163179e+01	-6.523277e+02
2.590000e-06	-1.765060e-06	-1.137615e-08	-1.269621e+01	-7.452391e+02
2.600000e-06	-1.912345e-06	-1.271797e-08	-1.375564e+01	-8.329915e+02
2.610000e-06	-2.058994e-06	-1.395403e-08	-1.481049e+01	-9.144558e+02
2.620000e-06	-2.204874e-06	-1.508070e-08	-1.585982e+01	-9.890090e+02
2.630000e-06	-2.349895e-06	-1.610566e-08	-1.690297e+01	-1.056566e+03
2.640000e-06	-2.494038e-06	-1.703971e-08	-1.793980e+01	-1.117520e+03
2.650000e-06	-2.637211e-06	-1.789491e-08	-1.896965e+01	-1.172604e+03
2.660000e-06	-2.779333e-06	-1.867781e-08	-1.999195e+01	-1.222721e+03
2.670000e-06	-2.920307e-06	-1.939504e-08	-2.100598e+01	-1.268766e+03
2.680000e-06	-3.060020e-06	-2.005648e-08	-2.201095e+01	-1.311489e+03
2.690000e-06	-3.198489e-06	-2.066959e-08	-2.300697e+01	-1.351423e+03
2.700000e-06	-3.335671e-06	-2.124056e-08	-2.399373e+01	-1.388867e+03
2.710000e-06	-3.471639e-06	-2.177089e-08	-2.497175e+01	-1.423941e+03
2.720000e-06	-3.606491e-06	-2.226259e-08	-2.594175e+01	-1.456666e+03
2.730000e-06	-3.740050e-06	-2.272031e-08	-2.690245e+01	-1.487051e+03
2.740000e-06	-3.872156e-06	-2.314692e-08	-2.785270e+01	-1.515170e+03
2.750000e-06	-4.002882e-06	-2.354639e-08	-2.879303e+01	-1.541193e+03
2.760000e-06	-4.132215e-06	-2.392364e-08	-2.972333e+01	-1.565378e+03
2.770000e-06	-4.260166e-06	-2.427877e-08	-3.064369e+01	-1.588037e+03
2.780000e-06	-4.386792e-06	-2.461319e-08	-3.155452e+01	-1.609473e+03
2.790000e-06	-4.511798e-06	-2.492840e-08	-3.245370e+01	-1.629925e+03
2.800000e-06	-4.635139e-06	-2.522769e-08	-3.334090e+01	-1.649537e+03
2.810000e-06	-4.756887e-06	-2.551053e-08	-3.421664e+01	-1.668346e+03
2.820000e-06	-4.876901e-06	-2.577700e-08	-3.507991e+01	-1.686306e+03
2.830000e-06	-4.995058e-06	-2.603047e-08	-3.592982e+01	-1.703334e+03
2.840000e-06	-5.111160e-06	-2.627336e-08	-3.676495e+01	-1.719354e+03
2.850000e-06	-5.225200e-06	-2.650703e-08	-3.758525e+01	-1.734345e+03
2.860000e-06	-5.337241e-06	-2.672952e-08	-3.839117e+01	-1.748357e+03
2.870000e-06	-5.447258e-06	-2.693877e-08	-3.918253e+01	-1.761509e+03
2.880000e-06	-5.555311e-06	-2.713422e-08	-3.995976e+01	-1.773959e+03
2.890000e-06	-5.661436e-06	-2.731894e-08	-4.072312e+01	-1.785870e+03
2.900000e-06	-5.765561e-06	-2.749508e-08	-4.147210e+01	-1.797366e+03
2.910000e-06	-5.867493e-06	-2.766341e-08	-4.220531e+01	-1.808509e+03
2.920000e-06	-5.967251e-06	-2.782475e-08	-4.292287e+01	-1.819291e+03
2.930000e-06	-6.064951e-06	-2.797946e-08	-4.362564e+01	-1.829647e+03
2.940000e-06	-6.160501e-06	-2.812646e-08	-4.431294e+01	-1.839487e+03
