# Temperatura_=_31.14
# Concentracion g/m^3_=_28200.0
# C_Vs_to_Am_M_A/Vsm_=_65563218390.804596
# pendiente_HvsI_1/m_=_3716.3
# ordenada_HvsI_A/m_=_1297.0
# frecuencia_Hz_=_302509.03559187264

Tiempo_(s)	Campo_(V.s)	Magnetizacion_(V.s)	Campo_(kA/m)	Magnetizacion_(A/m)
0.000000e+00	-7.865128e-06	-2.398026e-08	-5.683789e+01	-1.570280e+03
1.000000e-08	-7.860711e-06	-2.397714e-08	-5.680598e+01	-1.569718e+03
2.000000e-08	-7.853732e-06	-2.396865e-08	-5.675554e+01	-1.569023e+03
3.000000e-08	-7.844105e-06	-2.396058e-08	-5.668597e+01	-1.568247e+03
4.000000e-08	-7.831667e-06	-2.395040e-08	-5.659609e+01	-1.567427e+03
5.000000e-08	-7.816265e-06	-2.393256e-08	-5.648478e+01	-1.566573e+03
6.000000e-08	-7.798212e-06	-2.390876e-08	-5.635432e+01	-1.565668e+03
7.000000e-08	-7.777977e-06	-2.387809e-08	-5.620809e+01	-1.564678e+03
8.000000e-08	-7.755356e-06	-2.388067e-08	-5.604462e+01	-1.563562e+03
9.000000e-08	-7.729817e-06	-2.392583e-08	-5.586006e+01	-1.562288e+03
1.000000e-07	-7.701109e-06	-2.387696e-08	-5.565260e+01	-1.560849e+03
1.100000e-07	-7.669467e-06	-2.380831e-08	-5.542393e+01	-1.559261e+03
1.200000e-07	-7.635073e-06	-2.378912e-08	-5.517539e+01	-1.557561e+03
1.300000e-07	-7.598087e-06	-2.376230e-08	-5.490811e+01	-1.555797e+03
1.400000e-07	-7.558837e-06	-2.368339e-08	-5.462446e+01	-1.554004e+03
1.500000e-07	-7.517383e-06	-2.362381e-08	-5.432489e+01	-1.552197e+03
1.600000e-07	-7.473495e-06	-2.371425e-08	-5.400773e+01	-1.550356e+03
1.700000e-07	-7.427020e-06	-2.361838e-08	-5.367187e+01	-1.548432e+03
1.800000e-07	-7.377835e-06	-2.352646e-08	-5.331644e+01	-1.546354e+03
1.900000e-07	-7.325688e-06	-2.357178e-08	-5.293959e+01	-1.544047e+03
2.000000e-07	-7.270640e-06	-2.347741e-08	-5.254179e+01	-1.541453e+03
2.100000e-07	-7.212960e-06	-2.344308e-08	-5.212496e+01	-1.538545e+03
2.200000e-07	-7.152672e-06	-2.340602e-08	-5.168928e+01	-1.535332e+03
2.300000e-07	-7.089825e-06	-2.336939e-08	-5.123511e+01	-1.531855e+03
2.400000e-07	-7.024319e-06	-2.331633e-08	-5.076173e+01	-1.528173e+03
2.500000e-07	-6.956051e-06	-2.321140e-08	-5.026838e+01	-1.524347e+03
2.600000e-07	-6.885085e-06	-2.318598e-08	-4.975555e+01	-1.520414e+03
2.700000e-07	-6.811403e-06	-2.312050e-08	-4.922308e+01	-1.516380e+03
2.800000e-07	-6.735068e-06	-2.302616e-08	-4.867144e+01	-1.512217e+03
2.900000e-07	-6.656049e-06	-2.294417e-08	-4.810040e+01	-1.507869e+03
3.000000e-07	-6.574361e-06	-2.289420e-08	-4.751008e+01	-1.503270e+03
3.100000e-07	-6.490368e-06	-2.282922e-08	-4.690309e+01	-1.498361e+03
3.200000e-07	-6.404210e-06	-2.272073e-08	-4.628047e+01	-1.493113e+03
3.300000e-07	-6.315779e-06	-2.267912e-08	-4.564142e+01	-1.487525e+03
3.400000e-07	-6.224999e-06	-2.258891e-08	-4.498539e+01	-1.481631e+03
3.500000e-07	-6.131971e-06	-2.247579e-08	-4.431311e+01	-1.475481e+03
3.600000e-07	-6.036762e-06	-2.238308e-08	-4.362508e+01	-1.469121e+03
3.700000e-07	-5.939263e-06	-2.229032e-08	-4.292050e+01	-1.462580e+03
3.800000e-07	-5.839568e-06	-2.218617e-08	-4.220004e+01	-1.455850e+03
3.900000e-07	-5.737837e-06	-2.206979e-08	-4.146488e+01	-1.448889e+03
4.000000e-07	-5.634136e-06	-2.196847e-08	-4.071548e+01	-1.441625e+03
4.100000e-07	-5.528480e-06	-2.183680e-08	-3.995194e+01	-1.433977e+03
4.200000e-07	-5.420863e-06	-2.171070e-08	-3.917424e+01	-1.425877e+03
4.300000e-07	-5.311343e-06	-2.158462e-08	-3.838279e+01	-1.417284e+03
4.400000e-07	-5.199898e-06	-2.145744e-08	-3.757743e+01	-1.408197e+03
4.500000e-07	-5.086466e-06	-2.130636e-08	-3.675770e+01	-1.398647e+03
4.600000e-07	-4.971047e-06	-2.114880e-08	-3.592361e+01	-1.388686e+03
4.700000e-07	-4.853714e-06	-2.099419e-08	-3.507570e+01	-1.378360e+03
4.800000e-07	-4.734621e-06	-2.082735e-08	-3.421507e+01	-1.367692e+03
4.900000e-07	-4.613771e-06	-2.065738e-08	-3.334174e+01	-1.356661e+03
5.000000e-07	-4.491183e-06	-2.048440e-08	-3.245585e+01	-1.345203e+03
5.100000e-07	-4.366970e-06	-2.030842e-08	-3.155821e+01	-1.333220e+03
5.200000e-07	-4.241195e-06	-2.010601e-08	-3.064929e+01	-1.320597e+03
5.300000e-07	-4.113956e-06	-1.989382e-08	-2.972979e+01	-1.307236e+03
5.400000e-07	-3.985211e-06	-1.967621e-08	-2.879940e+01	-1.293070e+03
5.500000e-07	-3.854948e-06	-1.944964e-08	-2.785805e+01	-1.278076e+03
5.600000e-07	-3.723173e-06	-1.920637e-08	-2.690577e+01	-1.262274e+03
5.700000e-07	-3.589932e-06	-1.895276e-08	-2.594289e+01	-1.245703e+03
5.800000e-07	-3.455368e-06	-1.869106e-08	-2.497045e+01	-1.228396e+03
5.900000e-07	-3.319528e-06	-1.841613e-08	-2.398880e+01	-1.210351e+03
6.000000e-07	-3.182350e-06	-1.812904e-08	-2.299747e+01	-1.191507e+03
6.100000e-07	-3.043871e-06	-1.782732e-08	-2.199675e+01	-1.171747e+03
6.200000e-07	-2.904147e-06	-1.751008e-08	-2.098702e+01	-1.150900e+03
6.300000e-07	-2.763166e-06	-1.716467e-08	-1.996821e+01	-1.128772e+03
6.400000e-07	-2.621041e-06	-1.679539e-08	-1.894114e+01	-1.105179e+03
6.500000e-07	-2.477874e-06	-1.640474e-08	-1.790653e+01	-1.079969e+03
6.600000e-07	-2.333774e-06	-1.599569e-08	-1.686518e+01	-1.053035e+03
6.700000e-07	-2.188889e-06	-1.556305e-08	-1.581816e+01	-1.024307e+03
6.800000e-07	-2.043249e-06	-1.510131e-08	-1.476568e+01	-9.937217e+02
6.900000e-07	-1.896836e-06	-1.460953e-08	-1.370761e+01	-9.611814e+02
7.000000e-07	-1.749849e-06	-1.407944e-08	-1.264541e+01	-9.265176e+02
7.100000e-07	-1.602416e-06	-1.351321e-08	-1.157997e+01	-8.894681e+02
7.200000e-07	-1.454478e-06	-1.290058e-08	-1.051089e+01	-8.496847e+02
7.300000e-07	-1.306097e-06	-1.223737e-08	-9.438598e+00	-8.067744e+02
7.400000e-07	-1.157358e-06	-1.152284e-08	-8.363729e+00	-7.603714e+02
7.500000e-07	-1.008280e-06	-1.075661e-08	-7.286407e+00	-7.102234e+02
7.600000e-07	-8.588348e-07	-9.939291e-09	-6.206429e+00	-6.562743e+02
7.700000e-07	-7.090651e-07	-9.070840e-09	-5.124108e+00	-5.987182e+02
7.800000e-07	-5.591014e-07	-8.155853e-09	-4.040385e+00	-5.380082e+02
7.900000e-07	-4.089707e-07	-7.196272e-09	-2.955455e+00	-4.748104e+02
8.000000e-07	-2.586653e-07	-6.204853e-09	-1.869263e+00	-4.099067e+02
8.100000e-07	-1.081622e-07	-5.194731e-09	-7.816413e-01	-3.440649e+02
8.200000e-07	4.246830e-08	-4.180031e-09	3.069001e-01	-2.779025e+02
8.300000e-07	1.930673e-07	-3.169457e-09	1.395214e+00	-2.117755e+02
8.400000e-07	3.435953e-07	-2.162860e-09	2.483015e+00	-1.457204e+02
8.500000e-07	4.940382e-07	-1.156582e-09	3.570201e+00	-7.946504e+01
8.600000e-07	6.443069e-07	-1.423423e-10	4.656129e+00	-1.251188e+01
8.700000e-07	7.943516e-07	8.876678e-10	5.740437e+00	5.572247e+01
8.800000e-07	9.440996e-07	1.943024e-09	6.822601e+00	1.257389e+02
8.900000e-07	1.093534e-06	3.032935e-09	7.902501e+00	1.977949e+02
9.000000e-07	1.242673e-06	4.160195e-09	8.980264e+00	2.717859e+02
9.100000e-07	1.391433e-06	5.316340e-09	1.005529e+01	3.471960e+02
9.200000e-07	1.539720e-06	6.486026e-09	1.112690e+01	4.231286e+02
9.300000e-07	1.687461e-06	7.644155e-09	1.219455e+01	4.984119e+02
9.400000e-07	1.834638e-06	8.763013e-09	1.325814e+01	5.717571e+02
9.500000e-07	1.981205e-06	9.821780e-09	1.431731e+01	6.419366e+02
9.600000e-07	2.127036e-06	1.081129e-08	1.537118e+01	7.079459e+02
9.700000e-07	2.272088e-06	1.172878e-08	1.641940e+01	7.691196e+02
9.800000e-07	2.416246e-06	1.257030e-08	1.746117e+01	8.251809e+02
9.900000e-07	2.559349e-06	1.334030e-08	1.849532e+01	8.762209e+02
1.000000e-06	2.701437e-06	1.404558e-08	1.952212e+01	9.226203e+02
1.010000e-06	2.842503e-06	1.469400e-08	2.054155e+01	9.649335e+02
1.020000e-06	2.982423e-06	1.529023e-08	2.155269e+01	1.003766e+03
1.030000e-06	3.121140e-06	1.584080e-08	2.255514e+01	1.039671e+03
1.040000e-06	3.258594e-06	1.635181e-08	2.354846e+01	1.073080e+03
1.050000e-06	3.394748e-06	1.682509e-08	2.453239e+01	1.104282e+03
1.060000e-06	3.529616e-06	1.726427e-08	2.550702e+01	1.133441e+03
1.070000e-06	3.663231e-06	1.767060e-08	2.647259e+01	1.160644e+03
1.080000e-06	3.795601e-06	1.805063e-08	2.742917e+01	1.185953e+03
1.090000e-06	3.926592e-06	1.840618e-08	2.837579e+01	1.209453e+03
1.100000e-06	4.056198e-06	1.873966e-08	2.931240e+01	1.231278e+03
1.110000e-06	4.184322e-06	1.905316e-08	3.023829e+01	1.251610e+03
1.120000e-06	4.310884e-06	1.934884e-08	3.115290e+01	1.270660e+03
1.130000e-06	4.436033e-06	1.962739e-08	3.205730e+01	1.288632e+03
1.140000e-06	4.559729e-06	1.988756e-08	3.295120e+01	1.305692e+03
1.150000e-06	4.681824e-06	2.013296e-08	3.383353e+01	1.321943e+03
1.160000e-06	4.802225e-06	2.036446e-08	3.470361e+01	1.337428e+03
1.170000e-06	4.920892e-06	2.058271e-08	3.556117e+01	1.352138e+03
1.180000e-06	5.037776e-06	2.078918e-08	3.640584e+01	1.366040e+03
1.190000e-06	5.152728e-06	2.098463e-08	3.723655e+01	1.379110e+03
1.200000e-06	5.265640e-06	2.116860e-08	3.805252e+01	1.391354e+03
1.210000e-06	5.376582e-06	2.134293e-08	3.885425e+01	1.402820e+03
1.220000e-06	5.485687e-06	2.150962e-08	3.964269e+01	1.413596e+03
1.230000e-06	5.592908e-06	2.166957e-08	4.041754e+01	1.423787e+03
1.240000e-06	5.698046e-06	2.182296e-08	4.117732e+01	1.433492e+03
1.250000e-06	5.801031e-06	2.196820e-08	4.192155e+01	1.442784e+03
1.260000e-06	5.901898e-06	2.210441e-08	4.265047e+01	1.451690e+03
1.270000e-06	6.000561e-06	2.223072e-08	4.336347e+01	1.460196e+03
1.280000e-06	6.096924e-06	2.234678e-08	4.405984e+01	1.468257e+03
1.290000e-06	6.191062e-06	2.245630e-08	4.474014e+01	1.475821e+03
1.300000e-06	6.283055e-06	2.256190e-08	4.540493e+01	1.482853e+03
1.310000e-06	6.372789e-06	2.266225e-08	4.605340e+01	1.489357e+03
1.320000e-06	6.460249e-06	2.275600e-08	4.668544e+01	1.495376e+03
1.330000e-06	6.545541e-06	2.284439e-08	4.730181e+01	1.500995e+03
1.340000e-06	6.628526e-06	2.292861e-08	4.790150e+01	1.506315e+03
1.350000e-06	6.709017e-06	2.300905e-08	4.848318e+01	1.511434e+03
1.360000e-06	6.787014e-06	2.308435e-08	4.904683e+01	1.516420e+03
1.370000e-06	6.862450e-06	2.315659e-08	4.959197e+01	1.521301e+03
1.380000e-06	6.935247e-06	2.322746e-08	5.011805e+01	1.526057e+03
1.390000e-06	7.005540e-06	2.329583e-08	5.062602e+01	1.530637e+03
1.400000e-06	7.073471e-06	2.336069e-08	5.111693e+01	1.534970e+03
1.410000e-06	7.138830e-06	2.341966e-08	5.158925e+01	1.538997e+03
1.420000e-06	7.201584e-06	2.347551e-08	5.204275e+01	1.542683e+03
1.430000e-06	7.261984e-06	2.352810e-08	5.247923e+01	1.546031e+03
1.440000e-06	7.319895e-06	2.357726e-08	5.289773e+01	1.549082e+03
1.450000e-06	7.375144e-06	2.362420e-08	5.329699e+01	1.551894e+03
1.460000e-06	7.427542e-06	2.366652e-08	5.367565e+01	1.554534e+03
1.470000e-06	7.476846e-06	2.370442e-08	5.403195e+01	1.557050e+03
1.480000e-06	7.523294e-06	2.373966e-08	5.436760e+01	1.559461e+03
1.490000e-06	7.567212e-06	2.377356e-08	5.468498e+01	1.561752e+03
1.500000e-06	7.608420e-06	2.380671e-08	5.498278e+01	1.563883e+03
1.510000e-06	7.646835e-06	2.383634e-08	5.526038e+01	1.565801e+03
1.520000e-06	7.682657e-06	2.386087e-08	5.551926e+01	1.567465e+03
1.530000e-06	7.715775e-06	2.388096e-08	5.575858e+01	1.568854e+03
1.540000e-06	7.746122e-06	2.389785e-08	5.597789e+01	1.569981e+03
1.550000e-06	7.773783e-06	2.391233e-08	5.617778e+01	1.570890e+03
1.560000e-06	7.798548e-06	2.392508e-08	5.635675e+01	1.571644e+03
1.570000e-06	7.820449e-06	2.393851e-08	5.651502e+01	1.572307e+03
1.580000e-06	7.839731e-06	2.395180e-08	5.665436e+01	1.572926e+03
1.590000e-06	7.856168e-06	2.396478e-08	5.677315e+01	1.573519e+03
1.600000e-06	7.869508e-06	2.397389e-08	5.686955e+01	1.574069e+03
1.610000e-06	7.879772e-06	2.397727e-08	5.694372e+01	1.574534e+03
1.620000e-06	7.887054e-06	2.398021e-08	5.699635e+01	1.574857e+03
1.630000e-06	7.891569e-06	2.398388e-08	5.702897e+01	1.574986e+03
1.640000e-06	7.893303e-06	2.398748e-08	5.704150e+01	1.574892e+03
1.650000e-06	7.892243e-06	2.398454e-08	5.703384e+01	1.574573e+03
1.660000e-06	7.888633e-06	2.397111e-08	5.700775e+01	1.574057e+03
1.670000e-06	7.882389e-06	2.396410e-08	5.696263e+01	1.573393e+03
1.680000e-06	7.873482e-06	2.395641e-08	5.689826e+01	1.572635e+03
1.690000e-06	7.861895e-06	2.394509e-08	5.681453e+01	1.571824e+03
1.700000e-06	7.847432e-06	2.393568e-08	5.671002e+01	1.570979e+03
1.710000e-06	7.830392e-06	2.393259e-08	5.658687e+01	1.570091e+03
1.720000e-06	7.811144e-06	2.393400e-08	5.644777e+01	1.569128e+03
1.730000e-06	7.789497e-06	2.385403e-08	5.629134e+01	1.568051e+03
1.740000e-06	7.764785e-06	2.378427e-08	5.611276e+01	1.566823e+03
1.750000e-06	7.736406e-06	2.382177e-08	5.590768e+01	1.565430e+03
1.760000e-06	7.704558e-06	2.381570e-08	5.567752e+01	1.563880e+03
1.770000e-06	7.670134e-06	2.376580e-08	5.542875e+01	1.562206e+03
1.780000e-06	7.633545e-06	2.379506e-08	5.516435e+01	1.560455e+03
1.790000e-06	7.594776e-06	2.384647e-08	5.488418e+01	1.558666e+03
1.800000e-06	7.554068e-06	2.368141e-08	5.459000e+01	1.556862e+03
1.810000e-06	7.511070e-06	2.370971e-08	5.427927e+01	1.555034e+03
1.820000e-06	7.465348e-06	2.373876e-08	5.394885e+01	1.553139e+03
1.830000e-06	7.416983e-06	2.361489e-08	5.359935e+01	1.551112e+03
1.840000e-06	7.365689e-06	2.369486e-08	5.322867e+01	1.548876e+03
1.850000e-06	7.311415e-06	2.357627e-08	5.283645e+01	1.546368e+03
1.860000e-06	7.254453e-06	2.355794e-08	5.242481e+01	1.543549e+03
1.870000e-06	7.194925e-06	2.349952e-08	5.199463e+01	1.540419e+03
1.880000e-06	7.132848e-06	2.337875e-08	5.154602e+01	1.537010e+03
1.890000e-06	7.067932e-06	2.345708e-08	5.107690e+01	1.533380e+03
1.900000e-06	7.000242e-06	2.333928e-08	5.058773e+01	1.529588e+03
1.910000e-06	6.929885e-06	2.329725e-08	5.007929e+01	1.525682e+03
1.920000e-06	6.856799e-06	2.325165e-08	4.955114e+01	1.521678e+03
1.930000e-06	6.781061e-06	2.318195e-08	4.900381e+01	1.517556e+03
1.940000e-06	6.702637e-06	2.312846e-08	4.843707e+01	1.513266e+03
1.950000e-06	6.621674e-06	2.301252e-08	4.785198e+01	1.508744e+03
1.960000e-06	6.538248e-06	2.299970e-08	4.724911e+01	1.503927e+03
1.970000e-06	6.452338e-06	2.286434e-08	4.662827e+01	1.498776e+03
1.980000e-06	6.364021e-06	2.278670e-08	4.599004e+01	1.493282e+03
1.990000e-06	6.273523e-06	2.272450e-08	4.533605e+01	1.487470e+03
2.000000e-06	6.180907e-06	2.263326e-08	4.466676e+01	1.481386e+03
2.010000e-06	6.086004e-06	2.255011e-08	4.398093e+01	1.475081e+03
2.020000e-06	5.988922e-06	2.243026e-08	4.327936e+01	1.468590e+03
2.030000e-06	5.889738e-06	2.233992e-08	4.256260e+01	1.461916e+03
2.040000e-06	5.788435e-06	2.220401e-08	4.183053e+01	1.455026e+03
2.050000e-06	5.685058e-06	2.210696e-08	4.108346e+01	1.447855e+03
2.060000e-06	5.579706e-06	2.199702e-08	4.032213e+01	1.440324e+03
2.070000e-06	5.472492e-06	2.188042e-08	3.954734e+01	1.432358e+03
2.080000e-06	5.363400e-06	2.174203e-08	3.875898e+01	1.423907e+03
2.090000e-06	5.252337e-06	2.160870e-08	3.795638e+01	1.414958e+03
2.100000e-06	5.139322e-06	2.148001e-08	3.713967e+01	1.405534e+03
2.110000e-06	5.024406e-06	2.133151e-08	3.630922e+01	1.395684e+03
2.120000e-06	4.907459e-06	2.118504e-08	3.546409e+01	1.385457e+03
2.130000e-06	4.788588e-06	2.102109e-08	3.460507e+01	1.374886e+03
2.140000e-06	4.667907e-06	2.084633e-08	3.373296e+01	1.363962e+03
2.150000e-06	4.545531e-06	2.065396e-08	3.284860e+01	1.352634e+03
2.160000e-06	4.421577e-06	2.048195e-08	3.195283e+01	1.340811e+03
2.170000e-06	4.296020e-06	2.029980e-08	3.104548e+01	1.328381e+03
2.180000e-06	4.168867e-06	2.010499e-08	3.012661e+01	1.315239e+03
2.190000e-06	4.040080e-06	1.989261e-08	2.919592e+01	1.301306e+03
2.200000e-06	3.909766e-06	1.967261e-08	2.825420e+01	1.286547e+03
2.210000e-06	3.778031e-06	1.943744e-08	2.730220e+01	1.270971e+03
2.220000e-06	3.644911e-06	1.918977e-08	2.634020e+01	1.254615e+03
2.230000e-06	3.510481e-06	1.893595e-08	2.536874e+01	1.237515e+03
2.240000e-06	3.374719e-06	1.866377e-08	2.438764e+01	1.219683e+03
2.250000e-06	3.237682e-06	1.837465e-08	2.339733e+01	1.201076e+03
2.260000e-06	3.099412e-06	1.806811e-08	2.239811e+01	1.181592e+03
2.270000e-06	2.959862e-06	1.775454e-08	2.138965e+01	1.161073e+03
2.280000e-06	2.819160e-06	1.742554e-08	2.037285e+01	1.139330e+03
2.290000e-06	2.677364e-06	1.708005e-08	1.934816e+01	1.116172e+03
2.300000e-06	2.534543e-06	1.670747e-08	1.831605e+01	1.091436e+03
2.310000e-06	2.390807e-06	1.630939e-08	1.727733e+01	1.065002e+03
2.320000e-06	2.246196e-06	1.588266e-08	1.623229e+01	1.036791e+03
2.330000e-06	2.100845e-06	1.542681e-08	1.518190e+01	1.006743e+03
2.340000e-06	1.954884e-06	1.494219e-08	1.412711e+01	9.747736e+02
2.350000e-06	1.808348e-06	1.442256e-08	1.306815e+01	9.407380e+02
2.360000e-06	1.661222e-06	1.386546e-08	1.200494e+01	9.044013e+02
2.370000e-06	1.513533e-06	1.326421e-08	1.093765e+01	8.654371e+02
2.380000e-06	1.365371e-06	1.261769e-08	9.866951e+00	8.234591e+02
2.390000e-06	1.216819e-06	1.192401e-08	8.793429e+00	7.780853e+02
2.400000e-06	1.067890e-06	1.117908e-08	7.717178e+00	7.290219e+02
2.410000e-06	9.185301e-07	1.037712e-08	6.637821e+00	6.761495e+02
2.420000e-06	7.687971e-07	9.518811e-09	5.555765e+00	6.195875e+02
2.430000e-06	6.188077e-07	8.610234e-09	4.471857e+00	5.597174e+02
2.440000e-06	4.685944e-07	7.657818e-09	3.386330e+00	4.971523e+02
2.450000e-06	3.181749e-07	6.670493e-09	2.299313e+00	4.326534e+02
2.460000e-06	1.676177e-07	5.661795e-09	1.211301e+00	3.670065e+02
2.470000e-06	1.696166e-08	4.644837e-09	1.225746e-01	3.008851e+02
2.480000e-06	-1.337167e-07	3.626725e-09	-9.663130e-01	2.347288e+02
2.490000e-06	-2.843608e-07	2.612226e-09	-2.054953e+00	1.686673e+02
2.500000e-06	-4.349248e-07	1.599716e-09	-3.143014e+00	1.025112e+02
2.510000e-06	-5.853400e-07	5.825992e-10	-4.230000e+00	3.581510e+01
2.520000e-06	-7.355790e-07	-4.501585e-10	-5.315712e+00	-3.199636e+01
2.530000e-06	-8.856018e-07	-1.507487e-09	-6.399863e+00	-1.014651e+02
2.540000e-06	-1.035295e-06	-2.593485e-09	-7.481631e+00	-1.729327e+02
2.550000e-06	-1.184533e-06	-3.710995e-09	-8.560113e+00	-2.464065e+02
2.560000e-06	-1.333321e-06	-4.857540e-09	-9.635340e+00	-3.214885e+02
2.570000e-06	-1.481665e-06	-6.024087e-09	-1.070735e+01	-3.973831e+02
2.580000e-06	-1.629481e-06	-7.191959e-09	-1.177556e+01	-4.729827e+02
2.590000e-06	-1.776674e-06	-8.333996e-09	-1.283926e+01	-5.470140e+02
2.600000e-06	-1.923202e-06	-9.425975e-09	-1.389816e+01	-6.182140e+02
2.610000e-06	-2.069069e-06	-1.045134e-08	-1.495227e+01	-6.855002e+02
2.620000e-06	-2.214241e-06	-1.139994e-08	-1.600137e+01	-7.481021e+02
2.630000e-06	-2.358584e-06	-1.227257e-08	-1.704447e+01	-8.056309e+02
2.640000e-06	-2.501961e-06	-1.307507e-08	-1.808060e+01	-8.580786e+02
2.650000e-06	-2.644311e-06	-1.381211e-08	-1.910929e+01	-9.057536e+02
2.660000e-06	-2.785573e-06	-1.448786e-08	-2.013014e+01	-9.491736e+02
2.670000e-06	-2.925635e-06	-1.510715e-08	-2.114230e+01	-9.889417e+02
2.680000e-06	-3.064474e-06	-1.567624e-08	-2.214563e+01	-1.025634e+03
2.690000e-06	-3.202141e-06	-1.619838e-08	-2.314049e+01	-1.059722e+03
2.700000e-06	-3.338629e-06	-1.667925e-08	-2.412683e+01	-1.091534e+03
2.710000e-06	-3.473914e-06	-1.712756e-08	-2.510448e+01	-1.121266e+03
2.720000e-06	-3.607889e-06	-1.754671e-08	-2.607266e+01	-1.149023e+03
2.730000e-06	-3.740522e-06	-1.793923e-08	-2.703115e+01	-1.174867e+03
2.740000e-06	-3.871822e-06	-1.830520e-08	-2.797999e+01	-1.198874e+03
2.750000e-06	-4.001779e-06	-1.864500e-08	-2.891913e+01	-1.221161e+03
2.760000e-06	-4.130396e-06	-1.896403e-08	-2.984860e+01	-1.241901e+03
2.770000e-06	-4.257608e-06	-1.926563e-08	-3.076790e+01	-1.261296e+03
2.780000e-06	-4.383339e-06	-1.954967e-08	-3.167651e+01	-1.279558e+03
2.790000e-06	-4.507516e-06	-1.981615e-08	-3.257388e+01	-1.296866e+03
2.800000e-06	-4.630167e-06	-2.006663e-08	-3.346022e+01	-1.313343e+03
2.810000e-06	-4.751233e-06	-2.030410e-08	-3.433511e+01	-1.329047e+03
2.820000e-06	-4.870472e-06	-2.053163e-08	-3.519680e+01	-1.343982e+03
2.830000e-06	-4.987763e-06	-2.074870e-08	-3.604442e+01	-1.358119e+03
2.840000e-06	-5.103048e-06	-2.095377e-08	-3.687753e+01	-1.371429e+03
2.850000e-06	-5.216198e-06	-2.114609e-08	-3.769522e+01	-1.383907e+03
2.860000e-06	-5.327241e-06	-2.132527e-08	-3.849768e+01	-1.395589e+03
2.870000e-06	-5.436364e-06	-2.149334e-08	-3.928626e+01	-1.406553e+03
2.880000e-06	-5.543691e-06	-2.165191e-08	-4.006187e+01	-1.416901e+03
2.890000e-06	-5.649169e-06	-2.180139e-08	-4.082411e+01	-1.426738e+03
2.900000e-06	-5.752583e-06	-2.194530e-08	-4.157144e+01	-1.436144e+03
2.910000e-06	-5.853733e-06	-2.208564e-08	-4.230241e+01	-1.445161e+03
2.920000e-06	-5.952719e-06	-2.221941e-08	-4.301773e+01	-1.453786e+03
2.930000e-06	-6.049703e-06	-2.234544e-08	-4.371860e+01	-1.461981e+03
2.940000e-06	-6.144504e-06	-2.246276e-08	-4.440368e+01	-1.469692e+03
