# Temperatura_=_28.75
# Concentracion g/m^3_=_28200.0
# C_Vs_to_Am_M_A/Vsm_=_65563218390.804596
# pendiente_HvsI_1/m_=_3716.3
# ordenada_HvsI_A/m_=_1297.0
# frecuencia_Hz_=_302508.88568145543

Tiempo_(s)	Campo_(V.s)	Magnetizacion_(V.s)	Campo_(kA/m)	Magnetizacion_(A/m)
0.000000e+00	-7.848555e-06	-2.406574e-08	-5.684183e+01	-1.575273e+03
1.000000e-08	-7.844288e-06	-2.406661e-08	-5.681093e+01	-1.574756e+03
2.000000e-08	-7.837536e-06	-2.405765e-08	-5.676203e+01	-1.574109e+03
3.000000e-08	-7.828171e-06	-2.404978e-08	-5.669420e+01	-1.573371e+03
4.000000e-08	-7.816027e-06	-2.403931e-08	-5.660625e+01	-1.572570e+03
5.000000e-08	-7.800899e-06	-2.402065e-08	-5.649669e+01	-1.571713e+03
6.000000e-08	-7.783056e-06	-2.399409e-08	-5.636747e+01	-1.570784e+03
7.000000e-08	-7.763018e-06	-2.395928e-08	-5.622235e+01	-1.569755e+03
8.000000e-08	-7.740652e-06	-2.394699e-08	-5.606036e+01	-1.568593e+03
9.000000e-08	-7.715368e-06	-2.402754e-08	-5.587725e+01	-1.567279e+03
1.000000e-07	-7.686915e-06	-2.398636e-08	-5.567118e+01	-1.565812e+03
1.100000e-07	-7.655578e-06	-2.389012e-08	-5.544423e+01	-1.564215e+03
1.200000e-07	-7.621430e-06	-2.387320e-08	-5.519692e+01	-1.562526e+03
1.300000e-07	-7.584676e-06	-2.385298e-08	-5.493073e+01	-1.560790e+03
1.400000e-07	-7.545723e-06	-2.376539e-08	-5.464862e+01	-1.559038e+03
1.500000e-07	-7.504526e-06	-2.367305e-08	-5.435026e+01	-1.557276e+03
1.600000e-07	-7.460862e-06	-2.379915e-08	-5.403403e+01	-1.555477e+03
1.700000e-07	-7.414628e-06	-2.373778e-08	-5.369919e+01	-1.553584e+03
1.800000e-07	-7.365750e-06	-2.358956e-08	-5.334520e+01	-1.551520e+03
1.900000e-07	-7.313909e-06	-2.367037e-08	-5.296975e+01	-1.549205e+03
2.000000e-07	-7.259169e-06	-2.357044e-08	-5.257330e+01	-1.546581e+03
2.100000e-07	-7.201841e-06	-2.350390e-08	-5.215811e+01	-1.543621e+03
2.200000e-07	-7.141866e-06	-2.348095e-08	-5.172376e+01	-1.540338e+03
2.300000e-07	-7.079326e-06	-2.341700e-08	-5.127082e+01	-1.536778e+03
2.400000e-07	-7.014182e-06	-2.339993e-08	-5.079903e+01	-1.533010e+03
2.500000e-07	-6.946341e-06	-2.327597e-08	-5.030770e+01	-1.529100e+03
2.600000e-07	-6.875848e-06	-2.325680e-08	-4.979716e+01	-1.525093e+03
2.700000e-07	-6.802614e-06	-2.319427e-08	-4.926678e+01	-1.521002e+03
2.800000e-07	-6.726683e-06	-2.310327e-08	-4.871686e+01	-1.516800e+03
2.900000e-07	-6.648027e-06	-2.302969e-08	-4.814721e+01	-1.512428e+03
3.000000e-07	-6.566667e-06	-2.296306e-08	-4.755797e+01	-1.507816e+03
3.100000e-07	-6.483002e-06	-2.291295e-08	-4.695204e+01	-1.502897e+03
3.200000e-07	-6.397209e-06	-2.278907e-08	-4.633070e+01	-1.497632e+03
3.300000e-07	-6.309160e-06	-2.274746e-08	-4.569303e+01	-1.492013e+03
3.400000e-07	-6.218735e-06	-2.264781e-08	-4.503814e+01	-1.486068e+03
3.500000e-07	-6.126093e-06	-2.253290e-08	-4.436719e+01	-1.479847e+03
3.600000e-07	-6.031309e-06	-2.245224e-08	-4.368073e+01	-1.473403e+03
3.700000e-07	-5.934274e-06	-2.235803e-08	-4.297797e+01	-1.466771e+03
3.800000e-07	-5.834991e-06	-2.225051e-08	-4.225893e+01	-1.459956e+03
3.900000e-07	-5.733628e-06	-2.213011e-08	-4.152483e+01	-1.452923e+03
4.000000e-07	-5.630303e-06	-2.203351e-08	-4.077652e+01	-1.445607e+03
4.100000e-07	-5.524998e-06	-2.189578e-08	-4.001386e+01	-1.437928e+03
4.200000e-07	-5.417718e-06	-2.177082e-08	-3.923690e+01	-1.429810e+03
4.300000e-07	-5.308545e-06	-2.164581e-08	-3.844624e+01	-1.421202e+03
4.400000e-07	-5.197419e-06	-2.151916e-08	-3.764143e+01	-1.412092e+03
4.500000e-07	-5.084349e-06	-2.136520e-08	-3.682254e+01	-1.402499e+03
4.600000e-07	-4.969295e-06	-2.120827e-08	-3.598928e+01	-1.392469e+03
4.700000e-07	-4.852269e-06	-2.105497e-08	-3.514173e+01	-1.382048e+03
4.800000e-07	-4.733488e-06	-2.088725e-08	-3.428148e+01	-1.371264e+03
4.900000e-07	-4.612966e-06	-2.071557e-08	-3.340862e+01	-1.360109e+03
5.000000e-07	-4.490786e-06	-2.053703e-08	-3.252376e+01	-1.348532e+03
5.100000e-07	-4.366922e-06	-2.035812e-08	-3.162669e+01	-1.336443e+03
5.200000e-07	-4.241486e-06	-2.015088e-08	-3.071824e+01	-1.323737e+03
5.300000e-07	-4.114555e-06	-1.993832e-08	-2.979897e+01	-1.310315e+03
5.400000e-07	-3.986053e-06	-1.971822e-08	-2.886832e+01	-1.296102e+03
5.500000e-07	-3.856136e-06	-1.949377e-08	-2.792742e+01	-1.281067e+03
5.600000e-07	-3.724708e-06	-1.925095e-08	-2.697557e+01	-1.265217e+03
5.700000e-07	-3.591791e-06	-1.899716e-08	-2.601294e+01	-1.248583e+03
5.800000e-07	-3.457617e-06	-1.873259e-08	-2.504121e+01	-1.231197e+03
5.900000e-07	-3.322142e-06	-1.845443e-08	-2.406005e+01	-1.213059e+03
6.000000e-07	-3.185351e-06	-1.816544e-08	-2.306936e+01	-1.194120e+03
6.100000e-07	-3.047371e-06	-1.785867e-08	-2.207007e+01	-1.174274e+03
6.200000e-07	-2.908175e-06	-1.753936e-08	-2.106197e+01	-1.153359e+03
6.300000e-07	-2.767556e-06	-1.719418e-08	-2.004356e+01	-1.131189e+03
6.400000e-07	-2.625658e-06	-1.682750e-08	-1.901589e+01	-1.107576e+03
6.500000e-07	-2.482810e-06	-1.643631e-08	-1.798133e+01	-1.082359e+03
6.600000e-07	-2.339137e-06	-1.602775e-08	-1.694080e+01	-1.055418e+03
6.700000e-07	-2.194682e-06	-1.559554e-08	-1.589461e+01	-1.026669e+03
6.800000e-07	-2.049398e-06	-1.513235e-08	-1.484242e+01	-9.960393e+02
6.900000e-07	-1.903353e-06	-1.463909e-08	-1.378471e+01	-9.634334e+02
7.000000e-07	-1.756734e-06	-1.410772e-08	-1.272285e+01	-9.286948e+02
7.100000e-07	-1.609629e-06	-1.354145e-08	-1.165746e+01	-8.915834e+02
7.200000e-07	-1.462056e-06	-1.292961e-08	-1.058869e+01	-8.517783e+02
7.300000e-07	-1.314006e-06	-1.226841e-08	-9.516469e+00	-8.089133e+02
7.400000e-07	-1.165482e-06	-1.155556e-08	-8.440807e+00	-7.626414e+02
7.500000e-07	-1.016604e-06	-1.079338e-08	-7.362583e+00	-7.127175e+02
7.600000e-07	-8.674379e-07	-9.980218e-09	-6.282272e+00	-6.590796e+02
7.700000e-07	-7.179901e-07	-9.115644e-09	-5.199922e+00	-6.019059e+02
7.800000e-07	-5.683403e-07	-8.204285e-09	-4.116109e+00	-5.416312e+02
7.900000e-07	-4.185201e-07	-7.251669e-09	-3.031061e+00	-4.789091e+02
8.000000e-07	-2.685500e-07	-6.270607e-09	-1.944928e+00	-4.145237e+02
8.100000e-07	-1.184642e-07	-5.270443e-09	-8.579567e-01	-3.492651e+02
8.200000e-07	3.171067e-08	-4.267494e-09	2.296592e-01	-2.837923e+02
8.300000e-07	1.818800e-07	-3.270565e-09	1.317235e+00	-2.185163e+02
8.400000e-07	3.320214e-07	-2.282556e-09	2.404609e+00	-1.535290e+02
8.500000e-07	4.820680e-07	-1.295856e-09	3.491296e+00	-8.859900e+01
8.600000e-07	6.319203e-07	-3.041381e-10	4.576576e+00	-2.323869e+01
8.700000e-07	7.816028e-07	6.998116e-10	5.660626e+00	4.316736e+01
8.800000e-07	9.310833e-07	1.727428e-09	6.743214e+00	1.111987e+02
8.900000e-07	1.080331e-06	2.787183e-09	7.824111e+00	1.812333e+02
9.000000e-07	1.229262e-06	3.883813e-09	8.902726e+00	2.533151e+02
9.100000e-07	1.377820e-06	5.011598e-09	9.978628e+00	3.270841e+02
9.200000e-07	1.525860e-06	6.160832e-09	1.105078e+01	4.017831e+02
9.300000e-07	1.673261e-06	7.307520e-09	1.211831e+01	4.763417e+02
9.400000e-07	1.820105e-06	8.426021e-09	1.318180e+01	5.495181e+02
9.500000e-07	1.966342e-06	9.494210e-09	1.424090e+01	6.200709e+02
9.600000e-07	2.111864e-06	1.049851e-08	1.529481e+01	6.869254e+02
9.700000e-07	2.256637e-06	1.143519e-08	1.634331e+01	7.493031e+02
9.800000e-07	2.400524e-06	1.229959e-08	1.738539e+01	8.067913e+02
9.900000e-07	2.543430e-06	1.309536e-08	1.842036e+01	8.593453e+02
1.000000e-06	2.685369e-06	1.382172e-08	1.944833e+01	9.072304e+02
1.010000e-06	2.826181e-06	1.448747e-08	2.046814e+01	9.509202e+02
1.020000e-06	2.965719e-06	1.509991e-08	2.147872e+01	9.909798e+02
1.030000e-06	3.104124e-06	1.566439e-08	2.248109e+01	1.027959e+03
1.040000e-06	3.241412e-06	1.618803e-08	2.347537e+01	1.062313e+03
1.050000e-06	3.377425e-06	1.667491e-08	2.446043e+01	1.094372e+03
1.060000e-06	3.512105e-06	1.712785e-08	2.543582e+01	1.124336e+03
1.070000e-06	3.645551e-06	1.754830e-08	2.640229e+01	1.152322e+03
1.080000e-06	3.777747e-06	1.794130e-08	2.735969e+01	1.178402e+03
1.090000e-06	3.908485e-06	1.830804e-08	2.830654e+01	1.202657e+03
1.100000e-06	4.037810e-06	1.865238e-08	2.924316e+01	1.225204e+03
1.110000e-06	4.165726e-06	1.897434e-08	3.016957e+01	1.246204e+03
1.120000e-06	4.292168e-06	1.927839e-08	3.108530e+01	1.265852e+03
1.130000e-06	4.417194e-06	1.956342e-08	3.199078e+01	1.284346e+03
1.140000e-06	4.540749e-06	1.983089e-08	3.288561e+01	1.301856e+03
1.150000e-06	4.662727e-06	2.008345e-08	3.376901e+01	1.318505e+03
1.160000e-06	4.783031e-06	2.032290e-08	3.464029e+01	1.334357e+03
1.170000e-06	4.901615e-06	2.054818e-08	3.549911e+01	1.349426e+03
1.180000e-06	5.018397e-06	2.075959e-08	3.634489e+01	1.363696e+03
1.190000e-06	5.133213e-06	2.096019e-08	3.717643e+01	1.377149e+03
1.200000e-06	5.246044e-06	2.114955e-08	3.799358e+01	1.389790e+03
1.210000e-06	5.356965e-06	2.132935e-08	3.879691e+01	1.401656e+03
1.220000e-06	5.466036e-06	2.149956e-08	3.958684e+01	1.412818e+03
1.230000e-06	5.573157e-06	2.166210e-08	4.036264e+01	1.423371e+03
1.240000e-06	5.678218e-06	2.181846e-08	4.112353e+01	1.433407e+03
1.250000e-06	5.781192e-06	2.196862e-08	4.186931e+01	1.442997e+03
1.260000e-06	5.882018e-06	2.211022e-08	4.259952e+01	1.452178e+03
1.270000e-06	5.980659e-06	2.224154e-08	4.331391e+01	1.460946e+03
1.280000e-06	6.077024e-06	2.236463e-08	4.401182e+01	1.469269e+03
1.290000e-06	6.171162e-06	2.247992e-08	4.469360e+01	1.477103e+03
1.300000e-06	6.263128e-06	2.258819e-08	4.535965e+01	1.484414e+03
1.310000e-06	6.352853e-06	2.269068e-08	4.600946e+01	1.491199e+03
1.320000e-06	6.440284e-06	2.278738e-08	4.664267e+01	1.497493e+03
1.330000e-06	6.525463e-06	2.287839e-08	4.725956e+01	1.503364e+03
1.340000e-06	6.608394e-06	2.296430e-08	4.786018e+01	1.508906e+03
1.350000e-06	6.688863e-06	2.304786e-08	4.844296e+01	1.514209e+03
1.360000e-06	6.766803e-06	2.312868e-08	4.900743e+01	1.519346e+03
1.370000e-06	6.842254e-06	2.320544e-08	4.955386e+01	1.524351e+03
1.380000e-06	6.915103e-06	2.327731e-08	5.008147e+01	1.529221e+03
1.390000e-06	6.985452e-06	2.334593e-08	5.059095e+01	1.533915e+03
1.400000e-06	7.053361e-06	2.341179e-08	5.108277e+01	1.538376e+03
1.410000e-06	7.118681e-06	2.347321e-08	5.155584e+01	1.542548e+03
1.420000e-06	7.181467e-06	2.353024e-08	5.201056e+01	1.546396e+03
1.430000e-06	7.241857e-06	2.358328e-08	5.244792e+01	1.549915e+03
1.440000e-06	7.299738e-06	2.363295e-08	5.286712e+01	1.553132e+03
1.450000e-06	7.355033e-06	2.368021e-08	5.326758e+01	1.556095e+03
1.460000e-06	7.407604e-06	2.372559e-08	5.364832e+01	1.558863e+03
1.470000e-06	7.457137e-06	2.376866e-08	5.400705e+01	1.561481e+03
1.480000e-06	7.503778e-06	2.380752e-08	5.434484e+01	1.563972e+03
1.490000e-06	7.547827e-06	2.384272e-08	5.466386e+01	1.566330e+03
1.500000e-06	7.589160e-06	2.387497e-08	5.496321e+01	1.568525e+03
1.510000e-06	7.627707e-06	2.390325e-08	5.524238e+01	1.570515e+03
1.520000e-06	7.663649e-06	2.392857e-08	5.550268e+01	1.572259e+03
1.530000e-06	7.696887e-06	2.395033e-08	5.574340e+01	1.573737e+03
1.540000e-06	7.727336e-06	2.396909e-08	5.596392e+01	1.574955e+03
1.550000e-06	7.755115e-06	2.398489e-08	5.616511e+01	1.575947e+03
1.560000e-06	7.780034e-06	2.399971e-08	5.634558e+01	1.576762e+03
1.570000e-06	7.802046e-06	2.401280e-08	5.650500e+01	1.577457e+03
1.580000e-06	7.821410e-06	2.402375e-08	5.664524e+01	1.578077e+03
1.590000e-06	7.837972e-06	2.403466e-08	5.676519e+01	1.578642e+03
1.600000e-06	7.851518e-06	2.404247e-08	5.686329e+01	1.579146e+03
1.610000e-06	7.862010e-06	2.404646e-08	5.693928e+01	1.579560e+03
1.620000e-06	7.869503e-06	2.404925e-08	5.699355e+01	1.579840e+03
1.630000e-06	7.874232e-06	2.405317e-08	5.702780e+01	1.579947e+03
1.640000e-06	7.876125e-06	2.405702e-08	5.704150e+01	1.579854e+03
1.650000e-06	7.875241e-06	2.405730e-08	5.703510e+01	1.579560e+03
1.660000e-06	7.871871e-06	2.404122e-08	5.701070e+01	1.579087e+03
1.670000e-06	7.865856e-06	2.403373e-08	5.696713e+01	1.578471e+03
1.680000e-06	7.857173e-06	2.402718e-08	5.690424e+01	1.577755e+03
1.690000e-06	7.845823e-06	2.401531e-08	5.682205e+01	1.576970e+03
1.700000e-06	7.831596e-06	2.400481e-08	5.671901e+01	1.576128e+03
1.710000e-06	7.814766e-06	2.400528e-08	5.659712e+01	1.575221e+03
1.720000e-06	7.795751e-06	2.401591e-08	5.645940e+01	1.574223e+03
1.730000e-06	7.774338e-06	2.394137e-08	5.630433e+01	1.573101e+03
1.740000e-06	7.749874e-06	2.382661e-08	5.612715e+01	1.571831e+03
1.750000e-06	7.721857e-06	2.388463e-08	5.592424e+01	1.570405e+03
1.760000e-06	7.690348e-06	2.389923e-08	5.569604e+01	1.568840e+03
1.770000e-06	7.656163e-06	2.383078e-08	5.544846e+01	1.567172e+03
1.780000e-06	7.619806e-06	2.385264e-08	5.518516e+01	1.565444e+03
1.790000e-06	7.581158e-06	2.395619e-08	5.490526e+01	1.563694e+03
1.800000e-06	7.540590e-06	2.376294e-08	5.461145e+01	1.561935e+03
1.810000e-06	7.497945e-06	2.374134e-08	5.430259e+01	1.560151e+03
1.820000e-06	7.452591e-06	2.385791e-08	5.397413e+01	1.558291e+03
1.830000e-06	7.404620e-06	2.365442e-08	5.362670e+01	1.556282e+03
1.840000e-06	7.353754e-06	2.378003e-08	5.325832e+01	1.554046e+03
1.850000e-06	7.299814e-06	2.367168e-08	5.286767e+01	1.551514e+03
1.860000e-06	7.243168e-06	2.362706e-08	5.245742e+01	1.548649e+03
1.870000e-06	7.183984e-06	2.364197e-08	5.202879e+01	1.545453e+03
1.880000e-06	7.122220e-06	2.343114e-08	5.158147e+01	1.541966e+03
1.890000e-06	7.057630e-06	2.354571e-08	5.111369e+01	1.538249e+03
1.900000e-06	6.990352e-06	2.341356e-08	5.062644e+01	1.534372e+03
1.910000e-06	6.920373e-06	2.335642e-08	5.011963e+01	1.530389e+03
1.920000e-06	6.847578e-06	2.334170e-08	4.959242e+01	1.526322e+03
1.930000e-06	6.772182e-06	2.323331e-08	4.904638e+01	1.522155e+03
1.940000e-06	6.694066e-06	2.322591e-08	4.848064e+01	1.517838e+03
1.950000e-06	6.613339e-06	2.306858e-08	4.789599e+01	1.513301e+03
1.960000e-06	6.530177e-06	2.307001e-08	4.729370e+01	1.508474e+03
1.970000e-06	6.444658e-06	2.293618e-08	4.667434e+01	1.503309e+03
1.980000e-06	6.356800e-06	2.285172e-08	4.603805e+01	1.497789e+03
1.990000e-06	6.266694e-06	2.280913e-08	4.538547e+01	1.491931e+03
2.000000e-06	6.174442e-06	2.268582e-08	4.471735e+01	1.485783e+03
2.010000e-06	6.079917e-06	2.262211e-08	4.403277e+01	1.479397e+03
2.020000e-06	5.983203e-06	2.248473e-08	4.333233e+01	1.472816e+03
2.030000e-06	5.884403e-06	2.240807e-08	4.261679e+01	1.466054e+03
2.040000e-06	5.783560e-06	2.226712e-08	4.188645e+01	1.459087e+03
2.050000e-06	5.680599e-06	2.217645e-08	4.114078e+01	1.451859e+03
2.060000e-06	5.575594e-06	2.206509e-08	4.038030e+01	1.444291e+03
2.070000e-06	5.468695e-06	2.193740e-08	3.960610e+01	1.436304e+03
2.080000e-06	5.359931e-06	2.180281e-08	3.881839e+01	1.427838e+03
2.090000e-06	5.249239e-06	2.166087e-08	3.801673e+01	1.418870e+03
2.100000e-06	5.136597e-06	2.153639e-08	3.720094e+01	1.409410e+03
2.110000e-06	5.022037e-06	2.137795e-08	3.637126e+01	1.399498e+03
2.120000e-06	4.905497e-06	2.123730e-08	3.552723e+01	1.389184e+03
2.130000e-06	4.787104e-06	2.106914e-08	3.466979e+01	1.378502e+03
2.140000e-06	4.666861e-06	2.089948e-08	3.379895e+01	1.367456e+03
2.150000e-06	4.544887e-06	2.070535e-08	3.291558e+01	1.356006e+03
2.160000e-06	4.421245e-06	2.053357e-08	3.202012e+01	1.344072e+03
2.170000e-06	4.295982e-06	2.034712e-08	3.111292e+01	1.331553e+03
2.180000e-06	4.169201e-06	2.014885e-08	3.019473e+01	1.318343e+03
2.190000e-06	4.040783e-06	1.993669e-08	2.926469e+01	1.304360e+03
2.200000e-06	3.910921e-06	1.971555e-08	2.832419e+01	1.289560e+03
2.210000e-06	3.779604e-06	1.948229e-08	2.737314e+01	1.273939e+03
2.220000e-06	3.646806e-06	1.923409e-08	2.641138e+01	1.257525e+03
2.230000e-06	3.512769e-06	1.898241e-08	2.544063e+01	1.240350e+03
2.240000e-06	3.377418e-06	1.870840e-08	2.446038e+01	1.222429e+03
2.250000e-06	3.240708e-06	1.841998e-08	2.347028e+01	1.203726e+03
2.260000e-06	3.102799e-06	1.811217e-08	2.247150e+01	1.184152e+03
2.270000e-06	2.963660e-06	1.779996e-08	2.146380e+01	1.163560e+03
2.280000e-06	2.823330e-06	1.746867e-08	2.044749e+01	1.141768e+03
2.290000e-06	2.682004e-06	1.712235e-08	1.942396e+01	1.118584e+03
2.300000e-06	2.539703e-06	1.674965e-08	1.839337e+01	1.093839e+03
2.310000e-06	2.396446e-06	1.635102e-08	1.735586e+01	1.067399e+03
2.320000e-06	2.252251e-06	1.592285e-08	1.631155e+01	1.039173e+03
2.330000e-06	2.107223e-06	1.546639e-08	1.526120e+01	1.009087e+03
2.340000e-06	1.961585e-06	1.498033e-08	1.420645e+01	9.770576e+02
2.350000e-06	1.815450e-06	1.445845e-08	1.314809e+01	9.429480e+02
2.360000e-06	1.668750e-06	1.390242e-08	1.208564e+01	9.065431e+02
2.370000e-06	1.521423e-06	1.330419e-08	1.101865e+01	8.675430e+02
2.380000e-06	1.373480e-06	1.265762e-08	9.947196e+00	8.255889e+02
2.390000e-06	1.225066e-06	1.196256e-08	8.872333e+00	7.803205e+02
2.400000e-06	1.076305e-06	1.121759e-08	7.794959e+00	7.314548e+02
2.410000e-06	9.271348e-07	1.041907e-08	6.714617e+00	6.788700e+02
2.420000e-06	7.775902e-07	9.569330e-09	5.631566e+00	6.226721e+02
2.430000e-06	6.278631e-07	8.669933e-09	4.547192e+00	5.632241e+02
2.440000e-06	4.780590e-07	7.726800e-09	3.462261e+00	5.011238e+02
2.450000e-06	3.281120e-07	6.747548e-09	2.376296e+00	4.371297e+02
2.460000e-06	1.780072e-07	5.746065e-09	1.289187e+00	3.720440e+02
2.470000e-06	2.781467e-08	4.736654e-09	2.014430e-01	3.065768e+02
2.480000e-06	-1.224036e-07	3.730715e-09	-8.864870e-01	2.412196e+02
2.490000e-06	-2.726078e-07	2.735158e-09	-1.974316e+00	1.761589e+02
2.500000e-06	-4.227567e-07	1.744121e-09	-3.061744e+00	1.112520e+02
2.510000e-06	-5.728018e-07	7.479157e-10	-4.148420e+00	4.607373e+01
2.520000e-06	-7.226457e-07	-2.617529e-10	-5.233639e+00	-1.997061e+01
2.530000e-06	-8.722087e-07	-1.291135e-09	-6.316824e+00	-8.748833e+01
2.540000e-06	-1.021540e-06	-2.347158e-09	-7.398330e+00	-1.569306e+02
2.550000e-06	-1.170647e-06	-3.435323e-09	-8.478216e+00	-2.284470e+02
2.560000e-06	-1.319391e-06	-4.553707e-09	-9.555465e+00	-3.017958e+02
2.570000e-06	-1.467586e-06	-5.695933e-09	-1.062874e+01	-3.763279e+02
2.580000e-06	-1.615196e-06	-6.846493e-09	-1.169778e+01	-4.510499e+02
2.590000e-06	-1.762193e-06	-7.981057e-09	-1.276238e+01	-5.247522e+02
2.600000e-06	-1.908460e-06	-9.077985e-09	-1.382170e+01	-5.961754e+02
2.610000e-06	-2.054031e-06	-1.011700e-08	-1.487597e+01	-6.641819e+02
2.620000e-06	-2.198869e-06	-1.108565e-08	-1.592493e+01	-7.278985e+02
2.630000e-06	-2.342798e-06	-1.198273e-08	-1.696732e+01	-7.868046e+02
2.640000e-06	-2.485737e-06	-1.280732e-08	-1.800253e+01	-8.407543e+02
2.650000e-06	-2.627700e-06	-1.356490e-08	-1.903067e+01	-8.899330e+02
2.660000e-06	-2.768688e-06	-1.425908e-08	-2.005176e+01	-9.347666e+02
2.670000e-06	-2.908578e-06	-1.489646e-08	-2.106488e+01	-9.758060e+02
2.680000e-06	-3.047227e-06	-1.548331e-08	-2.206903e+01	-1.013614e+03
2.690000e-06	-3.184722e-06	-1.602281e-08	-2.306481e+01	-1.048681e+03
2.700000e-06	-3.321088e-06	-1.652100e-08	-2.405242e+01	-1.081370e+03
2.710000e-06	-3.456147e-06	-1.698385e-08	-2.503056e+01	-1.111919e+03
2.720000e-06	-3.589896e-06	-1.741699e-08	-2.599921e+01	-1.140463e+03
2.730000e-06	-3.722386e-06	-1.782110e-08	-2.695875e+01	-1.167082e+03
2.740000e-06	-3.853512e-06	-1.819824e-08	-2.790841e+01	-1.191849e+03
2.750000e-06	-3.983356e-06	-1.854850e-08	-2.884878e+01	-1.214870e+03
2.760000e-06	-4.111882e-06	-1.887621e-08	-2.977961e+01	-1.236295e+03
2.770000e-06	-4.238913e-06	-1.918618e-08	-3.069961e+01	-1.256310e+03
2.780000e-06	-4.364527e-06	-1.947820e-08	-3.160935e+01	-1.275115e+03
2.790000e-06	-4.488633e-06	-1.975340e-08	-3.250817e+01	-1.292892e+03
2.800000e-06	-4.611091e-06	-2.001209e-08	-3.339505e+01	-1.309779e+03
2.810000e-06	-4.731962e-06	-2.025571e-08	-3.427044e+01	-1.325856e+03
2.820000e-06	-4.851107e-06	-2.048806e-08	-3.513332e+01	-1.341151e+03
2.830000e-06	-4.968330e-06	-2.071017e-08	-3.598229e+01	-1.355652e+03
2.840000e-06	-5.083485e-06	-2.092126e-08	-3.681628e+01	-1.369341e+03
2.850000e-06	-5.196534e-06	-2.111987e-08	-3.763502e+01	-1.382213e+03
2.860000e-06	-5.307532e-06	-2.130546e-08	-3.843890e+01	-1.394295e+03
2.870000e-06	-5.416581e-06	-2.147952e-08	-3.922867e+01	-1.405650e+03
2.880000e-06	-5.523804e-06	-2.164318e-08	-4.000522e+01	-1.416369e+03
2.890000e-06	-5.629110e-06	-2.179895e-08	-4.076788e+01	-1.426544e+03
2.900000e-06	-5.732372e-06	-2.194850e-08	-4.151573e+01	-1.436258e+03
2.910000e-06	-5.833518e-06	-2.209163e-08	-4.224827e+01	-1.445555e+03
2.920000e-06	-5.932526e-06	-2.222841e-08	-4.296531e+01	-1.454445e+03
2.930000e-06	-6.029443e-06	-2.235863e-08	-4.366722e+01	-1.462900e+03
2.940000e-06	-6.124179e-06	-2.248064e-08	-4.435333e+01	-1.470879e+03
