# Temperatura_=_89.2
# Concentracion g/m^3_=_28200.0
# C_Vs_to_Am_M_A/Vsm_=_65563218390.804596
# pendiente_HvsI_1/m_=_3716.3
# ordenada_HvsI_A/m_=_1297.0
# frecuencia_Hz_=_302504.78967165796

Tiempo_(s)	Campo_(V.s)	Magnetizacion_(V.s)	Campo_(kA/m)	Magnetizacion_(A/m)
0.000000e+00	-7.848123e-06	-2.969861e-08	-5.684177e+01	-1.945813e+03
1.000000e-08	-7.843911e-06	-2.969187e-08	-5.681127e+01	-1.945048e+03
2.000000e-08	-7.837115e-06	-2.968124e-08	-5.676204e+01	-1.944140e+03
3.000000e-08	-7.827668e-06	-2.966591e-08	-5.669362e+01	-1.943135e+03
4.000000e-08	-7.815348e-06	-2.964800e-08	-5.660439e+01	-1.942050e+03
5.000000e-08	-7.800148e-06	-2.963000e-08	-5.649430e+01	-1.940875e+03
6.000000e-08	-7.782375e-06	-2.960834e-08	-5.636558e+01	-1.939570e+03
7.000000e-08	-7.762376e-06	-2.958525e-08	-5.622073e+01	-1.938087e+03
8.000000e-08	-7.739956e-06	-2.956104e-08	-5.605835e+01	-1.936382e+03
9.000000e-08	-7.714592e-06	-2.955270e-08	-5.587464e+01	-1.934438e+03
1.000000e-07	-7.686178e-06	-2.953981e-08	-5.566884e+01	-1.932271e+03
1.100000e-07	-7.654875e-06	-2.948055e-08	-5.544213e+01	-1.929929e+03
1.200000e-07	-7.620739e-06	-2.942373e-08	-5.519489e+01	-1.927476e+03
1.300000e-07	-7.583959e-06	-2.937391e-08	-5.492851e+01	-1.924974e+03
1.400000e-07	-7.544949e-06	-2.932073e-08	-5.464597e+01	-1.922457e+03
1.500000e-07	-7.503733e-06	-2.929339e-08	-5.434744e+01	-1.919919e+03
1.600000e-07	-7.460074e-06	-2.923565e-08	-5.403124e+01	-1.917308e+03
1.700000e-07	-7.413885e-06	-2.920005e-08	-5.369670e+01	-1.914535e+03
1.800000e-07	-7.364950e-06	-2.913658e-08	-5.334228e+01	-1.911494e+03
1.900000e-07	-7.313030e-06	-2.905607e-08	-5.296624e+01	-1.908089e+03
2.000000e-07	-7.258276e-06	-2.901422e-08	-5.256967e+01	-1.904260e+03
2.100000e-07	-7.200888e-06	-2.893285e-08	-5.215403e+01	-1.899995e+03
2.200000e-07	-7.140894e-06	-2.887910e-08	-5.171951e+01	-1.895335e+03
2.300000e-07	-7.078377e-06	-2.881230e-08	-5.126672e+01	-1.890356e+03
2.400000e-07	-7.013188e-06	-2.872664e-08	-5.079457e+01	-1.885150e+03
2.500000e-07	-6.945246e-06	-2.864197e-08	-5.030248e+01	-1.879793e+03
2.600000e-07	-6.874683e-06	-2.856764e-08	-4.979141e+01	-1.874323e+03
2.700000e-07	-6.801416e-06	-2.849417e-08	-4.926077e+01	-1.868727e+03
2.800000e-07	-6.725444e-06	-2.837720e-08	-4.871052e+01	-1.862948e+03
2.900000e-07	-6.646778e-06	-2.827960e-08	-4.814076e+01	-1.856897e+03
3.000000e-07	-6.565442e-06	-2.818890e-08	-4.755167e+01	-1.850485e+03
3.100000e-07	-6.481809e-06	-2.807992e-08	-4.694594e+01	-1.843644e+03
3.200000e-07	-6.395997e-06	-2.796751e-08	-4.632442e+01	-1.836349e+03
3.300000e-07	-6.307850e-06	-2.785291e-08	-4.568600e+01	-1.828627e+03
3.400000e-07	-6.217380e-06	-2.774757e-08	-4.503075e+01	-1.820539e+03
3.500000e-07	-6.124728e-06	-2.761786e-08	-4.435970e+01	-1.812163e+03
3.600000e-07	-6.029971e-06	-2.748416e-08	-4.367340e+01	-1.803564e+03
3.700000e-07	-5.932972e-06	-2.734857e-08	-4.297086e+01	-1.794771e+03
3.800000e-07	-5.833739e-06	-2.721085e-08	-4.225215e+01	-1.785759e+03
3.900000e-07	-5.732449e-06	-2.706505e-08	-4.151853e+01	-1.776456e+03
4.000000e-07	-5.629114e-06	-2.690866e-08	-4.077010e+01	-1.766757e+03
4.100000e-07	-5.523726e-06	-2.675850e-08	-4.000681e+01	-1.756555e+03
4.200000e-07	-5.416409e-06	-2.659601e-08	-3.922954e+01	-1.745766e+03
4.300000e-07	-5.307288e-06	-2.642861e-08	-3.843921e+01	-1.734353e+03
4.400000e-07	-5.196250e-06	-2.624611e-08	-3.763499e+01	-1.722333e+03
4.500000e-07	-5.083152e-06	-2.605742e-08	-3.681586e+01	-1.709765e+03
4.600000e-07	-4.968044e-06	-2.585917e-08	-3.598216e+01	-1.696727e+03
4.700000e-07	-4.851092e-06	-2.565604e-08	-3.513510e+01	-1.683283e+03
4.800000e-07	-4.732441e-06	-2.544416e-08	-3.427575e+01	-1.669452e+03
4.900000e-07	-4.612058e-06	-2.522102e-08	-3.340385e+01	-1.655196e+03
5.000000e-07	-4.489903e-06	-2.499144e-08	-3.251911e+01	-1.640419e+03
5.100000e-07	-4.366063e-06	-2.474931e-08	-3.162218e+01	-1.624985e+03
5.200000e-07	-4.240744e-06	-2.449957e-08	-3.071453e+01	-1.608751e+03
5.300000e-07	-4.113931e-06	-2.423519e-08	-2.979606e+01	-1.591604e+03
5.400000e-07	-3.985528e-06	-2.395981e-08	-2.886607e+01	-1.573484e+03
5.500000e-07	-3.855618e-06	-2.366872e-08	-2.792517e+01	-1.554391e+03
5.600000e-07	-3.724209e-06	-2.336454e-08	-2.697341e+01	-1.534379e+03
5.700000e-07	-3.591380e-06	-2.304680e-08	-2.601136e+01	-1.513517e+03
5.800000e-07	-3.457233e-06	-2.271534e-08	-2.503978e+01	-1.491852e+03
5.900000e-07	-3.321711e-06	-2.237334e-08	-2.405822e+01	-1.469375e+03
6.000000e-07	-3.184882e-06	-2.201637e-08	-2.306721e+01	-1.445992e+03
6.100000e-07	-3.046922e-06	-2.164316e-08	-2.206801e+01	-1.421527e+03
6.200000e-07	-2.907689e-06	-2.124574e-08	-2.105958e+01	-1.395748e+03
6.300000e-07	-2.767094e-06	-2.082054e-08	-2.004129e+01	-1.368403e+03
6.400000e-07	-2.625332e-06	-2.036788e-08	-1.901455e+01	-1.339266e+03
6.500000e-07	-2.482545e-06	-1.989164e-08	-1.798039e+01	-1.308174e+03
6.600000e-07	-2.338920e-06	-1.939218e-08	-1.694014e+01	-1.275031e+03
6.700000e-07	-2.194538e-06	-1.886428e-08	-1.589443e+01	-1.239795e+03
6.800000e-07	-2.049359e-06	-1.830174e-08	-1.484293e+01	-1.202428e+03
6.900000e-07	-1.903415e-06	-1.769973e-08	-1.378591e+01	-1.162838e+03
7.000000e-07	-1.756843e-06	-1.705587e-08	-1.272433e+01	-1.120830e+03
7.100000e-07	-1.609777e-06	-1.636798e-08	-1.165917e+01	-1.076070e+03
7.200000e-07	-1.462221e-06	-1.562827e-08	-1.059046e+01	-1.028102e+03
7.300000e-07	-1.314189e-06	-1.482474e-08	-9.518303e+00	-9.764012e+02
7.400000e-07	-1.165720e-06	-1.396019e-08	-8.442988e+00	-9.204655e+02
7.500000e-07	-1.016819e-06	-1.303620e-08	-7.364539e+00	-8.599278e+02
7.600000e-07	-8.675866e-07	-1.204970e-08	-6.283688e+00	-7.946547e+02
7.700000e-07	-7.180723e-07	-1.099831e-08	-5.200798e+00	-7.248086e+02
7.800000e-07	-5.683462e-07	-9.884536e-09	-4.116373e+00	-6.508519e+02
7.900000e-07	-4.184447e-07	-8.713099e-09	-3.030678e+00	-5.734848e+02
8.000000e-07	-2.683753e-07	-7.488502e-09	-1.943768e+00	-4.935262e+02
8.100000e-07	-1.182386e-07	-6.228288e-09	-8.563694e-01	-4.117622e+02
8.200000e-07	3.197313e-08	-4.949048e-09	2.315724e-01	-3.287964e+02
8.300000e-07	1.822160e-07	-3.660825e-09	1.319740e+00	-2.449406e+02
8.400000e-07	3.324318e-07	-2.365472e-09	2.407711e+00	-1.601740e+02
8.500000e-07	4.826127e-07	-1.060697e-09	3.495430e+00	-7.418729e+01
8.600000e-07	6.327040e-07	2.614589e-10	4.582499e+00	1.349519e+01
8.700000e-07	7.826309e-07	1.612783e-09	5.668377e+00	1.033376e+02
8.800000e-07	9.323044e-07	3.003196e-09	6.752421e+00	1.955994e+02
8.900000e-07	1.081620e-06	4.439755e-09	7.833875e+00	2.901708e+02
9.000000e-07	1.230510e-06	5.912686e-09	8.912241e+00	3.864757e+02
9.100000e-07	1.378931e-06	7.405255e-09	9.987211e+00	4.834676e+02
9.200000e-07	1.526843e-06	8.889663e-09	1.105850e+01	5.797230e+02
9.300000e-07	1.674232e-06	1.032899e-08	1.212600e+01	6.736146e+02
9.400000e-07	1.821059e-06	1.169341e-08	1.318942e+01	7.635297e+02
9.500000e-07	1.967245e-06	1.296487e-08	1.424821e+01	8.480881e+02
9.600000e-07	2.112722e-06	1.413519e-08	1.530186e+01	9.263179e+02
9.700000e-07	2.257345e-06	1.520264e-08	1.634932e+01	9.977526e+02
9.800000e-07	2.401066e-06	1.617431e-08	1.739025e+01	1.062438e+03
9.900000e-07	2.544020e-06	1.706297e-08	1.842563e+01	1.120853e+03
1.000000e-06	2.686050e-06	1.787626e-08	1.945431e+01	1.173762e+03
1.010000e-06	2.826783e-06	1.861905e-08	2.047360e+01	1.222050e+03
1.020000e-06	2.966227e-06	1.930272e-08	2.148355e+01	1.266557e+03
1.030000e-06	3.104580e-06	1.993731e-08	2.248561e+01	1.307960e+03
1.040000e-06	3.241835e-06	2.052595e-08	2.347971e+01	1.346719e+03
1.050000e-06	3.377811e-06	2.107268e-08	2.446454e+01	1.383078e+03
1.060000e-06	3.512499e-06	2.158130e-08	2.544005e+01	1.417125e+03
1.070000e-06	3.645895e-06	2.205442e-08	2.640620e+01	1.448873e+03
1.080000e-06	3.777910e-06	2.249528e-08	2.736235e+01	1.478343e+03
1.090000e-06	3.908627e-06	2.290765e-08	2.830910e+01	1.505628e+03
1.100000e-06	4.037999e-06	2.329613e-08	2.924610e+01	1.530912e+03
1.110000e-06	4.165959e-06	2.366237e-08	3.017288e+01	1.554458e+03
1.120000e-06	4.292464e-06	2.400746e-08	3.108912e+01	1.576566e+03
1.130000e-06	4.417462e-06	2.433327e-08	3.199444e+01	1.597520e+03
1.140000e-06	4.540908e-06	2.464282e-08	3.288853e+01	1.617531e+03
1.150000e-06	4.662757e-06	2.493455e-08	3.377105e+01	1.636717e+03
1.160000e-06	4.783038e-06	2.520701e-08	3.464221e+01	1.655101e+03
1.170000e-06	4.901603e-06	2.546360e-08	3.550095e+01	1.672633e+03
1.180000e-06	5.018256e-06	2.570798e-08	3.634583e+01	1.689238e+03
1.190000e-06	5.133031e-06	2.594184e-08	3.717712e+01	1.704858e+03
1.200000e-06	5.245939e-06	2.616633e-08	3.799488e+01	1.719488e+03
1.210000e-06	5.356867e-06	2.637897e-08	3.879830e+01	1.733190e+03
1.220000e-06	5.465803e-06	2.657960e-08	3.958729e+01	1.746087e+03
1.230000e-06	5.572775e-06	2.676831e-08	4.036205e+01	1.758330e+03
1.240000e-06	5.677796e-06	2.694718e-08	4.112270e+01	1.770065e+03
1.250000e-06	5.780806e-06	2.712024e-08	4.186877e+01	1.781396e+03
1.260000e-06	5.881606e-06	2.728494e-08	4.259883e+01	1.792369e+03
1.270000e-06	5.980138e-06	2.744157e-08	4.331248e+01	1.802963e+03
1.280000e-06	6.076483e-06	2.759155e-08	4.401028e+01	1.813115e+03
1.290000e-06	6.170650e-06	2.773485e-08	4.469230e+01	1.822740e+03
1.300000e-06	6.262565e-06	2.787135e-08	4.535801e+01	1.831773e+03
1.310000e-06	6.352216e-06	2.800184e-08	4.600733e+01	1.840187e+03
1.320000e-06	6.439626e-06	2.812822e-08	4.664042e+01	1.848010e+03
1.330000e-06	6.524762e-06	2.824736e-08	4.725703e+01	1.855316e+03
1.340000e-06	6.607607e-06	2.835792e-08	4.785706e+01	1.862206e+03
1.350000e-06	6.688123e-06	2.846073e-08	4.844021e+01	1.868785e+03
1.360000e-06	6.766134e-06	2.855599e-08	4.900522e+01	1.875130e+03
1.370000e-06	6.841590e-06	2.864683e-08	4.955173e+01	1.881277e+03
1.380000e-06	6.914520e-06	2.873342e-08	5.007995e+01	1.887216e+03
1.390000e-06	6.984887e-06	2.881673e-08	5.058959e+01	1.892906e+03
1.400000e-06	7.052761e-06	2.889828e-08	5.108118e+01	1.898291e+03
1.410000e-06	7.118175e-06	2.897595e-08	5.155496e+01	1.903326e+03
1.420000e-06	7.181083e-06	2.904839e-08	5.201058e+01	1.907994e+03
1.430000e-06	7.241502e-06	2.911665e-08	5.244819e+01	1.912316e+03
1.440000e-06	7.299401e-06	2.918057e-08	5.286753e+01	1.916342e+03
1.450000e-06	7.354665e-06	2.923993e-08	5.326779e+01	1.920139e+03
1.460000e-06	7.407144e-06	2.929560e-08	5.364788e+01	1.923767e+03
1.470000e-06	7.456692e-06	2.934961e-08	5.400675e+01	1.927260e+03
1.480000e-06	7.503369e-06	2.940164e-08	5.434481e+01	1.930617e+03
1.490000e-06	7.547299e-06	2.945120e-08	5.466299e+01	1.933799e+03
1.500000e-06	7.588529e-06	2.949725e-08	5.496160e+01	1.936746e+03
1.510000e-06	7.627095e-06	2.953659e-08	5.524093e+01	1.939392e+03
1.520000e-06	7.663024e-06	2.957132e-08	5.550115e+01	1.941691e+03
1.530000e-06	7.696287e-06	2.960173e-08	5.574206e+01	1.943630e+03
1.540000e-06	7.726799e-06	2.962725e-08	5.596305e+01	1.945233e+03
1.550000e-06	7.754502e-06	2.964743e-08	5.616370e+01	1.946558e+03
1.560000e-06	7.779364e-06	2.966579e-08	5.634377e+01	1.947678e+03
1.570000e-06	7.801418e-06	2.968408e-08	5.650350e+01	1.948661e+03
1.580000e-06	7.820789e-06	2.970258e-08	5.664379e+01	1.949549e+03
1.590000e-06	7.837405e-06	2.971916e-08	5.676414e+01	1.950352e+03
1.600000e-06	7.851044e-06	2.972956e-08	5.686292e+01	1.951041e+03
1.610000e-06	7.861585e-06	2.973584e-08	5.693927e+01	1.951567e+03
1.620000e-06	7.869111e-06	2.973852e-08	5.699378e+01	1.951872e+03
1.630000e-06	7.873806e-06	2.973954e-08	5.702778e+01	1.951913e+03
1.640000e-06	7.875700e-06	2.973947e-08	5.704150e+01	1.951676e+03
1.650000e-06	7.874823e-06	2.973399e-08	5.703515e+01	1.951177e+03
1.660000e-06	7.871313e-06	2.972439e-08	5.700973e+01	1.950462e+03
1.670000e-06	7.865109e-06	2.971276e-08	5.696479e+01	1.949587e+03
1.680000e-06	7.856266e-06	2.970207e-08	5.690075e+01	1.948605e+03
1.690000e-06	7.844878e-06	2.968854e-08	5.681827e+01	1.947541e+03
1.700000e-06	7.830723e-06	2.967126e-08	5.671574e+01	1.946393e+03
1.710000e-06	7.813948e-06	2.965430e-08	5.659425e+01	1.945129e+03
1.720000e-06	7.794901e-06	2.962942e-08	5.645630e+01	1.943700e+03
1.730000e-06	7.773401e-06	2.959452e-08	5.630058e+01	1.942060e+03
1.740000e-06	7.748890e-06	2.951950e-08	5.612305e+01	1.940182e+03
1.750000e-06	7.720846e-06	2.948491e-08	5.591994e+01	1.938074e+03
1.760000e-06	7.689383e-06	2.948572e-08	5.569206e+01	1.935774e+03
1.770000e-06	7.655263e-06	2.946498e-08	5.544494e+01	1.933345e+03
1.780000e-06	7.619008e-06	2.944110e-08	5.518235e+01	1.930849e+03
1.790000e-06	7.580526e-06	2.940493e-08	5.490364e+01	1.928333e+03
1.800000e-06	7.539973e-06	2.940809e-08	5.460992e+01	1.925804e+03
1.810000e-06	7.497251e-06	2.932938e-08	5.430050e+01	1.923220e+03
1.820000e-06	7.451871e-06	2.930744e-08	5.397183e+01	1.920502e+03
1.830000e-06	7.403852e-06	2.930565e-08	5.362404e+01	1.917547e+03
1.840000e-06	7.352999e-06	2.922620e-08	5.325573e+01	1.914252e+03
1.850000e-06	7.299070e-06	2.920224e-08	5.286513e+01	1.910546e+03
1.860000e-06	7.242417e-06	2.909260e-08	5.245481e+01	1.906402e+03
1.870000e-06	7.183328e-06	2.902124e-08	5.202684e+01	1.901847e+03
1.880000e-06	7.121642e-06	2.895725e-08	5.158007e+01	1.896948e+03
1.890000e-06	7.057090e-06	2.888408e-08	5.111253e+01	1.891796e+03
1.900000e-06	6.989760e-06	2.882784e-08	5.062489e+01	1.886475e+03
1.910000e-06	6.919665e-06	2.871925e-08	5.011720e+01	1.881034e+03
1.920000e-06	6.846825e-06	2.866535e-08	4.958965e+01	1.875477e+03
1.930000e-06	6.771451e-06	2.854887e-08	4.904373e+01	1.869757e+03
1.940000e-06	6.693365e-06	2.845119e-08	4.847818e+01	1.863792e+03
1.950000e-06	6.612670e-06	2.836686e-08	4.789373e+01	1.857489e+03
1.960000e-06	6.529641e-06	2.826311e-08	4.729237e+01	1.850774e+03
1.970000e-06	6.444169e-06	2.816817e-08	4.667332e+01	1.843607e+03
1.980000e-06	6.356172e-06	2.802326e-08	4.603599e+01	1.836000e+03
1.990000e-06	6.265934e-06	2.791549e-08	4.538241e+01	1.828007e+03
2.000000e-06	6.173650e-06	2.778472e-08	4.471402e+01	1.819704e+03
2.010000e-06	6.079116e-06	2.766554e-08	4.402934e+01	1.811163e+03
2.020000e-06	5.982358e-06	2.753551e-08	4.332855e+01	1.802423e+03
2.030000e-06	5.883564e-06	2.740601e-08	4.261302e+01	1.793477e+03
2.040000e-06	5.782738e-06	2.726525e-08	4.188276e+01	1.784266e+03
2.050000e-06	5.679783e-06	2.709528e-08	4.113709e+01	1.774690e+03
2.060000e-06	5.574781e-06	2.693502e-08	4.037659e+01	1.764640e+03
2.070000e-06	5.467954e-06	2.676314e-08	3.960287e+01	1.754023e+03
2.080000e-06	5.359279e-06	2.660255e-08	3.881577e+01	1.742788e+03
2.090000e-06	5.248582e-06	2.642387e-08	3.801402e+01	1.730935e+03
2.100000e-06	5.135930e-06	2.624676e-08	3.719811e+01	1.718514e+03
2.110000e-06	5.021461e-06	2.605329e-08	3.636904e+01	1.705601e+03
2.120000e-06	4.905078e-06	2.585352e-08	3.552612e+01	1.692267e+03
2.130000e-06	4.786692e-06	2.564022e-08	3.466868e+01	1.678546e+03
2.140000e-06	4.666390e-06	2.541731e-08	3.379736e+01	1.664418e+03
2.150000e-06	4.544428e-06	2.519009e-08	3.291403e+01	1.649801e+03
2.160000e-06	4.420852e-06	2.495659e-08	3.201900e+01	1.634567e+03
2.170000e-06	4.295611e-06	2.471664e-08	3.111191e+01	1.618574e+03
2.180000e-06	4.168766e-06	2.445705e-08	3.019321e+01	1.601695e+03
2.190000e-06	4.040372e-06	2.418872e-08	2.926329e+01	1.583854e+03
2.200000e-06	3.910589e-06	2.390729e-08	2.832330e+01	1.565034e+03
2.210000e-06	3.779398e-06	2.361559e-08	2.737313e+01	1.545276e+03
2.220000e-06	3.646711e-06	2.330648e-08	2.641211e+01	1.524648e+03
2.230000e-06	3.512653e-06	2.298513e-08	2.544117e+01	1.503209e+03
2.240000e-06	3.377337e-06	2.264575e-08	2.446111e+01	1.480968e+03
2.250000e-06	3.240725e-06	2.228730e-08	2.347167e+01	1.457856e+03
2.260000e-06	3.102845e-06	2.190921e-08	2.247304e+01	1.433721e+03
2.270000e-06	2.963770e-06	2.151715e-08	2.146576e+01	1.408342e+03
2.280000e-06	2.823554e-06	2.110793e-08	2.045022e+01	1.381467e+03
2.290000e-06	2.682265e-06	2.067593e-08	1.942690e+01	1.352861e+03
2.300000e-06	2.539975e-06	2.021697e-08	1.839633e+01	1.322339e+03
2.310000e-06	2.396761e-06	1.972576e-08	1.735907e+01	1.289786e+03
2.320000e-06	2.252651e-06	1.920252e-08	1.631532e+01	1.255149e+03
2.330000e-06	2.107701e-06	1.864838e-08	1.526549e+01	1.218395e+03
2.340000e-06	1.962023e-06	1.806121e-08	1.421038e+01	1.179453e+03
2.350000e-06	1.815759e-06	1.743257e-08	1.315104e+01	1.138163e+03
2.360000e-06	1.668947e-06	1.675679e-08	1.208772e+01	1.094229e+03
2.370000e-06	1.521618e-06	1.602951e-08	1.102066e+01	1.047228e+03
2.380000e-06	1.373756e-06	1.524777e-08	9.949732e+00	9.966464e+02
2.390000e-06	1.225375e-06	1.440930e-08	8.875047e+00	9.419643e+02
2.400000e-06	1.076536e-06	1.351254e-08	7.797049e+00	8.827654e+02
2.410000e-06	9.273391e-07	1.255021e-08	6.716459e+00	8.188406e+02
2.420000e-06	7.778649e-07	1.151748e-08	5.633859e+00	7.502648e+02
2.430000e-06	6.281355e-07	1.041793e-08	4.549410e+00	6.774181e+02
2.440000e-06	4.782267e-07	9.256914e-09	3.463663e+00	6.009427e+02
2.450000e-06	3.281322e-07	8.041535e-09	2.376570e+00	5.216383e+02
2.460000e-06	1.779348e-07	6.788244e-09	1.288732e+00	4.403164e+02
2.470000e-06	2.769851e-08	5.511895e-09	2.006126e-01	3.576463e+02
2.480000e-06	-1.225968e-07	4.222839e-09	-8.879343e-01	2.740308e+02
2.490000e-06	-2.728821e-07	2.926603e-09	-1.976409e+00	1.895436e+02
2.500000e-06	-4.230654e-07	1.620510e-09	-3.064145e+00	1.039481e+02
2.510000e-06	-5.731482e-07	2.971733e-10	-4.151153e+00	1.680001e+01
2.520000e-06	-7.230963e-07	-1.052155e-09	-5.237185e+00	-7.238794e+01
2.530000e-06	-8.728199e-07	-2.435527e-09	-6.321591e+00	-1.639526e+02
2.540000e-06	-1.022289e-06	-3.860815e-09	-7.404158e+00	-2.579033e+02
2.550000e-06	-1.171405e-06	-5.326571e-09	-8.484159e+00	-3.538016e+02
2.560000e-06	-1.319986e-06	-6.819997e-09	-9.560291e+00	-4.507303e+02
2.570000e-06	-1.468053e-06	-8.317528e-09	-1.063270e+01	-5.473587e+02
2.580000e-06	-1.615612e-06	-9.785939e-09	-1.170143e+01	-6.420968e+02
2.590000e-06	-1.762617e-06	-1.119058e-08	-1.276614e+01	-7.333044e+02
2.600000e-06	-1.909076e-06	-1.250583e-08	-1.382691e+01	-8.195146e+02
2.610000e-06	-2.054754e-06	-1.371869e-08	-1.488201e+01	-8.996248e+02
2.620000e-06	-2.199515e-06	-1.482648e-08	-1.593047e+01	-9.730194e+02
2.630000e-06	-2.343366e-06	-1.583690e-08	-1.697235e+01	-1.039603e+03
2.640000e-06	-2.486279e-06	-1.675878e-08	-1.800742e+01	-1.099742e+03
2.650000e-06	-2.628243e-06	-1.760239e-08	-1.903563e+01	-1.154138e+03
2.660000e-06	-2.769221e-06	-1.837566e-08	-2.005670e+01	-1.203658e+03
2.670000e-06	-2.909147e-06	-1.908599e-08	-2.107014e+01	-1.249168e+03
2.680000e-06	-3.047945e-06	-1.974190e-08	-2.207542e+01	-1.291403e+03
2.690000e-06	-3.185447e-06	-2.034779e-08	-2.307131e+01	-1.330885e+03
2.700000e-06	-3.321612e-06	-2.091096e-08	-2.405751e+01	-1.367917e+03
2.710000e-06	-3.456583e-06	-2.143402e-08	-2.503507e+01	-1.402623e+03
2.720000e-06	-3.590357e-06	-2.191948e-08	-2.600396e+01	-1.435029e+03
2.730000e-06	-3.722879e-06	-2.237258e-08	-2.696377e+01	-1.465147e+03
2.740000e-06	-3.854092e-06	-2.279636e-08	-2.791411e+01	-1.493043e+03
2.750000e-06	-3.983952e-06	-2.319398e-08	-2.885465e+01	-1.518876e+03
2.760000e-06	-4.112409e-06	-2.356808e-08	-2.978504e+01	-1.542890e+03
2.770000e-06	-4.239458e-06	-2.392046e-08	-3.070521e+01	-1.565380e+03
2.780000e-06	-4.365114e-06	-2.425198e-08	-3.161531e+01	-1.586640e+03
2.790000e-06	-4.489232e-06	-2.456433e-08	-3.251426e+01	-1.606905e+03
2.800000e-06	-4.611717e-06	-2.485959e-08	-3.340138e+01	-1.626323e+03
2.810000e-06	-4.732512e-06	-2.513796e-08	-3.427627e+01	-1.644940e+03
2.820000e-06	-4.851475e-06	-2.540081e-08	-3.513788e+01	-1.662725e+03
2.830000e-06	-4.968595e-06	-2.565149e-08	-3.598615e+01	-1.679604e+03
2.840000e-06	-5.083786e-06	-2.589226e-08	-3.682045e+01	-1.695509e+03
2.850000e-06	-5.196878e-06	-2.612264e-08	-3.763954e+01	-1.710420e+03
2.860000e-06	-5.307951e-06	-2.634269e-08	-3.844401e+01	-1.724379e+03
2.870000e-06	-5.417108e-06	-2.655237e-08	-3.923460e+01	-1.737493e+03
2.880000e-06	-5.524362e-06	-2.674952e-08	-4.001141e+01	-1.749909e+03
2.890000e-06	-5.629656e-06	-2.693386e-08	-4.077403e+01	-1.761777e+03
2.900000e-06	-5.732874e-06	-2.710782e-08	-4.152161e+01	-1.773218e+03
2.910000e-06	-5.833995e-06	-2.727515e-08	-4.225400e+01	-1.784294e+03
2.920000e-06	-5.933007e-06	-2.743497e-08	-4.297111e+01	-1.795003e+03
2.930000e-06	-6.029867e-06	-2.758661e-08	-4.367265e+01	-1.805291e+03
2.940000e-06	-6.124547e-06	-2.773238e-08	-4.435839e+01	-1.815077e+03
