# Temperatura_=_68.93
# Concentracion g/m^3_=_28200.0
# C_Vs_to_Am_M_A/Vsm_=_65563218390.804596
# pendiente_HvsI_1/m_=_3716.3
# ordenada_HvsI_A/m_=_1297.0
# frecuencia_Hz_=_302508.6182134587

Tiempo_(s)	Campo_(V.s)	Magnetizacion_(V.s)	Campo_(kA/m)	Magnetizacion_(A/m)
0.000000e+00	-7.863192e-06	-2.584007e-08	-5.684819e+01	-1.692624e+03
1.000000e-08	-7.859143e-06	-2.583996e-08	-5.681893e+01	-1.692014e+03
2.000000e-08	-7.852527e-06	-2.583043e-08	-5.677109e+01	-1.691269e+03
3.000000e-08	-7.843263e-06	-2.581786e-08	-5.670412e+01	-1.690441e+03
4.000000e-08	-7.831191e-06	-2.580373e-08	-5.661684e+01	-1.689559e+03
5.000000e-08	-7.816255e-06	-2.578442e-08	-5.650886e+01	-1.688623e+03
6.000000e-08	-7.798638e-06	-2.575888e-08	-5.638149e+01	-1.687605e+03
7.000000e-08	-7.778770e-06	-2.573014e-08	-5.623786e+01	-1.686457e+03
8.000000e-08	-7.756550e-06	-2.570708e-08	-5.607721e+01	-1.685134e+03
9.000000e-08	-7.731446e-06	-2.576390e-08	-5.589572e+01	-1.683606e+03
1.000000e-07	-7.703195e-06	-2.574585e-08	-5.569147e+01	-1.681874e+03
1.100000e-07	-7.671959e-06	-2.565354e-08	-5.546564e+01	-1.679972e+03
1.200000e-07	-7.637901e-06	-2.561689e-08	-5.521942e+01	-1.677957e+03
1.300000e-07	-7.601245e-06	-2.558860e-08	-5.495441e+01	-1.675890e+03
1.400000e-07	-7.562323e-06	-2.551718e-08	-5.467302e+01	-1.673820e+03
1.500000e-07	-7.521229e-06	-2.543033e-08	-5.437592e+01	-1.671760e+03
1.600000e-07	-7.477759e-06	-2.550101e-08	-5.406164e+01	-1.669680e+03
1.700000e-07	-7.431674e-06	-2.547448e-08	-5.372847e+01	-1.667512e+03
1.800000e-07	-7.382952e-06	-2.531828e-08	-5.337623e+01	-1.665161e+03
1.900000e-07	-7.331323e-06	-2.536859e-08	-5.300297e+01	-1.662532e+03
2.000000e-07	-7.276751e-06	-2.529305e-08	-5.260843e+01	-1.659551e+03
2.100000e-07	-7.219522e-06	-2.519489e-08	-5.219468e+01	-1.656186e+03
2.200000e-07	-7.159666e-06	-2.517855e-08	-5.176194e+01	-1.652452e+03
2.300000e-07	-7.097220e-06	-2.508920e-08	-5.131048e+01	-1.648403e+03
2.400000e-07	-7.032145e-06	-2.506602e-08	-5.084001e+01	-1.644119e+03
2.500000e-07	-6.964406e-06	-2.497075e-08	-5.035028e+01	-1.639676e+03
2.600000e-07	-6.894024e-06	-2.491496e-08	-4.984144e+01	-1.635126e+03
2.700000e-07	-6.820931e-06	-2.483770e-08	-4.931301e+01	-1.630480e+03
2.800000e-07	-6.745067e-06	-2.475948e-08	-4.876454e+01	-1.625705e+03
2.900000e-07	-6.666420e-06	-2.468319e-08	-4.819594e+01	-1.620736e+03
3.000000e-07	-6.585112e-06	-2.457916e-08	-4.760812e+01	-1.615493e+03
3.100000e-07	-6.501495e-06	-2.452917e-08	-4.700359e+01	-1.609907e+03
3.200000e-07	-6.415747e-06	-2.442711e-08	-4.638366e+01	-1.603939e+03
3.300000e-07	-6.327710e-06	-2.433779e-08	-4.574719e+01	-1.597593e+03
3.400000e-07	-6.237288e-06	-2.422856e-08	-4.509347e+01	-1.590907e+03
3.500000e-07	-6.144670e-06	-2.412062e-08	-4.442387e+01	-1.583940e+03
3.600000e-07	-6.049875e-06	-2.402684e-08	-4.373853e+01	-1.576751e+03
3.700000e-07	-5.952785e-06	-2.390722e-08	-4.303661e+01	-1.569375e+03
3.800000e-07	-5.853480e-06	-2.378715e-08	-4.231867e+01	-1.561807e+03
3.900000e-07	-5.752125e-06	-2.366150e-08	-4.158590e+01	-1.554000e+03
4.000000e-07	-5.648787e-06	-2.354098e-08	-4.083881e+01	-1.545873e+03
4.100000e-07	-5.543453e-06	-2.340032e-08	-4.007727e+01	-1.537337e+03
4.200000e-07	-5.436132e-06	-2.327066e-08	-3.930138e+01	-1.528314e+03
4.300000e-07	-5.326888e-06	-2.313557e-08	-3.851158e+01	-1.518760e+03
4.400000e-07	-5.215740e-06	-2.298381e-08	-3.770802e+01	-1.508675e+03
4.500000e-07	-5.102682e-06	-2.281977e-08	-3.689065e+01	-1.498098e+03
4.600000e-07	-4.987637e-06	-2.265351e-08	-3.605892e+01	-1.487088e+03
4.700000e-07	-4.870644e-06	-2.247898e-08	-3.521310e+01	-1.475703e+03
4.800000e-07	-4.751904e-06	-2.229439e-08	-3.435464e+01	-1.463966e+03
4.900000e-07	-4.631424e-06	-2.211059e-08	-3.348362e+01	-1.451856e+03
5.000000e-07	-4.509202e-06	-2.191698e-08	-3.259999e+01	-1.439302e+03
5.100000e-07	-4.385263e-06	-2.171325e-08	-3.170395e+01	-1.426194e+03
5.200000e-07	-4.259768e-06	-2.149625e-08	-3.079667e+01	-1.412411e+03
5.300000e-07	-4.132794e-06	-2.127328e-08	-2.987869e+01	-1.397848e+03
5.400000e-07	-4.004311e-06	-2.103638e-08	-2.894981e+01	-1.382439e+03
5.500000e-07	-3.874304e-06	-2.079005e-08	-2.800989e+01	-1.366174e+03
5.600000e-07	-3.742773e-06	-2.053111e-08	-2.705897e+01	-1.349083e+03
5.700000e-07	-3.609823e-06	-2.026319e-08	-2.609779e+01	-1.331222e+03
5.800000e-07	-3.475522e-06	-1.997743e-08	-2.512684e+01	-1.312632e+03
5.900000e-07	-3.339949e-06	-1.967756e-08	-2.414669e+01	-1.293314e+03
6.000000e-07	-3.203077e-06	-1.936932e-08	-2.315715e+01	-1.273200e+03
6.100000e-07	-3.064927e-06	-1.904822e-08	-2.215838e+01	-1.252151e+03
6.200000e-07	-2.925457e-06	-1.871001e-08	-2.115005e+01	-1.229974e+03
6.300000e-07	-2.784619e-06	-1.834509e-08	-2.013185e+01	-1.206455e+03
6.400000e-07	-2.642678e-06	-1.795865e-08	-1.910566e+01	-1.181393e+03
6.500000e-07	-2.499779e-06	-1.754822e-08	-1.807255e+01	-1.154634e+03
6.600000e-07	-2.355991e-06	-1.711651e-08	-1.703302e+01	-1.126083e+03
6.700000e-07	-2.211296e-06	-1.665793e-08	-1.598692e+01	-1.095690e+03
6.800000e-07	-2.065763e-06	-1.617156e-08	-1.493476e+01	-1.063418e+03
6.900000e-07	-1.919557e-06	-1.565537e-08	-1.387774e+01	-1.029187e+03
7.000000e-07	-1.772762e-06	-1.510033e-08	-1.281647e+01	-9.928325e+02
7.100000e-07	-1.625476e-06	-1.450442e-08	-1.175164e+01	-9.540745e+02
7.200000e-07	-1.477694e-06	-1.386236e-08	-1.068322e+01	-9.125209e+02
7.300000e-07	-1.329442e-06	-1.317057e-08	-9.611412e+00	-8.677126e+02
7.400000e-07	-1.180779e-06	-1.242197e-08	-8.536627e+00	-8.192012e+02
7.500000e-07	-1.031752e-06	-1.161769e-08	-7.459218e+00	-7.666460e+02
7.600000e-07	-8.823904e-07	-1.075909e-08	-6.379382e+00	-7.099062e+02
7.700000e-07	-7.327451e-07	-9.844325e-09	-5.297497e+00	-6.491034e+02
7.800000e-07	-5.828587e-07	-8.871490e-09	-4.213870e+00	-5.846351e+02
7.900000e-07	-4.327826e-07	-7.848203e-09	-3.128871e+00	-5.171283e+02
8.000000e-07	-2.825476e-07	-6.784812e-09	-2.042722e+00	-4.473393e+02
8.100000e-07	-1.321326e-07	-5.688662e-09	-9.552735e-01	-3.760192e+02
8.200000e-07	1.838979e-08	-4.575394e-09	1.329519e-01	-3.037742e+02
8.300000e-07	1.689125e-07	-3.457150e-09	1.221180e+00	-2.309552e+02
8.400000e-07	3.193482e-07	-2.338068e-09	2.308779e+00	-1.576042e+02
8.500000e-07	4.697416e-07	-1.212350e-09	3.396071e+00	-8.347585e+01
8.600000e-07	6.200441e-07	-7.412917e-11	4.482707e+00	-8.132235e+00
8.700000e-07	7.701286e-07	1.086320e-09	5.567767e+00	6.890584e+01
8.800000e-07	9.199631e-07	2.279656e-09	6.651019e+00	1.479845e+02
8.900000e-07	1.069506e-06	3.512346e-09	7.732161e+00	2.291575e+02
9.000000e-07	1.218679e-06	4.778045e-09	8.810637e+00	3.120800e+02
9.100000e-07	1.367441e-06	6.065137e-09	9.886131e+00	3.959800e+02
9.200000e-07	1.515755e-06	7.356880e-09	1.095839e+01	4.797174e+02
9.300000e-07	1.663518e-06	8.621107e-09	1.202667e+01	5.619191e+02
9.400000e-07	1.810668e-06	9.827361e-09	1.309051e+01	6.411628e+02
9.500000e-07	1.957187e-06	1.095540e-08	1.414980e+01	7.161723e+02
9.600000e-07	2.103080e-06	1.199909e-08	1.520455e+01	7.859834e+02
9.700000e-07	2.248268e-06	1.295803e-08	1.625421e+01	8.500500e+02
9.800000e-07	2.392584e-06	1.383424e-08	1.729756e+01	9.082720e+02
9.900000e-07	2.535910e-06	1.463347e-08	1.833377e+01	9.609452e+02
1.000000e-06	2.678188e-06	1.536186e-08	1.936239e+01	1.008651e+03
1.010000e-06	2.819375e-06	1.603028e-08	2.038312e+01	1.052115e+03
1.020000e-06	2.959406e-06	1.664378e-08	2.139550e+01	1.092064e+03
1.030000e-06	3.098213e-06	1.721093e-08	2.239903e+01	1.129114e+03
1.040000e-06	3.235754e-06	1.773522e-08	2.339340e+01	1.163710e+03
1.050000e-06	3.372049e-06	1.822194e-08	2.437877e+01	1.196117e+03
1.060000e-06	3.507121e-06	1.867570e-08	2.535529e+01	1.226457e+03
1.070000e-06	3.640932e-06	1.909899e-08	2.632270e+01	1.254774e+03
1.080000e-06	3.773469e-06	1.949588e-08	2.728090e+01	1.281101e+03
1.090000e-06	3.904650e-06	1.986680e-08	2.822929e+01	1.305519e+03
1.100000e-06	4.034343e-06	2.021451e-08	2.916693e+01	1.328180e+03
1.110000e-06	4.162548e-06	2.054042e-08	3.009380e+01	1.349296e+03
1.120000e-06	4.289309e-06	2.084915e-08	3.101024e+01	1.369114e+03
1.130000e-06	4.414711e-06	2.113988e-08	3.191686e+01	1.387868e+03
1.140000e-06	4.538665e-06	2.141326e-08	3.281300e+01	1.405738e+03
1.150000e-06	4.660957e-06	2.167124e-08	3.369713e+01	1.422828e+03
1.160000e-06	4.781578e-06	2.191556e-08	3.456918e+01	1.439162e+03
1.170000e-06	4.900486e-06	2.214534e-08	3.542885e+01	1.454707e+03
1.180000e-06	5.017648e-06	2.236313e-08	3.627589e+01	1.469409e+03
1.190000e-06	5.132873e-06	2.257040e-08	3.710892e+01	1.483228e+03
1.200000e-06	5.246008e-06	2.276596e-08	3.792685e+01	1.496168e+03
1.210000e-06	5.357125e-06	2.295072e-08	3.873019e+01	1.508292e+03
1.220000e-06	5.466394e-06	2.312637e-08	3.952017e+01	1.519707e+03
1.230000e-06	5.573839e-06	2.329510e-08	4.029695e+01	1.530546e+03
1.240000e-06	5.679251e-06	2.345692e-08	4.105905e+01	1.540931e+03
1.250000e-06	5.782521e-06	2.361169e-08	4.180565e+01	1.550943e+03
1.260000e-06	5.883775e-06	2.375978e-08	4.253769e+01	1.560610e+03
1.270000e-06	5.982844e-06	2.389978e-08	4.325392e+01	1.569902e+03
1.280000e-06	6.079547e-06	2.403192e-08	4.395306e+01	1.578750e+03
1.290000e-06	6.174051e-06	2.415604e-08	4.463628e+01	1.587077e+03
1.300000e-06	6.266341e-06	2.427237e-08	4.530351e+01	1.594826e+03
1.310000e-06	6.356340e-06	2.438199e-08	4.595417e+01	1.601985e+03
1.320000e-06	6.444013e-06	2.448533e-08	4.658802e+01	1.608596e+03
1.330000e-06	6.529496e-06	2.458245e-08	4.720603e+01	1.614751e+03
1.340000e-06	6.612728e-06	2.467533e-08	4.780777e+01	1.620565e+03
1.350000e-06	6.693532e-06	2.476426e-08	4.839196e+01	1.626151e+03
1.360000e-06	6.771903e-06	2.484753e-08	4.895855e+01	1.631593e+03
1.370000e-06	6.847773e-06	2.492651e-08	4.950707e+01	1.636927e+03
1.380000e-06	6.920982e-06	2.500167e-08	5.003634e+01	1.642135e+03
1.390000e-06	6.991637e-06	2.507409e-08	5.054715e+01	1.647160e+03
1.400000e-06	7.059912e-06	2.514423e-08	5.104076e+01	1.651930e+03
1.410000e-06	7.125667e-06	2.521152e-08	5.151614e+01	1.656377e+03
1.420000e-06	7.188842e-06	2.527542e-08	5.197288e+01	1.660467e+03
1.430000e-06	7.249616e-06	2.533499e-08	5.241225e+01	1.664205e+03
1.440000e-06	7.307864e-06	2.538903e-08	5.283337e+01	1.667635e+03
1.450000e-06	7.363460e-06	2.543945e-08	5.323530e+01	1.670827e+03
1.460000e-06	7.416319e-06	2.548810e-08	5.361745e+01	1.673850e+03
1.470000e-06	7.466136e-06	2.553395e-08	5.397762e+01	1.676754e+03
1.480000e-06	7.513044e-06	2.557576e-08	5.431675e+01	1.679556e+03
1.490000e-06	7.557359e-06	2.561466e-08	5.463713e+01	1.682231e+03
1.500000e-06	7.598958e-06	2.565131e-08	5.493787e+01	1.684729e+03
1.510000e-06	7.637753e-06	2.568473e-08	5.521835e+01	1.686986e+03
1.520000e-06	7.673980e-06	2.571407e-08	5.548026e+01	1.688950e+03
1.530000e-06	7.707533e-06	2.573872e-08	5.572283e+01	1.690596e+03
1.540000e-06	7.738279e-06	2.576204e-08	5.594512e+01	1.691939e+03
1.550000e-06	7.766360e-06	2.578083e-08	5.614813e+01	1.693027e+03
1.560000e-06	7.791629e-06	2.579645e-08	5.633082e+01	1.693931e+03
1.570000e-06	7.813972e-06	2.581065e-08	5.649235e+01	1.694720e+03
1.580000e-06	7.833638e-06	2.582358e-08	5.663453e+01	1.695446e+03
1.590000e-06	7.850535e-06	2.583673e-08	5.675669e+01	1.696128e+03
1.600000e-06	7.864405e-06	2.584605e-08	5.685696e+01	1.696749e+03
1.610000e-06	7.875135e-06	2.585205e-08	5.693454e+01	1.697261e+03
1.620000e-06	7.882807e-06	2.585542e-08	5.699001e+01	1.697606e+03
1.630000e-06	7.887757e-06	2.585990e-08	5.702579e+01	1.697733e+03
1.640000e-06	7.889930e-06	2.586296e-08	5.704150e+01	1.697615e+03
1.650000e-06	7.889267e-06	2.586330e-08	5.703671e+01	1.697257e+03
1.660000e-06	7.886034e-06	2.585091e-08	5.701334e+01	1.696694e+03
1.670000e-06	7.880201e-06	2.584269e-08	5.697116e+01	1.695981e+03
1.680000e-06	7.871684e-06	2.583618e-08	5.690959e+01	1.695171e+03
1.690000e-06	7.860484e-06	2.582219e-08	5.682862e+01	1.694301e+03
1.700000e-06	7.846427e-06	2.580858e-08	5.672699e+01	1.693382e+03
1.710000e-06	7.829750e-06	2.580334e-08	5.660643e+01	1.692390e+03
1.720000e-06	7.810875e-06	2.580312e-08	5.646996e+01	1.691283e+03
1.730000e-06	7.789735e-06	2.575536e-08	5.631713e+01	1.690013e+03
1.740000e-06	7.765653e-06	2.563625e-08	5.614303e+01	1.688544e+03
1.750000e-06	7.738009e-06	2.565418e-08	5.594317e+01	1.686867e+03
1.760000e-06	7.706826e-06	2.567477e-08	5.571772e+01	1.685008e+03
1.770000e-06	7.672821e-06	2.562323e-08	5.547188e+01	1.683017e+03
1.780000e-06	7.636638e-06	2.562378e-08	5.521029e+01	1.680958e+03
1.790000e-06	7.598235e-06	2.570078e-08	5.493265e+01	1.678884e+03
1.800000e-06	7.557831e-06	2.557429e-08	5.464054e+01	1.676821e+03
1.810000e-06	7.515266e-06	2.548247e-08	5.433281e+01	1.674751e+03
1.820000e-06	7.469988e-06	2.559279e-08	5.400546e+01	1.672616e+03
1.830000e-06	7.422107e-06	2.543010e-08	5.365930e+01	1.670326e+03
1.840000e-06	7.371374e-06	2.548262e-08	5.329252e+01	1.667784e+03
1.850000e-06	7.317574e-06	2.544419e-08	5.290356e+01	1.664908e+03
1.860000e-06	7.261047e-06	2.533916e-08	5.249489e+01	1.661652e+03
1.870000e-06	7.201919e-06	2.537225e-08	5.206742e+01	1.658018e+03
1.880000e-06	7.140232e-06	2.519628e-08	5.162144e+01	1.654050e+03
1.890000e-06	7.075763e-06	2.522081e-08	5.115535e+01	1.649823e+03
1.900000e-06	7.008557e-06	2.513600e-08	5.066948e+01	1.645418e+03
1.910000e-06	6.938692e-06	2.504556e-08	5.016438e+01	1.640894e+03
1.920000e-06	6.866035e-06	2.502736e-08	4.963909e+01	1.636276e+03
1.930000e-06	6.790758e-06	2.489645e-08	4.909486e+01	1.631543e+03
1.940000e-06	6.712758e-06	2.488557e-08	4.853095e+01	1.626636e+03
1.950000e-06	6.632172e-06	2.474022e-08	4.794834e+01	1.621477e+03
1.960000e-06	6.549187e-06	2.466926e-08	4.734839e+01	1.615993e+03
1.970000e-06	6.463746e-06	2.458778e-08	4.673068e+01	1.610135e+03
1.980000e-06	6.375899e-06	2.448394e-08	4.609558e+01	1.603894e+03
1.990000e-06	6.285783e-06	2.442301e-08	4.544407e+01	1.597298e+03
2.000000e-06	6.193536e-06	2.427914e-08	4.477715e+01	1.590403e+03
2.010000e-06	6.099030e-06	2.420203e-08	4.409391e+01	1.583272e+03
2.020000e-06	6.002304e-06	2.406494e-08	4.339461e+01	1.575947e+03
2.030000e-06	5.903474e-06	2.396145e-08	4.268010e+01	1.568436e+03
2.040000e-06	5.802579e-06	2.384013e-08	4.195067e+01	1.560702e+03
2.050000e-06	5.699553e-06	2.372779e-08	4.120582e+01	1.552675e+03
2.060000e-06	5.594506e-06	2.359615e-08	4.044637e+01	1.544264e+03
2.070000e-06	5.487610e-06	2.343513e-08	3.967355e+01	1.535384e+03
2.080000e-06	5.378860e-06	2.329982e-08	3.888732e+01	1.525983e+03
2.090000e-06	5.268155e-06	2.314381e-08	3.808697e+01	1.516045e+03
2.100000e-06	5.155442e-06	2.300198e-08	3.727209e+01	1.505602e+03
2.110000e-06	5.040860e-06	2.283464e-08	3.644370e+01	1.494709e+03
2.120000e-06	4.924335e-06	2.267576e-08	3.560126e+01	1.483425e+03
2.130000e-06	4.805883e-06	2.248638e-08	3.474490e+01	1.471787e+03
2.140000e-06	4.685582e-06	2.229829e-08	3.387516e+01	1.459788e+03
2.150000e-06	4.563572e-06	2.210678e-08	3.299307e+01	1.447370e+03
2.160000e-06	4.439895e-06	2.191489e-08	3.209892e+01	1.434431e+03
2.170000e-06	4.314522e-06	2.170913e-08	3.119252e+01	1.420852e+03
2.180000e-06	4.187597e-06	2.148837e-08	3.027490e+01	1.406519e+03
2.190000e-06	4.059124e-06	2.126074e-08	2.934609e+01	1.391354e+03
2.200000e-06	3.929175e-06	2.101575e-08	2.840659e+01	1.375331e+03
2.210000e-06	3.797786e-06	2.076246e-08	2.745670e+01	1.358469e+03
2.220000e-06	3.664919e-06	2.049654e-08	2.649612e+01	1.340821e+03
2.230000e-06	3.530712e-06	2.022666e-08	2.552584e+01	1.322436e+03
2.240000e-06	3.395181e-06	1.993444e-08	2.454600e+01	1.303329e+03
2.250000e-06	3.258403e-06	1.962875e-08	2.355714e+01	1.283452e+03
2.260000e-06	3.120425e-06	1.930610e-08	2.255961e+01	1.262686e+03
2.270000e-06	2.981225e-06	1.897082e-08	2.155324e+01	1.240852e+03
2.280000e-06	2.840819e-06	1.861402e-08	2.053815e+01	1.217737e+03
2.290000e-06	2.699246e-06	1.823828e-08	1.951463e+01	1.193133e+03
2.300000e-06	2.556672e-06	1.784311e-08	1.848386e+01	1.166870e+03
2.310000e-06	2.413163e-06	1.742378e-08	1.744634e+01	1.138836e+03
2.320000e-06	2.268815e-06	1.697428e-08	1.640276e+01	1.108972e+03
2.330000e-06	2.123703e-06	1.649227e-08	1.535365e+01	1.077241e+03
2.340000e-06	1.977915e-06	1.598039e-08	1.429965e+01	1.043581e+03
2.350000e-06	1.831535e-06	1.543433e-08	1.324137e+01	1.007855e+03
2.360000e-06	1.684577e-06	1.485112e-08	1.217892e+01	9.698183e+02
2.370000e-06	1.537074e-06	1.422550e-08	1.111252e+01	9.291074e+02
2.380000e-06	1.389055e-06	1.355155e-08	1.004239e+01	8.852757e+02
2.390000e-06	1.240563e-06	1.282445e-08	8.968846e+00	8.378624e+02
2.400000e-06	1.091580e-06	1.203999e-08	7.891751e+00	7.864861e+02
2.410000e-06	9.421624e-07	1.119777e-08	6.811513e+00	7.309404e+02
2.420000e-06	7.924523e-07	1.029994e-08	5.729160e+00	6.712684e+02
2.430000e-06	6.425429e-07	9.342732e-09	4.645366e+00	6.077908e+02
2.440000e-06	4.924580e-07	8.328910e-09	3.560303e+00	5.410770e+02
2.450000e-06	3.422090e-07	7.268287e-09	2.474055e+00	4.718592e+02
2.460000e-06	1.918487e-07	6.175612e-09	1.387000e+00	4.009047e+02
2.470000e-06	4.136173e-08	5.063719e-09	2.990312e-01	3.288742e+02
2.480000e-06	-1.091706e-07	3.943920e-09	-7.892661e-01	2.562000e+02
2.490000e-06	-2.596379e-07	2.821950e-09	-1.877093e+00	1.830134e+02
2.500000e-06	-4.100031e-07	1.694747e-09	-2.964182e+00	1.091446e+02
2.510000e-06	-5.602845e-07	5.553877e-10	-4.050666e+00	3.419727e+01
2.520000e-06	-7.104345e-07	-6.051427e-10	-5.136200e+00	-4.231349e+01
2.530000e-06	-8.603260e-07	-1.793634e-09	-6.219864e+00	-1.207895e+02
2.540000e-06	-1.009963e-06	-3.017202e-09	-7.301688e+00	-2.013818e+02
2.550000e-06	-1.159320e-06	-4.276762e-09	-8.381489e+00	-2.838661e+02
2.560000e-06	-1.308287e-06	-5.561393e-09	-9.458472e+00	-3.675903e+02
2.570000e-06	-1.456697e-06	-6.855805e-09	-1.053142e+01	-4.515085e+02
2.580000e-06	-1.604508e-06	-8.137039e-09	-1.160005e+01	-5.342969e+02
2.590000e-06	-1.751813e-06	-9.374774e-09	-1.266501e+01	-6.145271e+02
2.600000e-06	-1.898516e-06	-1.054126e-08	-1.372562e+01	-6.908622e+02
2.610000e-06	-2.044489e-06	-1.162292e-08	-1.478096e+01	-7.622350e+02
2.620000e-06	-2.189719e-06	-1.261671e-08	-1.583092e+01	-8.279735e+02
2.630000e-06	-2.334134e-06	-1.352660e-08	-1.687499e+01	-8.878521e+02
2.640000e-06	-2.477556e-06	-1.435741e-08	-1.791189e+01	-9.420625e+02
2.650000e-06	-2.619953e-06	-1.511799e-08	-1.894137e+01	-9.911187e+02
2.660000e-06	-2.761327e-06	-1.581504e-08	-1.996346e+01	-1.035719e+03
2.670000e-06	-2.901588e-06	-1.645272e-08	-2.097749e+01	-1.076604e+03
2.680000e-06	-3.040649e-06	-1.704016e-08	-2.198286e+01	-1.114430e+03
2.690000e-06	-3.178498e-06	-1.758240e-08	-2.297945e+01	-1.149694e+03
2.700000e-06	-3.315162e-06	-1.808285e-08	-2.396749e+01	-1.182710e+03
2.710000e-06	-3.450584e-06	-1.854784e-08	-2.494654e+01	-1.213636e+03
2.720000e-06	-3.584755e-06	-1.898312e-08	-2.591655e+01	-1.242529e+03
2.730000e-06	-3.717612e-06	-1.939090e-08	-2.687707e+01	-1.269420e+03
2.740000e-06	-3.849128e-06	-1.977200e-08	-2.782789e+01	-1.294373e+03
2.750000e-06	-3.979338e-06	-2.012640e-08	-2.876926e+01	-1.317517e+03
2.760000e-06	-4.108193e-06	-2.045780e-08	-2.970084e+01	-1.339051e+03
2.770000e-06	-4.235574e-06	-2.077181e-08	-3.062176e+01	-1.359216e+03
2.780000e-06	-4.361476e-06	-2.106904e-08	-3.153198e+01	-1.378254e+03
2.790000e-06	-4.485947e-06	-2.134873e-08	-3.243187e+01	-1.396364e+03
2.800000e-06	-4.608829e-06	-2.161226e-08	-3.332026e+01	-1.413672e+03
2.810000e-06	-4.730095e-06	-2.186170e-08	-3.419698e+01	-1.430225e+03
2.820000e-06	-4.849673e-06	-2.209980e-08	-3.506148e+01	-1.446002e+03
2.830000e-06	-4.967299e-06	-2.232653e-08	-3.591188e+01	-1.460952e+03
2.840000e-06	-5.082902e-06	-2.254208e-08	-3.674765e+01	-1.475026e+03
2.850000e-06	-5.196407e-06	-2.274574e-08	-3.756825e+01	-1.488214e+03
2.860000e-06	-5.307818e-06	-2.293653e-08	-3.837372e+01	-1.500563e+03
2.870000e-06	-5.417305e-06	-2.311613e-08	-3.916527e+01	-1.512169e+03
2.880000e-06	-5.524925e-06	-2.328736e-08	-3.994332e+01	-1.523161e+03
2.890000e-06	-5.630660e-06	-2.345091e-08	-4.070775e+01	-1.533666e+03
2.900000e-06	-5.734355e-06	-2.360691e-08	-4.145743e+01	-1.543780e+03
2.910000e-06	-5.835848e-06	-2.375643e-08	-4.219119e+01	-1.553548e+03
2.920000e-06	-5.935166e-06	-2.389891e-08	-4.290923e+01	-1.562954e+03
2.930000e-06	-6.032407e-06	-2.403204e-08	-4.361224e+01	-1.571938e+03
2.940000e-06	-6.127499e-06	-2.415580e-08	-4.429973e+01	-1.580423e+03
