# Temperatura_=_71.55
# Concentracion g/m^3_=_28200.0
# C_Vs_to_Am_M_A/Vsm_=_65563218390.804596
# pendiente_HvsI_1/m_=_3716.3
# ordenada_HvsI_A/m_=_1297.0
# frecuencia_Hz_=_302507.47785630147

Tiempo_(s)	Campo_(V.s)	Magnetizacion_(V.s)	Campo_(kA/m)	Magnetizacion_(A/m)
0.000000e+00	-7.886145e-06	-2.615966e-08	-5.683843e+01	-1.713087e+03
1.000000e-08	-7.881736e-06	-2.615586e-08	-5.680665e+01	-1.712382e+03
2.000000e-08	-7.874849e-06	-2.614592e-08	-5.675701e+01	-1.711558e+03
3.000000e-08	-7.865275e-06	-2.613508e-08	-5.668801e+01	-1.710677e+03
4.000000e-08	-7.852862e-06	-2.612074e-08	-5.659854e+01	-1.709776e+03
5.000000e-08	-7.837544e-06	-2.610138e-08	-5.648814e+01	-1.708853e+03
6.000000e-08	-7.819592e-06	-2.607753e-08	-5.635875e+01	-1.707868e+03
7.000000e-08	-7.799421e-06	-2.604581e-08	-5.621337e+01	-1.706758e+03
8.000000e-08	-7.776879e-06	-2.604115e-08	-5.605091e+01	-1.705458e+03
9.000000e-08	-7.751403e-06	-2.609262e-08	-5.586729e+01	-1.703921e+03
1.000000e-07	-7.722716e-06	-2.604162e-08	-5.566053e+01	-1.702137e+03
1.100000e-07	-7.691110e-06	-2.596001e-08	-5.543273e+01	-1.700137e+03
1.200000e-07	-7.656767e-06	-2.593577e-08	-5.518521e+01	-1.697986e+03
1.300000e-07	-7.619812e-06	-2.590704e-08	-5.491886e+01	-1.695762e+03
1.400000e-07	-7.580587e-06	-2.583286e-08	-5.463616e+01	-1.693533e+03
1.500000e-07	-7.539142e-06	-2.575238e-08	-5.433745e+01	-1.691337e+03
1.600000e-07	-7.495233e-06	-2.582055e-08	-5.402098e+01	-1.689162e+03
1.700000e-07	-7.448692e-06	-2.573373e-08	-5.368554e+01	-1.686951e+03
1.800000e-07	-7.399472e-06	-2.562089e-08	-5.333079e+01	-1.684613e+03
1.900000e-07	-7.347345e-06	-2.567149e-08	-5.295509e+01	-1.682044e+03
2.000000e-07	-7.292282e-06	-2.558652e-08	-5.255824e+01	-1.679152e+03
2.100000e-07	-7.234541e-06	-2.554818e-08	-5.214207e+01	-1.675880e+03
2.200000e-07	-7.174205e-06	-2.549069e-08	-5.170721e+01	-1.672218e+03
2.300000e-07	-7.111362e-06	-2.539642e-08	-5.125427e+01	-1.668199e+03
2.400000e-07	-7.045840e-06	-2.536171e-08	-5.078203e+01	-1.663886e+03
2.500000e-07	-6.977547e-06	-2.527143e-08	-5.028982e+01	-1.659349e+03
2.600000e-07	-6.906630e-06	-2.521792e-08	-4.977869e+01	-1.654647e+03
2.700000e-07	-6.832977e-06	-2.513349e-08	-4.924785e+01	-1.649805e+03
2.800000e-07	-6.756565e-06	-2.505477e-08	-4.869712e+01	-1.644812e+03
2.900000e-07	-6.677421e-06	-2.495538e-08	-4.812670e+01	-1.639625e+03
3.000000e-07	-6.595649e-06	-2.485534e-08	-4.753734e+01	-1.634187e+03
3.100000e-07	-6.511617e-06	-2.479766e-08	-4.693168e+01	-1.628443e+03
3.200000e-07	-6.425462e-06	-2.469936e-08	-4.631073e+01	-1.622361e+03
3.300000e-07	-6.336974e-06	-2.463117e-08	-4.567297e+01	-1.615937e+03
3.400000e-07	-6.246054e-06	-2.451464e-08	-4.501767e+01	-1.609195e+03
3.500000e-07	-6.152928e-06	-2.440319e-08	-4.434648e+01	-1.602177e+03
3.600000e-07	-6.057613e-06	-2.430553e-08	-4.365950e+01	-1.594918e+03
3.700000e-07	-5.959971e-06	-2.418728e-08	-4.295576e+01	-1.587436e+03
3.800000e-07	-5.860152e-06	-2.406626e-08	-4.223633e+01	-1.579714e+03
3.900000e-07	-5.758329e-06	-2.393976e-08	-4.150245e+01	-1.571703e+03
4.000000e-07	-5.654499e-06	-2.381741e-08	-4.075411e+01	-1.563333e+03
4.100000e-07	-5.548666e-06	-2.366270e-08	-3.999133e+01	-1.554527e+03
4.200000e-07	-5.440836e-06	-2.352869e-08	-3.921416e+01	-1.545228e+03
4.300000e-07	-5.331083e-06	-2.338600e-08	-3.842313e+01	-1.535410e+03
4.400000e-07	-5.219347e-06	-2.323183e-08	-3.761781e+01	-1.525086e+03
4.500000e-07	-5.105589e-06	-2.306594e-08	-3.679791e+01	-1.514301e+03
4.600000e-07	-4.989873e-06	-2.290133e-08	-3.596390e+01	-1.503111e+03
4.700000e-07	-4.872291e-06	-2.272657e-08	-3.511644e+01	-1.491560e+03
4.800000e-07	-4.752922e-06	-2.253686e-08	-3.425610e+01	-1.479657e+03
4.900000e-07	-4.631837e-06	-2.235101e-08	-3.338340e+01	-1.467366e+03
5.000000e-07	-4.509055e-06	-2.215393e-08	-3.249847e+01	-1.454600e+03
5.100000e-07	-4.384565e-06	-2.194655e-08	-3.160122e+01	-1.441246e+03
5.200000e-07	-4.258578e-06	-2.172392e-08	-3.069318e+01	-1.427183e+03
5.300000e-07	-4.131073e-06	-2.150029e-08	-2.977420e+01	-1.412316e+03
5.400000e-07	-4.001990e-06	-2.125945e-08	-2.884386e+01	-1.396591e+03
5.500000e-07	-3.871385e-06	-2.100472e-08	-2.790254e+01	-1.380009e+03
5.600000e-07	-3.739278e-06	-2.073728e-08	-2.695039e+01	-1.362609e+03
5.700000e-07	-3.605766e-06	-2.046353e-08	-2.598812e+01	-1.344447e+03
5.800000e-07	-3.470911e-06	-2.017787e-08	-2.501617e+01	-1.325559e+03
5.900000e-07	-3.334767e-06	-1.987716e-08	-2.403493e+01	-1.305930e+03
6.000000e-07	-3.197340e-06	-1.956764e-08	-2.304444e+01	-1.285479e+03
6.100000e-07	-3.058600e-06	-1.923868e-08	-2.204449e+01	-1.264051e+03
6.200000e-07	-2.918548e-06	-1.889010e-08	-2.103508e+01	-1.241445e+03
6.300000e-07	-2.777228e-06	-1.851538e-08	-2.001653e+01	-1.217443e+03
6.400000e-07	-2.634788e-06	-1.812092e-08	-1.898991e+01	-1.191852e+03
6.500000e-07	-2.491296e-06	-1.770226e-08	-1.795571e+01	-1.164527e+03
6.600000e-07	-2.346846e-06	-1.726041e-08	-1.691461e+01	-1.135387e+03
6.700000e-07	-2.201586e-06	-1.679251e-08	-1.586766e+01	-1.104390e+03
6.800000e-07	-2.055541e-06	-1.629401e-08	-1.481506e+01	-1.071499e+03
6.900000e-07	-1.908823e-06	-1.576631e-08	-1.375761e+01	-1.036625e+03
7.000000e-07	-1.761516e-06	-1.520066e-08	-1.269591e+01	-9.995881e+02
7.100000e-07	-1.613659e-06	-1.459776e-08	-1.163025e+01	-9.600835e+02
7.200000e-07	-1.465394e-06	-1.394515e-08	-1.056165e+01	-9.176983e+02
7.300000e-07	-1.316753e-06	-1.323585e-08	-9.490336e+00	-8.719589e+02
7.400000e-07	-1.167682e-06	-1.246848e-08	-8.415922e+00	-8.224151e+02
7.500000e-07	-1.018152e-06	-1.164744e-08	-7.338203e+00	-7.687391e+02
7.600000e-07	-8.683045e-07	-1.077427e-08	-6.258199e+00	-7.108164e+02
7.700000e-07	-7.182113e-07	-9.842970e-09	-5.176420e+00	-6.488036e+02
7.800000e-07	-5.678216e-07	-8.854876e-09	-4.092505e+00	-5.831334e+02
7.900000e-07	-4.172182e-07	-7.814459e-09	-3.007049e+00	-5.144601e+02
8.000000e-07	-2.664260e-07	-6.731600e-09	-1.920233e+00	-4.435515e+02
8.100000e-07	-1.155216e-07	-5.615523e-09	-8.326079e-01	-3.711510e+02
8.200000e-07	3.545183e-08	-4.483543e-09	2.555148e-01	-2.978386e+02
8.300000e-07	1.864564e-07	-3.347628e-09	1.343861e+00	-2.239256e+02
8.400000e-07	3.373922e-07	-2.210393e-09	2.431713e+00	-1.494118e+02
8.500000e-07	4.882303e-07	-1.065733e-09	3.518860e+00	-7.401794e+01
8.600000e-07	6.389369e-07	9.210075e-11	4.605060e+00	2.708412e+00
8.700000e-07	7.894445e-07	1.271361e-09	5.689825e+00	8.123431e+01
8.800000e-07	9.396838e-07	2.486782e-09	6.772656e+00	1.618648e+02
8.900000e-07	1.089628e-06	3.743400e-09	7.853363e+00	2.445880e+02
9.000000e-07	1.239230e-06	5.034009e-09	8.931597e+00	3.289778e+02
9.100000e-07	1.388385e-06	6.345044e-09	1.000661e+01	4.141794e+02
9.200000e-07	1.537017e-06	7.655669e-09	1.107786e+01	4.989815e+02
9.300000e-07	1.685147e-06	8.932134e-09	1.214549e+01	5.819645e+02
9.400000e-07	1.832719e-06	1.014465e-08	1.320910e+01	6.616912e+02
9.500000e-07	1.979611e-06	1.127341e-08	1.426781e+01	7.369041e+02
9.600000e-07	2.125845e-06	1.231243e-08	1.532177e+01	8.066864e+02
9.700000e-07	2.271341e-06	1.326526e-08	1.637042e+01	8.705591e+02
9.800000e-07	2.415999e-06	1.413499e-08	1.741302e+01	9.284959e+02
9.900000e-07	2.559658e-06	1.493066e-08	1.844842e+01	9.808616e+02
1.000000e-06	2.702192e-06	1.565780e-08	1.947572e+01	1.028291e+03
1.010000e-06	2.843662e-06	1.632382e-08	2.049535e+01	1.071543e+03
1.020000e-06	2.983995e-06	1.693688e-08	2.150678e+01	1.111353e+03
1.030000e-06	3.123105e-06	1.750330e-08	2.250940e+01	1.148331e+03
1.040000e-06	3.260990e-06	1.802934e-08	2.350319e+01	1.182904e+03
1.050000e-06	3.397559e-06	1.851621e-08	2.448749e+01	1.215313e+03
1.060000e-06	3.532832e-06	1.896915e-08	2.546246e+01	1.245660e+03
1.070000e-06	3.666877e-06	1.939085e-08	2.642857e+01	1.273977e+03
1.080000e-06	3.799661e-06	1.978601e-08	2.738559e+01	1.300295e+03
1.090000e-06	3.931104e-06	2.015519e-08	2.833295e+01	1.324701e+03
1.100000e-06	4.061068e-06	2.050286e-08	2.926965e+01	1.347354e+03
1.110000e-06	4.189495e-06	2.083159e-08	3.019528e+01	1.368478e+03
1.120000e-06	4.316476e-06	2.114383e-08	3.111047e+01	1.388325e+03
1.130000e-06	4.442059e-06	2.143713e-08	3.201559e+01	1.407129e+03
1.140000e-06	4.566089e-06	2.171017e-08	3.290953e+01	1.425067e+03
1.150000e-06	4.688528e-06	2.196782e-08	3.379200e+01	1.442233e+03
1.160000e-06	4.809308e-06	2.221093e-08	3.466250e+01	1.458643e+03
1.170000e-06	4.928380e-06	2.244055e-08	3.552070e+01	1.474255e+03
1.180000e-06	5.045685e-06	2.265758e-08	3.636616e+01	1.489012e+03
1.190000e-06	5.161051e-06	2.286576e-08	3.719765e+01	1.502876e+03
1.200000e-06	5.274366e-06	2.306484e-08	3.801435e+01	1.515855e+03
1.210000e-06	5.385707e-06	2.325300e-08	3.881683e+01	1.528019e+03
1.220000e-06	5.495228e-06	2.343009e-08	3.960618e+01	1.539483e+03
1.230000e-06	5.602861e-06	2.359992e-08	4.038194e+01	1.550380e+03
1.240000e-06	5.708412e-06	2.376115e-08	4.114268e+01	1.560833e+03
1.250000e-06	5.811773e-06	2.391552e-08	4.188765e+01	1.570920e+03
1.260000e-06	5.912966e-06	2.406369e-08	4.261698e+01	1.580662e+03
1.270000e-06	6.011999e-06	2.420367e-08	4.333075e+01	1.590023e+03
1.280000e-06	6.108763e-06	2.433560e-08	4.402817e+01	1.598930e+03
1.290000e-06	6.203268e-06	2.445738e-08	4.470930e+01	1.607303e+03
1.300000e-06	6.295606e-06	2.457447e-08	4.537481e+01	1.615089e+03
1.310000e-06	6.385715e-06	2.468662e-08	4.602426e+01	1.622279e+03
1.320000e-06	6.473491e-06	2.479279e-08	4.665690e+01	1.628923e+03
1.330000e-06	6.558970e-06	2.489341e-08	4.727297e+01	1.635115e+03
1.340000e-06	6.642236e-06	2.498733e-08	4.787311e+01	1.640971e+03
1.350000e-06	6.723102e-06	2.507637e-08	4.845594e+01	1.646605e+03
1.360000e-06	6.801436e-06	2.515893e-08	4.902052e+01	1.652095e+03
1.370000e-06	6.877221e-06	2.523749e-08	4.956673e+01	1.657470e+03
1.380000e-06	6.950333e-06	2.531290e-08	5.009368e+01	1.662709e+03
1.390000e-06	7.020911e-06	2.538526e-08	5.060236e+01	1.667753e+03
1.400000e-06	7.089095e-06	2.545513e-08	5.109379e+01	1.672529e+03
1.410000e-06	7.154696e-06	2.552198e-08	5.156660e+01	1.676976e+03
1.420000e-06	7.217707e-06	2.558522e-08	5.202074e+01	1.681067e+03
1.430000e-06	7.278326e-06	2.564454e-08	5.245764e+01	1.684814e+03
1.440000e-06	7.336446e-06	2.570009e-08	5.287654e+01	1.688269e+03
1.450000e-06	7.391942e-06	2.575185e-08	5.327652e+01	1.691500e+03
1.460000e-06	7.444665e-06	2.580126e-08	5.365651e+01	1.694575e+03
1.470000e-06	7.494353e-06	2.584807e-08	5.401464e+01	1.697535e+03
1.480000e-06	7.541141e-06	2.589073e-08	5.435185e+01	1.700383e+03
1.490000e-06	7.585240e-06	2.592912e-08	5.466970e+01	1.703088e+03
1.500000e-06	7.626595e-06	2.596465e-08	5.496775e+01	1.705589e+03
1.510000e-06	7.665241e-06	2.599749e-08	5.524629e+01	1.707821e+03
1.520000e-06	7.701329e-06	2.602766e-08	5.550639e+01	1.709737e+03
1.530000e-06	7.734692e-06	2.605338e-08	5.574685e+01	1.711323e+03
1.540000e-06	7.765224e-06	2.607472e-08	5.596690e+01	1.712605e+03
1.550000e-06	7.793051e-06	2.609271e-08	5.616746e+01	1.713648e+03
1.560000e-06	7.818056e-06	2.610759e-08	5.634768e+01	1.714529e+03
1.570000e-06	7.840214e-06	2.612106e-08	5.650739e+01	1.715325e+03
1.580000e-06	7.859654e-06	2.613439e-08	5.664749e+01	1.716081e+03
1.590000e-06	7.876223e-06	2.614842e-08	5.676691e+01	1.716808e+03
1.600000e-06	7.889814e-06	2.615995e-08	5.686487e+01	1.717473e+03
1.610000e-06	7.900358e-06	2.616690e-08	5.694086e+01	1.718013e+03
1.620000e-06	7.907796e-06	2.617140e-08	5.699447e+01	1.718358e+03
1.630000e-06	7.912431e-06	2.617406e-08	5.702788e+01	1.718451e+03
1.640000e-06	7.914321e-06	2.617384e-08	5.704150e+01	1.718266e+03
1.650000e-06	7.913377e-06	2.616983e-08	5.703470e+01	1.717820e+03
1.660000e-06	7.909839e-06	2.615484e-08	5.700920e+01	1.717162e+03
1.670000e-06	7.903636e-06	2.614631e-08	5.696449e+01	1.716363e+03
1.680000e-06	7.894767e-06	2.613822e-08	5.690057e+01	1.715492e+03
1.690000e-06	7.883216e-06	2.612506e-08	5.681732e+01	1.714594e+03
1.700000e-06	7.868842e-06	2.611424e-08	5.671372e+01	1.713678e+03
1.710000e-06	7.851942e-06	2.611053e-08	5.659191e+01	1.712715e+03
1.720000e-06	7.832809e-06	2.611230e-08	5.645401e+01	1.711647e+03
1.730000e-06	7.811255e-06	2.603237e-08	5.629866e+01	1.710405e+03
1.740000e-06	7.786693e-06	2.594109e-08	5.612164e+01	1.708937e+03
1.750000e-06	7.758547e-06	2.597381e-08	5.591878e+01	1.707220e+03
1.760000e-06	7.726850e-06	2.596866e-08	5.569033e+01	1.705275e+03
1.770000e-06	7.692473e-06	2.591298e-08	5.544256e+01	1.703158e+03
1.780000e-06	7.655880e-06	2.592564e-08	5.517882e+01	1.700946e+03
1.790000e-06	7.617042e-06	2.598606e-08	5.489890e+01	1.698712e+03
1.800000e-06	7.576261e-06	2.582701e-08	5.460498e+01	1.696503e+03
1.810000e-06	7.533266e-06	2.582551e-08	5.429510e+01	1.694324e+03
1.820000e-06	7.487560e-06	2.588606e-08	5.396567e+01	1.692131e+03
1.830000e-06	7.439251e-06	2.573211e-08	5.361749e+01	1.689838e+03
1.840000e-06	7.388002e-06	2.580098e-08	5.324812e+01	1.687344e+03
1.850000e-06	7.333694e-06	2.566872e-08	5.285670e+01	1.684550e+03
1.860000e-06	7.276686e-06	2.563255e-08	5.244583e+01	1.681389e+03
1.870000e-06	7.217091e-06	2.565288e-08	5.201630e+01	1.677835e+03
1.880000e-06	7.154891e-06	2.551333e-08	5.156800e+01	1.673911e+03
1.890000e-06	7.089870e-06	2.555630e-08	5.109937e+01	1.669673e+03
1.900000e-06	7.022148e-06	2.543156e-08	5.061127e+01	1.665192e+03
1.910000e-06	6.951690e-06	2.537263e-08	5.010346e+01	1.660532e+03
1.920000e-06	6.878482e-06	2.528930e-08	4.957582e+01	1.655728e+03
1.930000e-06	6.802649e-06	2.519721e-08	4.902926e+01	1.650779e+03
1.940000e-06	6.724057e-06	2.519158e-08	4.846282e+01	1.645652e+03
1.950000e-06	6.642945e-06	2.504424e-08	4.787822e+01	1.640290e+03
1.960000e-06	6.559403e-06	2.498815e-08	4.727610e+01	1.634637e+03
1.970000e-06	6.473427e-06	2.485329e-08	4.665643e+01	1.628651e+03
1.980000e-06	6.385084e-06	2.477414e-08	4.601972e+01	1.622322e+03
1.990000e-06	6.294492e-06	2.469440e-08	4.536678e+01	1.615666e+03
2.000000e-06	6.201757e-06	2.457561e-08	4.469841e+01	1.608721e+03
2.010000e-06	6.106729e-06	2.449441e-08	4.401350e+01	1.601526e+03
2.020000e-06	6.009496e-06	2.435149e-08	4.331271e+01	1.594107e+03
2.030000e-06	5.910174e-06	2.423581e-08	4.259686e+01	1.586455e+03
2.040000e-06	5.808718e-06	2.408907e-08	4.186563e+01	1.578532e+03
2.050000e-06	5.705096e-06	2.398812e-08	4.111878e+01	1.570271e+03
2.060000e-06	5.599556e-06	2.385034e-08	4.035812e+01	1.561596e+03
2.070000e-06	5.492180e-06	2.370950e-08	3.958422e+01	1.552440e+03
2.080000e-06	5.382852e-06	2.356620e-08	3.879625e+01	1.542769e+03
2.090000e-06	5.271556e-06	2.341364e-08	3.799410e+01	1.532585e+03
2.100000e-06	5.158331e-06	2.325934e-08	3.717804e+01	1.521924e+03
2.110000e-06	5.043182e-06	2.308701e-08	3.634812e+01	1.510843e+03
2.120000e-06	4.925982e-06	2.292321e-08	3.550341e+01	1.499391e+03
2.130000e-06	4.806811e-06	2.273038e-08	3.464450e+01	1.487589e+03
2.140000e-06	4.685838e-06	2.253659e-08	3.377261e+01	1.475414e+03
2.150000e-06	4.563214e-06	2.233377e-08	3.288881e+01	1.462793e+03
2.160000e-06	4.438984e-06	2.214278e-08	3.199344e+01	1.449618e+03
2.170000e-06	4.313116e-06	2.193207e-08	3.108625e+01	1.435768e+03
2.180000e-06	4.185603e-06	2.171313e-08	3.016722e+01	1.421136e+03
2.190000e-06	4.056578e-06	2.148345e-08	2.923729e+01	1.405657e+03
2.200000e-06	3.926096e-06	2.124298e-08	2.829686e+01	1.389316e+03
2.210000e-06	3.794142e-06	2.098195e-08	2.734582e+01	1.372143e+03
2.220000e-06	3.660777e-06	2.070807e-08	2.638460e+01	1.354192e+03
2.230000e-06	3.526014e-06	2.042549e-08	2.541331e+01	1.335508e+03
2.240000e-06	3.389874e-06	2.012214e-08	2.443210e+01	1.316095e+03
2.250000e-06	3.252501e-06	1.980893e-08	2.344201e+01	1.295890e+03
2.260000e-06	3.113894e-06	1.948478e-08	2.244301e+01	1.274759e+03
2.270000e-06	2.974041e-06	1.915162e-08	2.143504e+01	1.252510e+03
2.280000e-06	2.833051e-06	1.879161e-08	2.041887e+01	1.228927e+03
2.290000e-06	2.690958e-06	1.840861e-08	1.939475e+01	1.203805e+03
2.300000e-06	2.547847e-06	1.800102e-08	1.836330e+01	1.176986e+03
2.310000e-06	2.403832e-06	1.757231e-08	1.732532e+01	1.148368e+03
2.320000e-06	2.259011e-06	1.711549e-08	1.628155e+01	1.117904e+03
2.330000e-06	2.113453e-06	1.662706e-08	1.523245e+01	1.085557e+03
2.340000e-06	1.967199e-06	1.610673e-08	1.417835e+01	1.051263e+03
2.350000e-06	1.820280e-06	1.554870e-08	1.311944e+01	1.014868e+03
2.360000e-06	1.672736e-06	1.495200e-08	1.205604e+01	9.761046e+02
2.370000e-06	1.524628e-06	1.431252e-08	1.098857e+01	9.345879e+02
2.380000e-06	1.376090e-06	1.362635e-08	9.918000e+00	8.898541e+02
2.390000e-06	1.227145e-06	1.288685e-08	8.844495e+00	8.414365e+02
2.400000e-06	1.077744e-06	1.208662e-08	7.767711e+00	7.889621e+02
2.410000e-06	9.279364e-07	1.122506e-08	6.687988e+00	7.322477e+02
2.420000e-06	7.778433e-07	1.030559e-08	5.606211e+00	6.713695e+02
2.430000e-06	6.275163e-07	9.328372e-09	4.522747e+00	6.066841e+02
2.440000e-06	4.769281e-07	8.297257e-09	3.437401e+00	5.387915e+02
2.450000e-06	3.260990e-07	7.223209e-09	2.350319e+00	4.684404e+02
2.460000e-06	1.751282e-07	6.116557e-09	1.262215e+00	3.963960e+02
2.470000e-06	2.407650e-08	4.987028e-09	1.735284e-01	3.232977e+02
2.480000e-06	-1.269681e-07	3.847575e-09	-9.151071e-01	2.495412e+02
2.490000e-06	-2.779334e-07	2.707876e-09	-2.003171e+00	1.752153e+02
2.500000e-06	-4.288145e-07	1.563764e-09	-3.090628e+00	1.001126e+02
2.510000e-06	-5.795761e-07	4.047135e-10	-4.177224e+00	2.381584e+01
2.520000e-06	-7.301833e-07	-7.758074e-10	-5.262707e+00	-5.415592e+01
2.530000e-06	-8.806173e-07	-1.985692e-09	-6.346942e+00	-1.341715e+02
2.540000e-06	-1.030739e-06	-3.232868e-09	-7.428928e+00	-2.163226e+02
2.550000e-06	-1.180401e-06	-4.516978e-09	-8.507598e+00	-3.003068e+02
2.560000e-06	-1.329604e-06	-5.825550e-09	-9.582958e+00	-3.853881e+02
2.570000e-06	-1.478345e-06	-7.139718e-09	-1.065499e+01	-4.704450e+02
2.580000e-06	-1.626585e-06	-8.435180e-09	-1.172341e+01	-5.540989e+02
2.590000e-06	-1.774258e-06	-9.680371e-09	-1.278775e+01	-6.348971e+02
2.600000e-06	-1.921270e-06	-1.084917e-08	-1.384732e+01	-7.115120e+02
2.610000e-06	-2.067543e-06	-1.193073e-08	-1.490157e+01	-7.829164e+02
2.620000e-06	-2.213066e-06	-1.292245e-08	-1.595040e+01	-8.485010e+02
2.630000e-06	-2.357762e-06	-1.382675e-08	-1.699328e+01	-9.081132e+02
2.640000e-06	-2.501483e-06	-1.465153e-08	-1.802914e+01	-9.620165e+02
2.650000e-06	-2.644229e-06	-1.540758e-08	-1.905796e+01	-1.010783e+03
2.660000e-06	-2.785981e-06	-1.610228e-08	-2.007962e+01	-1.055151e+03
2.670000e-06	-2.926546e-06	-1.674013e-08	-2.109273e+01	-1.095877e+03
2.680000e-06	-3.065844e-06	-1.732900e-08	-2.209670e+01	-1.133614e+03
2.690000e-06	-3.203937e-06	-1.786991e-08	-2.309198e+01	-1.168843e+03
2.700000e-06	-3.340866e-06	-1.836670e-08	-2.407889e+01	-1.201857e+03
2.710000e-06	-3.476588e-06	-1.882812e-08	-2.505708e+01	-1.232789e+03
2.720000e-06	-3.610992e-06	-1.926064e-08	-2.602578e+01	-1.261685e+03
2.730000e-06	-3.744121e-06	-1.966867e-08	-2.698530e+01	-1.288571e+03
2.740000e-06	-3.875851e-06	-2.005225e-08	-2.793472e+01	-1.313512e+03
2.750000e-06	-4.006187e-06	-2.041006e-08	-2.887411e+01	-1.336646e+03
2.760000e-06	-4.135288e-06	-2.074376e-08	-2.980458e+01	-1.358183e+03
2.770000e-06	-4.262938e-06	-2.105846e-08	-3.072460e+01	-1.378371e+03
2.780000e-06	-4.389069e-06	-2.135627e-08	-3.163368e+01	-1.397454e+03
2.790000e-06	-4.513693e-06	-2.163764e-08	-3.253189e+01	-1.415627e+03
2.800000e-06	-4.636715e-06	-2.190221e-08	-3.341856e+01	-1.433010e+03
2.810000e-06	-4.758107e-06	-2.215152e-08	-3.429348e+01	-1.449640e+03
2.820000e-06	-4.877798e-06	-2.238864e-08	-3.515613e+01	-1.465487e+03
2.830000e-06	-4.995611e-06	-2.261528e-08	-3.600526e+01	-1.480496e+03
2.840000e-06	-5.111350e-06	-2.283224e-08	-3.683943e+01	-1.494618e+03
2.850000e-06	-5.224966e-06	-2.303852e-08	-3.765830e+01	-1.507847e+03
2.860000e-06	-5.336513e-06	-2.323275e-08	-3.846227e+01	-1.520235e+03
2.870000e-06	-5.446082e-06	-2.341467e-08	-3.925197e+01	-1.531887e+03
2.880000e-06	-5.553802e-06	-2.358587e-08	-4.002835e+01	-1.542933e+03
2.890000e-06	-5.659631e-06	-2.374864e-08	-4.079110e+01	-1.553505e+03
2.900000e-06	-5.763373e-06	-2.390498e-08	-4.153881e+01	-1.563693e+03
2.910000e-06	-5.864896e-06	-2.405560e-08	-4.227052e+01	-1.573537e+03
2.920000e-06	-5.964209e-06	-2.419896e-08	-4.298631e+01	-1.583014e+03
2.930000e-06	-6.061444e-06	-2.433469e-08	-4.368712e+01	-1.592060e+03
2.940000e-06	-6.156577e-06	-2.446188e-08	-4.437278e+01	-1.600595e+03
