# Temperatura_=_27.35
# Concentracion g/m^3_=_28200.0
# C_Vs_to_Am_M_A/Vsm_=_65563218390.804596
# pendiente_HvsI_1/m_=_3716.3
# ordenada_HvsI_A/m_=_1297.0
# frecuencia_Hz_=_302507.4848672005

Tiempo_(s)	Campo_(V.s)	Magnetizacion_(V.s)	Campo_(kA/m)	Magnetizacion_(A/m)
0.000000e+00	-7.906894e-06	-2.410710e-08	-5.684283e+01	-1.578813e+03
1.000000e-08	-7.902840e-06	-2.410885e-08	-5.681368e+01	-1.578311e+03
2.000000e-08	-7.896267e-06	-2.410074e-08	-5.676643e+01	-1.577666e+03
3.000000e-08	-7.887033e-06	-2.409274e-08	-5.670005e+01	-1.576919e+03
4.000000e-08	-7.874952e-06	-2.408310e-08	-5.661320e+01	-1.576102e+03
5.000000e-08	-7.859892e-06	-2.406682e-08	-5.650493e+01	-1.575228e+03
6.000000e-08	-7.842105e-06	-2.404333e-08	-5.637706e+01	-1.574288e+03
7.000000e-08	-7.822137e-06	-2.401303e-08	-5.623351e+01	-1.573258e+03
8.000000e-08	-7.799837e-06	-2.399617e-08	-5.607319e+01	-1.572104e+03
9.000000e-08	-7.774602e-06	-2.407028e-08	-5.589178e+01	-1.570800e+03
1.000000e-07	-7.746195e-06	-2.403634e-08	-5.568756e+01	-1.569338e+03
1.100000e-07	-7.714880e-06	-2.393592e-08	-5.546244e+01	-1.567730e+03
1.200000e-07	-7.680785e-06	-2.391487e-08	-5.521733e+01	-1.566010e+03
1.300000e-07	-7.644046e-06	-2.389998e-08	-5.495321e+01	-1.564220e+03
1.400000e-07	-7.604959e-06	-2.382923e-08	-5.467221e+01	-1.562399e+03
1.500000e-07	-7.563582e-06	-2.373241e-08	-5.437475e+01	-1.560564e+03
1.600000e-07	-7.519809e-06	-2.382165e-08	-5.406007e+01	-1.558703e+03
1.700000e-07	-7.473432e-06	-2.379506e-08	-5.372666e+01	-1.556772e+03
1.800000e-07	-7.424320e-06	-2.362752e-08	-5.337359e+01	-1.554706e+03
1.900000e-07	-7.372343e-06	-2.370128e-08	-5.299993e+01	-1.552426e+03
2.000000e-07	-7.317523e-06	-2.364388e-08	-5.260583e+01	-1.549867e+03
2.100000e-07	-7.260015e-06	-2.356262e-08	-5.219240e+01	-1.546987e+03
2.200000e-07	-7.199871e-06	-2.354549e-08	-5.176002e+01	-1.543779e+03
2.300000e-07	-7.137186e-06	-2.345745e-08	-5.130938e+01	-1.540272e+03
2.400000e-07	-7.071783e-06	-2.343927e-08	-5.083920e+01	-1.536519e+03
2.500000e-07	-7.003670e-06	-2.333017e-08	-5.034953e+01	-1.532581e+03
2.600000e-07	-6.932909e-06	-2.330774e-08	-4.984083e+01	-1.528509e+03
2.700000e-07	-6.859302e-06	-2.324687e-08	-4.931167e+01	-1.524329e+03
2.800000e-07	-6.783001e-06	-2.315390e-08	-4.876314e+01	-1.520032e+03
2.900000e-07	-6.703991e-06	-2.307804e-08	-4.819513e+01	-1.515581e+03
3.000000e-07	-6.622302e-06	-2.299902e-08	-4.760787e+01	-1.510919e+03
3.100000e-07	-6.538325e-06	-2.295378e-08	-4.700415e+01	-1.505986e+03
3.200000e-07	-6.452148e-06	-2.284397e-08	-4.638463e+01	-1.500738e+03
3.300000e-07	-6.363641e-06	-2.279720e-08	-4.574835e+01	-1.495157e+03
3.400000e-07	-6.272757e-06	-2.270275e-08	-4.509498e+01	-1.489250e+03
3.500000e-07	-6.179672e-06	-2.258147e-08	-4.442579e+01	-1.483049e+03
3.600000e-07	-6.084346e-06	-2.249511e-08	-4.374050e+01	-1.476592e+03
3.700000e-07	-5.986677e-06	-2.240347e-08	-4.303835e+01	-1.469908e+03
3.800000e-07	-5.886860e-06	-2.229561e-08	-4.232076e+01	-1.463004e+03
3.900000e-07	-5.785044e-06	-2.217541e-08	-4.158880e+01	-1.455856e+03
4.000000e-07	-5.681188e-06	-2.207689e-08	-4.084218e+01	-1.448416e+03
4.100000e-07	-5.575256e-06	-2.194196e-08	-4.008064e+01	-1.440620e+03
4.200000e-07	-5.467354e-06	-2.180978e-08	-3.930493e+01	-1.432407e+03
4.300000e-07	-5.357584e-06	-2.168318e-08	-3.851578e+01	-1.423734e+03
4.400000e-07	-5.245835e-06	-2.155526e-08	-3.771242e+01	-1.414584e+03
4.500000e-07	-5.132050e-06	-2.140218e-08	-3.689442e+01	-1.404974e+03
4.600000e-07	-5.016295e-06	-2.124520e-08	-3.606225e+01	-1.394935e+03
4.700000e-07	-4.898664e-06	-2.109049e-08	-3.521660e+01	-1.384504e+03
4.800000e-07	-4.779189e-06	-2.092255e-08	-3.435769e+01	-1.373702e+03
4.900000e-07	-4.657981e-06	-2.074833e-08	-3.348633e+01	-1.362518e+03
5.000000e-07	-4.535079e-06	-2.057152e-08	-3.260278e+01	-1.350903e+03
5.100000e-07	-4.410501e-06	-2.039276e-08	-3.170718e+01	-1.338776e+03
5.200000e-07	-4.284417e-06	-2.018839e-08	-3.080077e+01	-1.326039e+03
5.300000e-07	-4.156717e-06	-1.997695e-08	-2.988273e+01	-1.312600e+03
5.400000e-07	-4.027474e-06	-1.975779e-08	-2.895359e+01	-1.298386e+03
5.500000e-07	-3.896694e-06	-1.953048e-08	-2.801341e+01	-1.283362e+03
5.600000e-07	-3.764353e-06	-1.928431e-08	-2.706201e+01	-1.267528e+03
5.700000e-07	-3.630674e-06	-1.903257e-08	-2.610099e+01	-1.250907e+03
5.800000e-07	-3.495607e-06	-1.877099e-08	-2.512999e+01	-1.233520e+03
5.900000e-07	-3.359162e-06	-1.849403e-08	-2.414909e+01	-1.215365e+03
6.000000e-07	-3.221449e-06	-1.820337e-08	-2.315907e+01	-1.196394e+03
6.100000e-07	-3.082427e-06	-1.789713e-08	-2.215963e+01	-1.176503e+03
6.200000e-07	-2.941997e-06	-1.757753e-08	-2.115008e+01	-1.155544e+03
6.300000e-07	-2.800234e-06	-1.723377e-08	-2.013094e+01	-1.133337e+03
6.400000e-07	-2.657453e-06	-1.686859e-08	-1.910449e+01	-1.109702e+03
6.500000e-07	-2.513721e-06	-1.647731e-08	-1.807120e+01	-1.084480e+03
6.600000e-07	-2.368973e-06	-1.606677e-08	-1.703060e+01	-1.057549e+03
6.700000e-07	-2.223408e-06	-1.563167e-08	-1.598413e+01	-1.028818e+03
6.800000e-07	-2.077243e-06	-1.516661e-08	-1.493334e+01	-9.982081e+02
6.900000e-07	-1.930424e-06	-1.467159e-08	-1.387786e+01	-9.656190e+02
7.000000e-07	-1.782956e-06	-1.414266e-08	-1.281771e+01	-9.308937e+02
7.100000e-07	-1.634917e-06	-1.357998e-08	-1.175346e+01	-8.937974e+02
7.200000e-07	-1.486327e-06	-1.297274e-08	-1.068524e+01	-8.540197e+02
7.300000e-07	-1.337325e-06	-1.231408e-08	-9.614056e+00	-8.112070e+02
7.400000e-07	-1.187991e-06	-1.160087e-08	-8.540495e+00	-7.650230e+02
7.500000e-07	-1.038301e-06	-1.083761e-08	-7.464369e+00	-7.152287e+02
7.600000e-07	-8.882185e-07	-1.002403e-08	-6.385421e+00	-6.617607e+02
7.700000e-07	-7.377565e-07	-9.162957e-09	-5.303747e+00	-6.047900e+02
7.800000e-07	-5.870141e-07	-8.256862e-09	-4.220057e+00	-5.447400e+02
7.900000e-07	-4.360633e-07	-7.309727e-09	-3.134868e+00	-4.822546e+02
8.000000e-07	-2.849260e-07	-6.330723e-09	-2.048339e+00	-4.181155e+02
8.100000e-07	-1.336317e-07	-5.333441e-09	-9.606810e-01	-3.531218e+02
8.200000e-07	1.782165e-08	-4.334315e-09	1.281202e-01	-2.879550e+02
8.300000e-07	1.693463e-07	-3.342804e-09	1.217434e+00	-2.230591e+02
8.400000e-07	3.207495e-07	-2.363405e-09	2.305875e+00	-1.585641e+02
8.500000e-07	4.720478e-07	-1.386724e-09	3.393562e+00	-9.427175e+01
8.600000e-07	6.232299e-07	-4.072533e-10	4.480413e+00	-2.971305e+01
8.700000e-07	7.741599e-07	5.849332e-10	5.565452e+00	3.573281e+01
8.800000e-07	9.248219e-07	1.598838e-09	6.648564e+00	1.026796e+02
8.900000e-07	1.075172e-06	2.642725e-09	7.729436e+00	1.715677e+02
9.000000e-07	1.225156e-06	3.720468e-09	8.807669e+00	2.425258e+02
9.100000e-07	1.374680e-06	4.829135e-09	9.882602e+00	3.152889e+02
9.200000e-07	1.523733e-06	5.963207e-09	1.095415e+01	3.891914e+02
9.300000e-07	1.672283e-06	7.100945e-09	1.202208e+01	4.632354e+02
9.400000e-07	1.820244e-06	8.218565e-09	1.308577e+01	5.362219e+02
9.500000e-07	1.967544e-06	9.291168e-09	1.414472e+01	6.069157e+02
9.600000e-07	2.114104e-06	1.030323e-08	1.519834e+01	6.742118e+02
9.700000e-07	2.259906e-06	1.124973e-08	1.624651e+01	7.372715e+02
9.800000e-07	2.404907e-06	1.212605e-08	1.728893e+01	7.956032e+02
9.900000e-07	2.549015e-06	1.293557e-08	1.832492e+01	8.490789e+02
1.000000e-06	2.692107e-06	1.367684e-08	1.935362e+01	8.978881e+02
1.010000e-06	2.834157e-06	1.435548e-08	2.037481e+01	9.424474e+02
1.020000e-06	2.975085e-06	1.497847e-08	2.138795e+01	9.832882e+02
1.030000e-06	3.114757e-06	1.555245e-08	2.239205e+01	1.020950e+03
1.040000e-06	3.253165e-06	1.608533e-08	2.338707e+01	1.055896e+03
1.050000e-06	3.390310e-06	1.658066e-08	2.437301e+01	1.088476e+03
1.060000e-06	3.526171e-06	1.704174e-08	2.534972e+01	1.118916e+03
1.070000e-06	3.660709e-06	1.746972e-08	2.631691e+01	1.147350e+03
1.080000e-06	3.793942e-06	1.786830e-08	2.727473e+01	1.173863e+03
1.090000e-06	3.925811e-06	1.823947e-08	2.822274e+01	1.198540e+03
1.100000e-06	4.056240e-06	1.858829e-08	2.916040e+01	1.221494e+03
1.110000e-06	4.185314e-06	1.891640e-08	3.008831e+01	1.242882e+03
1.120000e-06	4.312878e-06	1.922678e-08	3.100537e+01	1.262891e+03
1.130000e-06	4.438896e-06	1.951767e-08	3.191132e+01	1.281719e+03
1.140000e-06	4.563432e-06	1.979044e-08	3.280661e+01	1.299538e+03
1.150000e-06	4.686333e-06	2.004746e-08	3.369015e+01	1.316478e+03
1.160000e-06	4.807612e-06	2.029003e-08	3.456202e+01	1.332611e+03
1.170000e-06	4.927211e-06	2.051868e-08	3.542182e+01	1.347958e+03
1.180000e-06	5.045035e-06	2.073453e-08	3.626886e+01	1.362508e+03
1.190000e-06	5.161018e-06	2.093958e-08	3.710267e+01	1.376242e+03
1.200000e-06	5.275005e-06	2.113403e-08	3.792212e+01	1.389158e+03
1.210000e-06	5.386923e-06	2.131909e-08	3.872670e+01	1.401288e+03
1.220000e-06	5.496874e-06	2.149352e-08	3.951714e+01	1.412696e+03
1.230000e-06	5.604896e-06	2.165980e-08	4.029371e+01	1.423472e+03
1.240000e-06	5.710924e-06	2.181953e-08	4.105595e+01	1.433707e+03
1.250000e-06	5.814838e-06	2.197309e-08	4.180299e+01	1.443478e+03
1.260000e-06	5.916584e-06	2.211754e-08	4.253445e+01	1.452827e+03
1.270000e-06	6.016184e-06	2.225219e-08	4.325047e+01	1.461759e+03
1.280000e-06	6.113531e-06	2.237931e-08	4.395030e+01	1.470246e+03
1.290000e-06	6.208546e-06	2.249714e-08	4.463337e+01	1.478248e+03
1.300000e-06	6.301294e-06	2.260670e-08	4.530014e+01	1.485728e+03
1.310000e-06	6.391839e-06	2.271169e-08	4.595107e+01	1.492679e+03
1.320000e-06	6.480056e-06	2.281180e-08	4.658526e+01	1.499125e+03
1.330000e-06	6.565967e-06	2.290543e-08	4.720287e+01	1.505132e+03
1.340000e-06	6.649655e-06	2.299480e-08	4.780451e+01	1.510785e+03
1.350000e-06	6.730990e-06	2.308119e-08	4.838923e+01	1.516178e+03
1.360000e-06	6.809822e-06	2.316246e-08	4.895595e+01	1.521384e+03
1.370000e-06	6.886077e-06	2.323831e-08	4.950415e+01	1.526448e+03
1.380000e-06	6.959701e-06	2.330974e-08	5.003344e+01	1.531371e+03
1.390000e-06	7.030774e-06	2.337934e-08	5.054438e+01	1.536123e+03
1.400000e-06	7.099392e-06	2.344611e-08	5.103768e+01	1.540648e+03
1.410000e-06	7.165481e-06	2.350803e-08	5.151280e+01	1.544891e+03
1.420000e-06	7.228990e-06	2.356745e-08	5.196936e+01	1.548814e+03
1.430000e-06	7.290013e-06	2.362440e-08	5.240806e+01	1.552406e+03
1.440000e-06	7.348588e-06	2.367584e-08	5.282916e+01	1.555691e+03
1.450000e-06	7.404558e-06	2.372397e-08	5.323152e+01	1.558717e+03
1.460000e-06	7.457755e-06	2.377029e-08	5.361396e+01	1.561540e+03
1.470000e-06	7.507925e-06	2.381312e-08	5.397463e+01	1.564211e+03
1.480000e-06	7.555109e-06	2.385190e-08	5.431384e+01	1.566758e+03
1.490000e-06	7.599679e-06	2.388598e-08	5.463426e+01	1.569181e+03
1.500000e-06	7.641593e-06	2.391739e-08	5.493557e+01	1.571453e+03
1.510000e-06	7.680719e-06	2.394775e-08	5.521685e+01	1.573530e+03
1.520000e-06	7.717197e-06	2.397508e-08	5.547909e+01	1.575369e+03
1.530000e-06	7.750929e-06	2.399862e-08	5.572159e+01	1.576940e+03
1.540000e-06	7.781834e-06	2.402067e-08	5.594377e+01	1.578242e+03
1.550000e-06	7.810021e-06	2.403954e-08	5.614641e+01	1.579299e+03
1.560000e-06	7.835335e-06	2.405405e-08	5.632839e+01	1.580158e+03
1.570000e-06	7.857778e-06	2.406612e-08	5.648973e+01	1.580877e+03
1.580000e-06	7.877579e-06	2.407686e-08	5.663209e+01	1.581504e+03
1.590000e-06	7.894607e-06	2.408700e-08	5.675450e+01	1.582068e+03
1.600000e-06	7.908628e-06	2.409463e-08	5.685529e+01	1.582571e+03
1.610000e-06	7.919467e-06	2.409945e-08	5.693322e+01	1.582992e+03
1.620000e-06	7.927222e-06	2.410379e-08	5.698897e+01	1.583290e+03
1.630000e-06	7.932250e-06	2.410907e-08	5.702511e+01	1.583423e+03
1.640000e-06	7.934529e-06	2.411387e-08	5.704150e+01	1.583362e+03
1.650000e-06	7.933949e-06	2.411633e-08	5.703732e+01	1.583097e+03
1.660000e-06	7.930712e-06	2.410133e-08	5.701406e+01	1.582643e+03
1.670000e-06	7.924835e-06	2.409276e-08	5.697181e+01	1.582034e+03
1.680000e-06	7.916249e-06	2.408540e-08	5.691008e+01	1.581311e+03
1.690000e-06	7.904989e-06	2.407198e-08	5.682913e+01	1.580510e+03
1.700000e-06	7.890887e-06	2.406002e-08	5.672775e+01	1.579651e+03
1.710000e-06	7.874163e-06	2.405843e-08	5.660752e+01	1.578732e+03
1.720000e-06	7.855235e-06	2.406635e-08	5.647145e+01	1.577730e+03
1.730000e-06	7.833953e-06	2.400538e-08	5.631846e+01	1.576613e+03
1.740000e-06	7.809703e-06	2.388277e-08	5.614412e+01	1.575353e+03
1.750000e-06	7.781843e-06	2.393014e-08	5.594383e+01	1.573935e+03
1.760000e-06	7.750378e-06	2.395475e-08	5.571763e+01	1.572365e+03
1.770000e-06	7.716166e-06	2.388986e-08	5.547168e+01	1.570672e+03
1.780000e-06	7.679771e-06	2.389285e-08	5.521003e+01	1.568897e+03
1.790000e-06	7.641112e-06	2.400194e-08	5.493212e+01	1.567081e+03
1.800000e-06	7.600450e-06	2.384724e-08	5.463979e+01	1.565248e+03
1.810000e-06	7.557678e-06	2.376052e-08	5.433231e+01	1.563397e+03
1.820000e-06	7.512181e-06	2.391207e-08	5.400523e+01	1.561491e+03
1.830000e-06	7.464054e-06	2.372779e-08	5.365924e+01	1.559470e+03
1.840000e-06	7.413078e-06	2.380566e-08	5.329278e+01	1.557258e+03
1.850000e-06	7.358981e-06	2.373274e-08	5.290387e+01	1.554783e+03
1.860000e-06	7.302149e-06	2.365161e-08	5.249530e+01	1.551996e+03
1.870000e-06	7.242758e-06	2.370797e-08	5.206834e+01	1.548880e+03
1.880000e-06	7.180711e-06	2.350861e-08	5.162228e+01	1.545453e+03
1.890000e-06	7.115788e-06	2.359417e-08	5.115555e+01	1.541763e+03
1.900000e-06	7.048171e-06	2.348990e-08	5.066945e+01	1.537871e+03
1.910000e-06	6.977919e-06	2.340118e-08	5.016441e+01	1.533832e+03
1.920000e-06	6.904926e-06	2.339216e-08	4.963966e+01	1.529681e+03
1.930000e-06	6.829256e-06	2.327650e-08	4.909566e+01	1.525419e+03
1.940000e-06	6.750760e-06	2.328143e-08	4.853135e+01	1.521017e+03
1.950000e-06	6.669716e-06	2.313796e-08	4.794873e+01	1.516420e+03
1.960000e-06	6.586255e-06	2.311292e-08	4.734873e+01	1.511569e+03
1.970000e-06	6.500274e-06	2.299512e-08	4.673061e+01	1.506414e+03
1.980000e-06	6.411913e-06	2.289717e-08	4.609538e+01	1.500927e+03
1.990000e-06	6.321331e-06	2.286564e-08	4.544418e+01	1.495110e+03
2.000000e-06	6.228591e-06	2.274005e-08	4.477747e+01	1.488988e+03
2.010000e-06	6.133528e-06	2.267384e-08	4.409406e+01	1.482600e+03
2.020000e-06	6.036244e-06	2.254077e-08	4.339468e+01	1.475978e+03
2.030000e-06	5.936863e-06	2.245450e-08	4.268024e+01	1.469137e+03
2.040000e-06	5.835409e-06	2.231367e-08	4.195088e+01	1.462061e+03
2.050000e-06	5.731861e-06	2.221746e-08	4.120647e+01	1.454710e+03
2.060000e-06	5.626291e-06	2.211743e-08	4.044752e+01	1.447022e+03
2.070000e-06	5.518795e-06	2.198823e-08	3.967473e+01	1.438932e+03
2.080000e-06	5.409423e-06	2.185185e-08	3.888846e+01	1.430392e+03
2.090000e-06	5.298116e-06	2.170556e-08	3.808827e+01	1.421378e+03
2.100000e-06	5.184792e-06	2.157931e-08	3.727358e+01	1.411895e+03
2.110000e-06	5.069535e-06	2.141882e-08	3.644499e+01	1.401973e+03
2.120000e-06	4.952244e-06	2.127698e-08	3.560178e+01	1.391651e+03
2.130000e-06	4.832942e-06	2.111153e-08	3.474413e+01	1.380954e+03
2.140000e-06	4.711858e-06	2.094355e-08	3.387365e+01	1.369881e+03
2.150000e-06	4.589201e-06	2.074975e-08	3.299186e+01	1.358395e+03
2.160000e-06	4.464871e-06	2.057431e-08	3.209805e+01	1.346423e+03
2.170000e-06	4.338880e-06	2.038818e-08	3.119230e+01	1.333870e+03
2.180000e-06	4.211271e-06	2.018736e-08	3.027492e+01	1.320638e+03
2.190000e-06	4.082093e-06	1.997408e-08	2.934626e+01	1.306650e+03
2.200000e-06	3.951490e-06	1.975168e-08	2.840735e+01	1.291858e+03
2.210000e-06	3.819341e-06	1.951880e-08	2.745732e+01	1.276253e+03
2.220000e-06	3.685778e-06	1.926703e-08	2.649713e+01	1.259853e+03
2.230000e-06	3.550853e-06	1.901329e-08	2.552716e+01	1.242683e+03
2.240000e-06	3.414547e-06	1.874109e-08	2.454725e+01	1.224749e+03
2.250000e-06	3.277001e-06	1.845547e-08	2.355843e+01	1.206018e+03
2.260000e-06	3.138215e-06	1.815018e-08	2.256069e+01	1.186403e+03
2.270000e-06	2.998142e-06	1.783470e-08	2.155371e+01	1.165765e+03
2.280000e-06	2.856853e-06	1.749905e-08	2.053798e+01	1.143933e+03
2.290000e-06	2.714477e-06	1.714691e-08	1.951443e+01	1.120722e+03
2.300000e-06	2.571078e-06	1.677209e-08	1.848354e+01	1.095967e+03
2.310000e-06	2.426743e-06	1.637638e-08	1.744591e+01	1.069533e+03
2.320000e-06	2.281575e-06	1.595381e-08	1.640229e+01	1.041324e+03
2.330000e-06	2.135671e-06	1.550011e-08	1.535338e+01	1.011259e+03
2.340000e-06	1.989181e-06	1.501293e-08	1.430026e+01	9.792472e+02
2.350000e-06	1.842106e-06	1.448903e-08	1.324294e+01	9.451516e+02
2.360000e-06	1.694304e-06	1.393022e-08	1.218038e+01	9.087604e+02
2.370000e-06	1.545758e-06	1.333139e-08	1.111249e+01	8.697831e+02
2.380000e-06	1.396662e-06	1.268741e-08	1.004063e+01	8.278730e+02
2.390000e-06	1.247227e-06	1.199537e-08	8.966342e+00	7.826815e+02
2.400000e-06	1.097468e-06	1.125249e-08	7.889718e+00	7.339332e+02
2.410000e-06	9.473195e-07	1.045506e-08	6.810300e+00	6.815075e+02
2.420000e-06	7.968474e-07	9.605766e-09	5.728553e+00	6.255043e+02
2.430000e-06	6.461108e-07	8.708816e-09	4.644904e+00	5.662759e+02
2.440000e-06	4.951733e-07	7.770112e-09	3.559811e+00	5.044096e+02
2.450000e-06	3.441075e-07	6.796138e-09	2.473796e+00	4.406588e+02
2.460000e-06	1.928828e-07	5.800463e-09	1.386639e+00	3.758312e+02
2.470000e-06	4.153326e-08	4.797288e-09	2.985835e-01	3.106552e+02
2.480000e-06	-1.098231e-07	3.796806e-09	-7.895208e-01	2.456532e+02
2.490000e-06	-2.611921e-07	2.806612e-09	-1.877716e+00	1.810490e+02
2.500000e-06	-4.124983e-07	1.824219e-09	-2.965459e+00	1.167356e+02
2.510000e-06	-5.636016e-07	8.419013e-10	-4.051744e+00	5.231150e+01
2.520000e-06	-7.145420e-07	-1.510186e-10	-5.136858e+00	-1.281572e+01
2.530000e-06	-8.652759e-07	-1.163010e-09	-6.220487e+00	-7.927910e+01
2.540000e-06	-1.015679e-06	-2.202110e-09	-7.301737e+00	-1.475846e+02
2.550000e-06	-1.165711e-06	-3.276061e-09	-8.380321e+00	-2.179613e+02
2.560000e-06	-1.315366e-06	-4.381282e-09	-9.456194e+00	-2.902607e+02
2.570000e-06	-1.464602e-06	-5.510358e-09	-1.052905e+01	-3.639279e+02
2.580000e-06	-1.613394e-06	-6.651213e-09	-1.159872e+01	-4.380489e+02
2.590000e-06	-1.761586e-06	-7.781813e-09	-1.266408e+01	-5.114662e+02
2.600000e-06	-1.908967e-06	-8.877788e-09	-1.372361e+01	-5.829374e+02
2.610000e-06	-2.055599e-06	-9.921117e-09	-1.477774e+01	-6.513045e+02
2.620000e-06	-2.201562e-06	-1.090064e-08	-1.582707e+01	-7.156417e+02
2.630000e-06	-2.346723e-06	-1.180887e-08	-1.687064e+01	-7.753538e+02
2.640000e-06	-2.490948e-06	-1.264505e-08	-1.790748e+01	-8.302110e+02
2.650000e-06	-2.634131e-06	-1.341486e-08	-1.893682e+01	-8.803199e+02
2.660000e-06	-2.776295e-06	-1.412379e-08	-1.995884e+01	-9.260430e+02
2.670000e-06	-2.917443e-06	-1.477538e-08	-2.097356e+01	-9.678907e+02
2.680000e-06	-3.057374e-06	-1.537318e-08	-2.197953e+01	-1.006410e+03
2.690000e-06	-3.196034e-06	-1.592263e-08	-2.297636e+01	-1.042092e+03
2.700000e-06	-3.333482e-06	-1.642889e-08	-2.396448e+01	-1.075321e+03
2.710000e-06	-3.469632e-06	-1.689817e-08	-2.494326e+01	-1.106356e+03
2.720000e-06	-3.604463e-06	-1.733732e-08	-2.591256e+01	-1.135354e+03
2.730000e-06	-3.738078e-06	-1.774909e-08	-2.687313e+01	-1.162409e+03
2.740000e-06	-3.870347e-06	-1.813498e-08	-2.782401e+01	-1.187601e+03
2.750000e-06	-4.001179e-06	-1.849303e-08	-2.876456e+01	-1.211035e+03
2.760000e-06	-4.130720e-06	-1.882637e-08	-2.969583e+01	-1.232853e+03
2.770000e-06	-4.258881e-06	-1.914264e-08	-3.061718e+01	-1.253237e+03
2.780000e-06	-4.385520e-06	-1.944091e-08	-3.152759e+01	-1.272384e+03
2.790000e-06	-4.510654e-06	-1.972041e-08	-3.242719e+01	-1.290477e+03
2.800000e-06	-4.634156e-06	-1.998236e-08	-3.331505e+01	-1.307659e+03
2.810000e-06	-4.756054e-06	-2.022995e-08	-3.419138e+01	-1.324020e+03
2.820000e-06	-4.876265e-06	-2.046714e-08	-3.505557e+01	-1.339592e+03
2.830000e-06	-4.994590e-06	-2.069280e-08	-3.590621e+01	-1.354373e+03
2.840000e-06	-5.110907e-06	-2.090798e-08	-3.674242e+01	-1.368342e+03
2.850000e-06	-5.225027e-06	-2.111218e-08	-3.756283e+01	-1.381492e+03
2.860000e-06	-5.337067e-06	-2.130434e-08	-3.836829e+01	-1.393842e+03
2.870000e-06	-5.447137e-06	-2.148326e-08	-3.915958e+01	-1.405449e+03
2.880000e-06	-5.555272e-06	-2.164998e-08	-3.993696e+01	-1.416396e+03
2.890000e-06	-5.661540e-06	-2.180793e-08	-4.070093e+01	-1.426778e+03
2.900000e-06	-5.765806e-06	-2.195765e-08	-4.145050e+01	-1.436676e+03
2.910000e-06	-5.867877e-06	-2.210147e-08	-4.218430e+01	-1.446145e+03
2.920000e-06	-5.967712e-06	-2.223949e-08	-4.290201e+01	-1.455198e+03
2.930000e-06	-6.065435e-06	-2.237244e-08	-4.360454e+01	-1.463818e+03
2.940000e-06	-6.161059e-06	-2.249849e-08	-4.429199e+01	-1.471963e+03
