# Temperatura_=_78.67
# Concentracion g/m^3_=_28200.0
# C_Vs_to_Am_M_A/Vsm_=_65563218390.804596
# pendiente_HvsI_1/m_=_3716.3
# ordenada_HvsI_A/m_=_1297.0
# frecuencia_Hz_=_302506.69628335896

Tiempo_(s)	Campo_(V.s)	Magnetizacion_(V.s)	Campo_(kA/m)	Magnetizacion_(A/m)
0.000000e+00	-7.841386e-06	-2.684117e-08	-5.684690e+01	-1.758383e+03
1.000000e-08	-7.837394e-06	-2.684221e-08	-5.681796e+01	-1.757686e+03
2.000000e-08	-7.830891e-06	-2.683391e-08	-5.677082e+01	-1.756851e+03
3.000000e-08	-7.821768e-06	-2.682194e-08	-5.670468e+01	-1.755935e+03
4.000000e-08	-7.809852e-06	-2.680842e-08	-5.661829e+01	-1.754973e+03
5.000000e-08	-7.795032e-06	-2.679071e-08	-5.651085e+01	-1.753964e+03
6.000000e-08	-7.777482e-06	-2.676378e-08	-5.638362e+01	-1.752871e+03
7.000000e-08	-7.757720e-06	-2.672884e-08	-5.624036e+01	-1.751637e+03
8.000000e-08	-7.735646e-06	-2.669905e-08	-5.608033e+01	-1.750203e+03
9.000000e-08	-7.710695e-06	-2.675319e-08	-5.589944e+01	-1.748530e+03
1.000000e-07	-7.682614e-06	-2.674021e-08	-5.569587e+01	-1.746613e+03
1.100000e-07	-7.651648e-06	-2.664648e-08	-5.547137e+01	-1.744486e+03
1.200000e-07	-7.617873e-06	-2.660749e-08	-5.522652e+01	-1.742214e+03
1.300000e-07	-7.581425e-06	-2.658748e-08	-5.496229e+01	-1.739871e+03
1.400000e-07	-7.542665e-06	-2.651534e-08	-5.468129e+01	-1.737520e+03
1.500000e-07	-7.501723e-06	-2.640671e-08	-5.438448e+01	-1.735187e+03
1.600000e-07	-7.458459e-06	-2.645350e-08	-5.407084e+01	-1.732854e+03
1.700000e-07	-7.412600e-06	-2.644080e-08	-5.373838e+01	-1.730455e+03
1.800000e-07	-7.364115e-06	-2.628674e-08	-5.338688e+01	-1.727892e+03
1.900000e-07	-7.312715e-06	-2.632481e-08	-5.301425e+01	-1.725060e+03
2.000000e-07	-7.258354e-06	-2.627236e-08	-5.262015e+01	-1.721872e+03
2.100000e-07	-7.201364e-06	-2.619285e-08	-5.220700e+01	-1.718281e+03
2.200000e-07	-7.141742e-06	-2.615543e-08	-5.177477e+01	-1.714290e+03
2.300000e-07	-7.079546e-06	-2.602972e-08	-5.132386e+01	-1.709947e+03
2.400000e-07	-7.014732e-06	-2.600034e-08	-5.085399e+01	-1.705329e+03
2.500000e-07	-6.947227e-06	-2.590359e-08	-5.036461e+01	-1.700519e+03
2.600000e-07	-6.877080e-06	-2.584074e-08	-4.985607e+01	-1.695577e+03
2.700000e-07	-6.804200e-06	-2.577042e-08	-4.932772e+01	-1.690525e+03
2.800000e-07	-6.728608e-06	-2.568283e-08	-4.877971e+01	-1.685338e+03
2.900000e-07	-6.650245e-06	-2.559319e-08	-4.821161e+01	-1.679959e+03
3.000000e-07	-6.569139e-06	-2.548398e-08	-4.762362e+01	-1.674310e+03
3.100000e-07	-6.485779e-06	-2.541950e-08	-4.701930e+01	-1.668321e+03
3.200000e-07	-6.400315e-06	-2.531221e-08	-4.639971e+01	-1.661950e+03
3.300000e-07	-6.312597e-06	-2.523192e-08	-4.576380e+01	-1.655192e+03
3.400000e-07	-6.222524e-06	-2.511728e-08	-4.511080e+01	-1.648082e+03
3.500000e-07	-6.130186e-06	-2.498380e-08	-4.444139e+01	-1.640674e+03
3.600000e-07	-6.035678e-06	-2.488847e-08	-4.375624e+01	-1.633027e+03
3.700000e-07	-5.938901e-06	-2.477394e-08	-4.305465e+01	-1.625173e+03
3.800000e-07	-5.839908e-06	-2.464811e-08	-4.233699e+01	-1.617111e+03
3.900000e-07	-5.738898e-06	-2.451772e-08	-4.160470e+01	-1.608795e+03
4.000000e-07	-5.635934e-06	-2.438817e-08	-4.085826e+01	-1.600145e+03
4.100000e-07	-5.530965e-06	-2.423170e-08	-4.009728e+01	-1.591073e+03
4.200000e-07	-5.424043e-06	-2.408352e-08	-3.932213e+01	-1.581500e+03
4.300000e-07	-5.315201e-06	-2.393922e-08	-3.853307e+01	-1.571381e+03
4.400000e-07	-5.204430e-06	-2.377786e-08	-3.773003e+01	-1.560715e+03
4.500000e-07	-5.091729e-06	-2.360727e-08	-3.691299e+01	-1.549540e+03
4.600000e-07	-4.977062e-06	-2.343569e-08	-3.608170e+01	-1.537918e+03
4.700000e-07	-4.860442e-06	-2.325301e-08	-3.523626e+01	-1.525904e+03
4.800000e-07	-4.742015e-06	-2.305586e-08	-3.437771e+01	-1.513526e+03
4.900000e-07	-4.621918e-06	-2.286034e-08	-3.350705e+01	-1.500764e+03
5.000000e-07	-4.500109e-06	-2.265880e-08	-3.262398e+01	-1.487547e+03
5.100000e-07	-4.376537e-06	-2.244235e-08	-3.172813e+01	-1.473765e+03
5.200000e-07	-4.251369e-06	-2.221198e-08	-3.082072e+01	-1.459295e+03
5.300000e-07	-4.124733e-06	-2.198077e-08	-2.990266e+01	-1.444028e+03
5.400000e-07	-3.996618e-06	-2.173650e-08	-2.897388e+01	-1.427896e+03
5.500000e-07	-3.866986e-06	-2.147678e-08	-2.803410e+01	-1.410885e+03
5.600000e-07	-3.735865e-06	-2.120502e-08	-2.708352e+01	-1.393025e+03
5.700000e-07	-3.603328e-06	-2.092565e-08	-2.612268e+01	-1.374369e+03
5.800000e-07	-3.469395e-06	-2.062968e-08	-2.515172e+01	-1.354962e+03
5.900000e-07	-3.334217e-06	-2.031914e-08	-2.417174e+01	-1.334801e+03
6.000000e-07	-3.197815e-06	-1.999731e-08	-2.318287e+01	-1.313819e+03
6.100000e-07	-3.060132e-06	-1.965787e-08	-2.218473e+01	-1.291875e+03
6.200000e-07	-2.921094e-06	-1.929874e-08	-2.117676e+01	-1.268773e+03
6.300000e-07	-2.780699e-06	-1.891704e-08	-2.015895e+01	-1.244291e+03
6.400000e-07	-2.639245e-06	-1.851597e-08	-1.913347e+01	-1.218226e+03
6.500000e-07	-2.496826e-06	-1.808996e-08	-1.810098e+01	-1.190420e+03
6.600000e-07	-2.353464e-06	-1.764243e-08	-1.706167e+01	-1.160777e+03
6.700000e-07	-2.209215e-06	-1.716709e-08	-1.601592e+01	-1.129249e+03
6.800000e-07	-2.064135e-06	-1.666062e-08	-1.496415e+01	-1.095800e+03
6.900000e-07	-1.918301e-06	-1.612355e-08	-1.390691e+01	-1.060357e+03
7.000000e-07	-1.771853e-06	-1.554884e-08	-1.284522e+01	-1.022760e+03
7.100000e-07	-1.624949e-06	-1.493351e-08	-1.178023e+01	-9.827255e+02
7.200000e-07	-1.477597e-06	-1.427143e-08	-1.071199e+01	-9.398580e+02
7.300000e-07	-1.329773e-06	-1.355688e-08	-9.640324e+00	-8.936865e+02
7.400000e-07	-1.181490e-06	-1.278371e-08	-8.565331e+00	-8.437453e+02
7.500000e-07	-1.032781e-06	-1.195510e-08	-7.487248e+00	-7.896724e+02
7.600000e-07	-8.837132e-07	-1.107387e-08	-6.406566e+00	-7.313036e+02
7.700000e-07	-7.344014e-07	-1.013551e-08	-5.324115e+00	-6.687389e+02
7.800000e-07	-5.849282e-07	-9.136237e-09	-4.240494e+00	-6.023573e+02
7.900000e-07	-4.353238e-07	-8.081713e-09	-3.155923e+00	-5.327729e+02
8.000000e-07	-2.855854e-07	-6.981126e-09	-2.070380e+00	-4.607350e+02
8.100000e-07	-1.357422e-07	-5.844933e-09	-9.840766e-01	-3.869935e+02
8.200000e-07	1.420904e-08	-4.689185e-09	1.030099e-01	-3.121577e+02
8.300000e-07	1.641984e-07	-3.527367e-09	1.190373e+00	-2.365851e+02
8.400000e-07	3.141317e-07	-2.365054e-09	2.277328e+00	-1.603273e+02
8.500000e-07	4.640243e-07	-1.195462e-09	3.363990e+00	-8.315189e+01
8.600000e-07	6.138222e-07	-1.186639e-11	4.449964e+00	-4.638963e+00
8.700000e-07	7.634042e-07	1.195463e-09	5.534374e+00	7.566597e+01
8.800000e-07	9.127596e-07	2.437232e-09	6.617140e+00	1.580753e+02
8.900000e-07	1.061887e-06	3.720258e-09	7.698251e+00	2.425992e+02
9.000000e-07	1.210735e-06	5.038966e-09	8.777340e+00	3.288398e+02
9.100000e-07	1.359254e-06	6.378523e-09	9.854047e+00	4.159659e+02
9.200000e-07	1.507271e-06	7.718347e-09	1.092711e+01	5.027765e+02
9.300000e-07	1.654667e-06	9.025147e-09	1.199567e+01	5.878427e+02
9.400000e-07	1.801429e-06	1.026953e-08	1.305964e+01	6.696984e+02
9.500000e-07	1.947589e-06	1.142988e-08	1.411924e+01	7.470410e+02
9.600000e-07	2.093042e-06	1.250034e-08	1.517372e+01	8.189010e+02
9.700000e-07	2.237702e-06	1.348339e-08	1.622244e+01	8.847486e+02
9.800000e-07	2.381573e-06	1.438164e-08	1.726545e+01	9.445180e+02
9.900000e-07	2.524519e-06	1.520443e-08	1.830175e+01	9.985521e+02
1.000000e-06	2.666452e-06	1.595432e-08	1.933071e+01	1.047484e+03
1.010000e-06	2.807291e-06	1.664011e-08	2.035173e+01	1.092086e+03
1.020000e-06	2.946908e-06	1.726997e-08	2.136390e+01	1.133123e+03
1.030000e-06	3.085303e-06	1.785312e-08	2.236721e+01	1.171236e+03
1.040000e-06	3.222553e-06	1.839487e-08	2.336222e+01	1.206877e+03
1.050000e-06	3.358532e-06	1.889787e-08	2.434801e+01	1.240306e+03
1.060000e-06	3.493192e-06	1.936533e-08	2.532424e+01	1.271632e+03
1.070000e-06	3.626669e-06	1.980080e-08	2.629190e+01	1.300883e+03
1.080000e-06	3.758881e-06	2.020943e-08	2.725038e+01	1.328082e+03
1.090000e-06	3.889663e-06	2.059225e-08	2.819850e+01	1.353304e+03
1.100000e-06	4.019063e-06	2.095359e-08	2.913659e+01	1.376704e+03
1.110000e-06	4.147073e-06	2.129224e-08	3.006462e+01	1.398508e+03
1.120000e-06	4.273601e-06	2.161247e-08	3.098189e+01	1.418979e+03
1.130000e-06	4.398752e-06	2.191382e-08	3.188919e+01	1.438369e+03
1.140000e-06	4.522425e-06	2.219577e-08	3.278577e+01	1.456874e+03
1.150000e-06	4.644418e-06	2.246126e-08	3.367016e+01	1.474605e+03
1.160000e-06	4.764757e-06	2.271307e-08	3.454257e+01	1.491589e+03
1.170000e-06	4.883402e-06	2.295190e-08	3.540271e+01	1.507786e+03
1.180000e-06	5.000269e-06	2.317961e-08	3.624994e+01	1.523131e+03
1.190000e-06	5.115235e-06	2.339670e-08	3.708340e+01	1.537573e+03
1.200000e-06	5.228229e-06	2.360275e-08	3.790256e+01	1.551107e+03
1.210000e-06	5.339216e-06	2.379695e-08	3.870717e+01	1.563789e+03
1.220000e-06	5.448288e-06	2.398062e-08	3.949790e+01	1.575727e+03
1.230000e-06	5.555461e-06	2.415644e-08	4.027486e+01	1.587059e+03
1.240000e-06	5.660620e-06	2.432403e-08	4.103723e+01	1.597915e+03
1.250000e-06	5.763679e-06	2.448476e-08	4.178436e+01	1.608386e+03
1.260000e-06	5.864629e-06	2.463776e-08	4.251620e+01	1.618507e+03
1.270000e-06	5.963436e-06	2.478388e-08	4.323252e+01	1.628253e+03
1.280000e-06	6.059931e-06	2.492365e-08	4.393207e+01	1.637557e+03
1.290000e-06	6.154169e-06	2.505466e-08	4.461526e+01	1.646337e+03
1.300000e-06	6.246248e-06	2.517997e-08	4.528279e+01	1.654531e+03
1.310000e-06	6.336083e-06	2.529802e-08	4.593406e+01	1.662120e+03
1.320000e-06	6.423596e-06	2.540623e-08	4.656850e+01	1.669139e+03
1.330000e-06	6.508882e-06	2.550761e-08	4.718678e+01	1.675676e+03
1.340000e-06	6.591925e-06	2.560449e-08	4.778881e+01	1.681844e+03
1.350000e-06	6.672555e-06	2.569778e-08	4.837334e+01	1.687757e+03
1.360000e-06	6.750767e-06	2.578619e-08	4.894035e+01	1.693503e+03
1.370000e-06	6.826501e-06	2.587109e-08	4.948939e+01	1.699119e+03
1.380000e-06	6.899627e-06	2.595076e-08	5.001952e+01	1.704596e+03
1.390000e-06	6.970247e-06	2.602576e-08	5.053149e+01	1.709879e+03
1.400000e-06	7.038485e-06	2.610018e-08	5.102619e+01	1.714900e+03
1.410000e-06	7.104165e-06	2.617200e-08	5.150234e+01	1.719596e+03
1.420000e-06	7.167230e-06	2.623989e-08	5.195954e+01	1.723933e+03
1.430000e-06	7.227917e-06	2.630367e-08	5.239950e+01	1.727918e+03
1.440000e-06	7.286122e-06	2.636109e-08	5.282146e+01	1.731596e+03
1.450000e-06	7.341664e-06	2.641335e-08	5.322412e+01	1.735033e+03
1.460000e-06	7.394409e-06	2.646293e-08	5.360650e+01	1.738297e+03
1.470000e-06	7.444065e-06	2.651138e-08	5.396648e+01	1.741432e+03
1.480000e-06	7.490828e-06	2.655765e-08	5.430549e+01	1.744449e+03
1.490000e-06	7.535064e-06	2.660138e-08	5.462619e+01	1.747319e+03
1.500000e-06	7.576630e-06	2.664218e-08	5.492753e+01	1.749987e+03
1.510000e-06	7.615447e-06	2.667806e-08	5.520893e+01	1.752385e+03
1.520000e-06	7.651716e-06	2.670910e-08	5.547187e+01	1.754464e+03
1.530000e-06	7.685331e-06	2.673468e-08	5.571556e+01	1.756202e+03
1.540000e-06	7.716085e-06	2.675697e-08	5.593852e+01	1.757620e+03
1.550000e-06	7.744123e-06	2.677614e-08	5.614179e+01	1.758773e+03
1.560000e-06	7.769355e-06	2.679336e-08	5.632471e+01	1.759738e+03
1.570000e-06	7.791732e-06	2.680958e-08	5.648693e+01	1.760589e+03
1.580000e-06	7.811443e-06	2.682449e-08	5.662982e+01	1.761379e+03
1.590000e-06	7.828385e-06	2.683854e-08	5.675265e+01	1.762122e+03
1.600000e-06	7.842366e-06	2.684858e-08	5.685401e+01	1.762795e+03
1.610000e-06	7.853219e-06	2.685517e-08	5.693269e+01	1.763344e+03
1.620000e-06	7.860988e-06	2.685916e-08	5.698901e+01	1.763702e+03
1.630000e-06	7.865988e-06	2.686176e-08	5.702526e+01	1.763814e+03
1.640000e-06	7.868229e-06	2.686241e-08	5.704150e+01	1.763652e+03
1.650000e-06	7.867648e-06	2.686088e-08	5.703729e+01	1.763226e+03
1.660000e-06	7.864472e-06	2.684662e-08	5.701427e+01	1.762579e+03
1.670000e-06	7.858656e-06	2.683585e-08	5.697210e+01	1.761775e+03
1.680000e-06	7.850184e-06	2.682636e-08	5.691068e+01	1.760876e+03
1.690000e-06	7.839153e-06	2.681294e-08	5.683071e+01	1.759925e+03
1.700000e-06	7.825321e-06	2.679869e-08	5.673044e+01	1.758930e+03
1.710000e-06	7.808817e-06	2.679153e-08	5.661079e+01	1.757864e+03
1.720000e-06	7.790091e-06	2.679251e-08	5.647503e+01	1.756675e+03
1.730000e-06	7.769038e-06	2.674968e-08	5.632241e+01	1.755302e+03
1.740000e-06	7.745000e-06	2.662171e-08	5.614814e+01	1.753698e+03
1.750000e-06	7.717371e-06	2.662933e-08	5.594784e+01	1.751848e+03
1.760000e-06	7.686239e-06	2.664943e-08	5.572215e+01	1.749774e+03
1.770000e-06	7.652379e-06	2.658705e-08	5.547668e+01	1.747535e+03
1.780000e-06	7.616321e-06	2.656887e-08	5.521527e+01	1.745203e+03
1.790000e-06	7.577966e-06	2.665329e-08	5.493721e+01	1.742848e+03
1.800000e-06	7.537625e-06	2.654906e-08	5.464476e+01	1.740509e+03
1.810000e-06	7.495226e-06	2.643762e-08	5.433738e+01	1.738179e+03
1.820000e-06	7.450110e-06	2.655347e-08	5.401031e+01	1.735806e+03
1.830000e-06	7.402363e-06	2.639906e-08	5.366416e+01	1.733300e+03
1.840000e-06	7.351869e-06	2.642471e-08	5.329810e+01	1.730554e+03
1.850000e-06	7.298377e-06	2.635320e-08	5.291030e+01	1.727473e+03
1.860000e-06	7.242111e-06	2.623809e-08	5.250240e+01	1.723998e+03
1.870000e-06	7.183271e-06	2.631885e-08	5.207583e+01	1.720116e+03
1.880000e-06	7.121910e-06	2.614451e-08	5.163099e+01	1.715865e+03
1.890000e-06	7.057762e-06	2.616055e-08	5.116594e+01	1.711316e+03
1.900000e-06	6.990838e-06	2.608153e-08	5.068077e+01	1.706552e+03
1.910000e-06	6.921268e-06	2.595066e-08	5.017642e+01	1.701642e+03
1.920000e-06	6.848920e-06	2.592161e-08	4.965192e+01	1.696620e+03
1.930000e-06	6.773975e-06	2.579766e-08	4.910860e+01	1.691475e+03
1.940000e-06	6.696330e-06	2.580009e-08	4.854571e+01	1.686157e+03
1.950000e-06	6.616018e-06	2.566471e-08	4.796348e+01	1.680591e+03
1.960000e-06	6.533300e-06	2.557991e-08	4.736380e+01	1.674704e+03
1.970000e-06	6.448187e-06	2.547001e-08	4.674677e+01	1.668443e+03
1.980000e-06	6.360687e-06	2.534391e-08	4.611243e+01	1.661792e+03
1.990000e-06	6.270837e-06	2.529694e-08	4.546105e+01	1.654776e+03
2.000000e-06	6.178858e-06	2.515174e-08	4.479424e+01	1.647446e+03
2.010000e-06	6.084674e-06	2.507315e-08	4.411145e+01	1.639860e+03
2.020000e-06	5.988230e-06	2.492884e-08	4.341226e+01	1.632063e+03
2.030000e-06	5.889683e-06	2.480252e-08	4.269783e+01	1.624062e+03
2.040000e-06	5.789182e-06	2.466208e-08	4.196925e+01	1.615823e+03
2.050000e-06	5.686623e-06	2.454501e-08	4.122573e+01	1.607277e+03
2.060000e-06	5.581929e-06	2.442040e-08	4.046674e+01	1.598333e+03
2.070000e-06	5.475343e-06	2.425354e-08	3.969404e+01	1.588908e+03
2.080000e-06	5.366945e-06	2.411226e-08	3.890820e+01	1.578946e+03
2.090000e-06	5.256667e-06	2.394670e-08	3.810873e+01	1.568432e+03
2.100000e-06	5.144404e-06	2.379447e-08	3.729486e+01	1.557396e+03
2.110000e-06	5.030256e-06	2.361425e-08	3.646734e+01	1.545893e+03
2.120000e-06	4.914225e-06	2.345030e-08	3.562616e+01	1.533985e+03
2.130000e-06	4.796181e-06	2.325589e-08	3.477038e+01	1.521709e+03
2.140000e-06	4.676188e-06	2.305304e-08	3.390048e+01	1.509061e+03
2.150000e-06	4.554453e-06	2.284769e-08	3.301796e+01	1.495982e+03
2.160000e-06	4.431123e-06	2.264640e-08	3.212386e+01	1.482373e+03
2.170000e-06	4.306256e-06	2.243185e-08	3.121863e+01	1.468110e+03
2.180000e-06	4.179819e-06	2.219837e-08	3.030201e+01	1.453078e+03
2.190000e-06	4.051734e-06	2.196305e-08	2.937344e+01	1.437196e+03
2.200000e-06	3.922126e-06	2.170966e-08	2.843384e+01	1.420434e+03
2.210000e-06	3.791117e-06	2.144300e-08	2.748408e+01	1.402810e+03
2.220000e-06	3.658757e-06	2.116133e-08	2.652452e+01	1.384374e+03
2.230000e-06	3.525078e-06	2.087803e-08	2.555540e+01	1.365178e+03
2.240000e-06	3.390034e-06	2.057324e-08	2.457638e+01	1.345235e+03
2.250000e-06	3.253591e-06	2.025645e-08	2.358723e+01	1.324497e+03
2.260000e-06	3.115916e-06	1.992269e-08	2.258914e+01	1.302845e+03
2.270000e-06	2.977137e-06	1.957643e-08	2.158305e+01	1.280094e+03
2.280000e-06	2.837204e-06	1.920873e-08	2.056859e+01	1.256027e+03
2.290000e-06	2.696136e-06	1.881781e-08	1.954590e+01	1.230432e+03
2.300000e-06	2.554054e-06	1.840246e-08	1.851586e+01	1.203135e+03
2.310000e-06	2.411048e-06	1.796391e-08	1.747913e+01	1.174021e+03
2.320000e-06	2.267096e-06	1.750087e-08	1.643553e+01	1.143033e+03
2.330000e-06	2.122302e-06	1.700800e-08	1.538584e+01	1.110137e+03
2.340000e-06	1.976876e-06	1.648034e-08	1.433156e+01	1.075274e+03
2.350000e-06	1.830878e-06	1.591389e-08	1.327313e+01	1.038314e+03
2.360000e-06	1.684284e-06	1.531064e-08	1.221038e+01	9.990104e+02
2.370000e-06	1.537142e-06	1.466438e-08	1.114366e+01	9.569970e+02
2.380000e-06	1.389587e-06	1.397039e-08	1.007395e+01	9.118176e+02
2.390000e-06	1.241649e-06	1.322338e-08	9.001454e+00	8.629954e+02
2.400000e-06	1.093204e-06	1.241726e-08	7.925288e+00	8.101285e+02
2.410000e-06	9.442252e-07	1.154862e-08	6.845254e+00	7.529878e+02
2.420000e-06	7.948951e-07	1.062065e-08	5.762670e+00	6.915938e+02
2.430000e-06	6.453543e-07	9.634791e-09	4.678559e+00	6.262474e+02
2.440000e-06	4.956175e-07	8.593015e-09	3.593028e+00	5.575038e+02
2.450000e-06	3.457492e-07	7.502872e-09	2.506543e+00	4.860863e+02
2.460000e-06	1.957800e-07	6.378671e-09	1.419326e+00	4.127593e+02
2.470000e-06	4.569908e-08	5.227715e-09	3.313000e-01	3.381856e+02
2.480000e-06	-1.044089e-07	4.062322e-09	-7.569224e-01	2.628032e+02
2.490000e-06	-2.544843e-07	2.893749e-09	-1.844909e+00	1.867522e+02
2.500000e-06	-4.045079e-07	1.718826e-09	-2.932520e+00	1.098747e+02
2.510000e-06	-5.544717e-07	5.301447e-10	-4.019697e+00	3.179064e+01
2.520000e-06	-7.042856e-07	-6.794040e-10	-5.105788e+00	-4.796233e+01
2.530000e-06	-8.538940e-07	-1.915487e-09	-6.190389e+00	-1.297550e+02
2.540000e-06	-1.003260e-06	-3.186782e-09	-7.273231e+00	-2.136977e+02
2.550000e-06	-1.152228e-06	-4.496083e-09	-8.353193e+00	-2.995156e+02
2.560000e-06	-1.300764e-06	-5.833788e-09	-9.430018e+00	-3.864985e+02
2.570000e-06	-1.448829e-06	-7.179764e-09	-1.050343e+01	-4.735398e+02
2.580000e-06	-1.596349e-06	-8.507923e-09	-1.157289e+01	-5.592577e+02
2.590000e-06	-1.743253e-06	-9.787807e-09	-1.263789e+01	-6.421758e+02
2.600000e-06	-1.889480e-06	-1.099300e-08	-1.369797e+01	-7.209253e+02
2.610000e-06	-2.035108e-06	-1.210823e-08	-1.475371e+01	-7.944277e+02
2.620000e-06	-2.180109e-06	-1.312923e-08	-1.580492e+01	-8.620212e+02
2.630000e-06	-2.324161e-06	-1.406180e-08	-1.684924e+01	-9.235098e+02
2.640000e-06	-2.467092e-06	-1.491305e-08	-1.788543e+01	-9.791294e+02
2.650000e-06	-2.608996e-06	-1.569212e-08	-1.891417e+01	-1.029445e+03
2.660000e-06	-2.749925e-06	-1.640620e-08	-1.993585e+01	-1.075205e+03
2.670000e-06	-2.889796e-06	-1.706257e-08	-2.094986e+01	-1.117189e+03
2.680000e-06	-3.028470e-06	-1.766897e-08	-2.195519e+01	-1.156084e+03
2.690000e-06	-3.166013e-06	-1.822876e-08	-2.295232e+01	-1.192398e+03
2.700000e-06	-3.302398e-06	-1.874424e-08	-2.394106e+01	-1.226444e+03
2.710000e-06	-3.437468e-06	-1.922175e-08	-2.492026e+01	-1.258367e+03
2.720000e-06	-3.571306e-06	-1.966891e-08	-2.589053e+01	-1.288211e+03
2.730000e-06	-3.703903e-06	-2.008978e-08	-2.685181e+01	-1.315993e+03
2.740000e-06	-3.835066e-06	-2.048497e-08	-2.780269e+01	-1.341769e+03
2.750000e-06	-3.964916e-06	-2.085316e-08	-2.874405e+01	-1.365671e+03
2.760000e-06	-4.093490e-06	-2.119561e-08	-2.967616e+01	-1.387906e+03
2.770000e-06	-4.220621e-06	-2.151796e-08	-3.059781e+01	-1.408732e+03
2.780000e-06	-4.346344e-06	-2.182527e-08	-3.150925e+01	-1.428410e+03
2.790000e-06	-4.470524e-06	-2.211782e-08	-3.240950e+01	-1.447153e+03
2.800000e-06	-4.593029e-06	-2.239385e-08	-3.329762e+01	-1.465101e+03
2.810000e-06	-4.713911e-06	-2.265229e-08	-3.417397e+01	-1.482301e+03
2.820000e-06	-4.833029e-06	-2.289654e-08	-3.503752e+01	-1.498731e+03
2.830000e-06	-4.950244e-06	-2.313030e-08	-3.588728e+01	-1.514328e+03
2.840000e-06	-5.065454e-06	-2.335564e-08	-3.672251e+01	-1.529032e+03
2.850000e-06	-5.178592e-06	-2.357111e-08	-3.754272e+01	-1.542824e+03
2.860000e-06	-5.289704e-06	-2.377445e-08	-3.834823e+01	-1.555742e+03
2.870000e-06	-5.398859e-06	-2.396522e-08	-3.913956e+01	-1.567881e+03
2.880000e-06	-5.506211e-06	-2.414347e-08	-3.991782e+01	-1.579373e+03
2.890000e-06	-5.611739e-06	-2.431257e-08	-4.068285e+01	-1.590354e+03
2.900000e-06	-5.715176e-06	-2.447339e-08	-4.143273e+01	-1.600930e+03
2.910000e-06	-5.816386e-06	-2.462744e-08	-4.216646e+01	-1.611153e+03
2.920000e-06	-5.915465e-06	-2.477510e-08	-4.288475e+01	-1.621013e+03
2.930000e-06	-6.012542e-06	-2.491716e-08	-4.358851e+01	-1.630453e+03
2.940000e-06	-6.107534e-06	-2.505302e-08	-4.427717e+01	-1.639392e+03
