# Temperatura_=_52.43
# Concentracion g/m^3_=_28200.0
# C_Vs_to_Am_M_A/Vsm_=_65563218390.804596
# pendiente_HvsI_1/m_=_3716.3
# ordenada_HvsI_A/m_=_1297.0
# frecuencia_Hz_=_302508.9486546914

Tiempo_(s)	Campo_(V.s)	Magnetizacion_(V.s)	Campo_(kA/m)	Magnetizacion_(A/m)
0.000000e+00	-7.874487e-06	-2.450310e-08	-5.684012e+01	-1.604218e+03
1.000000e-08	-7.870156e-06	-2.450185e-08	-5.680886e+01	-1.603671e+03
2.000000e-08	-7.863302e-06	-2.449259e-08	-5.675939e+01	-1.603005e+03
3.000000e-08	-7.853808e-06	-2.448374e-08	-5.669085e+01	-1.602268e+03
4.000000e-08	-7.841520e-06	-2.447348e-08	-5.660215e+01	-1.601487e+03
5.000000e-08	-7.826298e-06	-2.445639e-08	-5.649228e+01	-1.600663e+03
6.000000e-08	-7.808366e-06	-2.443310e-08	-5.636284e+01	-1.599767e+03
7.000000e-08	-7.788236e-06	-2.440155e-08	-5.621753e+01	-1.598756e+03
8.000000e-08	-7.765779e-06	-2.439014e-08	-5.605544e+01	-1.597585e+03
9.000000e-08	-7.740366e-06	-2.445627e-08	-5.587200e+01	-1.596226e+03
1.000000e-07	-7.711747e-06	-2.441205e-08	-5.566542e+01	-1.594678e+03
1.100000e-07	-7.680236e-06	-2.432188e-08	-5.543796e+01	-1.592973e+03
1.200000e-07	-7.645957e-06	-2.430006e-08	-5.519053e+01	-1.591162e+03
1.300000e-07	-7.609023e-06	-2.427921e-08	-5.492393e+01	-1.589305e+03
1.400000e-07	-7.569805e-06	-2.420443e-08	-5.464085e+01	-1.587445e+03
1.500000e-07	-7.528422e-06	-2.411691e-08	-5.434213e+01	-1.585597e+03
1.600000e-07	-7.484668e-06	-2.422445e-08	-5.402630e+01	-1.583735e+03
1.700000e-07	-7.438300e-06	-2.416064e-08	-5.369161e+01	-1.581798e+03
1.800000e-07	-7.389181e-06	-2.401610e-08	-5.333706e+01	-1.579698e+03
1.900000e-07	-7.337150e-06	-2.409100e-08	-5.296148e+01	-1.577350e+03
2.000000e-07	-7.282280e-06	-2.399974e-08	-5.256542e+01	-1.574687e+03
2.100000e-07	-7.224716e-06	-2.393403e-08	-5.214990e+01	-1.571676e+03
2.200000e-07	-7.164498e-06	-2.389745e-08	-5.171523e+01	-1.568333e+03
2.300000e-07	-7.101695e-06	-2.381686e-08	-5.126191e+01	-1.564707e+03
2.400000e-07	-7.036184e-06	-2.380598e-08	-5.078903e+01	-1.560868e+03
2.500000e-07	-6.967983e-06	-2.371371e-08	-5.029674e+01	-1.556884e+03
2.600000e-07	-6.897129e-06	-2.367567e-08	-4.978529e+01	-1.552799e+03
2.700000e-07	-6.823566e-06	-2.359628e-08	-4.925430e+01	-1.548620e+03
2.800000e-07	-6.747328e-06	-2.352969e-08	-4.870399e+01	-1.544313e+03
2.900000e-07	-6.668337e-06	-2.345311e-08	-4.813381e+01	-1.539814e+03
3.000000e-07	-6.586650e-06	-2.335326e-08	-4.754417e+01	-1.535050e+03
3.100000e-07	-6.502683e-06	-2.331061e-08	-4.693808e+01	-1.529958e+03
3.200000e-07	-6.416555e-06	-2.321414e-08	-4.631638e+01	-1.524508e+03
3.300000e-07	-6.328156e-06	-2.314269e-08	-4.567830e+01	-1.518705e+03
3.400000e-07	-6.237446e-06	-2.302836e-08	-4.502353e+01	-1.512591e+03
3.500000e-07	-6.144522e-06	-2.293835e-08	-4.435278e+01	-1.506227e+03
3.600000e-07	-6.049394e-06	-2.286015e-08	-4.366612e+01	-1.499668e+03
3.700000e-07	-5.951907e-06	-2.274890e-08	-4.296243e+01	-1.492948e+03
3.800000e-07	-5.852207e-06	-2.263936e-08	-4.224277e+01	-1.486059e+03
3.900000e-07	-5.750472e-06	-2.252273e-08	-4.150842e+01	-1.478952e+03
4.000000e-07	-5.646769e-06	-2.241537e-08	-4.075987e+01	-1.471545e+03
4.100000e-07	-5.541068e-06	-2.227795e-08	-3.999689e+01	-1.463745e+03
4.200000e-07	-5.433427e-06	-2.216363e-08	-3.921991e+01	-1.455475e+03
4.300000e-07	-5.323864e-06	-2.203817e-08	-3.842905e+01	-1.446688e+03
4.400000e-07	-5.212368e-06	-2.190066e-08	-3.762424e+01	-1.437382e+03
4.500000e-07	-5.098945e-06	-2.174729e-08	-3.680553e+01	-1.427592e+03
4.600000e-07	-4.983526e-06	-2.159285e-08	-3.597240e+01	-1.417377e+03
4.700000e-07	-4.866169e-06	-2.142946e-08	-3.512529e+01	-1.406794e+03
4.800000e-07	-4.747050e-06	-2.125522e-08	-3.426545e+01	-1.395870e+03
4.900000e-07	-4.626219e-06	-2.108639e-08	-3.339327e+01	-1.384588e+03
5.000000e-07	-4.503574e-06	-2.090372e-08	-3.250799e+01	-1.372882e+03
5.100000e-07	-4.379224e-06	-2.071498e-08	-3.161039e+01	-1.360647e+03
5.200000e-07	-4.253309e-06	-2.051077e-08	-3.070150e+01	-1.347768e+03
5.300000e-07	-4.125935e-06	-2.030395e-08	-2.978209e+01	-1.334138e+03
5.400000e-07	-3.997081e-06	-2.008037e-08	-2.885199e+01	-1.319691e+03
5.500000e-07	-3.866712e-06	-1.984872e-08	-2.791094e+01	-1.304409e+03
5.600000e-07	-3.734904e-06	-1.960481e-08	-2.695952e+01	-1.288314e+03
5.700000e-07	-3.601632e-06	-1.934977e-08	-2.599753e+01	-1.271456e+03
5.800000e-07	-3.466952e-06	-1.907959e-08	-2.502537e+01	-1.253871e+03
5.900000e-07	-3.331051e-06	-1.879625e-08	-2.404440e+01	-1.235560e+03
6.000000e-07	-3.193891e-06	-1.850491e-08	-2.305435e+01	-1.216461e+03
6.100000e-07	-3.055396e-06	-1.819616e-08	-2.205465e+01	-1.196447e+03
6.200000e-07	-2.915572e-06	-1.787323e-08	-2.104536e+01	-1.175338e+03
6.300000e-07	-2.774480e-06	-1.752418e-08	-2.002693e+01	-1.152932e+03
6.400000e-07	-2.632272e-06	-1.715490e-08	-1.900043e+01	-1.129040e+03
6.500000e-07	-2.488978e-06	-1.676344e-08	-1.796610e+01	-1.103510e+03
6.600000e-07	-2.344791e-06	-1.635179e-08	-1.692532e+01	-1.076245e+03
6.700000e-07	-2.199862e-06	-1.591385e-08	-1.587918e+01	-1.047189e+03
6.800000e-07	-2.054155e-06	-1.544720e-08	-1.482743e+01	-1.016292e+03
6.900000e-07	-1.907684e-06	-1.495187e-08	-1.377016e+01	-9.834673e+02
7.000000e-07	-1.760552e-06	-1.441726e-08	-1.270813e+01	-9.485461e+02
7.100000e-07	-1.612969e-06	-1.384653e-08	-1.164283e+01	-9.112537e+02
7.200000e-07	-1.465021e-06	-1.323007e-08	-1.057491e+01	-8.712150e+02
7.300000e-07	-1.316654e-06	-1.256401e-08	-9.503958e+00	-8.279979e+02
7.400000e-07	-1.167824e-06	-1.184189e-08	-8.429663e+00	-7.811893e+02
7.500000e-07	-1.018555e-06	-1.106493e-08	-7.352201e+00	-7.304881e+02
7.600000e-07	-8.688618e-07	-1.023575e-08	-6.271673e+00	-6.757933e+02
7.700000e-07	-7.188143e-07	-9.353242e-09	-5.188591e+00	-6.172629e+02
7.800000e-07	-5.685612e-07	-8.419195e-09	-4.104024e+00	-5.553249e+02
7.900000e-07	-4.181431e-07	-7.438091e-09	-3.018267e+00	-4.906299e+02
8.000000e-07	-2.675594e-07	-6.421054e-09	-1.931314e+00	-4.239522e+02
8.100000e-07	-1.168400e-07	-5.376768e-09	-8.433818e-01	-3.560555e+02
8.200000e-07	3.395534e-08	-4.323009e-09	2.450986e-01	-2.875544e+02
8.300000e-07	1.847265e-07	-3.270189e-09	1.333404e+00	-2.188030e+02
8.400000e-07	3.354429e-07	-2.220331e-09	2.421315e+00	-1.498390e+02
8.500000e-07	4.860658e-07	-1.166457e-09	3.508551e+00	-8.040106e+01
8.600000e-07	6.365311e-07	-1.019134e-10	4.594649e+00	-1.001896e+01
8.700000e-07	7.868437e-07	9.812942e-10	5.679645e+00	6.184004e+01
8.800000e-07	9.369387e-07	2.095462e-09	6.763070e+00	1.355986e+02
8.900000e-07	1.086714e-06	3.244887e-09	7.844190e+00	2.114091e+02
9.000000e-07	1.236070e-06	4.428370e-09	8.922282e+00	2.890414e+02
9.100000e-07	1.384935e-06	5.637658e-09	9.996824e+00	3.678455e+02
9.200000e-07	1.533360e-06	6.854940e-09	1.106819e+01	4.467977e+02
9.300000e-07	1.681297e-06	8.050021e-09	1.213605e+01	5.246235e+02
9.400000e-07	1.828634e-06	9.195814e-09	1.319956e+01	5.999695e+02
9.500000e-07	1.975349e-06	1.027414e-08	1.425859e+01	6.715913e+02
9.600000e-07	2.121403e-06	1.127708e-08	1.531285e+01	7.385174e+02
9.700000e-07	2.266626e-06	1.220089e-08	1.636110e+01	8.001586e+02
9.800000e-07	2.410884e-06	1.304482e-08	1.740240e+01	8.563444e+02
9.900000e-07	2.554207e-06	1.381650e-08	1.843694e+01	9.072861e+02
1.000000e-06	2.696591e-06	1.452057e-08	1.946471e+01	9.534787e+02
1.010000e-06	2.837965e-06	1.516662e-08	2.048518e+01	9.955709e+02
1.020000e-06	2.978166e-06	1.576017e-08	2.149719e+01	1.034232e+03
1.030000e-06	3.117079e-06	1.630879e-08	2.249990e+01	1.070043e+03
1.040000e-06	3.254730e-06	1.681704e-08	2.349350e+01	1.103434e+03
1.050000e-06	3.391109e-06	1.728695e-08	2.447792e+01	1.134672e+03
1.060000e-06	3.526191e-06	1.772563e-08	2.545298e+01	1.163888e+03
1.070000e-06	3.660018e-06	1.813438e-08	2.641898e+01	1.191136e+03
1.080000e-06	3.792570e-06	1.851668e-08	2.737577e+01	1.216458e+03
1.090000e-06	3.923731e-06	1.887173e-08	2.832253e+01	1.239933e+03
1.100000e-06	4.053511e-06	1.920329e-08	2.925931e+01	1.261704e+03
1.110000e-06	4.181846e-06	1.951522e-08	3.018567e+01	1.281971e+03
1.120000e-06	4.308646e-06	1.981126e-08	3.110094e+01	1.300965e+03
1.130000e-06	4.434031e-06	2.008994e-08	3.200600e+01	1.318911e+03
1.140000e-06	4.557893e-06	2.035043e-08	3.290007e+01	1.335982e+03
1.150000e-06	4.680184e-06	2.059791e-08	3.378280e+01	1.352283e+03
1.160000e-06	4.800861e-06	2.083413e-08	3.465388e+01	1.367846e+03
1.170000e-06	4.919774e-06	2.105451e-08	3.551223e+01	1.382644e+03
1.180000e-06	5.036885e-06	2.126024e-08	3.635756e+01	1.396631e+03
1.190000e-06	5.152056e-06	2.145408e-08	3.718890e+01	1.409770e+03
1.200000e-06	5.265194e-06	2.163667e-08	3.800556e+01	1.422061e+03
1.210000e-06	5.376359e-06	2.181167e-08	3.880798e+01	1.433559e+03
1.220000e-06	5.485673e-06	2.197924e-08	3.959703e+01	1.444361e+03
1.230000e-06	5.593099e-06	2.214121e-08	4.037246e+01	1.454586e+03
1.240000e-06	5.698472e-06	2.229592e-08	4.113307e+01	1.464347e+03
1.250000e-06	5.801691e-06	2.244159e-08	4.187813e+01	1.473724e+03
1.260000e-06	5.902828e-06	2.257901e-08	4.260816e+01	1.482747e+03
1.270000e-06	6.001823e-06	2.270868e-08	4.332274e+01	1.491396e+03
1.280000e-06	6.098486e-06	2.283042e-08	4.402047e+01	1.499614e+03
1.290000e-06	6.192896e-06	2.294304e-08	4.470195e+01	1.507339e+03
1.300000e-06	6.285136e-06	2.304844e-08	4.536776e+01	1.514521e+03
1.310000e-06	6.375128e-06	2.314762e-08	4.601735e+01	1.521156e+03
1.320000e-06	6.462777e-06	2.324212e-08	4.665003e+01	1.527286e+03
1.330000e-06	6.548170e-06	2.333303e-08	4.726641e+01	1.532995e+03
1.340000e-06	6.631360e-06	2.342049e-08	4.786690e+01	1.538391e+03
1.350000e-06	6.712130e-06	2.350462e-08	4.844992e+01	1.543578e+03
1.360000e-06	6.790377e-06	2.358359e-08	4.901473e+01	1.548634e+03
1.370000e-06	6.866019e-06	2.365841e-08	4.956073e+01	1.553590e+03
1.380000e-06	6.938970e-06	2.372799e-08	5.008731e+01	1.558429e+03
1.390000e-06	7.009432e-06	2.379280e-08	5.059593e+01	1.563097e+03
1.400000e-06	7.077544e-06	2.385520e-08	5.108758e+01	1.567523e+03
1.410000e-06	7.143102e-06	2.391731e-08	5.156079e+01	1.571645e+03
1.420000e-06	7.206092e-06	2.397753e-08	5.201547e+01	1.575427e+03
1.430000e-06	7.266686e-06	2.403337e-08	5.245285e+01	1.578872e+03
1.440000e-06	7.324719e-06	2.408422e-08	5.287175e+01	1.582020e+03
1.450000e-06	7.380143e-06	2.413112e-08	5.327182e+01	1.584933e+03
1.460000e-06	7.432862e-06	2.417426e-08	5.365236e+01	1.587677e+03
1.470000e-06	7.482493e-06	2.421411e-08	5.401060e+01	1.590298e+03
1.480000e-06	7.529201e-06	2.425109e-08	5.434775e+01	1.592815e+03
1.490000e-06	7.573382e-06	2.428476e-08	5.466667e+01	1.595207e+03
1.500000e-06	7.614850e-06	2.431534e-08	5.496599e+01	1.597433e+03
1.510000e-06	7.653463e-06	2.434372e-08	5.524471e+01	1.599436e+03
1.520000e-06	7.689467e-06	2.437218e-08	5.550460e+01	1.601171e+03
1.530000e-06	7.722750e-06	2.439751e-08	5.574484e+01	1.602621e+03
1.540000e-06	7.753231e-06	2.441912e-08	5.596486e+01	1.603800e+03
1.550000e-06	7.781047e-06	2.443713e-08	5.616564e+01	1.604754e+03
1.560000e-06	7.805992e-06	2.445179e-08	5.634571e+01	1.605548e+03
1.570000e-06	7.828067e-06	2.446346e-08	5.650505e+01	1.606248e+03
1.580000e-06	7.847513e-06	2.447291e-08	5.664541e+01	1.606900e+03
1.590000e-06	7.864130e-06	2.448289e-08	5.676536e+01	1.607520e+03
1.600000e-06	7.877745e-06	2.449103e-08	5.686364e+01	1.608089e+03
1.610000e-06	7.888288e-06	2.449775e-08	5.693974e+01	1.608563e+03
1.620000e-06	7.895790e-06	2.450343e-08	5.699389e+01	1.608887e+03
1.630000e-06	7.900494e-06	2.450814e-08	5.702784e+01	1.609012e+03
1.640000e-06	7.902386e-06	2.451133e-08	5.704150e+01	1.608913e+03
1.650000e-06	7.901481e-06	2.451078e-08	5.703497e+01	1.608595e+03
1.660000e-06	7.897972e-06	2.449590e-08	5.700964e+01	1.608092e+03
1.670000e-06	7.891747e-06	2.448774e-08	5.696471e+01	1.607453e+03
1.680000e-06	7.882859e-06	2.447893e-08	5.690055e+01	1.606731e+03
1.690000e-06	7.871403e-06	2.446563e-08	5.681786e+01	1.605961e+03
1.700000e-06	7.857148e-06	2.445661e-08	5.671496e+01	1.605149e+03
1.710000e-06	7.840291e-06	2.445677e-08	5.659328e+01	1.604277e+03
1.720000e-06	7.821191e-06	2.446300e-08	5.645542e+01	1.603302e+03
1.730000e-06	7.799652e-06	2.439136e-08	5.629994e+01	1.602180e+03
1.740000e-06	7.775049e-06	2.428895e-08	5.612235e+01	1.600875e+03
1.750000e-06	7.746825e-06	2.433431e-08	5.591862e+01	1.599378e+03
1.760000e-06	7.715156e-06	2.434543e-08	5.569002e+01	1.597712e+03
1.770000e-06	7.680899e-06	2.428806e-08	5.544275e+01	1.595924e+03
1.780000e-06	7.644406e-06	2.430139e-08	5.517934e+01	1.594074e+03
1.790000e-06	7.605635e-06	2.438590e-08	5.489948e+01	1.592210e+03
1.800000e-06	7.564925e-06	2.420215e-08	5.460562e+01	1.590359e+03
1.810000e-06	7.522060e-06	2.417684e-08	5.429621e+01	1.588505e+03
1.820000e-06	7.476435e-06	2.427458e-08	5.396688e+01	1.586596e+03
1.830000e-06	7.428146e-06	2.409186e-08	5.361832e+01	1.584551e+03
1.840000e-06	7.377018e-06	2.420645e-08	5.324926e+01	1.582281e+03
1.850000e-06	7.322904e-06	2.410050e-08	5.285865e+01	1.579711e+03
1.860000e-06	7.266055e-06	2.405413e-08	5.244830e+01	1.576800e+03
1.870000e-06	7.206551e-06	2.407922e-08	5.201878e+01	1.573547e+03
1.880000e-06	7.144426e-06	2.388998e-08	5.157035e+01	1.569994e+03
1.890000e-06	7.079522e-06	2.396397e-08	5.110185e+01	1.566207e+03
1.900000e-06	7.011943e-06	2.384641e-08	5.061405e+01	1.562257e+03
1.910000e-06	6.941681e-06	2.379873e-08	5.010688e+01	1.558198e+03
1.920000e-06	6.868639e-06	2.375614e-08	4.957964e+01	1.554046e+03
1.930000e-06	6.792996e-06	2.365029e-08	4.903363e+01	1.549780e+03
1.940000e-06	6.714622e-06	2.365628e-08	4.846791e+01	1.545342e+03
1.950000e-06	6.633697e-06	2.349782e-08	4.788377e+01	1.540660e+03
1.960000e-06	6.550394e-06	2.346191e-08	4.728247e+01	1.535666e+03
1.970000e-06	6.464595e-06	2.335374e-08	4.666315e+01	1.530318e+03
1.980000e-06	6.376397e-06	2.328453e-08	4.602651e+01	1.524612e+03
1.990000e-06	6.285971e-06	2.321638e-08	4.537379e+01	1.518580e+03
2.000000e-06	6.193381e-06	2.308686e-08	4.470545e+01	1.512280e+03
2.010000e-06	6.098486e-06	2.302336e-08	4.402048e+01	1.505771e+03
2.020000e-06	6.001359e-06	2.289221e-08	4.331939e+01	1.499095e+03
2.030000e-06	5.902173e-06	2.280472e-08	4.260344e+01	1.492256e+03
2.040000e-06	5.800917e-06	2.268050e-08	4.187255e+01	1.485217e+03
2.050000e-06	5.697562e-06	2.259292e-08	4.112651e+01	1.477904e+03
2.060000e-06	5.592218e-06	2.246042e-08	4.036610e+01	1.470225e+03
2.070000e-06	5.485029e-06	2.231881e-08	3.959238e+01	1.462094e+03
2.080000e-06	5.375967e-06	2.218827e-08	3.880514e+01	1.453456e+03
2.090000e-06	5.264850e-06	2.204965e-08	3.800307e+01	1.444295e+03
2.100000e-06	5.151702e-06	2.191949e-08	3.718634e+01	1.434636e+03
2.110000e-06	5.036741e-06	2.176746e-08	3.635652e+01	1.424536e+03
2.120000e-06	4.919889e-06	2.162666e-08	3.551305e+01	1.414053e+03
2.130000e-06	4.801068e-06	2.144890e-08	3.465537e+01	1.403224e+03
2.140000e-06	4.680352e-06	2.127314e-08	3.378401e+01	1.392048e+03
2.150000e-06	4.557920e-06	2.108518e-08	3.290027e+01	1.380471e+03
2.160000e-06	4.433869e-06	2.090718e-08	3.200484e+01	1.368398e+03
2.170000e-06	4.308177e-06	2.071221e-08	3.109755e+01	1.355714e+03
2.180000e-06	4.180905e-06	2.051067e-08	3.017887e+01	1.342306e+03
2.190000e-06	4.052163e-06	2.029742e-08	2.924958e+01	1.328096e+03
2.200000e-06	3.921939e-06	2.007301e-08	2.830959e+01	1.313050e+03
2.210000e-06	3.790223e-06	1.983544e-08	2.735883e+01	1.297182e+03
2.220000e-06	3.657083e-06	1.958609e-08	2.639779e+01	1.280536e+03
2.230000e-06	3.522567e-06	1.933045e-08	2.542682e+01	1.263156e+03
2.240000e-06	3.386752e-06	1.905268e-08	2.444647e+01	1.245054e+03
2.250000e-06	3.249664e-06	1.876185e-08	2.345693e+01	1.226190e+03
2.260000e-06	3.111303e-06	1.845183e-08	2.245820e+01	1.206453e+03
2.270000e-06	2.971745e-06	1.813375e-08	2.145084e+01	1.185676e+03
2.280000e-06	2.830993e-06	1.779611e-08	2.043485e+01	1.163660e+03
2.290000e-06	2.689073e-06	1.744334e-08	1.941044e+01	1.140208e+03
2.300000e-06	2.546223e-06	1.706775e-08	1.837931e+01	1.115157e+03
2.310000e-06	2.402476e-06	1.666758e-08	1.734170e+01	1.088395e+03
2.320000e-06	2.257853e-06	1.623720e-08	1.629778e+01	1.059854e+03
2.330000e-06	2.112431e-06	1.577600e-08	1.524808e+01	1.029488e+03
2.340000e-06	1.966255e-06	1.528308e-08	1.419295e+01	9.972257e+02
2.350000e-06	1.819458e-06	1.475565e-08	1.313333e+01	9.629255e+02
2.360000e-06	1.672146e-06	1.419411e-08	1.206999e+01	9.263439e+02
2.370000e-06	1.524338e-06	1.359006e-08	1.100307e+01	8.871315e+02
2.380000e-06	1.376094e-06	1.293914e-08	9.933007e+00	8.448661e+02
2.390000e-06	1.227434e-06	1.223851e-08	8.859942e+00	7.991199e+02
2.400000e-06	1.078301e-06	1.148446e-08	7.783457e+00	7.495503e+02
2.410000e-06	9.286960e-07	1.067437e-08	6.703572e+00	6.959913e+02
2.420000e-06	7.786910e-07	9.809144e-09	5.620797e+00	6.385235e+02
2.430000e-06	6.284035e-07	8.887929e-09	4.535982e+00	5.774998e+02
2.440000e-06	4.779377e-07	7.915514e-09	3.449880e+00	5.135156e+02
2.450000e-06	3.273298e-07	6.901144e-09	2.362753e+00	4.473222e+02
2.460000e-06	1.765760e-07	5.859680e-09	1.274572e+00	3.797010e+02
2.470000e-06	2.575798e-08	4.803225e-09	1.859279e-01	3.113224e+02
2.480000e-06	-1.250703e-07	3.743100e-09	-9.027904e-01	2.426233e+02
2.490000e-06	-2.758605e-07	2.686844e-09	-1.991233e+00	1.737336e+02
2.500000e-06	-4.265337e-07	1.629130e-09	-3.078832e+00	1.044712e+02
2.510000e-06	-5.771078e-07	5.631805e-10	-4.165716e+00	3.441260e+01
2.520000e-06	-7.275357e-07	-5.199246e-10	-5.251544e+00	-3.697433e+01
2.530000e-06	-8.777197e-07	-1.629870e-09	-6.335612e+00	-1.101613e+02
2.540000e-06	-1.027605e-06	-2.773002e-09	-7.417522e+00	-1.853919e+02
2.550000e-06	-1.177110e-06	-3.951387e-09	-8.496690e+00	-2.625529e+02
2.560000e-06	-1.326163e-06	-5.155963e-09	-9.572592e+00	-3.411131e+02
2.570000e-06	-1.474743e-06	-6.375003e-09	-1.064508e+01	-4.201462e+02
2.580000e-06	-1.622810e-06	-7.586197e-09	-1.171387e+01	-4.984330e+02
2.590000e-06	-1.770259e-06	-8.759790e-09	-1.277820e+01	-5.746238e+02
2.600000e-06	-1.917026e-06	-9.873805e-09	-1.383760e+01	-6.474245e+02
2.610000e-06	-2.063118e-06	-1.091202e-08	-1.489213e+01	-7.157715e+02
2.620000e-06	-2.208456e-06	-1.186875e-08	-1.594122e+01	-7.789593e+02
2.630000e-06	-2.352949e-06	-1.274661e-08	-1.698420e+01	-8.366987e+02
2.640000e-06	-2.496492e-06	-1.355045e-08	-1.802034e+01	-8.890994e+02
2.650000e-06	-2.639005e-06	-1.428556e-08	-1.904903e+01	-9.365879e+02
2.660000e-06	-2.780507e-06	-1.495800e-08	-2.007043e+01	-9.797830e+02
2.670000e-06	-2.920865e-06	-1.557524e-08	-2.108358e+01	-1.019361e+03
2.680000e-06	-3.059996e-06	-1.614400e-08	-2.208786e+01	-1.055936e+03
2.690000e-06	-3.197976e-06	-1.666670e-08	-2.308383e+01	-1.089986e+03
2.700000e-06	-3.334715e-06	-1.714924e-08	-2.407085e+01	-1.121821e+03
2.710000e-06	-3.470185e-06	-1.759846e-08	-2.504871e+01	-1.151608e+03
2.720000e-06	-3.604470e-06	-1.801805e-08	-2.601801e+01	-1.179416e+03
2.730000e-06	-3.737440e-06	-1.841037e-08	-2.697783e+01	-1.205284e+03
2.740000e-06	-3.868974e-06	-1.877597e-08	-2.792727e+01	-1.229276e+03
2.750000e-06	-3.999161e-06	-1.911627e-08	-2.886699e+01	-1.251516e+03
2.760000e-06	-4.127976e-06	-1.943532e-08	-2.979681e+01	-1.272191e+03
2.770000e-06	-4.255317e-06	-1.973619e-08	-3.071600e+01	-1.291526e+03
2.780000e-06	-4.381273e-06	-2.001953e-08	-3.162518e+01	-1.309752e+03
2.790000e-06	-4.505778e-06	-2.028570e-08	-3.252389e+01	-1.327060e+03
2.800000e-06	-4.628674e-06	-2.053658e-08	-3.341098e+01	-1.343576e+03
2.810000e-06	-4.749923e-06	-2.077460e-08	-3.428619e+01	-1.359352e+03
2.820000e-06	-4.869381e-06	-2.100212e-08	-3.514847e+01	-1.374374e+03
2.830000e-06	-4.986914e-06	-2.121901e-08	-3.599686e+01	-1.388599e+03
2.840000e-06	-5.102440e-06	-2.142505e-08	-3.683076e+01	-1.401983e+03
2.850000e-06	-5.215909e-06	-2.161908e-08	-3.764980e+01	-1.414514e+03
2.860000e-06	-5.327281e-06	-2.179965e-08	-3.845371e+01	-1.426232e+03
2.870000e-06	-5.436594e-06	-2.196848e-08	-3.924276e+01	-1.437222e+03
2.880000e-06	-5.544039e-06	-2.212841e-08	-4.001833e+01	-1.447600e+03
2.890000e-06	-5.649725e-06	-2.228082e-08	-4.078120e+01	-1.457485e+03
2.900000e-06	-5.753391e-06	-2.242664e-08	-4.152949e+01	-1.466968e+03
2.910000e-06	-5.854776e-06	-2.256774e-08	-4.226131e+01	-1.476093e+03
2.920000e-06	-5.953982e-06	-2.270196e-08	-4.297741e+01	-1.484854e+03
2.930000e-06	-6.051148e-06	-2.282844e-08	-4.367878e+01	-1.493203e+03
2.940000e-06	-6.146199e-06	-2.294604e-08	-4.436488e+01	-1.501076e+03
