# Temperatura_=_64.07
# Concentracion g/m^3_=_28200.0
# C_Vs_to_Am_M_A/Vsm_=_65563218390.804596
# pendiente_HvsI_1/m_=_3716.3
# ordenada_HvsI_A/m_=_1297.0
# frecuencia_Hz_=_302509.22754946345

Tiempo_(s)	Campo_(V.s)	Magnetizacion_(V.s)	Campo_(kA/m)	Magnetizacion_(A/m)
0.000000e+00	-7.899716e-06	-2.556410e-08	-5.684968e+01	-1.674303e+03
1.000000e-08	-7.895716e-06	-2.556574e-08	-5.682089e+01	-1.673694e+03
2.000000e-08	-7.889110e-06	-2.555834e-08	-5.677336e+01	-1.672949e+03
3.000000e-08	-7.879795e-06	-2.554806e-08	-5.670632e+01	-1.672127e+03
4.000000e-08	-7.867668e-06	-2.553744e-08	-5.661905e+01	-1.671264e+03
5.000000e-08	-7.852643e-06	-2.552241e-08	-5.651092e+01	-1.670364e+03
6.000000e-08	-7.834934e-06	-2.549876e-08	-5.638348e+01	-1.669396e+03
7.000000e-08	-7.815001e-06	-2.546939e-08	-5.624004e+01	-1.668307e+03
8.000000e-08	-7.792716e-06	-2.544536e-08	-5.607966e+01	-1.667045e+03
9.000000e-08	-7.767518e-06	-2.549596e-08	-5.589833e+01	-1.665570e+03
1.000000e-07	-7.739147e-06	-2.547147e-08	-5.569416e+01	-1.663876e+03
1.100000e-07	-7.707846e-06	-2.537548e-08	-5.546891e+01	-1.661995e+03
1.200000e-07	-7.673708e-06	-2.534656e-08	-5.522323e+01	-1.659985e+03
1.300000e-07	-7.636947e-06	-2.533339e-08	-5.495869e+01	-1.657916e+03
1.400000e-07	-7.597927e-06	-2.527291e-08	-5.467788e+01	-1.655848e+03
1.500000e-07	-7.556600e-06	-2.518594e-08	-5.438048e+01	-1.653808e+03
1.600000e-07	-7.512888e-06	-2.521672e-08	-5.406590e+01	-1.651779e+03
1.700000e-07	-7.466656e-06	-2.520759e-08	-5.373320e+01	-1.649700e+03
1.800000e-07	-7.417673e-06	-2.505778e-08	-5.338069e+01	-1.647481e+03
1.900000e-07	-7.365747e-06	-2.507601e-08	-5.300701e+01	-1.645019e+03
2.000000e-07	-7.310953e-06	-2.504221e-08	-5.261269e+01	-1.642233e+03
2.100000e-07	-7.253464e-06	-2.496859e-08	-5.219898e+01	-1.639074e+03
2.200000e-07	-7.193313e-06	-2.495817e-08	-5.176611e+01	-1.635541e+03
2.300000e-07	-7.130629e-06	-2.486144e-08	-5.131500e+01	-1.631676e+03
2.400000e-07	-7.065326e-06	-2.481760e-08	-5.084506e+01	-1.627549e+03
2.500000e-07	-6.997319e-06	-2.472243e-08	-5.035565e+01	-1.623234e+03
2.600000e-07	-6.926682e-06	-2.467705e-08	-4.984732e+01	-1.618787e+03
2.700000e-07	-6.853217e-06	-2.460535e-08	-4.931863e+01	-1.614226e+03
2.800000e-07	-6.776992e-06	-2.451844e-08	-4.877009e+01	-1.609533e+03
2.900000e-07	-6.697971e-06	-2.444792e-08	-4.820142e+01	-1.604652e+03
3.000000e-07	-6.616206e-06	-2.434379e-08	-4.761300e+01	-1.599516e+03
3.100000e-07	-6.532241e-06	-2.427704e-08	-4.700876e+01	-1.594062e+03
3.200000e-07	-6.446125e-06	-2.418342e-08	-4.638903e+01	-1.588253e+03
3.300000e-07	-6.357705e-06	-2.411006e-08	-4.575272e+01	-1.582088e+03
3.400000e-07	-6.266938e-06	-2.400983e-08	-4.509952e+01	-1.575600e+03
3.500000e-07	-6.173918e-06	-2.389572e-08	-4.443011e+01	-1.568841e+03
3.600000e-07	-6.078708e-06	-2.379909e-08	-4.374494e+01	-1.561861e+03
3.700000e-07	-5.981182e-06	-2.368768e-08	-4.304310e+01	-1.554689e+03
3.800000e-07	-5.881429e-06	-2.357574e-08	-4.232524e+01	-1.547317e+03
3.900000e-07	-5.779668e-06	-2.345748e-08	-4.159292e+01	-1.539698e+03
4.000000e-07	-5.675783e-06	-2.334039e-08	-4.084532e+01	-1.531755e+03
4.100000e-07	-5.569849e-06	-2.320233e-08	-4.008298e+01	-1.523402e+03
4.200000e-07	-5.462058e-06	-2.306608e-08	-3.930727e+01	-1.514566e+03
4.300000e-07	-5.352438e-06	-2.292988e-08	-3.851840e+01	-1.505209e+03
4.400000e-07	-5.240865e-06	-2.278054e-08	-3.771547e+01	-1.495333e+03
4.500000e-07	-5.127146e-06	-2.262160e-08	-3.689710e+01	-1.484979e+03
4.600000e-07	-5.011417e-06	-2.246129e-08	-3.606426e+01	-1.474206e+03
4.700000e-07	-4.893872e-06	-2.229305e-08	-3.521836e+01	-1.463066e+03
4.800000e-07	-4.774622e-06	-2.211100e-08	-3.436019e+01	-1.451582e+03
4.900000e-07	-4.653589e-06	-2.192870e-08	-3.348919e+01	-1.439727e+03
5.000000e-07	-4.530772e-06	-2.174288e-08	-3.260534e+01	-1.427424e+03
5.100000e-07	-4.406301e-06	-2.154385e-08	-3.170959e+01	-1.414563e+03
5.200000e-07	-4.280277e-06	-2.132813e-08	-3.080268e+01	-1.401019e+03
5.300000e-07	-4.152732e-06	-2.110630e-08	-2.988480e+01	-1.386688e+03
5.400000e-07	-4.023589e-06	-2.087404e-08	-2.895544e+01	-1.371506e+03
5.500000e-07	-3.892944e-06	-2.063016e-08	-2.801526e+01	-1.355467e+03
5.600000e-07	-3.760806e-06	-2.037163e-08	-2.706434e+01	-1.338605e+03
5.700000e-07	-3.627246e-06	-2.010508e-08	-2.610319e+01	-1.320982e+03
5.800000e-07	-3.492401e-06	-1.982634e-08	-2.513279e+01	-1.302645e+03
5.900000e-07	-3.356190e-06	-1.953552e-08	-2.415255e+01	-1.283595e+03
6.000000e-07	-3.218575e-06	-1.923241e-08	-2.316222e+01	-1.263767e+03
6.100000e-07	-3.079690e-06	-1.891300e-08	-2.216275e+01	-1.243019e+03
6.200000e-07	-2.939512e-06	-1.857349e-08	-2.115396e+01	-1.221157e+03
6.300000e-07	-2.797947e-06	-1.820899e-08	-2.013520e+01	-1.197960e+03
6.400000e-07	-2.655207e-06	-1.782541e-08	-1.910799e+01	-1.173223e+03
6.500000e-07	-2.511497e-06	-1.742216e-08	-1.807379e+01	-1.146788e+03
6.600000e-07	-2.366910e-06	-1.699920e-08	-1.703328e+01	-1.118559e+03
6.700000e-07	-2.221566e-06	-1.654870e-08	-1.598733e+01	-1.088486e+03
6.800000e-07	-2.075452e-06	-1.606473e-08	-1.493583e+01	-1.056535e+03
6.900000e-07	-1.928633e-06	-1.554694e-08	-1.387925e+01	-1.022632e+03
7.000000e-07	-1.781296e-06	-1.499331e-08	-1.281896e+01	-9.866165e+02
7.100000e-07	-1.633469e-06	-1.440258e-08	-1.175513e+01	-9.482125e+02
7.200000e-07	-1.485120e-06	-1.377077e-08	-1.068755e+01	-9.070297e+02
7.300000e-07	-1.336312e-06	-1.308742e-08	-9.616662e+00	-8.626078e+02
7.400000e-07	-1.187054e-06	-1.234524e-08	-8.542536e+00	-8.144958e+02
7.500000e-07	-1.037359e-06	-1.154854e-08	-7.465272e+00	-7.623491e+02
7.600000e-07	-8.872996e-07	-1.069842e-08	-6.385381e+00	-7.060246e+02
7.700000e-07	-7.369451e-07	-9.792827e-09	-5.303367e+00	-6.456450e+02
7.800000e-07	-5.863821e-07	-8.827847e-09	-4.219852e+00	-5.816133e+02
7.900000e-07	-4.356465e-07	-7.810578e-09	-3.135095e+00	-5.145671e+02
8.000000e-07	-2.847404e-07	-6.751189e-09	-2.049111e+00	-4.452777e+02
8.100000e-07	-1.337037e-07	-5.660324e-09	-9.621884e-01	-3.745129e+02
8.200000e-07	1.744401e-08	-4.555341e-09	1.255344e-01	-3.028942e+02
8.300000e-07	1.686512e-07	-3.448713e-09	1.213685e+00	-2.307827e+02
8.400000e-07	3.197939e-07	-2.344100e-09	2.301372e+00	-1.582225e+02
8.500000e-07	4.708299e-07	-1.233341e-09	3.388290e+00	-8.496027e+01
8.600000e-07	6.217210e-07	-1.098084e-10	4.474166e+00	-1.053984e+01
8.700000e-07	7.724210e-07	1.034736e-09	5.558666e+00	6.554473e+01
8.800000e-07	9.228934e-07	2.211638e-09	6.641529e+00	1.436713e+02
8.900000e-07	1.073121e-06	3.430958e-09	7.722631e+00	2.239261e+02
9.000000e-07	1.223016e-06	4.687416e-09	8.801336e+00	3.059925e+02
9.100000e-07	1.372442e-06	5.965356e-09	9.876672e+00	3.891187e+02
9.200000e-07	1.521311e-06	7.245729e-09	1.094799e+01	4.721745e+02
9.300000e-07	1.669646e-06	8.497821e-09	1.201548e+01	5.537861e+02
9.400000e-07	1.817417e-06	9.695186e-09	1.307890e+01	6.325211e+02
9.500000e-07	1.964528e-06	1.081744e-08	1.413757e+01	7.070871e+02
9.600000e-07	2.110945e-06	1.185485e-08	1.519125e+01	7.765011e+02
9.700000e-07	2.256708e-06	1.280793e-08	1.624022e+01	8.401998e+02
9.800000e-07	2.401731e-06	1.367778e-08	1.728387e+01	8.980697e+02
9.900000e-07	2.545805e-06	1.447177e-08	1.832068e+01	9.503991e+02
1.000000e-06	2.688822e-06	1.519630e-08	1.934989e+01	9.977676e+02
1.010000e-06	2.830711e-06	1.586012e-08	2.037099e+01	1.040902e+03
1.020000e-06	2.971447e-06	1.646867e-08	2.138378e+01	1.080535e+03
1.030000e-06	3.110964e-06	1.703060e-08	2.238780e+01	1.117286e+03
1.040000e-06	3.249263e-06	1.755072e-08	2.338306e+01	1.151603e+03
1.050000e-06	3.386329e-06	1.803327e-08	2.436945e+01	1.183752e+03
1.060000e-06	3.522071e-06	1.848390e-08	2.534630e+01	1.213853e+03
1.070000e-06	3.656474e-06	1.890362e-08	2.631353e+01	1.241943e+03
1.080000e-06	3.789552e-06	1.929523e-08	2.727121e+01	1.268055e+03
1.090000e-06	3.921294e-06	1.966149e-08	2.821928e+01	1.292266e+03
1.100000e-06	4.051681e-06	2.000604e-08	2.915760e+01	1.314724e+03
1.110000e-06	4.180586e-06	2.033030e-08	3.008525e+01	1.335646e+03
1.120000e-06	4.307928e-06	2.063712e-08	3.100166e+01	1.355279e+03
1.130000e-06	4.433793e-06	2.092456e-08	3.190744e+01	1.373860e+03
1.140000e-06	4.558149e-06	2.119387e-08	3.280236e+01	1.391572e+03
1.150000e-06	4.680959e-06	2.144768e-08	3.368615e+01	1.408517e+03
1.160000e-06	4.802179e-06	2.168988e-08	3.455850e+01	1.424718e+03
1.170000e-06	4.921679e-06	2.191766e-08	3.541847e+01	1.440138e+03
1.180000e-06	5.039356e-06	2.213296e-08	3.626533e+01	1.454715e+03
1.190000e-06	5.155134e-06	2.233824e-08	3.709852e+01	1.468405e+03
1.200000e-06	5.268925e-06	2.253266e-08	3.791740e+01	1.481208e+03
1.210000e-06	5.380680e-06	2.271713e-08	3.872164e+01	1.493182e+03
1.220000e-06	5.490456e-06	2.289116e-08	3.951163e+01	1.504439e+03
1.230000e-06	5.598329e-06	2.305680e-08	4.028793e+01	1.515111e+03
1.240000e-06	5.704271e-06	2.321430e-08	4.105034e+01	1.525325e+03
1.250000e-06	5.808152e-06	2.336585e-08	4.179790e+01	1.535169e+03
1.260000e-06	5.909871e-06	2.351129e-08	4.252992e+01	1.544673e+03
1.270000e-06	6.009366e-06	2.364864e-08	4.324592e+01	1.553809e+03
1.280000e-06	6.106557e-06	2.377693e-08	4.394536e+01	1.562509e+03
1.290000e-06	6.201457e-06	2.389736e-08	4.462829e+01	1.570696e+03
1.300000e-06	6.294137e-06	2.401160e-08	4.529526e+01	1.578310e+03
1.310000e-06	6.384632e-06	2.411951e-08	4.594650e+01	1.585338e+03
1.320000e-06	6.472848e-06	2.422027e-08	4.658134e+01	1.591822e+03
1.330000e-06	6.558766e-06	2.431494e-08	4.719964e+01	1.597851e+03
1.340000e-06	6.642373e-06	2.440445e-08	4.780131e+01	1.603543e+03
1.350000e-06	6.723597e-06	2.449021e-08	4.838583e+01	1.609014e+03
1.360000e-06	6.802382e-06	2.457259e-08	4.895280e+01	1.614350e+03
1.370000e-06	6.878585e-06	2.465104e-08	4.950119e+01	1.619585e+03
1.380000e-06	6.952163e-06	2.472679e-08	5.003069e+01	1.624706e+03
1.390000e-06	7.023178e-06	2.479891e-08	5.054175e+01	1.629653e+03
1.400000e-06	7.091705e-06	2.486828e-08	5.103489e+01	1.634353e+03
1.410000e-06	7.157723e-06	2.493281e-08	5.150999e+01	1.638736e+03
1.420000e-06	7.221215e-06	2.499202e-08	5.196690e+01	1.642765e+03
1.430000e-06	7.282249e-06	2.504871e-08	5.240613e+01	1.646444e+03
1.440000e-06	7.340785e-06	2.510276e-08	5.282738e+01	1.649818e+03
1.450000e-06	7.396695e-06	2.515536e-08	5.322973e+01	1.652954e+03
1.460000e-06	7.449850e-06	2.520381e-08	5.361225e+01	1.655922e+03
1.470000e-06	7.500020e-06	2.524945e-08	5.397330e+01	1.658771e+03
1.480000e-06	7.547219e-06	2.529244e-08	5.431296e+01	1.661517e+03
1.490000e-06	7.591762e-06	2.533047e-08	5.463352e+01	1.664134e+03
1.500000e-06	7.633627e-06	2.536368e-08	5.493479e+01	1.666571e+03
1.510000e-06	7.672667e-06	2.539302e-08	5.521574e+01	1.668762e+03
1.520000e-06	7.709084e-06	2.542096e-08	5.547781e+01	1.670657e+03
1.530000e-06	7.742828e-06	2.544453e-08	5.572065e+01	1.672233e+03
1.540000e-06	7.773734e-06	2.546523e-08	5.594306e+01	1.673510e+03
1.550000e-06	7.801928e-06	2.548425e-08	5.614596e+01	1.674541e+03
1.560000e-06	7.827300e-06	2.550149e-08	5.632854e+01	1.675401e+03
1.570000e-06	7.849764e-06	2.551604e-08	5.649020e+01	1.676165e+03
1.580000e-06	7.869542e-06	2.552756e-08	5.663254e+01	1.676888e+03
1.590000e-06	7.886527e-06	2.553860e-08	5.675476e+01	1.677585e+03
1.600000e-06	7.900494e-06	2.554845e-08	5.685528e+01	1.678235e+03
1.610000e-06	7.911372e-06	2.555515e-08	5.693356e+01	1.678786e+03
1.620000e-06	7.919148e-06	2.555870e-08	5.698952e+01	1.679170e+03
1.630000e-06	7.924127e-06	2.556150e-08	5.702535e+01	1.679330e+03
1.640000e-06	7.926371e-06	2.556389e-08	5.704150e+01	1.679234e+03
1.650000e-06	7.925760e-06	2.556377e-08	5.703710e+01	1.678886e+03
1.660000e-06	7.922523e-06	2.555138e-08	5.701381e+01	1.678325e+03
1.670000e-06	7.916663e-06	2.554558e-08	5.697164e+01	1.677611e+03
1.680000e-06	7.908121e-06	2.554103e-08	5.691016e+01	1.676805e+03
1.690000e-06	7.896919e-06	2.552977e-08	5.682955e+01	1.675951e+03
1.700000e-06	7.882907e-06	2.551395e-08	5.672871e+01	1.675062e+03
1.710000e-06	7.866306e-06	2.550324e-08	5.660925e+01	1.674117e+03
1.720000e-06	7.847394e-06	2.549806e-08	5.647315e+01	1.673068e+03
1.730000e-06	7.826036e-06	2.545197e-08	5.631945e+01	1.671859e+03
1.740000e-06	7.801748e-06	2.533807e-08	5.614466e+01	1.670445e+03
1.750000e-06	7.773918e-06	2.536429e-08	5.594439e+01	1.668812e+03
1.760000e-06	7.742516e-06	2.539437e-08	5.571840e+01	1.666978e+03
1.770000e-06	7.708328e-06	2.533608e-08	5.547237e+01	1.664996e+03
1.780000e-06	7.671948e-06	2.531498e-08	5.521057e+01	1.662936e+03
1.790000e-06	7.633303e-06	2.537977e-08	5.493246e+01	1.660862e+03
1.800000e-06	7.592643e-06	2.529787e-08	5.463985e+01	1.658812e+03
1.810000e-06	7.549896e-06	2.519870e-08	5.433223e+01	1.656783e+03
1.820000e-06	7.504478e-06	2.531646e-08	5.400538e+01	1.654726e+03
1.830000e-06	7.456396e-06	2.519175e-08	5.365936e+01	1.652556e+03
1.840000e-06	7.405462e-06	2.520088e-08	5.329282e+01	1.650172e+03
1.850000e-06	7.351437e-06	2.515671e-08	5.290403e+01	1.647484e+03
1.860000e-06	7.294681e-06	2.503682e-08	5.249559e+01	1.644432e+03
1.870000e-06	7.235454e-06	2.508019e-08	5.206937e+01	1.641002e+03
1.880000e-06	7.173585e-06	2.494406e-08	5.162413e+01	1.637225e+03
1.890000e-06	7.108841e-06	2.496515e-08	5.115821e+01	1.633164e+03
1.900000e-06	7.041380e-06	2.489338e-08	5.067274e+01	1.628894e+03
1.910000e-06	6.971240e-06	2.479475e-08	5.016798e+01	1.624480e+03
1.920000e-06	6.898335e-06	2.476452e-08	4.964332e+01	1.619951e+03
1.930000e-06	6.822766e-06	2.462797e-08	4.909949e+01	1.615298e+03
1.940000e-06	6.744446e-06	2.462433e-08	4.853587e+01	1.610477e+03
1.950000e-06	6.663518e-06	2.451612e-08	4.795348e+01	1.605420e+03
1.960000e-06	6.580166e-06	2.445115e-08	4.735364e+01	1.600060e+03
1.970000e-06	6.494330e-06	2.435464e-08	4.673593e+01	1.594353e+03
1.980000e-06	6.406065e-06	2.423722e-08	4.610074e+01	1.588287e+03
1.990000e-06	6.315606e-06	2.418007e-08	4.544976e+01	1.581885e+03
2.000000e-06	6.222985e-06	2.405070e-08	4.478322e+01	1.575197e+03
2.010000e-06	6.128066e-06	2.398231e-08	4.410014e+01	1.568274e+03
2.020000e-06	6.030988e-06	2.385461e-08	4.340153e+01	1.561155e+03
2.030000e-06	5.931787e-06	2.374887e-08	4.268764e+01	1.553842e+03
2.040000e-06	5.830370e-06	2.361149e-08	4.195779e+01	1.546300e+03
2.050000e-06	5.726809e-06	2.349397e-08	4.121252e+01	1.538457e+03
2.060000e-06	5.621312e-06	2.337607e-08	4.045333e+01	1.530228e+03
2.070000e-06	5.513986e-06	2.323385e-08	3.968096e+01	1.521534e+03
2.080000e-06	5.404769e-06	2.310584e-08	3.889499e+01	1.512326e+03
2.090000e-06	5.293543e-06	2.295214e-08	3.809456e+01	1.502595e+03
2.100000e-06	5.180349e-06	2.280985e-08	3.727997e+01	1.492370e+03
2.110000e-06	5.065284e-06	2.264191e-08	3.645191e+01	1.481710e+03
2.120000e-06	4.948171e-06	2.248942e-08	3.560912e+01	1.470670e+03
2.130000e-06	4.829070e-06	2.230799e-08	3.475202e+01	1.459283e+03
2.140000e-06	4.708142e-06	2.212308e-08	3.388177e+01	1.447538e+03
2.150000e-06	4.585580e-06	2.192893e-08	3.299977e+01	1.435373e+03
2.160000e-06	4.461339e-06	2.173738e-08	3.210567e+01	1.422682e+03
2.170000e-06	4.335413e-06	2.153518e-08	3.119946e+01	1.409344e+03
2.180000e-06	4.207967e-06	2.131967e-08	3.028230e+01	1.395245e+03
2.190000e-06	4.078946e-06	2.109818e-08	2.935381e+01	1.380309e+03
2.200000e-06	3.948502e-06	2.086421e-08	2.841508e+01	1.364511e+03
2.210000e-06	3.816549e-06	2.061946e-08	2.746550e+01	1.347878e+03
2.220000e-06	3.683034e-06	2.035570e-08	2.650466e+01	1.330465e+03
2.230000e-06	3.548196e-06	2.008460e-08	2.553431e+01	1.312328e+03
2.240000e-06	3.412114e-06	1.979309e-08	2.455501e+01	1.293484e+03
2.250000e-06	3.274741e-06	1.948938e-08	2.356641e+01	1.273888e+03
2.260000e-06	3.136122e-06	1.917027e-08	2.256886e+01	1.253420e+03
2.270000e-06	2.996275e-06	1.884294e-08	2.156245e+01	1.231897e+03
2.280000e-06	2.855129e-06	1.849677e-08	2.054671e+01	1.209102e+03
2.290000e-06	2.712847e-06	1.812969e-08	1.952279e+01	1.184823e+03
2.300000e-06	2.569640e-06	1.773869e-08	1.849221e+01	1.158884e+03
2.310000e-06	2.425500e-06	1.732323e-08	1.745492e+01	1.131173e+03
2.320000e-06	2.280489e-06	1.688034e-08	1.641136e+01	1.101629e+03
2.330000e-06	2.134709e-06	1.640654e-08	1.536227e+01	1.070218e+03
2.340000e-06	1.988265e-06	1.590004e-08	1.430839e+01	1.036883e+03
2.350000e-06	1.841269e-06	1.535670e-08	1.325055e+01	1.001493e+03
2.360000e-06	1.693680e-06	1.477580e-08	1.218843e+01	9.638059e+02
2.370000e-06	1.545487e-06	1.415394e-08	1.112198e+01	9.234609e+02
2.380000e-06	1.396727e-06	1.348538e-08	1.005143e+01	8.800114e+02
2.390000e-06	1.247484e-06	1.276734e-08	8.977418e+00	8.329942e+02
2.400000e-06	1.097796e-06	1.199231e-08	7.900204e+00	7.820240e+02
2.410000e-06	9.477214e-07	1.115545e-08	6.820202e+00	7.268918e+02
2.420000e-06	7.972744e-07	1.025945e-08	5.737522e+00	6.676404e+02
2.430000e-06	6.465628e-07	9.305171e-09	4.652938e+00	6.045947e+02
2.440000e-06	4.957435e-07	8.298621e-09	3.567579e+00	5.383333e+02
2.450000e-06	3.447931e-07	7.247804e-09	2.481276e+00	4.696024e+02
2.460000e-06	1.937332e-07	6.166027e-09	1.394185e+00	3.991856e+02
2.470000e-06	4.256753e-08	5.064636e-09	3.063339e-01	3.277598e+02
2.480000e-06	-1.086598e-07	3.954748e-09	-7.819618e-01	2.557692e+02
2.490000e-06	-2.598320e-07	2.844118e-09	-1.869860e+00	1.833500e+02
2.500000e-06	-4.109098e-07	1.729348e-09	-2.957080e+00	1.103273e+02
2.510000e-06	-5.619087e-07	6.031096e-10	-4.043731e+00	3.628925e+01
2.520000e-06	-7.127665e-07	-5.433379e-10	-5.129368e+00	-3.927356e+01
2.530000e-06	-8.633883e-07	-1.717496e-09	-6.213305e+00	-1.167937e+02
2.540000e-06	-1.013726e-06	-2.926870e-09	-7.295202e+00	-1.964550e+02
2.550000e-06	-1.163789e-06	-4.172075e-09	-8.375113e+00	-2.780630e+02
2.560000e-06	-1.313474e-06	-5.444342e-09	-9.452310e+00	-3.609883e+02
2.570000e-06	-1.462713e-06	-6.728226e-09	-1.052630e+01	-4.441982e+02
2.580000e-06	-1.611384e-06	-7.999613e-09	-1.159620e+01	-5.263709e+02
2.590000e-06	-1.759275e-06	-9.228845e-09	-1.266049e+01	-6.060706e+02
2.600000e-06	-1.906481e-06	-1.038894e-08	-1.371984e+01	-6.819455e+02
2.610000e-06	-2.053084e-06	-1.146504e-08	-1.477485e+01	-7.529099e+02
2.620000e-06	-2.198928e-06	-1.245348e-08	-1.582441e+01	-8.182737e+02
2.630000e-06	-2.343890e-06	-1.335696e-08	-1.686762e+01	-8.777967e+02
2.640000e-06	-2.487895e-06	-1.418098e-08	-1.790394e+01	-9.316614e+02
2.650000e-06	-2.630915e-06	-1.493451e-08	-1.893317e+01	-9.803779e+02
2.660000e-06	-2.773022e-06	-1.562529e-08	-1.995584e+01	-1.024647e+03
2.670000e-06	-2.914070e-06	-1.625962e-08	-2.097087e+01	-1.065211e+03
2.680000e-06	-3.053805e-06	-1.684461e-08	-2.197646e+01	-1.102732e+03
2.690000e-06	-3.192303e-06	-1.738388e-08	-2.297316e+01	-1.137712e+03
2.700000e-06	-3.329579e-06	-1.788070e-08	-2.396105e+01	-1.170464e+03
2.710000e-06	-3.465547e-06	-1.834125e-08	-2.493954e+01	-1.201145e+03
2.720000e-06	-3.600271e-06	-1.877081e-08	-2.590907e+01	-1.229809e+03
2.730000e-06	-3.733754e-06	-1.917472e-08	-2.686967e+01	-1.256482e+03
2.740000e-06	-3.865880e-06	-1.955433e-08	-2.782050e+01	-1.281225e+03
2.750000e-06	-3.996609e-06	-1.990705e-08	-2.876128e+01	-1.304166e+03
2.760000e-06	-4.125952e-06	-2.023628e-08	-2.969209e+01	-1.325503e+03
2.770000e-06	-4.253873e-06	-2.054783e-08	-3.061266e+01	-1.345480e+03
2.780000e-06	-4.380377e-06	-2.084359e-08	-3.152303e+01	-1.364342e+03
2.790000e-06	-4.505375e-06	-2.112285e-08	-3.242257e+01	-1.382289e+03
2.800000e-06	-4.628740e-06	-2.138513e-08	-3.331036e+01	-1.399448e+03
2.810000e-06	-4.750512e-06	-2.163138e-08	-3.418668e+01	-1.415865e+03
2.820000e-06	-4.870601e-06	-2.186543e-08	-3.505090e+01	-1.431516e+03
2.830000e-06	-4.988817e-06	-2.208948e-08	-3.590163e+01	-1.446341e+03
2.840000e-06	-5.104987e-06	-2.230376e-08	-3.673763e+01	-1.460287e+03
2.850000e-06	-5.219070e-06	-2.250762e-08	-3.755863e+01	-1.473341e+03
2.860000e-06	-5.331131e-06	-2.269831e-08	-3.836506e+01	-1.485544e+03
2.870000e-06	-5.441163e-06	-2.287600e-08	-3.915690e+01	-1.496994e+03
2.880000e-06	-5.549253e-06	-2.304359e-08	-3.993476e+01	-1.507820e+03
2.890000e-06	-5.655436e-06	-2.320246e-08	-4.069890e+01	-1.518156e+03
2.900000e-06	-5.759568e-06	-2.335364e-08	-4.144828e+01	-1.528101e+03
2.910000e-06	-5.861540e-06	-2.349958e-08	-4.218211e+01	-1.537703e+03
2.920000e-06	-5.961319e-06	-2.363962e-08	-4.290016e+01	-1.546951e+03
2.930000e-06	-6.058966e-06	-2.377304e-08	-4.360287e+01	-1.555786e+03
2.940000e-06	-6.154509e-06	-2.389917e-08	-4.429044e+01	-1.564128e+03
