# Temperatura_=_84.81
# Concentracion g/m^3_=_28200.0
# C_Vs_to_Am_M_A/Vsm_=_65563218390.804596
# pendiente_HvsI_1/m_=_3716.3
# ordenada_HvsI_A/m_=_1297.0
# frecuencia_Hz_=_302511.80066164385

Tiempo_(s)	Campo_(V.s)	Magnetizacion_(V.s)	Campo_(kA/m)	Magnetizacion_(A/m)
0.000000e+00	-7.850186e-06	-2.930072e-08	-5.683975e+01	-1.919130e+03
1.000000e-08	-7.846115e-06	-2.929530e-08	-5.681028e+01	-1.918415e+03
2.000000e-08	-7.839475e-06	-2.928447e-08	-5.676220e+01	-1.917571e+03
3.000000e-08	-7.830209e-06	-2.927082e-08	-5.669511e+01	-1.916654e+03
4.000000e-08	-7.818078e-06	-2.925508e-08	-5.660727e+01	-1.915691e+03
5.000000e-08	-7.802944e-06	-2.923522e-08	-5.649769e+01	-1.914673e+03
6.000000e-08	-7.785167e-06	-2.921095e-08	-5.636898e+01	-1.913556e+03
7.000000e-08	-7.765234e-06	-2.917985e-08	-5.622465e+01	-1.912275e+03
8.000000e-08	-7.742971e-06	-2.916274e-08	-5.606345e+01	-1.910765e+03
9.000000e-08	-7.717769e-06	-2.918137e-08	-5.588098e+01	-1.908983e+03
1.000000e-07	-7.689430e-06	-2.915136e-08	-5.567579e+01	-1.906921e+03
1.100000e-07	-7.658212e-06	-2.908806e-08	-5.544975e+01	-1.904610e+03
1.200000e-07	-7.624192e-06	-2.904243e-08	-5.520343e+01	-1.902113e+03
1.300000e-07	-7.587524e-06	-2.900047e-08	-5.493793e+01	-1.899500e+03
1.400000e-07	-7.548531e-06	-2.893600e-08	-5.465560e+01	-1.896830e+03
1.500000e-07	-7.507423e-06	-2.887759e-08	-5.435795e+01	-1.894129e+03
1.600000e-07	-7.463975e-06	-2.890147e-08	-5.404337e+01	-1.891380e+03
1.700000e-07	-7.417840e-06	-2.882780e-08	-5.370932e+01	-1.888523e+03
1.800000e-07	-7.369000e-06	-2.874080e-08	-5.335569e+01	-1.885472e+03
1.900000e-07	-7.317261e-06	-2.872697e-08	-5.298108e+01	-1.882141e+03
2.000000e-07	-7.262630e-06	-2.863426e-08	-5.258552e+01	-1.878461e+03
2.100000e-07	-7.205354e-06	-2.857335e-08	-5.217080e+01	-1.874404e+03
2.200000e-07	-7.145461e-06	-2.849823e-08	-5.173715e+01	-1.869986e+03
2.300000e-07	-7.082957e-06	-2.841848e-08	-5.128459e+01	-1.865260e+03
2.400000e-07	-7.017795e-06	-2.838668e-08	-5.081278e+01	-1.860296e+03
2.500000e-07	-6.949942e-06	-2.830565e-08	-5.032148e+01	-1.855161e+03
2.600000e-07	-6.879410e-06	-2.820931e-08	-4.981079e+01	-1.849890e+03
2.700000e-07	-6.806209e-06	-2.812407e-08	-4.928077e+01	-1.844480e+03
2.800000e-07	-6.730341e-06	-2.805654e-08	-4.873145e+01	-1.838885e+03
2.900000e-07	-6.651726e-06	-2.794805e-08	-4.816223e+01	-1.833032e+03
3.000000e-07	-6.570415e-06	-2.783150e-08	-4.757349e+01	-1.826841e+03
3.100000e-07	-6.486763e-06	-2.776137e-08	-4.696780e+01	-1.820253e+03
3.200000e-07	-6.401003e-06	-2.766179e-08	-4.634685e+01	-1.813242e+03
3.300000e-07	-6.313047e-06	-2.753258e-08	-4.571000e+01	-1.805827e+03
3.400000e-07	-6.222712e-06	-2.739461e-08	-4.505593e+01	-1.798060e+03
3.500000e-07	-6.130134e-06	-2.729432e-08	-4.438561e+01	-1.790009e+03
3.600000e-07	-6.035393e-06	-2.718440e-08	-4.369963e+01	-1.781732e+03
3.700000e-07	-5.938369e-06	-2.703558e-08	-4.299712e+01	-1.773253e+03
3.800000e-07	-5.839151e-06	-2.690034e-08	-4.227873e+01	-1.764551e+03
3.900000e-07	-5.737907e-06	-2.676873e-08	-4.154567e+01	-1.755560e+03
4.000000e-07	-5.634630e-06	-2.661712e-08	-4.079789e+01	-1.746184e+03
4.100000e-07	-5.529355e-06	-2.645231e-08	-4.003563e+01	-1.736323e+03
4.200000e-07	-5.422093e-06	-2.630797e-08	-3.925900e+01	-1.725899e+03
4.300000e-07	-5.312891e-06	-2.614522e-08	-3.846831e+01	-1.714879e+03
4.400000e-07	-5.201768e-06	-2.596065e-08	-3.766372e+01	-1.703276e+03
4.500000e-07	-5.088688e-06	-2.578116e-08	-3.684495e+01	-1.691146e+03
4.600000e-07	-4.973710e-06	-2.560148e-08	-3.601245e+01	-1.678558e+03
4.700000e-07	-4.856842e-06	-2.540178e-08	-3.516626e+01	-1.665569e+03
4.800000e-07	-4.738132e-06	-2.519195e-08	-3.430674e+01	-1.652193e+03
4.900000e-07	-4.617782e-06	-2.498458e-08	-3.343533e+01	-1.638388e+03
5.000000e-07	-4.495806e-06	-2.475824e-08	-3.255216e+01	-1.624060e+03
5.100000e-07	-4.372083e-06	-2.451257e-08	-3.165633e+01	-1.609077e+03
5.200000e-07	-4.246756e-06	-2.426372e-08	-3.074890e+01	-1.593302e+03
5.300000e-07	-4.119890e-06	-2.401549e-08	-2.983032e+01	-1.576630e+03
5.400000e-07	-3.991538e-06	-2.374552e-08	-2.890097e+01	-1.559008e+03
5.500000e-07	-3.861685e-06	-2.346096e-08	-2.796076e+01	-1.540445e+03
5.600000e-07	-3.730254e-06	-2.317195e-08	-2.700913e+01	-1.520997e+03
5.700000e-07	-3.597378e-06	-2.286880e-08	-2.604704e+01	-1.500738e+03
5.800000e-07	-3.463199e-06	-2.254320e-08	-2.507551e+01	-1.479716e+03
5.900000e-07	-3.327712e-06	-2.220157e-08	-2.409450e+01	-1.457918e+03
6.000000e-07	-3.190981e-06	-2.185226e-08	-2.310449e+01	-1.435247e+03
6.100000e-07	-3.053083e-06	-2.148510e-08	-2.210603e+01	-1.411522e+03
6.200000e-07	-2.913814e-06	-2.109623e-08	-2.109765e+01	-1.386504e+03
6.300000e-07	-2.773171e-06	-2.068312e-08	-2.007931e+01	-1.359935e+03
6.400000e-07	-2.631418e-06	-2.024905e-08	-1.905294e+01	-1.331588e+03
6.500000e-07	-2.488727e-06	-1.979094e-08	-1.801978e+01	-1.301296e+03
6.600000e-07	-2.345193e-06	-1.930295e-08	-1.698051e+01	-1.268967e+03
6.700000e-07	-2.200771e-06	-1.878244e-08	-1.593482e+01	-1.234563e+03
6.800000e-07	-2.055502e-06	-1.822928e-08	-1.488299e+01	-1.198051e+03
6.900000e-07	-1.909520e-06	-1.764291e-08	-1.382600e+01	-1.159344e+03
7.000000e-07	-1.762925e-06	-1.701255e-08	-1.276457e+01	-1.118246e+03
7.100000e-07	-1.615741e-06	-1.633426e-08	-1.169887e+01	-1.074416e+03
7.200000e-07	-1.468075e-06	-1.560545e-08	-1.062969e+01	-1.027384e+03
7.300000e-07	-1.320018e-06	-1.482019e-08	-9.557671e+00	-9.766029e+02
7.400000e-07	-1.171546e-06	-1.397228e-08	-8.482652e+00	-9.215459e+02
7.500000e-07	-1.022669e-06	-1.306170e-08	-7.404697e+00	-8.618180e+02
7.600000e-07	-8.734540e-07	-1.208731e-08	-6.324297e+00	-7.972615e+02
7.700000e-07	-7.239659e-07	-1.104412e-08	-5.241919e+00	-7.280225e+02
7.800000e-07	-5.742574e-07	-9.932162e-09	-4.157945e+00	-6.545582e+02
7.900000e-07	-4.243612e-07	-8.760407e-09	-3.072613e+00	-5.775753e+02
8.000000e-07	-2.743384e-07	-7.541576e-09	-1.986364e+00	-4.979096e+02
8.100000e-07	-1.242309e-07	-6.286098e-09	-8.995017e-01	-4.163698e+02
8.200000e-07	2.594874e-08	-5.010304e-09	1.878834e-01	-3.335830e+02
8.300000e-07	1.761471e-07	-3.726838e-09	1.275404e+00	-2.498784e+02
8.400000e-07	3.263190e-07	-2.436645e-09	2.362733e+00	-1.652429e+02
8.500000e-07	4.764189e-07	-1.134087e-09	3.449540e+00	-7.936260e+01
8.600000e-07	6.264354e-07	1.871477e-10	4.535744e+00	8.252985e+00
8.700000e-07	7.763001e-07	1.539258e-09	5.620849e+00	9.808864e+01
8.800000e-07	9.259696e-07	2.935329e-09	6.704540e+00	1.904231e+02
8.900000e-07	1.075379e-06	4.375774e-09	7.786346e+00	2.851566e+02
9.000000e-07	1.224389e-06	5.850490e-09	8.865267e+00	3.817069e+02
9.100000e-07	1.372944e-06	7.342441e-09	9.940884e+00	4.790025e+02
9.200000e-07	1.521017e-06	8.828287e-09	1.101302e+01	5.755757e+02
9.300000e-07	1.668572e-06	1.027297e-08	1.208140e+01	6.697414e+02
9.400000e-07	1.815508e-06	1.164204e-08	1.314530e+01	7.598235e+02
9.500000e-07	1.961779e-06	1.291607e-08	1.420438e+01	8.443838e+02
9.600000e-07	2.107367e-06	1.408513e-08	1.525852e+01	9.224074e+02
9.700000e-07	2.252151e-06	1.514550e-08	1.630684e+01	9.934076e+02
9.800000e-07	2.396033e-06	1.610636e-08	1.734862e+01	1.057436e+03
9.900000e-07	2.539034e-06	1.698109e-08	1.838403e+01	1.115002e+03
1.000000e-06	2.681137e-06	1.777702e-08	1.941294e+01	1.166919e+03
1.010000e-06	2.822146e-06	1.850388e-08	2.043392e+01	1.214131e+03
1.020000e-06	2.961862e-06	1.917137e-08	2.144555e+01	1.257537e+03
1.030000e-06	3.100322e-06	1.979115e-08	2.244807e+01	1.297865e+03
1.040000e-06	3.237629e-06	2.036695e-08	2.344225e+01	1.335608e+03
1.050000e-06	3.373661e-06	2.090090e-08	2.442720e+01	1.371031e+03
1.060000e-06	3.508393e-06	2.139621e-08	2.540273e+01	1.404222e+03
1.070000e-06	3.641930e-06	2.185533e-08	2.636962e+01	1.435186e+03
1.080000e-06	3.774217e-06	2.228459e-08	2.732745e+01	1.463933e+03
1.090000e-06	3.905100e-06	2.268636e-08	2.827512e+01	1.490539e+03
1.100000e-06	4.034525e-06	2.306440e-08	2.921222e+01	1.515183e+03
1.110000e-06	4.162484e-06	2.342120e-08	3.013872e+01	1.538126e+03
1.120000e-06	4.289019e-06	2.375859e-08	3.105490e+01	1.559671e+03
1.130000e-06	4.414151e-06	2.407765e-08	3.196093e+01	1.580106e+03
1.140000e-06	4.537757e-06	2.437981e-08	3.285591e+01	1.599646e+03
1.150000e-06	4.659753e-06	2.466373e-08	3.373923e+01	1.618409e+03
1.160000e-06	4.780094e-06	2.493051e-08	3.461056e+01	1.636408e+03
1.170000e-06	4.898752e-06	2.518139e-08	3.546971e+01	1.653582e+03
1.180000e-06	5.015612e-06	2.541953e-08	3.631585e+01	1.669839e+03
1.190000e-06	5.130504e-06	2.564727e-08	3.714772e+01	1.685109e+03
1.200000e-06	5.243421e-06	2.586465e-08	3.796531e+01	1.699376e+03
1.210000e-06	5.354404e-06	2.607026e-08	3.876889e+01	1.712701e+03
1.220000e-06	5.463527e-06	2.626453e-08	3.955900e+01	1.725210e+03
1.230000e-06	5.570746e-06	2.645081e-08	4.033533e+01	1.737068e+03
1.240000e-06	5.675863e-06	2.662674e-08	4.109643e+01	1.748433e+03
1.250000e-06	5.778855e-06	2.679345e-08	4.184215e+01	1.759426e+03
1.260000e-06	5.879785e-06	2.695177e-08	4.257294e+01	1.770099e+03
1.270000e-06	5.978508e-06	2.710344e-08	4.328775e+01	1.780438e+03
1.280000e-06	6.074932e-06	2.725038e-08	4.398592e+01	1.790371e+03
1.290000e-06	6.169129e-06	2.739229e-08	4.466795e+01	1.799808e+03
1.300000e-06	6.261213e-06	2.752852e-08	4.533469e+01	1.808667e+03
1.310000e-06	6.351044e-06	2.765686e-08	4.598512e+01	1.816911e+03
1.320000e-06	6.438515e-06	2.777691e-08	4.661846e+01	1.824559e+03
1.330000e-06	6.523758e-06	2.789094e-08	4.723567e+01	1.831680e+03
1.340000e-06	6.606720e-06	2.800049e-08	4.783636e+01	1.838378e+03
1.350000e-06	6.687315e-06	2.810317e-08	4.841991e+01	1.844760e+03
1.360000e-06	6.765457e-06	2.819844e-08	4.898571e+01	1.850910e+03
1.370000e-06	6.841066e-06	2.828751e-08	4.953316e+01	1.856869e+03
1.380000e-06	6.914043e-06	2.836945e-08	5.006155e+01	1.862627e+03
1.390000e-06	6.984505e-06	2.844695e-08	5.057174e+01	1.868142e+03
1.400000e-06	7.052572e-06	2.852240e-08	5.106458e+01	1.873352e+03
1.410000e-06	7.118052e-06	2.859631e-08	5.153869e+01	1.878207e+03
1.420000e-06	7.180974e-06	2.866629e-08	5.199428e+01	1.882689e+03
1.430000e-06	7.241525e-06	2.873162e-08	5.243270e+01	1.886818e+03
1.440000e-06	7.299548e-06	2.879258e-08	5.285282e+01	1.890650e+03
1.450000e-06	7.354941e-06	2.884997e-08	5.325390e+01	1.894260e+03
1.460000e-06	7.407594e-06	2.890548e-08	5.363513e+01	1.897717e+03
1.470000e-06	7.457220e-06	2.895750e-08	5.399446e+01	1.901066e+03
1.480000e-06	7.503947e-06	2.900613e-08	5.433279e+01	1.904310e+03
1.490000e-06	7.548090e-06	2.905017e-08	5.465241e+01	1.907411e+03
1.500000e-06	7.589495e-06	2.908978e-08	5.495220e+01	1.910302e+03
1.510000e-06	7.628105e-06	2.912651e-08	5.523176e+01	1.912909e+03
1.520000e-06	7.664118e-06	2.916049e-08	5.549252e+01	1.915172e+03
1.530000e-06	7.697418e-06	2.919057e-08	5.573362e+01	1.917069e+03
1.540000e-06	7.727938e-06	2.921702e-08	5.595461e+01	1.918618e+03
1.550000e-06	7.755772e-06	2.924048e-08	5.615614e+01	1.919876e+03
1.560000e-06	7.780769e-06	2.926020e-08	5.633714e+01	1.920921e+03
1.570000e-06	7.802923e-06	2.927599e-08	5.649754e+01	1.921832e+03
1.580000e-06	7.822478e-06	2.928866e-08	5.663913e+01	1.922661e+03
1.590000e-06	7.839234e-06	2.929933e-08	5.676045e+01	1.923425e+03
1.600000e-06	7.852986e-06	2.930805e-08	5.686003e+01	1.924101e+03
1.610000e-06	7.863646e-06	2.931386e-08	5.693721e+01	1.924637e+03
1.620000e-06	7.871249e-06	2.931640e-08	5.699226e+01	1.924971e+03
1.630000e-06	7.876064e-06	2.931728e-08	5.702712e+01	1.925051e+03
1.640000e-06	7.878050e-06	2.931757e-08	5.704150e+01	1.924856e+03
1.650000e-06	7.877257e-06	2.931392e-08	5.703576e+01	1.924401e+03
1.660000e-06	7.873907e-06	2.930363e-08	5.701151e+01	1.923734e+03
1.670000e-06	7.867951e-06	2.929610e-08	5.696838e+01	1.922919e+03
1.680000e-06	7.859361e-06	2.928666e-08	5.690619e+01	1.922017e+03
1.690000e-06	7.848100e-06	2.927376e-08	5.682465e+01	1.921065e+03
1.700000e-06	7.834007e-06	2.926023e-08	5.672261e+01	1.920065e+03
1.710000e-06	7.817298e-06	2.924780e-08	5.660162e+01	1.918981e+03
1.720000e-06	7.798314e-06	2.923738e-08	5.646417e+01	1.917752e+03
1.730000e-06	7.776963e-06	2.918280e-08	5.630958e+01	1.916312e+03
1.740000e-06	7.752618e-06	2.911008e-08	5.613331e+01	1.914608e+03
1.750000e-06	7.724679e-06	2.910028e-08	5.593101e+01	1.912623e+03
1.760000e-06	7.693287e-06	2.909125e-08	5.570372e+01	1.910377e+03
1.770000e-06	7.659195e-06	2.906287e-08	5.545687e+01	1.907924e+03
1.780000e-06	7.622924e-06	2.906216e-08	5.519425e+01	1.905335e+03
1.790000e-06	7.584487e-06	2.906074e-08	5.491594e+01	1.902676e+03
1.800000e-06	7.544050e-06	2.893998e-08	5.462315e+01	1.899982e+03
1.810000e-06	7.501372e-06	2.891602e-08	5.431414e+01	1.897250e+03
1.820000e-06	7.455999e-06	2.890698e-08	5.398562e+01	1.894430e+03
1.830000e-06	7.408028e-06	2.881408e-08	5.363828e+01	1.891443e+03
1.840000e-06	7.357231e-06	2.883648e-08	5.327048e+01	1.888198e+03
1.850000e-06	7.303497e-06	2.873536e-08	5.288142e+01	1.884621e+03
1.860000e-06	7.246975e-06	2.870403e-08	5.247217e+01	1.880671e+03
1.870000e-06	7.187806e-06	2.868268e-08	5.204375e+01	1.876350e+03
1.880000e-06	7.126087e-06	2.853994e-08	5.159687e+01	1.871704e+03
1.890000e-06	7.061530e-06	2.850028e-08	5.112944e+01	1.866799e+03
1.900000e-06	6.994222e-06	2.840431e-08	5.064209e+01	1.861706e+03
1.910000e-06	6.924247e-06	2.832681e-08	5.013544e+01	1.856471e+03
1.920000e-06	6.851562e-06	2.824517e-08	4.960915e+01	1.851102e+03
1.930000e-06	6.776204e-06	2.816382e-08	4.906352e+01	1.845565e+03
1.940000e-06	6.698106e-06	2.811516e-08	4.849805e+01	1.839793e+03
1.950000e-06	6.617457e-06	2.796500e-08	4.791410e+01	1.833704e+03
1.960000e-06	6.534367e-06	2.786461e-08	4.731249e+01	1.827232e+03
1.970000e-06	6.448909e-06	2.776950e-08	4.669372e+01	1.820341e+03
1.980000e-06	6.361086e-06	2.767924e-08	4.605783e+01	1.813035e+03
1.990000e-06	6.270929e-06	2.756431e-08	4.540504e+01	1.805361e+03
2.000000e-06	6.178677e-06	2.743012e-08	4.473709e+01	1.797383e+03
2.010000e-06	6.084232e-06	2.732768e-08	4.405326e+01	1.789164e+03
2.020000e-06	5.987570e-06	2.718129e-08	4.335337e+01	1.780742e+03
2.030000e-06	5.888740e-06	2.704548e-08	4.263778e+01	1.772107e+03
2.040000e-06	5.787866e-06	2.692049e-08	4.190740e+01	1.763206e+03
2.050000e-06	5.684966e-06	2.679403e-08	4.116234e+01	1.753949e+03
2.060000e-06	5.580034e-06	2.661988e-08	4.040257e+01	1.744234e+03
2.070000e-06	5.473155e-06	2.645014e-08	3.962871e+01	1.733975e+03
2.080000e-06	5.364390e-06	2.629995e-08	3.884119e+01	1.723125e+03
2.090000e-06	5.253771e-06	2.613100e-08	3.804025e+01	1.711683e+03
2.100000e-06	5.141238e-06	2.594922e-08	3.722545e+01	1.699695e+03
2.110000e-06	5.026767e-06	2.576102e-08	3.639661e+01	1.687229e+03
2.120000e-06	4.910335e-06	2.557347e-08	3.555358e+01	1.674349e+03
2.130000e-06	4.791946e-06	2.535990e-08	3.469638e+01	1.661084e+03
2.140000e-06	4.671689e-06	2.514941e-08	3.382565e+01	1.647408e+03
2.150000e-06	4.549770e-06	2.494338e-08	3.294289e+01	1.633241e+03
2.160000e-06	4.426137e-06	2.472059e-08	3.204771e+01	1.618457e+03
2.170000e-06	4.300902e-06	2.447016e-08	3.114095e+01	1.602920e+03
2.180000e-06	4.174145e-06	2.421631e-08	3.022315e+01	1.586510e+03
2.190000e-06	4.045817e-06	2.396048e-08	2.929399e+01	1.569160e+03
2.200000e-06	3.915986e-06	2.369034e-08	2.835394e+01	1.550860e+03
2.210000e-06	3.784616e-06	2.340588e-08	2.740274e+01	1.531656e+03
2.220000e-06	3.651904e-06	2.311088e-08	2.644184e+01	1.511620e+03
2.230000e-06	3.517983e-06	2.279944e-08	2.547217e+01	1.490813e+03
2.240000e-06	3.382664e-06	2.246431e-08	2.449239e+01	1.469241e+03
2.250000e-06	3.245959e-06	2.211856e-08	2.350257e+01	1.446833e+03
2.260000e-06	3.108007e-06	2.176114e-08	2.250371e+01	1.423431e+03
2.270000e-06	2.968884e-06	2.138760e-08	2.149638e+01	1.398807e+03
2.280000e-06	2.828637e-06	2.098655e-08	2.048092e+01	1.372705e+03
2.290000e-06	2.687375e-06	2.055968e-08	1.945810e+01	1.344884e+03
2.300000e-06	2.545160e-06	2.011124e-08	1.842838e+01	1.315159e+03
2.310000e-06	2.401945e-06	1.963745e-08	1.739143e+01	1.283416e+03
2.320000e-06	2.257810e-06	1.913044e-08	1.634781e+01	1.249606e+03
2.330000e-06	2.112882e-06	1.858779e-08	1.529845e+01	1.213700e+03
2.340000e-06	1.967272e-06	1.800969e-08	1.424415e+01	1.175633e+03
2.350000e-06	1.821011e-06	1.739307e-08	1.318514e+01	1.135245e+03
2.360000e-06	1.674094e-06	1.673080e-08	1.212138e+01	1.092237e+03
2.370000e-06	1.526627e-06	1.602063e-08	1.105363e+01	1.046172e+03
2.380000e-06	1.378725e-06	1.525934e-08	9.982745e+00	9.965178e+02
2.390000e-06	1.230382e-06	1.443617e-08	8.908660e+00	9.427293e+02
2.400000e-06	1.081575e-06	1.354533e-08	7.831210e+00	8.843626e+02
2.410000e-06	9.323831e-07	1.258999e-08	6.750977e+00	8.211833e+02
2.420000e-06	7.829304e-07	1.157105e-08	5.668856e+00	7.532470e+02
2.430000e-06	6.332588e-07	1.048319e-08	4.585149e+00	6.809254e+02
2.440000e-06	4.834256e-07	9.328873e-09	3.500273e+00	6.048640e+02
2.450000e-06	3.334778e-07	8.119922e-09	2.414567e+00	5.258765e+02
2.460000e-06	1.834105e-07	6.871611e-09	1.327995e+00	4.447962e+02
2.470000e-06	3.325088e-08	5.596634e-09	2.407550e-01	3.623159e+02
2.480000e-06	-1.169727e-07	4.307875e-09	-8.469480e-01	2.788584e+02
2.490000e-06	-2.671724e-07	3.013016e-09	-1.934478e+00	1.945080e+02
2.500000e-06	-4.173349e-07	1.708082e-09	-3.021739e+00	1.090272e+02
2.510000e-06	-5.674184e-07	3.874957e-10	-4.108428e+00	2.195944e+01
2.520000e-06	-7.173096e-07	-9.561174e-10	-5.193724e+00	-6.720230e+01
2.530000e-06	-8.670150e-07	-2.335039e-09	-6.277675e+00	-1.588153e+02
2.540000e-06	-1.016473e-06	-3.762695e-09	-7.359834e+00	-2.529021e+02
2.550000e-06	-1.165570e-06	-5.237877e-09	-8.439383e+00	-3.490237e+02
2.560000e-06	-1.314203e-06	-6.741322e-09	-9.515569e+00	-4.462430e+02
2.570000e-06	-1.462335e-06	-8.246367e-09	-1.058813e+01	-5.431906e+02
2.580000e-06	-1.609981e-06	-9.718546e-09	-1.165717e+01	-6.382215e+02
2.590000e-06	-1.757024e-06	-1.112245e-08	-1.272184e+01	-7.296330e+02
2.600000e-06	-1.903405e-06	-1.243448e-08	-1.378172e+01	-8.158973e+02
2.610000e-06	-2.049140e-06	-1.364488e-08	-1.483692e+01	-8.958638e+02
2.620000e-06	-2.194157e-06	-1.474988e-08	-1.588693e+01	-9.688896e+02
2.630000e-06	-2.338315e-06	-1.575213e-08	-1.693071e+01	-1.034877e+03
2.640000e-06	-2.481490e-06	-1.666050e-08	-1.796738e+01	-1.094218e+03
2.650000e-06	-2.623599e-06	-1.748836e-08	-1.899633e+01	-1.147656e+03
2.660000e-06	-2.764610e-06	-1.824484e-08	-2.001733e+01	-1.196118e+03
2.670000e-06	-2.904503e-06	-1.893869e-08	-2.103023e+01	-1.240529e+03
2.680000e-06	-3.043246e-06	-1.957870e-08	-2.203481e+01	-1.281677e+03
2.690000e-06	-3.180849e-06	-2.017031e-08	-2.303113e+01	-1.320124e+03
2.700000e-06	-3.317250e-06	-2.071892e-08	-2.401875e+01	-1.356196e+03
2.710000e-06	-3.452355e-06	-2.122639e-08	-2.499699e+01	-1.390023e+03
2.720000e-06	-3.586209e-06	-2.169696e-08	-2.596617e+01	-1.421626e+03
2.730000e-06	-3.718797e-06	-2.213704e-08	-2.692617e+01	-1.451004e+03
2.740000e-06	-3.850057e-06	-2.255053e-08	-2.787657e+01	-1.478210e+03
2.750000e-06	-3.979978e-06	-2.294074e-08	-2.881727e+01	-1.503392e+03
2.760000e-06	-4.108546e-06	-2.330752e-08	-2.974818e+01	-1.526792e+03
2.770000e-06	-4.235667e-06	-2.365088e-08	-3.066861e+01	-1.548707e+03
2.780000e-06	-4.361312e-06	-2.397386e-08	-3.157835e+01	-1.569435e+03
2.790000e-06	-4.485495e-06	-2.427799e-08	-3.247750e+01	-1.589215e+03
2.800000e-06	-4.608121e-06	-2.456660e-08	-3.336538e+01	-1.608196e+03
2.810000e-06	-4.729118e-06	-2.484194e-08	-3.424147e+01	-1.626419e+03
2.820000e-06	-4.848274e-06	-2.510206e-08	-3.510422e+01	-1.643839e+03
2.830000e-06	-4.965446e-06	-2.534869e-08	-3.595261e+01	-1.660369e+03
2.840000e-06	-5.080695e-06	-2.558391e-08	-3.678708e+01	-1.675927e+03
2.850000e-06	-5.193897e-06	-2.580806e-08	-3.760673e+01	-1.690479e+03
2.860000e-06	-5.304958e-06	-2.602124e-08	-3.841087e+01	-1.704064e+03
2.870000e-06	-5.414111e-06	-2.622347e-08	-3.920120e+01	-1.716792e+03
2.880000e-06	-5.521468e-06	-2.641625e-08	-3.997853e+01	-1.728820e+03
2.890000e-06	-5.626920e-06	-2.659863e-08	-4.074206e+01	-1.740313e+03
2.900000e-06	-5.730262e-06	-2.676991e-08	-4.149031e+01	-1.751405e+03
2.910000e-06	-5.831363e-06	-2.693198e-08	-4.222234e+01	-1.762170e+03
2.920000e-06	-5.930382e-06	-2.708702e-08	-4.293930e+01	-1.772611e+03
2.930000e-06	-6.027412e-06	-2.723559e-08	-4.364185e+01	-1.782671e+03
2.940000e-06	-6.122263e-06	-2.737679e-08	-4.432862e+01	-1.792260e+03
