# Temperatura_=_59.3
# Concentracion g/m^3_=_28200.0
# C_Vs_to_Am_M_A/Vsm_=_65563218390.804596
# pendiente_HvsI_1/m_=_3716.3
# ordenada_HvsI_A/m_=_1297.0
# frecuencia_Hz_=_302513.41790436837

Tiempo_(s)	Campo_(V.s)	Magnetizacion_(V.s)	Campo_(kA/m)	Magnetizacion_(A/m)
0.000000e+00	-7.896065e-06	-2.603545e-08	-5.683928e+01	-1.705976e+03
1.000000e-08	-7.891826e-06	-2.602910e-08	-5.680876e+01	-1.705342e+03
2.000000e-08	-7.885070e-06	-2.601935e-08	-5.676013e+01	-1.704554e+03
3.000000e-08	-7.875575e-06	-2.600924e-08	-5.669179e+01	-1.703677e+03
4.000000e-08	-7.863194e-06	-2.599728e-08	-5.660266e+01	-1.702761e+03
5.000000e-08	-7.847917e-06	-2.598131e-08	-5.649269e+01	-1.701824e+03
6.000000e-08	-7.830005e-06	-2.596042e-08	-5.636375e+01	-1.700850e+03
7.000000e-08	-7.809945e-06	-2.593201e-08	-5.621935e+01	-1.699795e+03
8.000000e-08	-7.787525e-06	-2.592494e-08	-5.605796e+01	-1.698599e+03
9.000000e-08	-7.762137e-06	-2.595872e-08	-5.587521e+01	-1.697212e+03
1.000000e-07	-7.733546e-06	-2.591632e-08	-5.566940e+01	-1.695606e+03
1.100000e-07	-7.702003e-06	-2.585347e-08	-5.544234e+01	-1.693787e+03
1.200000e-07	-7.667656e-06	-2.582703e-08	-5.519509e+01	-1.691792e+03
1.300000e-07	-7.630712e-06	-2.579511e-08	-5.492916e+01	-1.689676e+03
1.400000e-07	-7.591517e-06	-2.572282e-08	-5.464701e+01	-1.687494e+03
1.500000e-07	-7.550093e-06	-2.565848e-08	-5.434882e+01	-1.685282e+03
1.600000e-07	-7.506261e-06	-2.571336e-08	-5.403330e+01	-1.683044e+03
1.700000e-07	-7.459836e-06	-2.562855e-08	-5.369912e+01	-1.680745e+03
1.800000e-07	-7.410619e-06	-2.554871e-08	-5.334483e+01	-1.678322e+03
1.900000e-07	-7.358456e-06	-2.557200e-08	-5.296934e+01	-1.675699e+03
2.000000e-07	-7.303491e-06	-2.549624e-08	-5.257368e+01	-1.672806e+03
2.100000e-07	-7.245835e-06	-2.547192e-08	-5.215864e+01	-1.669598e+03
2.200000e-07	-7.185519e-06	-2.540956e-08	-5.172446e+01	-1.666068e+03
2.300000e-07	-7.122671e-06	-2.533848e-08	-5.127205e+01	-1.662243e+03
2.400000e-07	-7.057096e-06	-2.529696e-08	-5.080002e+01	-1.658174e+03
2.500000e-07	-6.988782e-06	-2.520736e-08	-5.030827e+01	-1.653918e+03
2.600000e-07	-6.917807e-06	-2.515167e-08	-4.979736e+01	-1.649521e+03
2.700000e-07	-6.844042e-06	-2.508148e-08	-4.926636e+01	-1.645000e+03
2.800000e-07	-6.767517e-06	-2.500885e-08	-4.871551e+01	-1.640338e+03
2.900000e-07	-6.688230e-06	-2.491378e-08	-4.814476e+01	-1.635492e+03
3.000000e-07	-6.606333e-06	-2.483030e-08	-4.755523e+01	-1.630405e+03
3.100000e-07	-6.522230e-06	-2.476868e-08	-4.694982e+01	-1.625025e+03
3.200000e-07	-6.435966e-06	-2.467523e-08	-4.632885e+01	-1.619319e+03
3.300000e-07	-6.347366e-06	-2.460496e-08	-4.569107e+01	-1.613283e+03
3.400000e-07	-6.256405e-06	-2.449161e-08	-4.503630e+01	-1.606939e+03
3.500000e-07	-6.163222e-06	-2.438583e-08	-4.436553e+01	-1.600325e+03
3.600000e-07	-6.067852e-06	-2.429221e-08	-4.367901e+01	-1.593477e+03
3.700000e-07	-5.970175e-06	-2.418608e-08	-4.297589e+01	-1.586410e+03
3.800000e-07	-5.870353e-06	-2.408043e-08	-4.225733e+01	-1.579111e+03
3.900000e-07	-5.768554e-06	-2.396704e-08	-4.152454e+01	-1.571531e+03
4.000000e-07	-5.664646e-06	-2.384724e-08	-4.077656e+01	-1.563601e+03
4.100000e-07	-5.558634e-06	-2.369574e-08	-4.001345e+01	-1.555248e+03
4.200000e-07	-5.450726e-06	-2.356192e-08	-3.923668e+01	-1.546414e+03
4.300000e-07	-5.340951e-06	-2.342080e-08	-3.844646e+01	-1.537072e+03
4.400000e-07	-5.229203e-06	-2.327293e-08	-3.764206e+01	-1.527233e+03
4.500000e-07	-5.115408e-06	-2.311803e-08	-3.682291e+01	-1.516939e+03
4.600000e-07	-4.999615e-06	-2.296130e-08	-3.598938e+01	-1.506242e+03
4.700000e-07	-4.881983e-06	-2.279442e-08	-3.514261e+01	-1.495185e+03
4.800000e-07	-4.762593e-06	-2.261443e-08	-3.428320e+01	-1.483775e+03
4.900000e-07	-4.641436e-06	-2.243637e-08	-3.341105e+01	-1.471974e+03
5.000000e-07	-4.518493e-06	-2.224755e-08	-3.252606e+01	-1.459694e+03
5.100000e-07	-4.393893e-06	-2.204631e-08	-3.162913e+01	-1.446819e+03
5.200000e-07	-4.267800e-06	-2.182710e-08	-3.072147e+01	-1.433226e+03
5.300000e-07	-4.140190e-06	-2.160563e-08	-2.980287e+01	-1.418816e+03
5.400000e-07	-4.011038e-06	-2.137009e-08	-2.887318e+01	-1.403534e+03
5.500000e-07	-3.880328e-06	-2.112278e-08	-2.793227e+01	-1.387382e+03
5.600000e-07	-3.748091e-06	-2.086655e-08	-2.698038e+01	-1.370402e+03
5.700000e-07	-3.614489e-06	-2.060193e-08	-2.601865e+01	-1.352658e+03
5.800000e-07	-3.479555e-06	-2.032307e-08	-2.504734e+01	-1.334195e+03
5.900000e-07	-3.343297e-06	-2.002712e-08	-2.406649e+01	-1.315008e+03
6.000000e-07	-3.205738e-06	-1.972075e-08	-2.307628e+01	-1.295020e+03
6.100000e-07	-3.066836e-06	-1.939490e-08	-2.207641e+01	-1.274080e+03
6.200000e-07	-2.926591e-06	-1.904915e-08	-2.106686e+01	-1.251978e+03
6.300000e-07	-2.785123e-06	-1.868150e-08	-2.004852e+01	-1.228485e+03
6.400000e-07	-2.642454e-06	-1.829711e-08	-1.902152e+01	-1.203387e+03
6.500000e-07	-2.498701e-06	-1.788908e-08	-1.798673e+01	-1.176522e+03
6.600000e-07	-2.354137e-06	-1.745328e-08	-1.694609e+01	-1.147786e+03
6.700000e-07	-2.208779e-06	-1.699041e-08	-1.589975e+01	-1.117125e+03
6.800000e-07	-2.062588e-06	-1.649614e-08	-1.484740e+01	-1.084494e+03
6.900000e-07	-1.915746e-06	-1.596926e-08	-1.379036e+01	-1.049806e+03
7.000000e-07	-1.768434e-06	-1.540145e-08	-1.272995e+01	-1.012884e+03
7.100000e-07	-1.620578e-06	-1.479209e-08	-1.166562e+01	-9.734310e+02
7.200000e-07	-1.472182e-06	-1.413638e-08	-1.059740e+01	-9.310349e+02
7.300000e-07	-1.323352e-06	-1.343079e-08	-9.526054e+00	-8.852181e+02
7.400000e-07	-1.174163e-06	-1.266752e-08	-8.452134e+00	-8.355183e+02
7.500000e-07	-1.024640e-06	-1.184511e-08	-7.375803e+00	-7.815909e+02
7.600000e-07	-8.747138e-07	-1.096677e-08	-6.296567e+00	-7.233045e+02
7.700000e-07	-7.243863e-07	-1.002734e-08	-5.214444e+00	-6.608061e+02
7.800000e-07	-5.737852e-07	-9.026424e-09	-4.130353e+00	-5.945326e+02
7.900000e-07	-4.229956e-07	-7.970174e-09	-3.044904e+00	-5.251605e+02
8.000000e-07	-2.720544e-07	-6.872443e-09	-1.958365e+00	-4.534983e+02
8.100000e-07	-1.209878e-07	-5.744436e-09	-8.709223e-01	-3.803430e+02
8.200000e-07	3.018995e-08	-4.603466e-09	2.173203e-01	-3.063316e+02
8.300000e-07	1.813938e-07	-3.462387e-09	1.305751e+00	-2.318238e+02
8.400000e-07	3.325023e-07	-2.323665e-09	2.393495e+00	-1.568460e+02
8.500000e-07	4.835330e-07	-1.177128e-09	3.480679e+00	-8.111420e+01
8.600000e-07	6.344248e-07	-1.398242e-11	4.566863e+00	-4.136768e+00
8.700000e-07	7.850710e-07	1.173286e-09	5.651279e+00	7.462356e+01
8.800000e-07	9.354585e-07	2.396735e-09	6.733833e+00	1.555617e+02
8.900000e-07	1.085514e-06	3.660458e-09	7.814000e+00	2.387584e+02
9.000000e-07	1.235218e-06	4.961451e-09	8.891634e+00	3.238643e+02
9.100000e-07	1.384502e-06	6.284640e-09	9.966242e+00	4.100676e+02
9.200000e-07	1.533298e-06	7.611586e-09	1.103734e+01	4.961560e+02
9.300000e-07	1.681572e-06	8.910431e-09	1.210468e+01	5.806603e+02
9.400000e-07	1.829246e-06	1.014876e-08	1.316770e+01	6.620531e+02
9.500000e-07	1.976298e-06	1.130585e-08	1.422624e+01	7.389589e+02
9.600000e-07	2.122713e-06	1.237101e-08	1.528020e+01	8.103360e+02
9.700000e-07	2.268363e-06	1.334538e-08	1.632866e+01	8.755934e+02
9.800000e-07	2.413199e-06	1.423074e-08	1.737125e+01	9.346235e+02
9.900000e-07	2.557135e-06	1.503776e-08	1.840736e+01	9.877508e+02
1.000000e-06	2.699976e-06	1.577218e-08	1.943559e+01	1.035614e+03
1.010000e-06	2.841733e-06	1.644117e-08	2.045602e+01	1.079010e+03
1.020000e-06	2.982303e-06	1.705227e-08	2.146790e+01	1.118742e+03
1.030000e-06	3.121639e-06	1.761455e-08	2.247090e+01	1.155492e+03
1.040000e-06	3.259832e-06	1.813573e-08	2.346568e+01	1.189756e+03
1.050000e-06	3.396746e-06	1.861829e-08	2.445124e+01	1.221826e+03
1.060000e-06	3.532280e-06	1.906709e-08	2.542688e+01	1.251833e+03
1.070000e-06	3.666530e-06	1.948505e-08	2.639327e+01	1.279817e+03
1.080000e-06	3.799502e-06	1.987709e-08	2.735045e+01	1.305805e+03
1.090000e-06	3.931077e-06	2.024322e-08	2.829758e+01	1.329870e+03
1.100000e-06	4.061263e-06	2.058498e-08	2.923472e+01	1.352161e+03
1.110000e-06	4.189994e-06	2.090536e-08	3.016138e+01	1.372900e+03
1.120000e-06	4.317178e-06	2.121005e-08	3.107691e+01	1.392348e+03
1.130000e-06	4.442916e-06	2.149663e-08	3.198202e+01	1.410755e+03
1.140000e-06	4.567203e-06	2.176373e-08	3.287670e+01	1.428313e+03
1.150000e-06	4.689950e-06	2.201495e-08	3.376028e+01	1.445130e+03
1.160000e-06	4.811042e-06	2.225262e-08	3.463195e+01	1.461228e+03
1.170000e-06	4.930322e-06	2.247884e-08	3.549058e+01	1.476559e+03
1.180000e-06	5.047808e-06	2.269526e-08	3.633630e+01	1.491047e+03
1.190000e-06	5.163506e-06	2.290092e-08	3.716914e+01	1.504634e+03
1.200000e-06	5.277177e-06	2.309506e-08	3.798740e+01	1.517310e+03
1.210000e-06	5.388718e-06	2.327711e-08	3.879031e+01	1.529130e+03
1.220000e-06	5.498367e-06	2.344832e-08	3.957962e+01	1.540207e+03
1.230000e-06	5.606188e-06	2.361164e-08	4.035575e+01	1.550689e+03
1.240000e-06	5.711946e-06	2.376694e-08	4.111705e+01	1.560714e+03
1.250000e-06	5.815503e-06	2.391612e-08	4.186250e+01	1.570387e+03
1.260000e-06	5.916910e-06	2.405843e-08	4.259247e+01	1.579748e+03
1.270000e-06	6.016153e-06	2.419368e-08	4.330686e+01	1.588774e+03
1.280000e-06	6.113097e-06	2.432265e-08	4.400471e+01	1.597393e+03
1.290000e-06	6.207758e-06	2.444505e-08	4.468612e+01	1.605516e+03
1.300000e-06	6.300203e-06	2.456120e-08	4.535158e+01	1.613069e+03
1.310000e-06	6.390463e-06	2.466964e-08	4.600130e+01	1.620024e+03
1.320000e-06	6.478411e-06	2.476831e-08	4.663439e+01	1.626414e+03
1.330000e-06	6.564045e-06	2.486033e-08	4.725083e+01	1.632325e+03
1.340000e-06	6.647472e-06	2.494842e-08	4.785137e+01	1.637878e+03
1.350000e-06	6.728527e-06	2.503200e-08	4.843484e+01	1.643197e+03
1.360000e-06	6.807064e-06	2.511216e-08	4.900018e+01	1.648379e+03
1.370000e-06	6.883033e-06	2.518987e-08	4.954704e+01	1.653470e+03
1.380000e-06	6.956373e-06	2.526306e-08	5.007497e+01	1.658461e+03
1.390000e-06	7.027131e-06	2.533156e-08	5.058432e+01	1.663295e+03
1.400000e-06	7.095445e-06	2.539673e-08	5.107607e+01	1.667890e+03
1.410000e-06	7.161194e-06	2.545978e-08	5.154936e+01	1.672171e+03
1.420000e-06	7.224350e-06	2.552127e-08	5.200398e+01	1.676090e+03
1.430000e-06	7.285093e-06	2.557835e-08	5.244124e+01	1.679644e+03
1.440000e-06	7.343359e-06	2.562936e-08	5.286066e+01	1.682877e+03
1.450000e-06	7.399022e-06	2.567640e-08	5.326135e+01	1.685860e+03
1.460000e-06	7.451932e-06	2.572234e-08	5.364222e+01	1.688674e+03
1.470000e-06	7.501816e-06	2.576692e-08	5.400130e+01	1.691382e+03
1.480000e-06	7.548750e-06	2.581004e-08	5.433915e+01	1.694008e+03
1.490000e-06	7.593043e-06	2.584946e-08	5.465799e+01	1.696537e+03
1.500000e-06	7.634607e-06	2.588279e-08	5.495719e+01	1.698916e+03
1.510000e-06	7.673422e-06	2.590984e-08	5.523660e+01	1.701074e+03
1.520000e-06	7.709659e-06	2.593260e-08	5.549745e+01	1.702950e+03
1.530000e-06	7.743171e-06	2.595400e-08	5.573868e+01	1.704507e+03
1.540000e-06	7.773865e-06	2.597597e-08	5.595963e+01	1.705751e+03
1.550000e-06	7.801873e-06	2.599674e-08	5.616124e+01	1.706728e+03
1.560000e-06	7.827063e-06	2.601336e-08	5.634257e+01	1.707514e+03
1.570000e-06	7.849356e-06	2.602761e-08	5.650305e+01	1.708189e+03
1.580000e-06	7.868900e-06	2.604009e-08	5.664373e+01	1.708819e+03
1.590000e-06	7.885583e-06	2.605142e-08	5.676382e+01	1.709434e+03
1.600000e-06	7.899273e-06	2.606037e-08	5.686237e+01	1.710023e+03
1.610000e-06	7.909870e-06	2.606560e-08	5.693865e+01	1.710538e+03
1.620000e-06	7.917424e-06	2.606764e-08	5.699303e+01	1.710912e+03
1.630000e-06	7.922181e-06	2.606756e-08	5.702727e+01	1.711078e+03
1.640000e-06	7.924158e-06	2.606813e-08	5.704150e+01	1.710992e+03
1.650000e-06	7.923377e-06	2.606723e-08	5.703588e+01	1.710645e+03
1.660000e-06	7.919967e-06	2.605884e-08	5.701133e+01	1.710067e+03
1.670000e-06	7.913837e-06	2.605453e-08	5.696721e+01	1.709314e+03
1.680000e-06	7.905039e-06	2.604663e-08	5.690388e+01	1.708455e+03
1.690000e-06	7.893638e-06	2.603376e-08	5.682181e+01	1.707545e+03
1.700000e-06	7.879418e-06	2.602023e-08	5.671945e+01	1.706614e+03
1.710000e-06	7.862587e-06	2.600979e-08	5.659829e+01	1.705653e+03
1.720000e-06	7.843509e-06	2.600348e-08	5.646096e+01	1.704625e+03
1.730000e-06	7.821988e-06	2.593642e-08	5.630604e+01	1.703474e+03
1.740000e-06	7.797463e-06	2.587084e-08	5.612950e+01	1.702144e+03
1.750000e-06	7.769334e-06	2.589152e-08	5.592701e+01	1.700601e+03
1.760000e-06	7.737652e-06	2.588247e-08	5.569895e+01	1.698839e+03
1.770000e-06	7.703270e-06	2.584085e-08	5.545145e+01	1.696888e+03
1.780000e-06	7.666763e-06	2.585601e-08	5.518866e+01	1.694799e+03
1.790000e-06	7.628041e-06	2.588758e-08	5.490992e+01	1.692630e+03
1.800000e-06	7.587321e-06	2.575276e-08	5.461680e+01	1.690423e+03
1.810000e-06	7.544390e-06	2.575581e-08	5.430777e+01	1.688194e+03
1.820000e-06	7.498679e-06	2.575088e-08	5.397872e+01	1.685916e+03
1.830000e-06	7.450350e-06	2.563482e-08	5.363083e+01	1.683535e+03
1.840000e-06	7.399167e-06	2.567555e-08	5.326239e+01	1.680976e+03
1.850000e-06	7.344941e-06	2.554960e-08	5.287205e+01	1.678164e+03
1.860000e-06	7.287983e-06	2.554726e-08	5.246204e+01	1.675048e+03
1.870000e-06	7.228451e-06	2.552437e-08	5.203351e+01	1.671607e+03
1.880000e-06	7.166268e-06	2.540649e-08	5.158589e+01	1.667861e+03
1.890000e-06	7.101248e-06	2.543072e-08	5.111784e+01	1.663854e+03
1.900000e-06	7.033550e-06	2.530845e-08	5.063052e+01	1.659645e+03
1.910000e-06	6.963169e-06	2.525328e-08	5.012389e+01	1.655284e+03
1.920000e-06	6.890032e-06	2.518387e-08	4.959742e+01	1.650797e+03
1.930000e-06	6.814220e-06	2.511917e-08	4.905169e+01	1.646178e+03
1.940000e-06	6.735621e-06	2.508706e-08	4.848591e+01	1.641389e+03
1.950000e-06	6.654446e-06	2.496119e-08	4.790157e+01	1.636376e+03
1.960000e-06	6.570859e-06	2.490698e-08	4.729988e+01	1.631082e+03
1.970000e-06	6.484831e-06	2.477911e-08	4.668061e+01	1.625470e+03
1.980000e-06	6.396407e-06	2.470938e-08	4.604409e+01	1.619525e+03
1.990000e-06	6.305722e-06	2.462892e-08	4.539131e+01	1.613264e+03
2.000000e-06	6.212907e-06	2.452496e-08	4.472318e+01	1.606722e+03
2.010000e-06	6.117828e-06	2.443763e-08	4.403876e+01	1.599937e+03
2.020000e-06	6.020500e-06	2.430334e-08	4.333815e+01	1.592932e+03
2.030000e-06	5.921105e-06	2.419133e-08	4.262267e+01	1.585701e+03
2.040000e-06	5.819645e-06	2.406107e-08	4.189231e+01	1.578207e+03
2.050000e-06	5.716024e-06	2.396586e-08	4.114641e+01	1.570384e+03
2.060000e-06	5.610390e-06	2.383546e-08	4.038601e+01	1.562157e+03
2.070000e-06	5.502927e-06	2.370655e-08	3.961244e+01	1.553464e+03
2.080000e-06	5.393592e-06	2.356596e-08	3.882540e+01	1.544266e+03
2.090000e-06	5.282250e-06	2.341775e-08	3.802391e+01	1.534565e+03
2.100000e-06	5.168895e-06	2.326538e-08	3.720794e+01	1.524394e+03
2.110000e-06	5.053609e-06	2.310733e-08	3.637806e+01	1.513805e+03
2.120000e-06	4.936342e-06	2.295514e-08	3.553392e+01	1.502847e+03
2.130000e-06	4.817111e-06	2.277621e-08	3.467564e+01	1.491539e+03
2.140000e-06	4.696104e-06	2.259266e-08	3.380458e+01	1.479855e+03
2.150000e-06	4.573483e-06	2.239787e-08	3.292190e+01	1.467722e+03
2.160000e-06	4.449182e-06	2.220757e-08	3.202713e+01	1.455029e+03
2.170000e-06	4.323206e-06	2.199802e-08	3.112030e+01	1.441652e+03
2.180000e-06	4.195619e-06	2.178764e-08	3.020188e+01	1.427481e+03
2.190000e-06	4.066492e-06	2.156696e-08	2.927236e+01	1.412450e+03
2.200000e-06	3.935920e-06	2.133447e-08	2.833245e+01	1.396542e+03
2.210000e-06	3.803888e-06	2.108230e-08	2.738203e+01	1.379791e+03
2.220000e-06	3.670380e-06	2.081863e-08	2.642098e+01	1.362258e+03
2.230000e-06	3.535514e-06	2.054409e-08	2.545015e+01	1.343997e+03
2.240000e-06	3.399338e-06	2.024956e-08	2.446990e+01	1.325020e+03
2.250000e-06	3.261855e-06	1.994472e-08	2.348023e+01	1.305272e+03
2.260000e-06	3.123170e-06	1.962791e-08	2.248192e+01	1.284622e+03
2.270000e-06	2.983276e-06	1.929871e-08	2.147490e+01	1.262874e+03
2.280000e-06	2.842129e-06	1.894401e-08	2.045887e+01	1.239801e+03
2.290000e-06	2.699781e-06	1.856933e-08	1.943419e+01	1.215180e+03
2.300000e-06	2.556449e-06	1.817247e-08	1.840242e+01	1.188831e+03
2.310000e-06	2.412233e-06	1.775293e-08	1.736430e+01	1.160635e+03
2.320000e-06	2.267192e-06	1.730297e-08	1.632023e+01	1.130527e+03
2.330000e-06	2.121472e-06	1.682112e-08	1.527127e+01	1.098464e+03
2.340000e-06	1.975114e-06	1.630421e-08	1.421772e+01	1.064376e+03
2.350000e-06	1.828067e-06	1.574778e-08	1.315921e+01	1.028116e+03
2.360000e-06	1.680390e-06	1.515022e-08	1.209617e+01	9.894223e+02
2.370000e-06	1.532180e-06	1.451038e-08	1.102929e+01	9.479129e+02
2.380000e-06	1.383508e-06	1.382618e-08	9.959090e+00	9.031219e+02
2.390000e-06	1.234388e-06	1.308652e-08	8.885653e+00	8.545726e+02
2.400000e-06	1.084791e-06	1.228153e-08	7.808791e+00	8.018761e+02
2.410000e-06	9.347207e-07	1.141366e-08	6.728522e+00	7.448318e+02
2.420000e-06	7.842298e-07	1.048693e-08	5.645224e+00	6.835033e+02
2.430000e-06	6.334875e-07	9.501919e-09	4.560116e+00	6.182471e+02
2.440000e-06	4.825860e-07	8.462444e-09	3.473862e+00	5.496799e+02
2.450000e-06	3.315429e-07	7.378145e-09	2.386589e+00	4.785860e+02
2.460000e-06	1.803974e-07	6.261991e-09	1.298578e+00	4.057815e+02
2.470000e-06	2.916603e-08	5.122698e-09	2.099497e-01	3.319629e+02
2.480000e-06	-1.220545e-07	3.973383e-09	-8.786009e-01	2.575782e+02
2.490000e-06	-2.732351e-07	2.824211e-09	-1.966864e+00	1.827501e+02
2.500000e-06	-4.243826e-07	1.671542e-09	-3.054889e+00	1.072762e+02
2.510000e-06	-5.754422e-07	5.077866e-10	-4.142281e+00	3.070976e+01
2.520000e-06	-7.263640e-07	-6.763529e-10	-5.228681e+00	-4.749235e+01
2.530000e-06	-8.770547e-07	-1.889103e-09	-6.313418e+00	-1.277847e+02
2.540000e-06	-1.027402e-06	-3.141560e-09	-7.395684e+00	-2.103528e+02
2.550000e-06	-1.177354e-06	-4.435372e-09	-8.475098e+00	-2.949774e+02
2.560000e-06	-1.326841e-06	-5.758158e-09	-9.551176e+00	-3.809767e+02
2.570000e-06	-1.475804e-06	-7.089728e-09	-1.062348e+01	-4.672412e+02
2.580000e-06	-1.624208e-06	-8.404223e-09	-1.169175e+01	-5.523567e+02
2.590000e-06	-1.772009e-06	-9.674474e-09	-1.275568e+01	-6.347905e+02
2.600000e-06	-1.919133e-06	-1.087219e-08	-1.381475e+01	-7.131032e+02
2.610000e-06	-2.065504e-06	-1.198146e-08	-1.486838e+01	-7.861426e+02
2.620000e-06	-2.211165e-06	-1.299702e-08	-1.591692e+01	-8.531816e+02
2.630000e-06	-2.356055e-06	-1.392043e-08	-1.695990e+01	-9.139762e+02
2.640000e-06	-2.500022e-06	-1.475705e-08	-1.799623e+01	-9.687371e+02
2.650000e-06	-2.643018e-06	-1.551754e-08	-1.902558e+01	-1.018028e+03
2.660000e-06	-2.784998e-06	-1.621355e-08	-2.004762e+01	-1.062617e+03
2.670000e-06	-2.925838e-06	-1.685096e-08	-2.106144e+01	-1.103320e+03
2.680000e-06	-3.065413e-06	-1.743594e-08	-2.206616e+01	-1.140865e+03
2.690000e-06	-3.203725e-06	-1.797413e-08	-2.306179e+01	-1.175802e+03
2.700000e-06	-3.340805e-06	-1.846903e-08	-2.404855e+01	-1.208480e+03
2.710000e-06	-3.476650e-06	-1.892692e-08	-2.502642e+01	-1.239071e+03
2.720000e-06	-3.611279e-06	-1.935452e-08	-2.599554e+01	-1.267633e+03
2.730000e-06	-3.744590e-06	-1.975441e-08	-2.695517e+01	-1.294188e+03
2.740000e-06	-3.876499e-06	-2.013100e-08	-2.790471e+01	-1.318791e+03
2.750000e-06	-4.007068e-06	-2.048285e-08	-2.884460e+01	-1.341570e+03
2.760000e-06	-4.136285e-06	-2.081011e-08	-2.977476e+01	-1.362729e+03
2.770000e-06	-4.264092e-06	-2.111904e-08	-3.069477e+01	-1.382520e+03
2.780000e-06	-4.390472e-06	-2.141117e-08	-3.160451e+01	-1.401202e+03
2.790000e-06	-4.515298e-06	-2.168671e-08	-3.250306e+01	-1.418989e+03
2.800000e-06	-4.638524e-06	-2.194653e-08	-3.339009e+01	-1.436014e+03
2.810000e-06	-4.760192e-06	-2.219303e-08	-3.426592e+01	-1.452321e+03
2.820000e-06	-4.880112e-06	-2.242671e-08	-3.512915e+01	-1.467879e+03
2.830000e-06	-4.998095e-06	-2.264974e-08	-3.597844e+01	-1.482617e+03
2.840000e-06	-5.114046e-06	-2.286253e-08	-3.681310e+01	-1.496467e+03
2.850000e-06	-5.227915e-06	-2.306210e-08	-3.763278e+01	-1.509401e+03
2.860000e-06	-5.339690e-06	-2.324855e-08	-3.843739e+01	-1.521457e+03
2.870000e-06	-5.449427e-06	-2.342208e-08	-3.922732e+01	-1.532734e+03
2.880000e-06	-5.557302e-06	-2.358702e-08	-4.000386e+01	-1.543372e+03
2.890000e-06	-5.663299e-06	-2.374491e-08	-4.076687e+01	-1.553516e+03
2.900000e-06	-5.767257e-06	-2.389517e-08	-4.151520e+01	-1.563284e+03
2.910000e-06	-5.869009e-06	-2.403822e-08	-4.224765e+01	-1.572735e+03
2.920000e-06	-5.968567e-06	-2.417469e-08	-4.296432e+01	-1.581864e+03
2.930000e-06	-6.066026e-06	-2.430613e-08	-4.366587e+01	-1.590609e+03
2.940000e-06	-6.161359e-06	-2.442903e-08	-4.435212e+01	-1.598884e+03
