# Temperatura_=_30.3
# Concentracion g/m^3_=_28200.0
# C_Vs_to_Am_M_A/Vsm_=_65563218390.804596
# pendiente_HvsI_1/m_=_3716.3
# ordenada_HvsI_A/m_=_1297.0
# frecuencia_Hz_=_302513.7054562519

Tiempo_(s)	Campo_(V.s)	Magnetizacion_(V.s)	Campo_(kA/m)	Magnetizacion_(A/m)
0.000000e+00	-7.920529e-06	-2.524813e-08	-5.684012e+01	-1.653144e+03
1.000000e-08	-7.916314e-06	-2.524143e-08	-5.680987e+01	-1.652588e+03
2.000000e-08	-7.909539e-06	-2.523209e-08	-5.676125e+01	-1.651885e+03
3.000000e-08	-7.900076e-06	-2.522295e-08	-5.669334e+01	-1.651087e+03
4.000000e-08	-7.887805e-06	-2.521179e-08	-5.660528e+01	-1.650237e+03
5.000000e-08	-7.872566e-06	-2.519653e-08	-5.649592e+01	-1.649354e+03
6.000000e-08	-7.854614e-06	-2.517797e-08	-5.636709e+01	-1.648433e+03
7.000000e-08	-7.834500e-06	-2.515344e-08	-5.622275e+01	-1.647442e+03
8.000000e-08	-7.812061e-06	-2.515103e-08	-5.606172e+01	-1.646339e+03
9.000000e-08	-7.786643e-06	-2.516439e-08	-5.587931e+01	-1.645083e+03
1.000000e-07	-7.757964e-06	-2.512007e-08	-5.567350e+01	-1.643652e+03
1.100000e-07	-7.726284e-06	-2.507528e-08	-5.544616e+01	-1.642045e+03
1.200000e-07	-7.691797e-06	-2.505185e-08	-5.519867e+01	-1.640285e+03
1.300000e-07	-7.654731e-06	-2.501747e-08	-5.493267e+01	-1.638409e+03
1.400000e-07	-7.615388e-06	-2.495573e-08	-5.465033e+01	-1.636456e+03
1.500000e-07	-7.573824e-06	-2.491514e-08	-5.435206e+01	-1.634452e+03
1.600000e-07	-7.529829e-06	-2.495946e-08	-5.403633e+01	-1.632395e+03
1.700000e-07	-7.483183e-06	-2.486460e-08	-5.370159e+01	-1.630258e+03
1.800000e-07	-7.433751e-06	-2.481212e-08	-5.334685e+01	-1.627991e+03
1.900000e-07	-7.381366e-06	-2.482333e-08	-5.297092e+01	-1.625534e+03
2.000000e-07	-7.326154e-06	-2.474005e-08	-5.257470e+01	-1.622832e+03
2.100000e-07	-7.268297e-06	-2.471551e-08	-5.215951e+01	-1.619855e+03
2.200000e-07	-7.207811e-06	-2.465351e-08	-5.172544e+01	-1.616597e+03
2.300000e-07	-7.144761e-06	-2.460333e-08	-5.127297e+01	-1.613084e+03
2.400000e-07	-7.079018e-06	-2.455551e-08	-5.080118e+01	-1.609359e+03
2.500000e-07	-7.010555e-06	-2.448347e-08	-5.030987e+01	-1.605470e+03
2.600000e-07	-6.939383e-06	-2.442764e-08	-4.979911e+01	-1.601451e+03
2.700000e-07	-6.865381e-06	-2.436481e-08	-4.926805e+01	-1.597311e+03
2.800000e-07	-6.788621e-06	-2.430474e-08	-4.871720e+01	-1.593032e+03
2.900000e-07	-6.709133e-06	-2.421219e-08	-4.814677e+01	-1.588568e+03
3.000000e-07	-6.627039e-06	-2.413775e-08	-4.755764e+01	-1.583864e+03
3.100000e-07	-6.542690e-06	-2.407887e-08	-4.695233e+01	-1.578866e+03
3.200000e-07	-6.456139e-06	-2.399146e-08	-4.633121e+01	-1.573542e+03
3.300000e-07	-6.367279e-06	-2.391210e-08	-4.569353e+01	-1.567884e+03
3.400000e-07	-6.276078e-06	-2.380838e-08	-4.503904e+01	-1.561913e+03
3.500000e-07	-6.182590e-06	-2.371430e-08	-4.436814e+01	-1.555667e+03
3.600000e-07	-6.086869e-06	-2.362115e-08	-4.368121e+01	-1.549181e+03
3.700000e-07	-5.988857e-06	-2.351822e-08	-4.297786e+01	-1.542480e+03
3.800000e-07	-5.888681e-06	-2.341754e-08	-4.225896e+01	-1.535557e+03
3.900000e-07	-5.786507e-06	-2.330970e-08	-4.152573e+01	-1.528377e+03
4.000000e-07	-5.682293e-06	-2.319314e-08	-4.077786e+01	-1.520878e+03
4.100000e-07	-5.576020e-06	-2.305332e-08	-4.001521e+01	-1.512993e+03
4.200000e-07	-5.467751e-06	-2.292761e-08	-3.923824e+01	-1.504658e+03
4.300000e-07	-5.357571e-06	-2.279390e-08	-3.844755e+01	-1.495837e+03
4.400000e-07	-5.245471e-06	-2.265098e-08	-3.764309e+01	-1.486527e+03
4.500000e-07	-5.131333e-06	-2.250294e-08	-3.682400e+01	-1.476753e+03
4.600000e-07	-5.015158e-06	-2.235452e-08	-3.599029e+01	-1.466555e+03
4.700000e-07	-4.897138e-06	-2.219534e-08	-3.514335e+01	-1.455973e+03
4.800000e-07	-4.777378e-06	-2.202426e-08	-3.428392e+01	-1.445021e+03
4.900000e-07	-4.655874e-06	-2.185301e-08	-3.341196e+01	-1.433673e+03
5.000000e-07	-4.532586e-06	-2.167004e-08	-3.252721e+01	-1.421866e+03
5.100000e-07	-4.407646e-06	-2.147390e-08	-3.163061e+01	-1.409503e+03
5.200000e-07	-4.281195e-06	-2.126141e-08	-3.072316e+01	-1.396475e+03
5.300000e-07	-4.153161e-06	-2.104776e-08	-2.980434e+01	-1.382687e+03
5.400000e-07	-4.023587e-06	-2.082163e-08	-2.887448e+01	-1.368074e+03
5.500000e-07	-3.892474e-06	-2.058387e-08	-2.793358e+01	-1.352617e+03
5.600000e-07	-3.759835e-06	-2.033973e-08	-2.698172e+01	-1.336332e+03
5.700000e-07	-3.625802e-06	-2.008690e-08	-2.601985e+01	-1.319257e+03
5.800000e-07	-3.490395e-06	-1.981813e-08	-2.504813e+01	-1.301422e+03
5.900000e-07	-3.353636e-06	-1.952936e-08	-2.406671e+01	-1.282818e+03
6.000000e-07	-3.215560e-06	-1.922968e-08	-2.307583e+01	-1.263382e+03
6.100000e-07	-3.076141e-06	-1.891232e-08	-2.207532e+01	-1.242985e+03
6.200000e-07	-2.935346e-06	-1.857492e-08	-2.106493e+01	-1.221447e+03
6.300000e-07	-2.793340e-06	-1.821679e-08	-2.004586e+01	-1.198559e+03
6.400000e-07	-2.650258e-06	-1.784209e-08	-1.901906e+01	-1.174118e+03
6.500000e-07	-2.506133e-06	-1.744487e-08	-1.798477e+01	-1.147956e+03
6.600000e-07	-2.361123e-06	-1.701926e-08	-1.694413e+01	-1.119945e+03
6.700000e-07	-2.215332e-06	-1.656618e-08	-1.589789e+01	-1.089997e+03
6.800000e-07	-2.068828e-06	-1.608290e-08	-1.484654e+01	-1.058032e+03
6.900000e-07	-1.921636e-06	-1.556504e-08	-1.379024e+01	-1.023939e+03
7.000000e-07	-1.773854e-06	-1.500496e-08	-1.272971e+01	-9.875363e+02
7.100000e-07	-1.625593e-06	-1.440475e-08	-1.166575e+01	-9.485491e+02
7.200000e-07	-1.476831e-06	-1.375934e-08	-1.059819e+01	-9.066147e+02
7.300000e-07	-1.327646e-06	-1.306287e-08	-9.527588e+00	-8.613243e+02
7.400000e-07	-1.178108e-06	-1.230885e-08	-8.454464e+00	-8.122949e+02
7.500000e-07	-1.028152e-06	-1.149661e-08	-7.378333e+00	-7.592599e+02
7.600000e-07	-8.777716e-07	-1.063197e-08	-6.299155e+00	-7.021560e+02
7.700000e-07	-7.270101e-07	-9.711944e-09	-5.217245e+00	-6.411832e+02
7.800000e-07	-5.759623e-07	-8.737881e-09	-4.133280e+00	-5.768182e+02
7.900000e-07	-4.247143e-07	-7.719282e-09	-3.047878e+00	-5.097694e+02
8.000000e-07	-2.732880e-07	-6.668584e-09	-1.961197e+00	-4.408782e+02
8.100000e-07	-1.216874e-07	-5.595433e-09	-8.732658e-01	-3.709815e+02
8.200000e-07	3.005305e-08	-4.517487e-09	2.156698e-01	-3.007650e+02
8.300000e-07	1.817946e-07	-3.446057e-09	1.304613e+00	-2.306385e+02
8.400000e-07	3.334439e-07	-2.380458e-09	2.392894e+00	-1.606657e+02
8.500000e-07	4.849751e-07	-1.316631e-09	3.480329e+00	-9.056636e+01
8.600000e-07	6.363733e-07	-2.457581e-10	4.566808e+00	-1.979748e+01
8.700000e-07	7.875207e-07	8.440313e-10	5.651488e+00	5.230111e+01
8.800000e-07	9.383423e-07	1.965792e-09	6.733829e+00	1.263249e+02
8.900000e-07	1.088857e-06	3.124077e-09	7.813966e+00	2.026242e+02
9.000000e-07	1.238936e-06	4.319791e-09	8.890984e+00	2.811641e+02
9.100000e-07	1.388577e-06	5.546750e-09	9.964847e+00	3.614561e+02
9.200000e-07	1.537834e-06	6.792119e-09	1.103596e+01	4.425760e+02
9.300000e-07	1.686589e-06	8.031389e-09	1.210347e+01	5.232667e+02
9.400000e-07	1.834742e-06	9.236581e-09	1.316667e+01	6.021045e+02
9.500000e-07	1.982259e-06	1.038330e-08	1.422529e+01	6.776948e+02
9.600000e-07	2.129086e-06	1.145405e-08	1.527897e+01	7.488585e+02
9.700000e-07	2.275188e-06	1.244255e-08	1.632744e+01	8.147736e+02
9.800000e-07	2.420492e-06	1.334645e-08	1.737018e+01	8.750471e+02
9.900000e-07	2.564847e-06	1.417261e-08	1.840612e+01	9.297092e+02
1.000000e-06	2.708155e-06	1.492520e-08	1.943454e+01	9.791390e+02
1.010000e-06	2.850335e-06	1.561001e-08	2.045487e+01	1.023943e+03
1.020000e-06	2.991377e-06	1.623705e-08	2.146703e+01	1.064816e+03
1.030000e-06	3.131234e-06	1.681424e-08	2.247068e+01	1.102417e+03
1.040000e-06	3.269842e-06	1.734547e-08	2.346538e+01	1.137284e+03
1.050000e-06	3.407133e-06	1.783576e-08	2.445062e+01	1.169791e+03
1.060000e-06	3.543019e-06	1.829263e-08	2.542578e+01	1.200157e+03
1.070000e-06	3.677618e-06	1.871806e-08	2.639170e+01	1.228496e+03
1.080000e-06	3.810952e-06	1.911438e-08	2.734855e+01	1.254870e+03
1.090000e-06	3.942906e-06	1.948460e-08	2.829549e+01	1.279353e+03
1.100000e-06	4.073488e-06	1.983111e-08	2.923259e+01	1.302063e+03
1.110000e-06	4.202601e-06	2.015505e-08	3.015914e+01	1.323176e+03
1.120000e-06	4.330207e-06	2.046028e-08	3.107488e+01	1.342909e+03
1.130000e-06	4.456363e-06	2.074771e-08	3.198022e+01	1.361485e+03
1.140000e-06	4.580996e-06	2.101628e-08	3.287462e+01	1.379100e+03
1.150000e-06	4.704110e-06	2.126926e-08	3.375812e+01	1.395885e+03
1.160000e-06	4.825582e-06	2.151036e-08	3.462984e+01	1.411905e+03
1.170000e-06	4.945222e-06	2.174073e-08	3.548841e+01	1.427160e+03
1.180000e-06	5.063072e-06	2.195564e-08	3.633414e+01	1.441611e+03
1.190000e-06	5.179065e-06	2.215720e-08	3.716654e+01	1.455219e+03
1.200000e-06	5.293003e-06	2.234710e-08	3.798419e+01	1.467966e+03
1.210000e-06	5.404854e-06	2.252682e-08	3.878687e+01	1.479883e+03
1.220000e-06	5.514806e-06	2.270008e-08	3.957592e+01	1.491044e+03
1.230000e-06	5.622925e-06	2.286454e-08	4.035181e+01	1.501559e+03
1.240000e-06	5.729030e-06	2.302222e-08	4.111325e+01	1.511541e+03
1.250000e-06	5.832951e-06	2.317231e-08	4.185903e+01	1.521088e+03
1.260000e-06	5.934703e-06	2.331363e-08	4.258923e+01	1.530253e+03
1.270000e-06	6.034303e-06	2.344577e-08	4.330399e+01	1.539044e+03
1.280000e-06	6.131571e-06	2.356893e-08	4.400201e+01	1.547425e+03
1.290000e-06	6.226528e-06	2.368631e-08	4.468345e+01	1.555341e+03
1.300000e-06	6.319324e-06	2.379596e-08	4.534938e+01	1.562741e+03
1.310000e-06	6.409919e-06	2.389865e-08	4.599952e+01	1.569601e+03
1.320000e-06	6.498203e-06	2.399674e-08	4.663308e+01	1.575939e+03
1.330000e-06	6.584120e-06	2.409078e-08	4.724964e+01	1.581819e+03
1.340000e-06	6.667761e-06	2.418008e-08	4.784987e+01	1.587330e+03
1.350000e-06	6.749041e-06	2.426365e-08	4.843316e+01	1.592575e+03
1.360000e-06	6.827784e-06	2.434259e-08	4.899825e+01	1.597639e+03
1.370000e-06	6.904031e-06	2.441722e-08	4.954542e+01	1.602570e+03
1.380000e-06	6.977609e-06	2.448607e-08	5.007344e+01	1.607377e+03
1.390000e-06	7.048572e-06	2.455137e-08	5.058269e+01	1.612026e+03
1.400000e-06	7.117157e-06	2.461468e-08	5.107488e+01	1.616460e+03
1.410000e-06	7.183219e-06	2.467604e-08	5.154896e+01	1.620617e+03
1.420000e-06	7.246685e-06	2.473431e-08	5.200441e+01	1.624454e+03
1.430000e-06	7.307662e-06	2.478843e-08	5.244200e+01	1.627961e+03
1.440000e-06	7.366043e-06	2.483968e-08	5.286096e+01	1.631160e+03
1.450000e-06	7.421816e-06	2.488750e-08	5.326120e+01	1.634102e+03
1.460000e-06	7.474911e-06	2.493170e-08	5.364223e+01	1.636847e+03
1.470000e-06	7.524964e-06	2.497284e-08	5.400142e+01	1.639449e+03
1.480000e-06	7.572022e-06	2.501042e-08	5.433913e+01	1.641937e+03
1.490000e-06	7.616445e-06	2.504477e-08	5.465792e+01	1.644306e+03
1.500000e-06	7.658152e-06	2.507584e-08	5.495722e+01	1.646526e+03
1.510000e-06	7.697030e-06	2.510280e-08	5.523622e+01	1.648548e+03
1.520000e-06	7.733326e-06	2.512812e-08	5.549669e+01	1.650324e+03
1.530000e-06	7.766948e-06	2.515126e-08	5.573797e+01	1.651826e+03
1.540000e-06	7.797733e-06	2.517194e-08	5.595890e+01	1.653052e+03
1.550000e-06	7.825816e-06	2.518971e-08	5.616043e+01	1.654034e+03
1.560000e-06	7.851044e-06	2.520387e-08	5.634147e+01	1.654826e+03
1.570000e-06	7.873325e-06	2.521559e-08	5.650137e+01	1.655493e+03
1.580000e-06	7.892914e-06	2.522562e-08	5.664194e+01	1.656088e+03
1.590000e-06	7.909718e-06	2.523519e-08	5.676253e+01	1.656641e+03
1.600000e-06	7.923512e-06	2.524333e-08	5.686152e+01	1.657149e+03
1.610000e-06	7.934189e-06	2.524938e-08	5.693814e+01	1.657583e+03
1.620000e-06	7.941774e-06	2.525217e-08	5.699258e+01	1.657892e+03
1.630000e-06	7.946570e-06	2.525207e-08	5.702700e+01	1.658025e+03
1.640000e-06	7.948591e-06	2.525202e-08	5.704150e+01	1.657946e+03
1.650000e-06	7.947793e-06	2.524924e-08	5.703577e+01	1.657644e+03
1.660000e-06	7.944391e-06	2.524142e-08	5.701136e+01	1.657138e+03
1.670000e-06	7.938310e-06	2.523655e-08	5.696772e+01	1.656471e+03
1.680000e-06	7.929530e-06	2.522905e-08	5.690471e+01	1.655694e+03
1.690000e-06	7.918036e-06	2.521836e-08	5.682223e+01	1.654854e+03
1.700000e-06	7.903697e-06	2.520876e-08	5.671933e+01	1.653980e+03
1.710000e-06	7.886786e-06	2.519949e-08	5.659797e+01	1.653070e+03
1.720000e-06	7.867652e-06	2.518705e-08	5.646065e+01	1.652102e+03
1.730000e-06	7.846073e-06	2.512280e-08	5.630580e+01	1.651034e+03
1.740000e-06	7.821405e-06	2.508395e-08	5.612877e+01	1.649825e+03
1.750000e-06	7.793134e-06	2.509735e-08	5.592589e+01	1.648444e+03
1.760000e-06	7.761376e-06	2.508247e-08	5.569799e+01	1.646885e+03
1.770000e-06	7.726923e-06	2.505542e-08	5.545074e+01	1.645164e+03
1.780000e-06	7.690251e-06	2.507598e-08	5.518757e+01	1.643316e+03
1.790000e-06	7.651362e-06	2.508112e-08	5.490849e+01	1.641380e+03
1.800000e-06	7.610503e-06	2.495786e-08	5.461528e+01	1.639388e+03
1.810000e-06	7.567380e-06	2.498408e-08	5.430582e+01	1.637347e+03
1.820000e-06	7.521566e-06	2.494907e-08	5.397704e+01	1.635237e+03
1.830000e-06	7.473140e-06	2.486955e-08	5.362952e+01	1.633012e+03
1.840000e-06	7.421755e-06	2.489714e-08	5.326076e+01	1.630614e+03
1.850000e-06	7.367382e-06	2.479036e-08	5.287057e+01	1.627985e+03
1.860000e-06	7.310325e-06	2.480048e-08	5.246111e+01	1.625087e+03
1.870000e-06	7.250600e-06	2.474514e-08	5.203251e+01	1.621907e+03
1.880000e-06	7.188219e-06	2.466931e-08	5.158484e+01	1.618462e+03
1.890000e-06	7.123071e-06	2.466976e-08	5.111732e+01	1.614792e+03
1.900000e-06	7.055171e-06	2.455641e-08	5.063005e+01	1.610944e+03
1.910000e-06	6.984481e-06	2.451266e-08	5.012275e+01	1.606959e+03
1.920000e-06	6.911051e-06	2.444145e-08	4.959580e+01	1.602853e+03
1.930000e-06	6.834965e-06	2.439744e-08	4.904978e+01	1.598617e+03
1.940000e-06	6.756184e-06	2.435101e-08	4.848442e+01	1.594210e+03
1.950000e-06	6.674861e-06	2.424780e-08	4.790083e+01	1.589579e+03
1.960000e-06	6.591054e-06	2.418514e-08	4.729940e+01	1.584669e+03
1.970000e-06	6.504730e-06	2.407474e-08	4.667992e+01	1.579438e+03
1.980000e-06	6.415985e-06	2.401449e-08	4.604305e+01	1.573874e+03
1.990000e-06	6.325029e-06	2.392871e-08	4.539033e+01	1.567988e+03
2.000000e-06	6.231921e-06	2.384477e-08	4.472216e+01	1.561815e+03
2.010000e-06	6.136553e-06	2.375428e-08	4.403777e+01	1.555394e+03
2.020000e-06	6.038960e-06	2.363523e-08	4.333741e+01	1.548752e+03
2.030000e-06	5.939224e-06	2.352471e-08	4.262167e+01	1.541894e+03
2.040000e-06	5.837370e-06	2.341180e-08	4.189074e+01	1.534791e+03
2.050000e-06	5.733421e-06	2.331903e-08	4.114476e+01	1.527390e+03
2.060000e-06	5.627507e-06	2.319161e-08	4.038469e+01	1.519621e+03
2.070000e-06	5.519705e-06	2.306788e-08	3.961108e+01	1.511418e+03
2.080000e-06	5.409980e-06	2.293373e-08	3.882366e+01	1.502737e+03
2.090000e-06	5.298277e-06	2.279713e-08	3.802204e+01	1.493565e+03
2.100000e-06	5.184610e-06	2.264930e-08	3.720633e+01	1.483918e+03
2.110000e-06	5.069019e-06	2.250137e-08	3.637682e+01	1.473836e+03
2.120000e-06	4.951409e-06	2.234985e-08	3.553281e+01	1.463360e+03
2.130000e-06	4.831844e-06	2.217952e-08	3.467477e+01	1.452512e+03
2.140000e-06	4.710486e-06	2.200364e-08	3.380387e+01	1.441282e+03
2.150000e-06	4.587440e-06	2.182591e-08	3.292086e+01	1.429614e+03
2.160000e-06	4.462716e-06	2.164750e-08	3.202580e+01	1.417419e+03
2.170000e-06	4.336306e-06	2.144710e-08	3.111865e+01	1.404591e+03
2.180000e-06	4.208271e-06	2.124172e-08	3.019983e+01	1.391027e+03
2.190000e-06	4.078783e-06	2.102785e-08	2.927058e+01	1.376653e+03
2.200000e-06	3.947868e-06	2.080347e-08	2.833110e+01	1.361435e+03
2.210000e-06	3.815384e-06	2.056060e-08	2.738036e+01	1.345382e+03
2.220000e-06	3.681432e-06	2.030904e-08	2.641907e+01	1.328528e+03
2.230000e-06	3.546124e-06	2.004583e-08	2.544806e+01	1.310908e+03
2.240000e-06	3.409517e-06	1.976426e-08	2.446773e+01	1.292527e+03
2.250000e-06	3.271596e-06	1.946919e-08	2.347797e+01	1.273338e+03
2.260000e-06	3.132363e-06	1.916224e-08	2.247879e+01	1.253231e+03
2.270000e-06	2.991930e-06	1.884068e-08	2.147100e+01	1.232038e+03
2.280000e-06	2.850295e-06	1.849454e-08	2.045458e+01	1.209556e+03
2.290000e-06	2.707554e-06	1.812677e-08	1.943023e+01	1.185577e+03
2.300000e-06	2.563822e-06	1.773844e-08	1.839876e+01	1.159921e+03
2.310000e-06	2.419127e-06	1.732813e-08	1.736039e+01	1.132447e+03
2.320000e-06	2.273642e-06	1.688876e-08	1.631635e+01	1.103060e+03
2.330000e-06	2.127527e-06	1.641704e-08	1.526778e+01	1.071679e+03
2.340000e-06	1.980756e-06	1.590880e-08	1.421450e+01	1.038208e+03
2.350000e-06	1.833253e-06	1.536098e-08	1.315598e+01	1.002487e+03
2.360000e-06	1.685060e-06	1.477265e-08	1.209250e+01	9.642712e+02
2.370000e-06	1.536292e-06	1.414146e-08	1.102489e+01	9.232187e+02
2.380000e-06	1.387056e-06	1.346489e-08	9.953935e+00	8.789280e+02
2.390000e-06	1.237401e-06	1.273433e-08	8.879967e+00	8.309998e+02
2.400000e-06	1.087322e-06	1.194224e-08	7.802951e+00	7.791250e+02
2.410000e-06	9.368226e-07	1.109129e-08	6.722923e+00	7.231743e+02
2.420000e-06	7.860303e-07	1.018542e-08	5.640792e+00	6.632690e+02
2.430000e-06	6.350801e-07	9.226335e-09	4.557528e+00	5.998086e+02
2.440000e-06	4.839036e-07	8.218387e-09	3.472639e+00	5.334431e+02
2.450000e-06	3.325240e-07	7.173465e-09	2.386293e+00	4.649888e+02
2.460000e-06	1.810113e-07	6.103622e-09	1.298992e+00	3.952991e+02
2.470000e-06	2.941654e-08	5.020468e-09	2.111020e-01	3.251172e+02
2.480000e-06	-1.222138e-07	3.937623e-09	-8.770431e-01	2.549416e+02
2.490000e-06	-2.738079e-07	2.860806e-09	-1.964929e+00	1.849383e+02
2.500000e-06	-4.252726e-07	1.788920e-09	-3.051885e+00	1.149202e+02
2.510000e-06	-5.766113e-07	7.168629e-10	-4.137937e+00	4.440700e+01
2.520000e-06	-7.277686e-07	-3.678509e-10	-5.222688e+00	-2.724560e+01
2.530000e-06	-8.786700e-07	-1.477332e-09	-6.305603e+00	-1.006708e+02
2.540000e-06	-1.029312e-06	-2.626524e-09	-7.386653e+00	-1.763057e+02
2.550000e-06	-1.179679e-06	-3.818049e-09	-8.465738e+00	-2.542361e+02
2.560000e-06	-1.329658e-06	-5.043399e-09	-9.542032e+00	-3.341052e+02
2.570000e-06	-1.479186e-06	-6.291349e-09	-1.061509e+01	-4.151060e+02
2.580000e-06	-1.628161e-06	-7.538749e-09	-1.168418e+01	-4.960619e+02
2.590000e-06	-1.776451e-06	-8.761348e-09	-1.274835e+01	-5.755775e+02
2.600000e-06	-1.924038e-06	-9.932934e-09	-1.380748e+01	-6.522296e+02
2.610000e-06	-2.070846e-06	-1.103773e-08	-1.486102e+01	-7.247606e+02
2.620000e-06	-2.216889e-06	-1.206266e-08	-1.590907e+01	-7.922358e+02
2.630000e-06	-2.362240e-06	-1.300320e-08	-1.695215e+01	-8.541368e+02
2.640000e-06	-2.506705e-06	-1.386235e-08	-1.798888e+01	-9.103778e+02
2.650000e-06	-2.650119e-06	-1.464572e-08	-1.901806e+01	-9.612491e+02
2.660000e-06	-2.792555e-06	-1.536169e-08	-2.004022e+01	-1.007306e+03
2.670000e-06	-2.933883e-06	-1.601472e-08	-2.105443e+01	-1.049232e+03
2.680000e-06	-3.073875e-06	-1.661379e-08	-2.205906e+01	-1.087708e+03
2.690000e-06	-3.212556e-06	-1.716391e-08	-2.305427e+01	-1.123312e+03
2.700000e-06	-3.350036e-06	-1.766947e-08	-2.404087e+01	-1.156465e+03
2.710000e-06	-3.486297e-06	-1.813745e-08	-2.501872e+01	-1.187429e+03
2.720000e-06	-3.621311e-06	-1.857334e-08	-2.598762e+01	-1.216341e+03
2.730000e-06	-3.755112e-06	-1.897933e-08	-2.694782e+01	-1.243271e+03
2.740000e-06	-3.887537e-06	-1.935950e-08	-2.789814e+01	-1.268286e+03
2.750000e-06	-4.018502e-06	-1.971615e-08	-2.883799e+01	-1.291488e+03
2.760000e-06	-4.148121e-06	-2.004946e-08	-2.976817e+01	-1.313037e+03
2.770000e-06	-4.276322e-06	-2.036276e-08	-3.068818e+01	-1.333143e+03
2.780000e-06	-4.403049e-06	-2.065816e-08	-3.159761e+01	-1.352029e+03
2.790000e-06	-4.528240e-06	-2.093677e-08	-3.249602e+01	-1.369903e+03
2.800000e-06	-4.651820e-06	-2.119696e-08	-3.338287e+01	-1.386917e+03
2.810000e-06	-4.773843e-06	-2.144131e-08	-3.425855e+01	-1.403154e+03
2.820000e-06	-4.894177e-06	-2.167413e-08	-3.512210e+01	-1.418631e+03
2.830000e-06	-5.012611e-06	-2.189831e-08	-3.597202e+01	-1.433318e+03
2.840000e-06	-5.129015e-06	-2.211265e-08	-3.680737e+01	-1.447171e+03
2.850000e-06	-5.243318e-06	-2.231344e-08	-3.762764e+01	-1.460164e+03
2.860000e-06	-5.355404e-06	-2.250040e-08	-3.843200e+01	-1.472313e+03
2.870000e-06	-5.465421e-06	-2.267423e-08	-3.922152e+01	-1.483681e+03
2.880000e-06	-5.573579e-06	-2.283906e-08	-3.999769e+01	-1.494370e+03
2.890000e-06	-5.679868e-06	-2.299587e-08	-4.076045e+01	-1.504494e+03
2.900000e-06	-5.784190e-06	-2.314356e-08	-4.150910e+01	-1.514159e+03
2.910000e-06	-5.886261e-06	-2.328346e-08	-4.224159e+01	-1.523431e+03
2.920000e-06	-5.986078e-06	-2.341804e-08	-4.295791e+01	-1.532332e+03
2.930000e-06	-6.083853e-06	-2.354724e-08	-4.365957e+01	-1.540836e+03
2.940000e-06	-6.179496e-06	-2.366886e-08	-4.434594e+01	-1.548893e+03
