# Temperatura_=_65.56
# Concentracion g/m^3_=_28200.0
# C_Vs_to_Am_M_A/Vsm_=_65563218390.804596
# pendiente_HvsI_1/m_=_3716.3
# ordenada_HvsI_A/m_=_1297.0
# frecuencia_Hz_=_302512.45428493415

Tiempo_(s)	Campo_(V.s)	Magnetizacion_(V.s)	Campo_(kA/m)	Magnetizacion_(A/m)
0.000000e+00	-7.896496e-06	-2.659197e-08	-5.684192e+01	-1.741153e+03
1.000000e-08	-7.892386e-06	-2.658734e-08	-5.681234e+01	-1.740523e+03
2.000000e-08	-7.885763e-06	-2.657570e-08	-5.676466e+01	-1.739758e+03
3.000000e-08	-7.876468e-06	-2.656453e-08	-5.669775e+01	-1.738917e+03
4.000000e-08	-7.864313e-06	-2.655263e-08	-5.661026e+01	-1.738036e+03
5.000000e-08	-7.849162e-06	-2.653560e-08	-5.650120e+01	-1.737118e+03
6.000000e-08	-7.831356e-06	-2.651346e-08	-5.637302e+01	-1.736135e+03
7.000000e-08	-7.811409e-06	-2.648383e-08	-5.622943e+01	-1.735034e+03
8.000000e-08	-7.789082e-06	-2.647099e-08	-5.606871e+01	-1.733757e+03
9.000000e-08	-7.763817e-06	-2.651085e-08	-5.588685e+01	-1.732257e+03
1.000000e-07	-7.735423e-06	-2.647586e-08	-5.568246e+01	-1.730521e+03
1.100000e-07	-7.704068e-06	-2.640381e-08	-5.545675e+01	-1.728569e+03
1.200000e-07	-7.669893e-06	-2.636998e-08	-5.521075e+01	-1.726452e+03
1.300000e-07	-7.633132e-06	-2.634035e-08	-5.494613e+01	-1.724236e+03
1.400000e-07	-7.594031e-06	-2.627720e-08	-5.466467e+01	-1.721979e+03
1.500000e-07	-7.552714e-06	-2.619775e-08	-5.436725e+01	-1.719714e+03
1.600000e-07	-7.509040e-06	-2.625718e-08	-5.405287e+01	-1.717433e+03
1.700000e-07	-7.462693e-06	-2.619610e-08	-5.371925e+01	-1.715089e+03
1.800000e-07	-7.413600e-06	-2.608426e-08	-5.336586e+01	-1.712604e+03
1.900000e-07	-7.361615e-06	-2.612503e-08	-5.299165e+01	-1.709891e+03
2.000000e-07	-7.306750e-06	-2.603810e-08	-5.259671e+01	-1.706875e+03
2.100000e-07	-7.249230e-06	-2.597320e-08	-5.218266e+01	-1.703513e+03
2.200000e-07	-7.189087e-06	-2.590355e-08	-5.174973e+01	-1.699806e+03
2.300000e-07	-7.126335e-06	-2.580855e-08	-5.129802e+01	-1.695791e+03
2.400000e-07	-7.060891e-06	-2.580859e-08	-5.082693e+01	-1.691533e+03
2.500000e-07	-6.992707e-06	-2.574161e-08	-5.033611e+01	-1.687099e+03
2.600000e-07	-6.921841e-06	-2.566211e-08	-4.982599e+01	-1.682537e+03
2.700000e-07	-6.848280e-06	-2.557597e-08	-4.929647e+01	-1.677861e+03
2.800000e-07	-6.771995e-06	-2.552873e-08	-4.874735e+01	-1.673047e+03
2.900000e-07	-6.692914e-06	-2.543624e-08	-4.817809e+01	-1.668039e+03
3.000000e-07	-6.611196e-06	-2.531833e-08	-4.758985e+01	-1.662767e+03
3.100000e-07	-6.527188e-06	-2.527616e-08	-4.698513e+01	-1.657167e+03
3.200000e-07	-6.441047e-06	-2.519547e-08	-4.636506e+01	-1.651201e+03
3.300000e-07	-6.352649e-06	-2.508442e-08	-4.572873e+01	-1.644868e+03
3.400000e-07	-6.261783e-06	-2.494451e-08	-4.507465e+01	-1.638199e+03
3.500000e-07	-6.168613e-06	-2.486000e-08	-4.440398e+01	-1.631245e+03
3.600000e-07	-6.073281e-06	-2.477701e-08	-4.371774e+01	-1.624058e+03
3.700000e-07	-5.975716e-06	-2.464699e-08	-4.301543e+01	-1.616667e+03
3.800000e-07	-5.876001e-06	-2.452821e-08	-4.229765e+01	-1.609068e+03
3.900000e-07	-5.774214e-06	-2.441203e-08	-4.156494e+01	-1.601217e+03
4.000000e-07	-5.670395e-06	-2.427990e-08	-4.081762e+01	-1.593041e+03
4.100000e-07	-5.564545e-06	-2.412406e-08	-4.005567e+01	-1.584457e+03
4.200000e-07	-5.456716e-06	-2.400171e-08	-3.927948e+01	-1.575393e+03
4.300000e-07	-5.347006e-06	-2.386275e-08	-3.848974e+01	-1.565809e+03
4.400000e-07	-5.235309e-06	-2.370082e-08	-3.768570e+01	-1.555704e+03
4.500000e-07	-5.121560e-06	-2.354221e-08	-3.686690e+01	-1.545110e+03
4.600000e-07	-5.005861e-06	-2.338803e-08	-3.603405e+01	-1.534081e+03
4.700000e-07	-4.888312e-06	-2.321194e-08	-3.518790e+01	-1.522659e+03
4.800000e-07	-4.768978e-06	-2.302390e-08	-3.432888e+01	-1.510862e+03
4.900000e-07	-4.647918e-06	-2.284338e-08	-3.345745e+01	-1.498659e+03
5.000000e-07	-4.525145e-06	-2.264389e-08	-3.257368e+01	-1.485973e+03
5.100000e-07	-4.400707e-06	-2.242425e-08	-3.167793e+01	-1.472695e+03
5.200000e-07	-4.274651e-06	-2.219916e-08	-3.077053e+01	-1.458707e+03
5.300000e-07	-4.147009e-06	-2.198051e-08	-2.985172e+01	-1.443911e+03
5.400000e-07	-4.017859e-06	-2.173886e-08	-2.892205e+01	-1.428251e+03
5.500000e-07	-3.887185e-06	-2.148524e-08	-2.798141e+01	-1.411723e+03
5.600000e-07	-3.755052e-06	-2.122737e-08	-2.703026e+01	-1.394367e+03
5.700000e-07	-3.621504e-06	-2.095890e-08	-2.606894e+01	-1.376239e+03
5.800000e-07	-3.486562e-06	-2.066876e-08	-2.509758e+01	-1.357382e+03
5.900000e-07	-3.350310e-06	-2.035974e-08	-2.411678e+01	-1.337788e+03
6.000000e-07	-3.212788e-06	-2.004229e-08	-2.312684e+01	-1.317378e+03
6.100000e-07	-3.073923e-06	-1.970773e-08	-2.212725e+01	-1.296001e+03
6.200000e-07	-2.933658e-06	-1.935660e-08	-2.111756e+01	-1.273448e+03
6.300000e-07	-2.792192e-06	-1.898725e-08	-2.009924e+01	-1.249491e+03
6.400000e-07	-2.649704e-06	-1.860100e-08	-1.907356e+01	-1.223919e+03
6.500000e-07	-2.506217e-06	-1.818741e-08	-1.804068e+01	-1.196569e+03
6.600000e-07	-2.361783e-06	-1.774518e-08	-1.700100e+01	-1.167340e+03
6.700000e-07	-2.216471e-06	-1.727222e-08	-1.595499e+01	-1.136181e+03
6.800000e-07	-2.070379e-06	-1.677046e-08	-1.490336e+01	-1.103048e+03
6.900000e-07	-1.923627e-06	-1.623716e-08	-1.384698e+01	-1.067855e+03
7.000000e-07	-1.776295e-06	-1.566036e-08	-1.278643e+01	-1.030421e+03
7.100000e-07	-1.628465e-06	-1.504069e-08	-1.172230e+01	-9.904455e+02
7.200000e-07	-1.480144e-06	-1.437527e-08	-1.065463e+01	-9.475081e+02
7.300000e-07	-1.331393e-06	-1.366239e-08	-9.583865e+00	-9.011195e+02
7.400000e-07	-1.182270e-06	-1.288994e-08	-8.510419e+00	-8.508030e+02
7.500000e-07	-1.032685e-06	-1.205719e-08	-7.433653e+00	-7.961975e+02
7.600000e-07	-8.826386e-07	-1.116599e-08	-6.353562e+00	-7.371544e+02
7.700000e-07	-7.322661e-07	-1.020942e-08	-5.271124e+00	-6.738045e+02
7.800000e-07	-5.816373e-07	-9.189389e-09	-4.186842e+00	-6.065712e+02
7.900000e-07	-4.307695e-07	-8.117544e-09	-3.100839e+00	-5.361209e+02
8.000000e-07	-2.797546e-07	-7.005327e-09	-2.013778e+00	-4.632567e+02
8.100000e-07	-1.286351e-07	-5.858672e-09	-9.259634e-01	-3.887753e+02
8.200000e-07	2.256703e-08	-4.696521e-09	1.624459e-01	-3.133178e+02
8.300000e-07	1.737833e-07	-3.532910e-09	1.250957e+00	-2.372525e+02
8.400000e-07	3.249537e-07	-2.367849e-09	2.339138e+00	-1.606179e+02
8.500000e-07	4.759992e-07	-1.194247e-09	3.426419e+00	-8.314614e+01
8.600000e-07	6.268824e-07	-6.310198e-12	4.512534e+00	-4.364305e+00
8.700000e-07	7.776218e-07	1.206273e-09	5.597612e+00	7.624296e+01
8.800000e-07	9.281591e-07	2.457409e-09	6.681236e+00	1.590460e+02
8.900000e-07	1.078358e-06	3.751605e-09	7.762420e+00	2.440986e+02
9.000000e-07	1.228104e-06	5.081577e-09	8.840349e+00	3.310232e+02
9.100000e-07	1.377412e-06	6.432087e-09	9.915127e+00	4.189797e+02
9.200000e-07	1.526286e-06	7.783533e-09	1.098678e+01	5.067287e+02
9.300000e-07	1.674677e-06	9.103694e-09	1.205495e+01	5.927786e+02
9.400000e-07	1.822517e-06	1.036285e-08	1.311915e+01	6.755846e+02
9.500000e-07	1.969663e-06	1.153969e-08	1.417837e+01	7.537621e+02
9.600000e-07	2.116023e-06	1.262278e-08	1.523192e+01	8.262687e+02
9.700000e-07	2.261592e-06	1.360995e-08	1.627978e+01	8.925210e+02
9.800000e-07	2.406365e-06	1.450917e-08	1.732191e+01	9.524267e+02
9.900000e-07	2.550275e-06	1.533246e-08	1.835783e+01	1.006331e+03
1.000000e-06	2.693162e-06	1.608087e-08	1.938639e+01	1.054896e+03
1.010000e-06	2.834922e-06	1.675967e-08	2.040682e+01	1.098941e+03
1.020000e-06	2.975561e-06	1.737893e-08	2.141920e+01	1.139288e+03
1.030000e-06	3.115033e-06	1.794962e-08	2.242317e+01	1.176635e+03
1.040000e-06	3.253248e-06	1.847824e-08	2.341809e+01	1.211483e+03
1.050000e-06	3.390139e-06	1.896762e-08	2.440348e+01	1.244127e+03
1.060000e-06	3.525735e-06	1.942285e-08	2.537956e+01	1.274694e+03
1.070000e-06	3.660018e-06	1.984803e-08	2.634618e+01	1.303217e+03
1.080000e-06	3.793029e-06	2.024609e-08	2.730364e+01	1.329714e+03
1.090000e-06	3.924745e-06	2.061851e-08	2.825178e+01	1.354254e+03
1.100000e-06	4.054995e-06	2.096894e-08	2.918937e+01	1.376984e+03
1.110000e-06	4.183817e-06	2.129619e-08	3.011667e+01	1.398127e+03
1.120000e-06	4.311180e-06	2.160558e-08	3.103348e+01	1.417948e+03
1.130000e-06	4.437031e-06	2.189628e-08	3.193940e+01	1.436707e+03
1.140000e-06	4.561421e-06	2.216673e-08	3.283481e+01	1.454606e+03
1.150000e-06	4.684232e-06	2.242374e-08	3.371885e+01	1.471760e+03
1.160000e-06	4.805318e-06	2.266836e-08	3.459047e+01	1.488198e+03
1.170000e-06	4.924645e-06	2.290114e-08	3.544943e+01	1.503872e+03
1.180000e-06	5.042255e-06	2.312220e-08	3.629603e+01	1.518709e+03
1.190000e-06	5.158033e-06	2.333078e-08	3.712944e+01	1.532642e+03
1.200000e-06	5.271692e-06	2.352621e-08	3.794760e+01	1.545657e+03
1.210000e-06	5.383268e-06	2.370996e-08	3.875077e+01	1.557803e+03
1.220000e-06	5.492938e-06	2.388458e-08	3.954022e+01	1.569190e+03
1.230000e-06	5.600767e-06	2.405303e-08	4.031641e+01	1.579960e+03
1.240000e-06	5.706623e-06	2.421498e-08	4.107840e+01	1.590260e+03
1.250000e-06	5.810280e-06	2.437057e-08	4.182456e+01	1.600195e+03
1.260000e-06	5.911814e-06	2.451750e-08	4.255544e+01	1.609814e+03
1.270000e-06	6.011264e-06	2.465515e-08	4.327132e+01	1.619102e+03
1.280000e-06	6.108374e-06	2.478479e-08	4.397036e+01	1.627992e+03
1.290000e-06	6.203162e-06	2.490776e-08	4.465267e+01	1.636396e+03
1.300000e-06	6.295803e-06	2.502701e-08	4.531954e+01	1.644239e+03
1.310000e-06	6.386192e-06	2.514065e-08	4.597019e+01	1.651487e+03
1.320000e-06	6.474194e-06	2.524628e-08	4.660366e+01	1.658162e+03
1.330000e-06	6.559922e-06	2.534414e-08	4.722077e+01	1.664340e+03
1.340000e-06	6.643458e-06	2.543688e-08	4.782209e+01	1.670134e+03
1.350000e-06	6.724638e-06	2.552452e-08	4.840645e+01	1.675662e+03
1.360000e-06	6.803275e-06	2.560656e-08	4.897251e+01	1.681020e+03
1.370000e-06	6.879427e-06	2.568402e-08	4.952068e+01	1.686261e+03
1.380000e-06	6.952989e-06	2.575628e-08	5.005021e+01	1.691381e+03
1.390000e-06	7.023916e-06	2.582614e-08	5.056077e+01	1.696338e+03
1.400000e-06	7.092440e-06	2.589402e-08	5.105402e+01	1.701060e+03
1.410000e-06	7.158425e-06	2.596097e-08	5.152901e+01	1.705480e+03
1.420000e-06	7.221789e-06	2.602429e-08	5.198513e+01	1.709556e+03
1.430000e-06	7.282733e-06	2.608279e-08	5.242383e+01	1.713284e+03
1.440000e-06	7.341182e-06	2.613838e-08	5.284457e+01	1.716700e+03
1.450000e-06	7.396997e-06	2.619033e-08	5.324635e+01	1.719868e+03
1.460000e-06	7.450071e-06	2.623722e-08	5.362839e+01	1.722858e+03
1.470000e-06	7.500030e-06	2.627873e-08	5.398801e+01	1.725722e+03
1.480000e-06	7.546967e-06	2.631914e-08	5.432588e+01	1.728482e+03
1.490000e-06	7.591362e-06	2.635792e-08	5.464546e+01	1.731120e+03
1.500000e-06	7.633108e-06	2.639344e-08	5.494596e+01	1.733588e+03
1.510000e-06	7.672018e-06	2.642461e-08	5.522604e+01	1.735824e+03
1.520000e-06	7.708286e-06	2.645204e-08	5.548712e+01	1.737775e+03
1.530000e-06	7.741869e-06	2.647566e-08	5.572886e+01	1.739411e+03
1.540000e-06	7.772632e-06	2.649709e-08	5.595031e+01	1.740744e+03
1.550000e-06	7.800727e-06	2.651711e-08	5.615254e+01	1.741818e+03
1.560000e-06	7.826061e-06	2.653405e-08	5.633490e+01	1.742702e+03
1.570000e-06	7.848472e-06	2.654907e-08	5.649623e+01	1.743469e+03
1.580000e-06	7.868166e-06	2.656197e-08	5.663799e+01	1.744173e+03
1.590000e-06	7.885049e-06	2.657211e-08	5.675953e+01	1.744836e+03
1.600000e-06	7.898884e-06	2.658014e-08	5.685911e+01	1.745443e+03
1.610000e-06	7.909610e-06	2.658631e-08	5.693633e+01	1.745949e+03
1.620000e-06	7.917262e-06	2.658901e-08	5.699140e+01	1.746291e+03
1.630000e-06	7.922114e-06	2.658901e-08	5.702633e+01	1.746415e+03
1.640000e-06	7.924221e-06	2.658872e-08	5.704150e+01	1.746290e+03
1.650000e-06	7.923548e-06	2.658778e-08	5.703665e+01	1.745919e+03
1.660000e-06	7.920234e-06	2.657758e-08	5.701280e+01	1.745338e+03
1.670000e-06	7.914262e-06	2.657181e-08	5.696981e+01	1.744605e+03
1.680000e-06	7.905611e-06	2.656466e-08	5.690753e+01	1.743779e+03
1.690000e-06	7.894304e-06	2.655298e-08	5.682614e+01	1.742906e+03
1.700000e-06	7.880203e-06	2.654071e-08	5.672464e+01	1.741999e+03
1.710000e-06	7.863484e-06	2.653072e-08	5.660429e+01	1.741038e+03
1.720000e-06	7.844498e-06	2.652506e-08	5.646762e+01	1.739976e+03
1.730000e-06	7.823093e-06	2.646428e-08	5.631354e+01	1.738753e+03
1.740000e-06	7.798692e-06	2.638016e-08	5.613789e+01	1.737318e+03
1.750000e-06	7.770755e-06	2.639506e-08	5.593679e+01	1.735648e+03
1.760000e-06	7.739245e-06	2.639698e-08	5.570997e+01	1.733752e+03
1.770000e-06	7.704974e-06	2.635995e-08	5.546328e+01	1.731675e+03
1.780000e-06	7.668566e-06	2.636609e-08	5.520120e+01	1.729479e+03
1.790000e-06	7.629916e-06	2.640932e-08	5.492298e+01	1.727228e+03
1.800000e-06	7.589232e-06	2.625623e-08	5.463012e+01	1.724962e+03
1.810000e-06	7.546378e-06	2.622611e-08	5.432165e+01	1.722688e+03
1.820000e-06	7.500851e-06	2.627250e-08	5.399392e+01	1.720368e+03
1.830000e-06	7.452696e-06	2.613270e-08	5.364728e+01	1.717931e+03
1.840000e-06	7.401625e-06	2.619478e-08	5.327965e+01	1.715290e+03
1.850000e-06	7.347513e-06	2.608745e-08	5.289014e+01	1.712365e+03
1.860000e-06	7.290672e-06	2.606531e-08	5.248097e+01	1.709103e+03
1.870000e-06	7.231215e-06	2.610370e-08	5.205298e+01	1.705491e+03
1.880000e-06	7.169197e-06	2.593951e-08	5.160656e+01	1.701557e+03
1.890000e-06	7.104330e-06	2.592536e-08	5.113962e+01	1.697360e+03
1.900000e-06	7.036693e-06	2.581454e-08	5.065274e+01	1.692969e+03
1.910000e-06	6.966428e-06	2.575884e-08	5.014695e+01	1.688439e+03
1.920000e-06	6.893394e-06	2.569165e-08	4.962122e+01	1.683795e+03
1.930000e-06	6.817676e-06	2.561211e-08	4.907617e+01	1.679024e+03
1.940000e-06	6.739245e-06	2.561388e-08	4.851160e+01	1.674077e+03
1.950000e-06	6.658210e-06	2.544982e-08	4.792828e+01	1.668886e+03
1.960000e-06	6.574681e-06	2.535382e-08	4.732701e+01	1.663384e+03
1.970000e-06	6.488761e-06	2.526605e-08	4.670852e+01	1.657523e+03
1.980000e-06	6.400506e-06	2.521068e-08	4.607323e+01	1.651292e+03
1.990000e-06	6.309951e-06	2.512439e-08	4.542138e+01	1.644713e+03
2.000000e-06	6.217188e-06	2.499515e-08	4.475364e+01	1.637834e+03
2.010000e-06	6.122155e-06	2.491290e-08	4.406956e+01	1.630707e+03
2.020000e-06	6.024947e-06	2.477222e-08	4.336982e+01	1.623372e+03
2.030000e-06	5.925613e-06	2.465433e-08	4.265477e+01	1.615834e+03
2.040000e-06	5.824161e-06	2.454597e-08	4.192448e+01	1.608060e+03
2.050000e-06	5.720613e-06	2.445361e-08	4.117910e+01	1.599985e+03
2.060000e-06	5.615087e-06	2.429935e-08	4.041949e+01	1.591524e+03
2.070000e-06	5.507693e-06	2.414223e-08	3.964643e+01	1.582602e+03
2.080000e-06	5.398417e-06	2.400948e-08	3.885982e+01	1.573167e+03
2.090000e-06	5.287213e-06	2.386356e-08	3.805933e+01	1.563207e+03
2.100000e-06	5.173964e-06	2.370740e-08	3.724412e+01	1.552747e+03
2.110000e-06	5.058717e-06	2.354377e-08	3.641453e+01	1.541835e+03
2.120000e-06	4.941555e-06	2.338420e-08	3.557115e+01	1.530521e+03
2.130000e-06	4.822497e-06	2.318864e-08	3.471413e+01	1.518831e+03
2.140000e-06	4.701602e-06	2.300097e-08	3.384388e+01	1.506749e+03
2.150000e-06	4.579025e-06	2.282048e-08	3.296153e+01	1.494210e+03
2.160000e-06	4.454748e-06	2.262776e-08	3.206694e+01	1.481112e+03
2.170000e-06	4.328833e-06	2.240556e-08	3.116056e+01	1.467337e+03
2.180000e-06	4.201342e-06	2.218082e-08	3.024282e+01	1.452778e+03
2.190000e-06	4.072260e-06	2.195371e-08	2.931364e+01	1.437366e+03
2.200000e-06	3.941707e-06	2.171271e-08	2.837388e+01	1.421083e+03
2.210000e-06	3.809652e-06	2.145683e-08	2.742330e+01	1.403956e+03
2.220000e-06	3.676164e-06	2.119280e-08	2.646240e+01	1.386042e+03
2.230000e-06	3.541371e-06	2.091580e-08	2.549211e+01	1.367390e+03
2.240000e-06	3.405287e-06	2.061574e-08	2.451253e+01	1.348010e+03
2.250000e-06	3.267888e-06	2.030668e-08	2.352347e+01	1.327844e+03
2.260000e-06	3.129200e-06	1.998421e-08	2.252515e+01	1.306762e+03
2.270000e-06	2.989289e-06	1.964496e-08	2.151802e+01	1.284567e+03
2.280000e-06	2.848234e-06	1.927779e-08	2.050265e+01	1.261033e+03
2.290000e-06	2.706131e-06	1.889104e-08	1.947974e+01	1.235940e+03
2.300000e-06	2.563012e-06	1.848913e-08	1.844952e+01	1.209109e+03
2.310000e-06	2.418887e-06	1.806660e-08	1.741205e+01	1.180423e+03
2.320000e-06	2.273853e-06	1.761144e-08	1.636804e+01	1.149818e+03
2.330000e-06	2.128079e-06	1.711800e-08	1.531870e+01	1.117254e+03
2.340000e-06	1.981662e-06	1.658847e-08	1.426474e+01	1.082661e+03
2.350000e-06	1.834610e-06	1.602143e-08	1.320621e+01	1.045892e+03
2.360000e-06	1.686942e-06	1.541692e-08	1.214324e+01	1.006679e+03
2.370000e-06	1.538681e-06	1.477264e-08	1.107600e+01	9.646349e+02
2.380000e-06	1.389922e-06	1.408308e-08	1.000518e+01	9.192821e+02
2.390000e-06	1.240727e-06	1.333364e-08	8.931215e+00	8.701305e+02
2.400000e-06	1.091111e-06	1.251544e-08	7.854224e+00	8.167752e+02
2.410000e-06	9.411306e-07	1.163815e-08	6.774609e+00	7.589984e+02
2.420000e-06	7.908951e-07	1.070443e-08	5.693158e+00	6.968470e+02
2.430000e-06	6.404541e-07	9.708132e-09	4.610227e+00	6.306630e+02
2.440000e-06	4.897953e-07	8.651631e-09	3.525730e+00	5.610521e+02
2.450000e-06	3.389831e-07	7.547574e-09	2.440127e+00	4.887919e+02
2.460000e-06	1.880077e-07	6.409554e-09	1.353349e+00	4.146965e+02
2.470000e-06	3.689913e-08	5.246118e-09	2.656137e-01	3.394654e+02
2.480000e-06	-1.142381e-07	4.072362e-09	-8.223286e-01	2.635538e+02
2.490000e-06	-2.653984e-07	2.897934e-09	-1.910436e+00	1.870958e+02
2.500000e-06	-4.164674e-07	1.717720e-09	-2.997888e+00	1.099039e+02
2.510000e-06	-5.673722e-07	5.256141e-10	-4.084157e+00	3.154930e+01
2.520000e-06	-7.181285e-07	-6.837314e-10	-5.169357e+00	-4.849004e+01
2.530000e-06	-8.686441e-07	-1.921720e-09	-6.252824e+00	-1.306449e+02
2.540000e-06	-1.018825e-06	-3.202459e-09	-7.333880e+00	-2.150743e+02
2.550000e-06	-1.168672e-06	-4.525831e-09	-8.412537e+00	-3.015312e+02
2.560000e-06	-1.318190e-06	-5.877693e-09	-9.488827e+00	-3.893052e+02
2.570000e-06	-1.467267e-06	-7.238304e-09	-1.056193e+01	-4.772594e+02
2.580000e-06	-1.615799e-06	-8.578686e-09	-1.163112e+01	-5.639554e+02
2.590000e-06	-1.763720e-06	-9.868030e-09	-1.269591e+01	-6.478416e+02
2.600000e-06	-1.910924e-06	-1.108394e-08	-1.375555e+01	-7.274671e+02
2.610000e-06	-2.057395e-06	-1.221181e-08	-1.480990e+01	-8.016761e+02
2.620000e-06	-2.203169e-06	-1.324322e-08	-1.585924e+01	-8.697472e+02
2.630000e-06	-2.348221e-06	-1.417910e-08	-1.690337e+01	-9.314496e+02
2.640000e-06	-2.492363e-06	-1.502792e-08	-1.794096e+01	-9.870135e+02
2.650000e-06	-2.635377e-06	-1.580101e-08	-1.897042e+01	-1.037025e+03
2.660000e-06	-2.777267e-06	-1.650666e-08	-1.999181e+01	-1.082276e+03
2.670000e-06	-2.918067e-06	-1.715143e-08	-2.100534e+01	-1.123603e+03
2.680000e-06	-3.057653e-06	-1.774466e-08	-2.201012e+01	-1.161748e+03
2.690000e-06	-3.196004e-06	-1.829306e-08	-2.300603e+01	-1.197273e+03
2.700000e-06	-3.333188e-06	-1.879771e-08	-2.399353e+01	-1.230528e+03
2.710000e-06	-3.469085e-06	-1.926444e-08	-2.497177e+01	-1.261684e+03
2.720000e-06	-3.603721e-06	-1.970112e-08	-2.594092e+01	-1.290791e+03
2.730000e-06	-3.737106e-06	-2.011062e-08	-2.690108e+01	-1.317865e+03
2.740000e-06	-3.869105e-06	-2.049374e-08	-2.785126e+01	-1.342954e+03
2.750000e-06	-3.999741e-06	-2.085143e-08	-2.879163e+01	-1.366182e+03
2.760000e-06	-4.129096e-06	-2.118528e-08	-2.972277e+01	-1.387753e+03
2.770000e-06	-4.257068e-06	-2.149985e-08	-3.064396e+01	-1.407926e+03
2.780000e-06	-4.383524e-06	-2.179805e-08	-3.155424e+01	-1.426966e+03
2.790000e-06	-4.508448e-06	-2.208043e-08	-3.245349e+01	-1.445095e+03
2.800000e-06	-4.631774e-06	-2.234630e-08	-3.334124e+01	-1.462458e+03
2.810000e-06	-4.753519e-06	-2.259623e-08	-3.421760e+01	-1.479103e+03
2.820000e-06	-4.873536e-06	-2.283345e-08	-3.508153e+01	-1.495004e+03
2.830000e-06	-4.991568e-06	-2.306058e-08	-3.593117e+01	-1.510089e+03
2.840000e-06	-5.107549e-06	-2.327798e-08	-3.676604e+01	-1.524286e+03
2.850000e-06	-5.221424e-06	-2.348457e-08	-3.758576e+01	-1.537563e+03
2.860000e-06	-5.333236e-06	-2.367993e-08	-3.839062e+01	-1.549950e+03
2.870000e-06	-5.443078e-06	-2.386090e-08	-3.918130e+01	-1.561540e+03
2.880000e-06	-5.551091e-06	-2.403125e-08	-3.995882e+01	-1.572473e+03
2.890000e-06	-5.657280e-06	-2.419520e-08	-4.072321e+01	-1.582895e+03
2.900000e-06	-5.761362e-06	-2.434997e-08	-4.147243e+01	-1.592928e+03
2.910000e-06	-5.863167e-06	-2.449513e-08	-4.220526e+01	-1.602637e+03
2.920000e-06	-5.962796e-06	-2.463429e-08	-4.292243e+01	-1.612026e+03
2.930000e-06	-6.060383e-06	-2.476935e-08	-4.362490e+01	-1.621040e+03
2.940000e-06	-6.155784e-06	-2.489530e-08	-4.431163e+01	-1.629593e+03
