# Temperatura_=_70.32
# Concentracion g/m^3_=_26700.0
# C_Vs_to_Am_M_A/Vsm_=_65563218390.804596
# pendiente_HvsI_1/m_=_3716.3
# ordenada_HvsI_A/m_=_1297.0
# frecuencia_Hz_=_302185.06573931477

Tiempo_(s)	Campo_(V.s)	Magnetizacion_(V.s)	Campo_(kA/m)	Magnetizacion_(A/m)
0.000000e+00	-6.606155e-06	-2.676424e-08	-4.770475e+01	-1.751056e+03
1.000000e-08	-6.603878e-06	-2.676419e-08	-4.768832e+01	-1.750949e+03
2.000000e-08	-6.599326e-06	-2.675579e-08	-4.765544e+01	-1.750670e+03
3.000000e-08	-6.592707e-06	-2.674782e-08	-4.760764e+01	-1.750212e+03
4.000000e-08	-6.583919e-06	-2.674028e-08	-4.754419e+01	-1.749570e+03
5.000000e-08	-6.572790e-06	-2.672703e-08	-4.746382e+01	-1.748737e+03
6.000000e-08	-6.559190e-06	-2.670671e-08	-4.736561e+01	-1.747713e+03
7.000000e-08	-6.543195e-06	-2.667643e-08	-4.725011e+01	-1.746507e+03
8.000000e-08	-6.525092e-06	-2.664234e-08	-4.711938e+01	-1.745136e+03
9.000000e-08	-6.504901e-06	-2.666782e-08	-4.697358e+01	-1.743624e+03
1.000000e-07	-6.482264e-06	-2.669313e-08	-4.681011e+01	-1.742003e+03
1.100000e-07	-6.456904e-06	-2.662275e-08	-4.662697e+01	-1.740301e+03
1.200000e-07	-6.429063e-06	-2.656600e-08	-4.642593e+01	-1.738541e+03
1.300000e-07	-6.399130e-06	-2.654091e-08	-4.620977e+01	-1.736735e+03
1.400000e-07	-6.367365e-06	-2.642747e-08	-4.598039e+01	-1.734878e+03
1.500000e-07	-6.333816e-06	-2.635417e-08	-4.573812e+01	-1.732951e+03
1.600000e-07	-6.298325e-06	-2.648825e-08	-4.548183e+01	-1.730920e+03
1.700000e-07	-6.260848e-06	-2.639398e-08	-4.521120e+01	-1.728741e+03
1.800000e-07	-6.221354e-06	-2.630744e-08	-4.492601e+01	-1.726370e+03
1.900000e-07	-6.179588e-06	-2.638427e-08	-4.462441e+01	-1.723767e+03
2.000000e-07	-6.135429e-06	-2.620629e-08	-4.430552e+01	-1.720906e+03
2.100000e-07	-6.089061e-06	-2.614206e-08	-4.397068e+01	-1.717777e+03
2.200000e-07	-6.040241e-06	-2.616334e-08	-4.361814e+01	-1.714388e+03
2.300000e-07	-5.988795e-06	-2.611599e-08	-4.324664e+01	-1.710763e+03
2.400000e-07	-5.934982e-06	-2.608007e-08	-4.285804e+01	-1.706933e+03
2.500000e-07	-5.878919e-06	-2.596909e-08	-4.245320e+01	-1.702935e+03
2.600000e-07	-5.820583e-06	-2.589658e-08	-4.203194e+01	-1.698801e+03
2.700000e-07	-5.760049e-06	-2.583137e-08	-4.159481e+01	-1.694550e+03
2.800000e-07	-5.697509e-06	-2.575189e-08	-4.114319e+01	-1.690190e+03
2.900000e-07	-5.632928e-06	-2.572329e-08	-4.067683e+01	-1.685716e+03
3.000000e-07	-5.566121e-06	-2.566185e-08	-4.019440e+01	-1.681108e+03
3.100000e-07	-5.497186e-06	-2.557344e-08	-3.969661e+01	-1.676343e+03
3.200000e-07	-5.426283e-06	-2.546111e-08	-3.918460e+01	-1.671398e+03
3.300000e-07	-5.353352e-06	-2.540557e-08	-3.865794e+01	-1.666252e+03
3.400000e-07	-5.278250e-06	-2.534071e-08	-3.811561e+01	-1.660896e+03
3.500000e-07	-5.200999e-06	-2.523106e-08	-3.755776e+01	-1.655325e+03
3.600000e-07	-5.121659e-06	-2.516432e-08	-3.698482e+01	-1.649546e+03
3.700000e-07	-5.040292e-06	-2.506957e-08	-3.639725e+01	-1.643567e+03
3.800000e-07	-4.957192e-06	-2.496462e-08	-3.579717e+01	-1.637399e+03
3.900000e-07	-4.872570e-06	-2.486990e-08	-3.518609e+01	-1.631049e+03
4.000000e-07	-4.786426e-06	-2.478090e-08	-3.456402e+01	-1.624518e+03
4.100000e-07	-4.698720e-06	-2.467254e-08	-3.393067e+01	-1.617804e+03
4.200000e-07	-4.609399e-06	-2.454991e-08	-3.328566e+01	-1.610899e+03
4.300000e-07	-4.518370e-06	-2.444962e-08	-3.262832e+01	-1.603793e+03
4.400000e-07	-4.425739e-06	-2.434473e-08	-3.195940e+01	-1.596479e+03
4.500000e-07	-4.331598e-06	-2.422525e-08	-3.127959e+01	-1.588950e+03
4.600000e-07	-4.235894e-06	-2.409741e-08	-3.058849e+01	-1.581205e+03
4.700000e-07	-4.138618e-06	-2.397175e-08	-2.988603e+01	-1.573246e+03
4.800000e-07	-4.039764e-06	-2.384586e-08	-2.917218e+01	-1.565074e+03
4.900000e-07	-3.939495e-06	-2.371836e-08	-2.844811e+01	-1.556689e+03
5.000000e-07	-3.837904e-06	-2.359805e-08	-2.771450e+01	-1.548087e+03
5.100000e-07	-3.734934e-06	-2.346965e-08	-2.697092e+01	-1.539257e+03
5.200000e-07	-3.630661e-06	-2.332478e-08	-2.621794e+01	-1.530184e+03
5.300000e-07	-3.525020e-06	-2.317341e-08	-2.545508e+01	-1.520847e+03
5.400000e-07	-3.417925e-06	-2.302300e-08	-2.468172e+01	-1.511226e+03
5.500000e-07	-3.309559e-06	-2.287162e-08	-2.389919e+01	-1.501305e+03
5.600000e-07	-3.200070e-06	-2.271626e-08	-2.310853e+01	-1.491072e+03
5.700000e-07	-3.089435e-06	-2.255378e-08	-2.230961e+01	-1.480520e+03
5.800000e-07	-2.977644e-06	-2.238273e-08	-2.150234e+01	-1.469650e+03
5.900000e-07	-2.864660e-06	-2.220637e-08	-2.068645e+01	-1.458466e+03
6.000000e-07	-2.750434e-06	-2.203120e-08	-1.986159e+01	-1.446970e+03
6.100000e-07	-2.634980e-06	-2.185475e-08	-1.902787e+01	-1.435163e+03
6.200000e-07	-2.518456e-06	-2.167019e-08	-1.818642e+01	-1.423037e+03
6.300000e-07	-2.401050e-06	-2.147671e-08	-1.733860e+01	-1.410576e+03
6.400000e-07	-2.282767e-06	-2.127558e-08	-1.648445e+01	-1.397761e+03
6.500000e-07	-2.163620e-06	-2.106718e-08	-1.562406e+01	-1.384567e+03
6.600000e-07	-2.043675e-06	-2.085674e-08	-1.475791e+01	-1.370971e+03
6.700000e-07	-1.923121e-06	-2.064476e-08	-1.388735e+01	-1.356954e+03
6.800000e-07	-1.801991e-06	-2.042532e-08	-1.301265e+01	-1.342504e+03
6.900000e-07	-1.680143e-06	-2.019618e-08	-1.213275e+01	-1.327615e+03
7.000000e-07	-1.557524e-06	-1.995958e-08	-1.124729e+01	-1.312286e+03
7.100000e-07	-1.434224e-06	-1.971747e-08	-1.035690e+01	-1.296515e+03
7.200000e-07	-1.310445e-06	-1.946973e-08	-9.463064e+00	-1.280297e+03
7.300000e-07	-1.186313e-06	-1.921824e-08	-8.566671e+00	-1.263615e+03
7.400000e-07	-1.061905e-06	-1.896141e-08	-7.668290e+00	-1.246443e+03
7.500000e-07	-9.372064e-07	-1.869424e-08	-6.767810e+00	-1.228739e+03
7.600000e-07	-8.121728e-07	-1.841425e-08	-5.864910e+00	-1.210455e+03
7.700000e-07	-6.869004e-07	-1.812384e-08	-4.960286e+00	-1.191536e+03
7.800000e-07	-5.614406e-07	-1.782260e-08	-4.054308e+00	-1.171927e+03
7.900000e-07	-4.358101e-07	-1.751048e-08	-3.147098e+00	-1.151581e+03
8.000000e-07	-3.100270e-07	-1.718901e-08	-2.238786e+00	-1.130454e+03
8.100000e-07	-1.841480e-07	-1.685732e-08	-1.329780e+00	-1.108512e+03
8.200000e-07	-5.824064e-08	-1.651283e-08	-4.205707e-01	-1.085720e+03
8.300000e-07	6.775983e-08	-1.615263e-08	4.893113e-01	-1.062041e+03
8.400000e-07	1.937945e-07	-1.577733e-08	1.399440e+00	-1.037424e+03
8.500000e-07	3.197442e-07	-1.538624e-08	2.308955e+00	-1.011800e+03
8.600000e-07	4.455995e-07	-1.497713e-08	3.217790e+00	-9.850777e+02
8.700000e-07	5.713482e-07	-1.455174e-08	4.125853e+00	-9.571417e+02
8.800000e-07	6.969744e-07	-1.410781e-08	5.033033e+00	-9.278557e+02
8.900000e-07	8.223982e-07	-1.363992e-08	5.938750e+00	-8.970666e+02
9.000000e-07	9.475218e-07	-1.314551e-08	6.842300e+00	-8.646090e+02
9.100000e-07	1.072353e-06	-1.262369e-08	7.743739e+00	-8.303088e+02
9.200000e-07	1.196864e-06	-1.207049e-08	8.642867e+00	-7.939822e+02
9.300000e-07	1.321036e-06	-1.148372e-08	9.539544e+00	-7.554321e+02
9.400000e-07	1.444902e-06	-1.085932e-08	1.043401e+01	-7.144401e+02
9.500000e-07	1.568289e-06	-1.019140e-08	1.132502e+01	-6.707594e+02
9.600000e-07	1.690949e-06	-9.477356e-09	1.221078e+01	-6.241086e+02
9.700000e-07	1.812713e-06	-8.713494e-09	1.309007e+01	-5.741727e+02
9.800000e-07	1.933691e-06	-7.896733e-09	1.396368e+01	-5.206131e+02
9.900000e-07	2.054109e-06	-7.020061e-09	1.483325e+01	-4.630890e+02
1.000000e-06	2.173822e-06	-6.076292e-09	1.569773e+01	-4.012892e+02
1.010000e-06	2.292599e-06	-5.064536e-09	1.655545e+01	-3.349725e+02
1.020000e-06	2.410522e-06	-3.979935e-09	1.740700e+01	-2.640118e+02
1.030000e-06	2.527593e-06	-2.824314e-09	1.825241e+01	-1.884352e+02
1.040000e-06	2.643672e-06	-1.602026e-09	1.909064e+01	-1.084584e+02
1.050000e-06	2.758592e-06	-3.180668e-10	1.992050e+01	-2.450150e+01
1.060000e-06	2.872198e-06	1.016686e-09	2.074088e+01	6.281266e+01
1.070000e-06	2.984683e-06	2.388870e-09	2.155317e+01	1.526808e+02
1.080000e-06	3.096071e-06	3.783796e-09	2.235753e+01	2.441599e+02
1.090000e-06	3.206330e-06	5.186370e-09	2.315374e+01	3.362223e+02
1.100000e-06	3.315568e-06	6.579323e-09	2.394258e+01	4.278177e+02
1.110000e-06	3.423804e-06	7.948927e-09	2.472417e+01	5.179367e+02
1.120000e-06	3.530892e-06	9.282338e-09	2.549749e+01	6.056660e+02
1.130000e-06	3.636584e-06	1.056709e-08	2.626071e+01	6.902312e+02
1.140000e-06	3.740869e-06	1.179481e-08	2.701378e+01	7.710232e+02
1.150000e-06	3.843797e-06	1.295997e-08	2.775705e+01	8.476070e+02
1.160000e-06	3.945358e-06	1.405565e-08	2.849045e+01	9.197147e+02
1.170000e-06	4.045682e-06	1.508089e-08	2.921492e+01	9.872254e+02
1.180000e-06	4.144693e-06	1.603595e-08	2.992990e+01	1.050139e+03
1.190000e-06	4.242073e-06	1.692131e-08	3.063310e+01	1.108544e+03
1.200000e-06	4.337760e-06	1.773882e-08	3.132409e+01	1.162593e+03
1.210000e-06	4.431883e-06	1.849221e-08	3.200377e+01	1.212477e+03
1.220000e-06	4.524583e-06	1.918537e-08	3.267318e+01	1.258407e+03
1.230000e-06	4.615832e-06	1.982316e-08	3.333212e+01	1.300608e+03
1.240000e-06	4.705341e-06	2.040861e-08	3.397849e+01	1.339309e+03
1.250000e-06	4.792980e-06	2.094550e-08	3.461135e+01	1.374746e+03
1.260000e-06	4.878916e-06	2.143713e-08	3.523192e+01	1.407157e+03
1.270000e-06	4.963315e-06	2.188538e-08	3.584138e+01	1.436784e+03
1.280000e-06	5.046072e-06	2.229365e-08	3.643900e+01	1.463866e+03
1.290000e-06	5.126839e-06	2.266632e-08	3.702223e+01	1.488642e+03
1.300000e-06	5.205604e-06	2.300849e-08	3.759101e+01	1.511339e+03
1.310000e-06	5.282557e-06	2.332350e-08	3.814671e+01	1.532167e+03
1.320000e-06	5.357466e-06	2.361468e-08	3.868765e+01	1.551317e+03
1.330000e-06	5.430121e-06	2.388254e-08	3.921231e+01	1.568955e+03
1.340000e-06	5.500701e-06	2.412864e-08	3.972199e+01	1.585222e+03
1.350000e-06	5.569409e-06	2.435554e-08	4.021814e+01	1.600236e+03
1.360000e-06	5.636215e-06	2.456423e-08	4.070056e+01	1.614096e+03
1.370000e-06	5.700911e-06	2.475689e-08	4.116775e+01	1.626885e+03
1.380000e-06	5.763511e-06	2.493423e-08	4.161981e+01	1.638677e+03
1.390000e-06	5.824226e-06	2.509760e-08	4.205824e+01	1.649538e+03
1.400000e-06	5.882997e-06	2.524982e-08	4.248265e+01	1.659533e+03
1.410000e-06	5.939608e-06	2.539094e-08	4.289145e+01	1.668727e+03
1.420000e-06	5.994050e-06	2.552150e-08	4.328459e+01	1.677180e+03
1.430000e-06	6.046186e-06	2.564090e-08	4.366108e+01	1.684953e+03
1.440000e-06	6.095701e-06	2.574941e-08	4.401863e+01	1.692102e+03
1.450000e-06	6.142800e-06	2.584847e-08	4.435875e+01	1.698678e+03
1.460000e-06	6.187849e-06	2.593872e-08	4.468406e+01	1.704728e+03
1.470000e-06	6.230840e-06	2.602218e-08	4.499451e+01	1.710291e+03
1.480000e-06	6.271518e-06	2.609844e-08	4.528825e+01	1.715400e+03
1.490000e-06	6.309914e-06	2.616820e-08	4.556552e+01	1.720085e+03
1.500000e-06	6.346308e-06	2.623385e-08	4.582834e+01	1.724371e+03
1.510000e-06	6.380508e-06	2.629568e-08	4.607530e+01	1.728282e+03
1.520000e-06	6.412319e-06	2.635277e-08	4.630501e+01	1.731835e+03
1.530000e-06	6.441905e-06	2.640305e-08	4.651866e+01	1.735050e+03
1.540000e-06	6.469352e-06	2.644653e-08	4.671687e+01	1.737940e+03
1.550000e-06	6.494367e-06	2.648524e-08	4.689750e+01	1.740521e+03
1.560000e-06	6.516893e-06	2.651882e-08	4.706017e+01	1.742802e+03
1.570000e-06	6.537260e-06	2.654735e-08	4.720725e+01	1.744793e+03
1.580000e-06	6.555380e-06	2.657257e-08	4.733809e+01	1.746506e+03
1.590000e-06	6.570973e-06	2.659465e-08	4.745070e+01	1.747951e+03
1.600000e-06	6.584089e-06	2.661351e-08	4.754541e+01	1.749140e+03
1.610000e-06	6.594677e-06	2.662862e-08	4.762187e+01	1.750088e+03
1.620000e-06	6.602669e-06	2.664261e-08	4.767958e+01	1.750813e+03
1.630000e-06	6.608274e-06	2.665525e-08	4.772006e+01	1.751330e+03
1.640000e-06	6.611600e-06	2.666255e-08	4.774408e+01	1.751655e+03
1.650000e-06	6.612524e-06	2.666652e-08	4.775075e+01	1.751801e+03
1.660000e-06	6.611123e-06	2.666295e-08	4.774063e+01	1.751774e+03
1.670000e-06	6.607642e-06	2.665446e-08	4.771549e+01	1.751575e+03
1.680000e-06	6.601912e-06	2.665002e-08	4.767411e+01	1.751201e+03
1.690000e-06	6.593897e-06	2.664129e-08	4.761624e+01	1.750646e+03
1.700000e-06	6.583810e-06	2.663136e-08	4.754340e+01	1.749901e+03
1.710000e-06	6.571575e-06	2.662614e-08	4.745505e+01	1.748966e+03
1.720000e-06	6.556989e-06	2.662923e-08	4.734971e+01	1.747843e+03
1.730000e-06	6.540238e-06	2.662536e-08	4.722875e+01	1.746545e+03
1.740000e-06	6.521502e-06	2.653349e-08	4.709345e+01	1.745096e+03
1.750000e-06	6.500229e-06	2.647626e-08	4.693983e+01	1.743522e+03
1.760000e-06	6.475806e-06	2.650545e-08	4.676347e+01	1.741854e+03
1.770000e-06	6.448610e-06	2.646903e-08	4.656708e+01	1.740118e+03
1.780000e-06	6.419213e-06	2.646106e-08	4.635480e+01	1.738333e+03
1.790000e-06	6.387935e-06	2.655566e-08	4.612893e+01	1.736501e+03
1.800000e-06	6.355252e-06	2.641964e-08	4.589292e+01	1.734611e+03
1.810000e-06	6.320853e-06	2.635378e-08	4.564451e+01	1.732633e+03
1.820000e-06	6.284061e-06	2.644234e-08	4.537883e+01	1.730528e+03
1.830000e-06	6.244989e-06	2.627567e-08	4.509668e+01	1.728252e+03
1.840000e-06	6.203774e-06	2.634419e-08	4.479906e+01	1.725760e+03
1.850000e-06	6.160432e-06	2.635771e-08	4.448607e+01	1.723022e+03
1.860000e-06	6.115054e-06	2.619921e-08	4.415839e+01	1.720017e+03
1.870000e-06	6.067342e-06	2.621627e-08	4.381385e+01	1.716747e+03
1.880000e-06	6.017338e-06	2.604926e-08	4.345276e+01	1.713228e+03
1.890000e-06	5.964944e-06	2.603105e-08	4.307440e+01	1.709488e+03
1.900000e-06	5.909897e-06	2.604043e-08	4.267690e+01	1.705565e+03
1.910000e-06	5.852610e-06	2.593816e-08	4.226321e+01	1.701490e+03
1.920000e-06	5.793223e-06	2.597482e-08	4.183436e+01	1.697292e+03
1.930000e-06	5.731750e-06	2.581215e-08	4.139045e+01	1.692983e+03
1.940000e-06	5.668156e-06	2.572920e-08	4.093122e+01	1.688563e+03
1.950000e-06	5.602390e-06	2.568380e-08	4.045631e+01	1.684020e+03
1.960000e-06	5.534521e-06	2.559413e-08	3.996621e+01	1.679331e+03
1.970000e-06	5.464379e-06	2.558025e-08	3.945970e+01	1.674472e+03
1.980000e-06	5.392135e-06	2.544654e-08	3.893800e+01	1.669422e+03
1.990000e-06	5.317961e-06	2.540451e-08	3.840237e+01	1.664164e+03
2.000000e-06	5.241740e-06	2.530033e-08	3.785196e+01	1.658692e+03
2.010000e-06	5.163400e-06	2.519535e-08	3.728625e+01	1.653009e+03
2.020000e-06	5.083090e-06	2.514821e-08	3.670631e+01	1.647122e+03
2.030000e-06	5.001055e-06	2.502658e-08	3.611392e+01	1.641040e+03
2.040000e-06	4.917305e-06	2.494727e-08	3.550913e+01	1.634774e+03
2.050000e-06	4.831826e-06	2.482747e-08	3.489187e+01	1.628328e+03
2.060000e-06	4.744515e-06	2.474982e-08	3.426137e+01	1.621700e+03
2.070000e-06	4.655502e-06	2.464169e-08	3.361858e+01	1.614885e+03
2.080000e-06	4.565018e-06	2.452020e-08	3.296518e+01	1.607873e+03
2.090000e-06	4.472960e-06	2.442495e-08	3.230040e+01	1.600656e+03
2.100000e-06	4.379289e-06	2.430767e-08	3.162398e+01	1.593227e+03
2.110000e-06	4.283979e-06	2.421083e-08	3.093572e+01	1.585583e+03
2.120000e-06	4.187183e-06	2.408738e-08	3.023673e+01	1.577723e+03
2.130000e-06	4.089010e-06	2.397161e-08	2.952780e+01	1.569649e+03
2.140000e-06	3.989443e-06	2.383206e-08	2.880880e+01	1.561364e+03
2.150000e-06	3.888449e-06	2.369456e-08	2.807950e+01	1.552863e+03
2.160000e-06	3.785875e-06	2.356497e-08	2.733878e+01	1.544141e+03
2.170000e-06	3.681736e-06	2.342983e-08	2.658677e+01	1.535183e+03
2.180000e-06	3.576336e-06	2.329524e-08	2.582565e+01	1.525971e+03
2.190000e-06	3.469833e-06	2.315250e-08	2.505657e+01	1.516485e+03
2.200000e-06	3.362072e-06	2.301026e-08	2.427839e+01	1.506705e+03
2.210000e-06	3.253088e-06	2.285235e-08	2.349139e+01	1.496618e+03
2.220000e-06	3.142829e-06	2.269539e-08	2.269518e+01	1.486214e+03
2.230000e-06	3.031297e-06	2.253738e-08	2.188978e+01	1.475491e+03
2.240000e-06	2.918622e-06	2.237435e-08	2.107612e+01	1.464453e+03
2.250000e-06	2.804844e-06	2.219798e-08	2.025451e+01	1.453101e+03
2.260000e-06	2.689959e-06	2.201846e-08	1.942489e+01	1.441439e+03
2.270000e-06	2.573992e-06	2.183588e-08	1.858746e+01	1.429463e+03
2.280000e-06	2.456995e-06	2.165175e-08	1.774259e+01	1.417160e+03
2.290000e-06	2.338960e-06	2.146736e-08	1.689024e+01	1.404512e+03
2.300000e-06	2.219871e-06	2.127577e-08	1.603027e+01	1.391497e+03
2.310000e-06	2.099874e-06	2.107405e-08	1.516374e+01	1.378091e+03
2.320000e-06	1.979184e-06	2.085746e-08	1.429220e+01	1.364271e+03
2.330000e-06	1.857923e-06	2.063684e-08	1.341654e+01	1.350023e+03
2.340000e-06	1.736122e-06	2.041538e-08	1.253699e+01	1.335338e+03
2.350000e-06	1.613745e-06	2.019441e-08	1.165327e+01	1.320213e+03
2.360000e-06	1.490804e-06	1.996285e-08	1.076548e+01	1.304648e+03
2.370000e-06	1.367380e-06	1.971447e-08	9.874206e+00	1.288639e+03
2.380000e-06	1.243486e-06	1.945405e-08	8.979536e+00	1.272175e+03
2.390000e-06	1.119187e-06	1.919082e-08	8.081936e+00	1.255235e+03
2.400000e-06	9.946073e-07	1.892793e-08	7.182316e+00	1.237783e+03
2.410000e-06	8.697674e-07	1.865668e-08	6.280816e+00	1.219775e+03
2.420000e-06	7.446819e-07	1.837595e-08	5.377541e+00	1.201158e+03
2.430000e-06	6.193571e-07	1.808218e-08	4.472538e+00	1.181876e+03
2.440000e-06	4.938468e-07	1.777289e-08	3.566196e+00	1.161878e+03
2.450000e-06	3.681886e-07	1.744987e-08	2.658785e+00	1.141118e+03
2.460000e-06	2.423572e-07	1.711911e-08	1.750124e+00	1.119559e+03
2.470000e-06	1.163127e-07	1.678134e-08	8.399242e-01	1.097166e+03
2.480000e-06	-9.848878e-09	1.642942e-08	-7.112130e-02	1.073904e+03
2.490000e-06	-1.360037e-07	1.606227e-08	-9.821178e-01	1.049730e+03
2.500000e-06	-2.621354e-07	1.567923e-08	-1.892948e+00	1.024583e+03
2.510000e-06	-3.881978e-07	1.527835e-08	-2.803277e+00	9.983838e+02
2.520000e-06	-5.140847e-07	1.485583e-08	-3.712339e+00	9.710271e+02
2.530000e-06	-6.398148e-07	1.441285e-08	-4.620268e+00	9.423861e+02
2.540000e-06	-7.653915e-07	1.395345e-08	-5.527090e+00	9.123148e+02
2.550000e-06	-8.906806e-07	1.347417e-08	-6.431835e+00	8.806531e+02
2.560000e-06	-1.015684e-06	1.296604e-08	-7.334514e+00	8.472306e+02
2.570000e-06	-1.140398e-06	1.242445e-08	-8.235111e+00	8.118685e+02
2.580000e-06	-1.264747e-06	1.184840e-08	-9.133069e+00	7.743764e+02
2.590000e-06	-1.388689e-06	1.123867e-08	-1.002808e+01	7.345469e+02
2.600000e-06	-1.512078e-06	1.059542e-08	-1.091911e+01	6.921474e+02
2.610000e-06	-1.634849e-06	9.910728e-09	-1.180567e+01	6.469128e+02
2.620000e-06	-1.756972e-06	9.176769e-09	-1.268755e+01	5.985432e+02
2.630000e-06	-1.878386e-06	8.385508e-09	-1.356431e+01	5.467090e+02
2.640000e-06	-1.999204e-06	7.532407e-09	-1.443677e+01	4.910669e+02
2.650000e-06	-2.119455e-06	6.615960e-09	-1.530513e+01	4.312875e+02
2.660000e-06	-2.238929e-06	5.636623e-09	-1.616789e+01	3.670917e+02
2.670000e-06	-2.357303e-06	4.593023e-09	-1.702269e+01	2.982940e+02
2.680000e-06	-2.474576e-06	3.479346e-09	-1.786955e+01	2.248457e+02
2.690000e-06	-2.590859e-06	2.294997e-09	-1.870927e+01	1.468722e+02
2.700000e-06	-2.706070e-06	1.044729e-09	-1.954123e+01	6.469783e+01
2.710000e-06	-2.820161e-06	-2.631642e-10	-2.036511e+01	-2.114727e+01
2.720000e-06	-2.932972e-06	-1.617435e-09	-2.117975e+01	-1.099396e+02
2.730000e-06	-3.044572e-06	-3.003517e-09	-2.198564e+01	-2.007948e+02
2.740000e-06	-3.155083e-06	-4.407213e-09	-2.278367e+01	-2.927170e+02
2.750000e-06	-3.264453e-06	-5.813671e-09	-2.357346e+01	-3.846586e+02
2.760000e-06	-3.372767e-06	-7.204649e-09	-2.435562e+01	-4.755837e+02
2.770000e-06	-3.480015e-06	-8.565604e-09	-2.513009e+01	-5.645280e+02
2.780000e-06	-3.586118e-06	-9.882986e-09	-2.589629e+01	-6.506484e+02
2.790000e-06	-3.691070e-06	-1.114504e-08	-2.665417e+01	-7.332569e+02
2.800000e-06	-3.794730e-06	-1.234679e-08	-2.740273e+01	-8.118376e+02
2.810000e-06	-3.896846e-06	-1.348308e-08	-2.814013e+01	-8.860469e+02
2.820000e-06	-3.997454e-06	-1.455064e-08	-2.886665e+01	-9.556985e+02
2.830000e-06	-4.096751e-06	-1.554879e-08	-2.958370e+01	-1.020740e+03
2.840000e-06	-4.194693e-06	-1.647768e-08	-3.029096e+01	-1.081223e+03
2.850000e-06	-4.291278e-06	-1.733932e-08	-3.098843e+01	-1.137272e+03
2.860000e-06	-4.386350e-06	-1.813505e-08	-3.167497e+01	-1.189065e+03
2.870000e-06	-4.479736e-06	-1.886777e-08	-3.234933e+01	-1.236803e+03
2.880000e-06	-4.571568e-06	-1.954344e-08	-3.301248e+01	-1.280707e+03
2.890000e-06	-4.661837e-06	-2.016513e-08	-3.366434e+01	-1.321004e+03
2.900000e-06	-4.750462e-06	-2.073456e-08	-3.430431e+01	-1.357927e+03
2.910000e-06	-4.837235e-06	-2.125460e-08	-3.493093e+01	-1.391713e+03
2.920000e-06	-4.922091e-06	-2.172783e-08	-3.554369e+01	-1.422602e+03
2.930000e-06	-5.005240e-06	-2.215902e-08	-3.614413e+01	-1.450836e+03
2.940000e-06	-5.086722e-06	-2.255518e-08	-3.673253e+01	-1.476654e+03
