# Temperatura_=_98.37
# Concentracion g/m^3_=_26700.0
# C_Vs_to_Am_M_A/Vsm_=_65563218390.804596
# pendiente_HvsI_1/m_=_3716.3
# ordenada_HvsI_A/m_=_1297.0
# frecuencia_Hz_=_302530.4620496182

Tiempo_(s)	Campo_(V.s)	Magnetizacion_(V.s)	Campo_(kA/m)	Magnetizacion_(A/m)
0.000000e+00	-8.054709e-06	-2.515968e-08	-5.684353e+01	-1.646588e+03
1.000000e-08	-8.050653e-06	-2.515516e-08	-5.681491e+01	-1.646065e+03
2.000000e-08	-8.043995e-06	-2.514407e-08	-5.676792e+01	-1.645484e+03
3.000000e-08	-8.034642e-06	-2.513476e-08	-5.670191e+01	-1.644857e+03
4.000000e-08	-8.022404e-06	-2.512441e-08	-5.661555e+01	-1.644169e+03
5.000000e-08	-8.007174e-06	-2.510806e-08	-5.650807e+01	-1.643381e+03
6.000000e-08	-7.989158e-06	-2.508492e-08	-5.638092e+01	-1.642447e+03
7.000000e-08	-7.968760e-06	-2.505589e-08	-5.623697e+01	-1.641328e+03
8.000000e-08	-7.945831e-06	-2.507493e-08	-5.607516e+01	-1.640011e+03
9.000000e-08	-7.919785e-06	-2.509996e-08	-5.589135e+01	-1.638513e+03
1.000000e-07	-7.890497e-06	-2.504539e-08	-5.568466e+01	-1.636881e+03
1.100000e-07	-7.858285e-06	-2.500009e-08	-5.545733e+01	-1.635181e+03
1.200000e-07	-7.823321e-06	-2.497440e-08	-5.521058e+01	-1.633476e+03
1.300000e-07	-7.785793e-06	-2.490604e-08	-5.494574e+01	-1.631810e+03
1.400000e-07	-7.746053e-06	-2.480712e-08	-5.466529e+01	-1.630188e+03
1.500000e-07	-7.704078e-06	-2.482662e-08	-5.436906e+01	-1.628577e+03
1.600000e-07	-7.659508e-06	-2.488138e-08	-5.405453e+01	-1.626905e+03
1.700000e-07	-7.612214e-06	-2.475367e-08	-5.372076e+01	-1.625084e+03
1.800000e-07	-7.562009e-06	-2.476956e-08	-5.336646e+01	-1.623026e+03
1.900000e-07	-7.508718e-06	-2.473735e-08	-5.299037e+01	-1.620671e+03
2.000000e-07	-7.452593e-06	-2.461663e-08	-5.259429e+01	-1.617992e+03
2.100000e-07	-7.393785e-06	-2.460745e-08	-5.217927e+01	-1.615007e+03
2.200000e-07	-7.332286e-06	-2.456522e-08	-5.174526e+01	-1.611769e+03
2.300000e-07	-7.268109e-06	-2.455572e-08	-5.129235e+01	-1.608346e+03
2.400000e-07	-7.201137e-06	-2.446164e-08	-5.081972e+01	-1.604803e+03
2.500000e-07	-7.131444e-06	-2.439862e-08	-5.032788e+01	-1.601182e+03
2.600000e-07	-7.058972e-06	-2.435903e-08	-4.981643e+01	-1.597493e+03
2.700000e-07	-6.983656e-06	-2.428788e-08	-4.928491e+01	-1.593712e+03
2.800000e-07	-6.905597e-06	-2.421928e-08	-4.873404e+01	-1.589792e+03
2.900000e-07	-6.824782e-06	-2.414767e-08	-4.816372e+01	-1.585680e+03
3.000000e-07	-6.741413e-06	-2.410668e-08	-4.757537e+01	-1.581336e+03
3.100000e-07	-6.655778e-06	-2.402127e-08	-4.697102e+01	-1.576745e+03
3.200000e-07	-6.567886e-06	-2.394814e-08	-4.635075e+01	-1.571923e+03
3.300000e-07	-6.477536e-06	-2.389492e-08	-4.571314e+01	-1.566911e+03
3.400000e-07	-6.384726e-06	-2.380697e-08	-4.505816e+01	-1.561760e+03
3.500000e-07	-6.289661e-06	-2.371960e-08	-4.438727e+01	-1.556517e+03
3.600000e-07	-6.192291e-06	-2.363676e-08	-4.370011e+01	-1.551204e+03
3.700000e-07	-6.092593e-06	-2.356162e-08	-4.299652e+01	-1.545812e+03
3.800000e-07	-5.990801e-06	-2.348075e-08	-4.227816e+01	-1.540303e+03
3.900000e-07	-5.886939e-06	-2.339872e-08	-4.154519e+01	-1.534620e+03
4.000000e-07	-5.780921e-06	-2.330666e-08	-4.079700e+01	-1.528703e+03
4.100000e-07	-5.672857e-06	-2.319930e-08	-4.003437e+01	-1.522512e+03
4.200000e-07	-5.562887e-06	-2.309672e-08	-3.925830e+01	-1.516036e+03
4.300000e-07	-5.450886e-06	-2.299740e-08	-3.846788e+01	-1.509295e+03
4.400000e-07	-5.336703e-06	-2.289872e-08	-3.766207e+01	-1.502339e+03
4.500000e-07	-5.220486e-06	-2.279119e-08	-3.684191e+01	-1.495227e+03
4.600000e-07	-5.102377e-06	-2.267921e-08	-3.600839e+01	-1.488005e+03
4.700000e-07	-4.982389e-06	-2.256516e-08	-3.516162e+01	-1.480695e+03
4.800000e-07	-4.860578e-06	-2.244849e-08	-3.430197e+01	-1.473282e+03
4.900000e-07	-4.737041e-06	-2.233245e-08	-3.343015e+01	-1.465712e+03
5.000000e-07	-4.611778e-06	-2.221560e-08	-3.254615e+01	-1.457913e+03
5.100000e-07	-4.484812e-06	-2.209418e-08	-3.165012e+01	-1.449809e+03
5.200000e-07	-4.356204e-06	-2.196179e-08	-3.074252e+01	-1.441343e+03
5.300000e-07	-4.225973e-06	-2.182135e-08	-2.982345e+01	-1.432494e+03
5.400000e-07	-4.094175e-06	-2.168237e-08	-2.889333e+01	-1.423282e+03
5.500000e-07	-3.960850e-06	-2.154156e-08	-2.795243e+01	-1.413759e+03
5.600000e-07	-3.826042e-06	-2.139542e-08	-2.700106e+01	-1.403990e+03
5.700000e-07	-3.689762e-06	-2.123997e-08	-2.603932e+01	-1.394033e+03
5.800000e-07	-3.552002e-06	-2.108043e-08	-2.506712e+01	-1.383915e+03
5.900000e-07	-3.412802e-06	-2.091765e-08	-2.408476e+01	-1.373619e+03
6.000000e-07	-3.272173e-06	-2.075206e-08	-2.309231e+01	-1.363087e+03
6.100000e-07	-3.130120e-06	-2.058369e-08	-2.208982e+01	-1.352233e+03
6.200000e-07	-2.986769e-06	-2.041309e-08	-2.107816e+01	-1.340963e+03
6.300000e-07	-2.842293e-06	-2.023521e-08	-2.005857e+01	-1.329206e+03
6.400000e-07	-2.696826e-06	-2.004423e-08	-1.903198e+01	-1.316927e+03
6.500000e-07	-2.550381e-06	-1.984523e-08	-1.799850e+01	-1.304139e+03
6.600000e-07	-2.403038e-06	-1.964234e-08	-1.695867e+01	-1.290892e+03
6.700000e-07	-2.254970e-06	-1.943800e-08	-1.591373e+01	-1.277256e+03
6.800000e-07	-2.106274e-06	-1.922673e-08	-1.486436e+01	-1.263290e+03
6.900000e-07	-1.956938e-06	-1.901033e-08	-1.381046e+01	-1.249017e+03
7.000000e-07	-1.806884e-06	-1.878773e-08	-1.275151e+01	-1.234411e+03
7.100000e-07	-1.656178e-06	-1.855708e-08	-1.168795e+01	-1.219395e+03
7.200000e-07	-1.504946e-06	-1.831657e-08	-1.062068e+01	-1.203855e+03
7.300000e-07	-1.353222e-06	-1.806610e-08	-9.549927e+00	-1.187671e+03
7.400000e-07	-1.201021e-06	-1.780822e-08	-8.475823e+00	-1.170744e+03
7.500000e-07	-1.048392e-06	-1.753852e-08	-7.398693e+00	-1.153018e+03
7.600000e-07	-8.954264e-07	-1.725933e-08	-6.319185e+00	-1.134491e+03
7.700000e-07	-7.421566e-07	-1.696890e-08	-5.237532e+00	-1.115199e+03
7.800000e-07	-5.885700e-07	-1.666716e-08	-4.153645e+00	-1.095190e+03
7.900000e-07	-4.347530e-07	-1.635406e-08	-3.068130e+00	-1.074487e+03
8.000000e-07	-2.807889e-07	-1.602530e-08	-1.981577e+00	-1.053051e+03
8.100000e-07	-1.266835e-07	-1.568054e-08	-8.940286e-01	-1.030762e+03
8.200000e-07	2.749551e-08	-1.531955e-08	1.940408e-01	-1.007420e+03
8.300000e-07	1.817242e-07	-1.493788e-08	1.282461e+00	-9.827649e+02
8.400000e-07	3.359865e-07	-1.453118e-08	2.371117e+00	-9.565205e+02
8.500000e-07	4.901441e-07	-1.410043e-08	3.459035e+00	-9.284303e+02
8.600000e-07	6.441331e-07	-1.364400e-08	4.545763e+00	-8.982865e+02
8.700000e-07	7.979115e-07	-1.316017e-08	5.631005e+00	-8.659280e+02
8.800000e-07	9.514062e-07	-1.264068e-08	6.714244e+00	-8.312048e+02
8.900000e-07	1.104549e-06	-1.207935e-08	7.795003e+00	-7.939109e+02
9.000000e-07	1.257256e-06	-1.146813e-08	8.872679e+00	-7.537007e+02
9.100000e-07	1.409527e-06	-1.079644e-08	9.947288e+00	-7.100126e+02
9.200000e-07	1.561369e-06	-1.005185e-08	1.101886e+01	-6.620262e+02
9.300000e-07	1.712653e-06	-9.221134e-09	1.208650e+01	-6.086757e+02
9.400000e-07	1.863286e-06	-8.296819e-09	1.314955e+01	-5.487341e+02
9.500000e-07	2.013194e-06	-7.260687e-09	1.420747e+01	-4.809644e+02
9.600000e-07	2.162317e-06	-6.094872e-09	1.525986e+01	-4.043196e+02
9.700000e-07	2.310636e-06	-4.785856e-09	1.630658e+01	-3.181590e+02
9.800000e-07	2.458173e-06	-3.328992e-09	1.734777e+01	-2.224385e+02
9.900000e-07	2.604890e-06	-1.732015e-09	1.838318e+01	-1.178358e+02
1.000000e-06	2.750570e-06	-1.370398e-11	1.941126e+01	-5.780338e+00
1.010000e-06	2.895162e-06	1.790071e-09	2.043168e+01	1.116267e+02
1.020000e-06	3.038659e-06	3.635885e-09	2.144436e+01	2.317934e+02
1.030000e-06	3.180945e-06	5.473790e-09	2.244850e+01	3.518924e+02
1.040000e-06	3.322059e-06	7.259202e-09	2.344437e+01	4.691491e+02
1.050000e-06	3.461871e-06	8.953956e-09	2.443104e+01	5.811142e+02
1.060000e-06	3.600287e-06	1.053030e-08	2.540787e+01	6.858771e+02
1.070000e-06	3.737282e-06	1.197552e-08	2.637467e+01	7.821887e+02
1.080000e-06	3.872829e-06	1.328641e-08	2.733125e+01	8.694818e+02
1.090000e-06	4.007000e-06	1.446837e-08	2.827812e+01	9.477963e+02
1.100000e-06	4.139766e-06	1.553007e-08	2.921507e+01	1.017634e+03
1.110000e-06	4.271068e-06	1.647939e-08	3.014170e+01	1.079779e+03
1.120000e-06	4.400813e-06	1.732448e-08	3.105733e+01	1.135121e+03
1.130000e-06	4.529036e-06	1.807518e-08	3.196222e+01	1.184514e+03
1.140000e-06	4.655709e-06	1.874132e-08	3.285618e+01	1.228687e+03
1.150000e-06	4.780808e-06	1.933199e-08	3.373902e+01	1.268218e+03
1.160000e-06	4.904291e-06	1.985621e-08	3.461046e+01	1.303552e+03
1.170000e-06	5.025992e-06	2.032319e-08	3.546933e+01	1.335050e+03
1.180000e-06	5.145848e-06	2.073933e-08	3.631517e+01	1.363049e+03
1.190000e-06	5.263836e-06	2.111392e-08	3.714784e+01	1.387902e+03
1.200000e-06	5.379885e-06	2.145085e-08	3.796681e+01	1.409999e+03
1.210000e-06	5.493814e-06	2.175454e-08	3.877084e+01	1.429755e+03
1.220000e-06	5.605569e-06	2.203003e-08	3.955951e+01	1.447582e+03
1.230000e-06	5.715344e-06	2.228087e-08	4.033421e+01	1.463845e+03
1.240000e-06	5.823202e-06	2.251074e-08	4.109538e+01	1.478832e+03
1.250000e-06	5.928922e-06	2.271836e-08	4.184147e+01	1.492729e+03
1.260000e-06	6.032409e-06	2.290724e-08	4.257179e+01	1.505632e+03
1.270000e-06	6.133761e-06	2.308076e-08	4.328706e+01	1.517566e+03
1.280000e-06	6.232804e-06	2.324136e-08	4.398602e+01	1.528525e+03
1.290000e-06	6.329425e-06	2.339114e-08	4.466789e+01	1.538510e+03
1.300000e-06	6.423765e-06	2.353042e-08	4.533367e+01	1.547557e+03
1.310000e-06	6.515842e-06	2.366002e-08	4.598347e+01	1.555752e+03
1.320000e-06	6.605566e-06	2.377891e-08	4.661667e+01	1.563224e+03
1.330000e-06	6.692910e-06	2.388877e-08	4.723307e+01	1.570121e+03
1.340000e-06	6.777952e-06	2.399133e-08	4.783323e+01	1.576585e+03
1.350000e-06	6.860573e-06	2.408618e-08	4.841630e+01	1.582723e+03
1.360000e-06	6.940651e-06	2.417318e-08	4.898142e+01	1.588593e+03
1.370000e-06	7.018212e-06	2.425380e-08	4.952878e+01	1.594201e+03
1.380000e-06	7.093185e-06	2.432976e-08	5.005788e+01	1.599518e+03
1.390000e-06	7.165510e-06	2.440140e-08	5.056829e+01	1.604495e+03
1.400000e-06	7.235310e-06	2.446944e-08	5.106088e+01	1.609095e+03
1.410000e-06	7.302563e-06	2.453425e-08	5.153550e+01	1.613307e+03
1.420000e-06	7.367115e-06	2.459587e-08	5.199105e+01	1.617156e+03
1.430000e-06	7.429101e-06	2.465330e-08	5.242850e+01	1.620696e+03
1.440000e-06	7.488604e-06	2.470762e-08	5.284842e+01	1.623999e+03
1.450000e-06	7.545447e-06	2.475882e-08	5.324958e+01	1.627128e+03
1.460000e-06	7.599524e-06	2.480656e-08	5.363120e+01	1.630124e+03
1.470000e-06	7.650622e-06	2.484961e-08	5.399181e+01	1.632996e+03
1.480000e-06	7.698629e-06	2.488747e-08	5.433061e+01	1.635716e+03
1.490000e-06	7.743866e-06	2.492256e-08	5.464986e+01	1.638238e+03
1.500000e-06	7.786430e-06	2.495550e-08	5.495024e+01	1.640512e+03
1.510000e-06	7.826136e-06	2.498609e-08	5.523045e+01	1.642500e+03
1.520000e-06	7.863066e-06	2.501439e-08	5.549107e+01	1.644195e+03
1.530000e-06	7.897254e-06	2.503967e-08	5.573234e+01	1.645623e+03
1.540000e-06	7.928637e-06	2.506072e-08	5.595381e+01	1.646834e+03
1.550000e-06	7.957285e-06	2.507956e-08	5.615599e+01	1.647889e+03
1.560000e-06	7.983033e-06	2.509655e-08	5.633770e+01	1.648844e+03
1.570000e-06	8.005827e-06	2.511082e-08	5.649856e+01	1.649731e+03
1.580000e-06	8.025828e-06	2.512263e-08	5.663971e+01	1.650553e+03
1.590000e-06	8.042901e-06	2.513164e-08	5.676019e+01	1.651283e+03
1.600000e-06	8.056946e-06	2.513875e-08	5.685931e+01	1.651875e+03
1.610000e-06	8.067866e-06	2.514529e-08	5.693638e+01	1.652282e+03
1.620000e-06	8.075679e-06	2.514990e-08	5.699152e+01	1.652472e+03
1.630000e-06	8.080642e-06	2.515189e-08	5.702654e+01	1.652437e+03
1.640000e-06	8.082761e-06	2.515347e-08	5.704150e+01	1.652200e+03
1.650000e-06	8.082049e-06	2.515218e-08	5.703647e+01	1.651804e+03
1.660000e-06	8.078690e-06	2.514357e-08	5.701277e+01	1.651299e+03
1.670000e-06	8.072586e-06	2.513643e-08	5.696969e+01	1.650729e+03
1.680000e-06	8.063743e-06	2.512517e-08	5.690728e+01	1.650113e+03
1.690000e-06	8.052162e-06	2.510944e-08	5.682556e+01	1.649441e+03
1.700000e-06	8.037706e-06	2.509812e-08	5.672354e+01	1.648681e+03
1.710000e-06	8.020690e-06	2.509532e-08	5.660345e+01	1.647787e+03
1.720000e-06	8.001418e-06	2.508726e-08	5.646745e+01	1.646716e+03
1.730000e-06	7.979610e-06	2.500112e-08	5.631354e+01	1.645446e+03
1.740000e-06	7.954574e-06	2.496569e-08	5.613686e+01	1.643988e+03
1.750000e-06	7.925820e-06	2.498513e-08	5.593394e+01	1.642383e+03
1.760000e-06	7.893644e-06	2.495290e-08	5.570686e+01	1.640692e+03
1.770000e-06	7.858861e-06	2.493422e-08	5.546140e+01	1.638982e+03
1.780000e-06	7.821775e-06	2.500554e-08	5.519967e+01	1.637302e+03
1.790000e-06	7.782537e-06	2.498429e-08	5.492276e+01	1.635670e+03
1.800000e-06	7.741225e-06	2.486974e-08	5.463121e+01	1.634060e+03
1.810000e-06	7.697268e-06	2.492666e-08	5.432100e+01	1.632409e+03
1.820000e-06	7.650561e-06	2.483483e-08	5.399138e+01	1.630633e+03
1.830000e-06	7.601151e-06	2.481966e-08	5.364269e+01	1.628640e+03
1.840000e-06	7.548659e-06	2.485423e-08	5.327225e+01	1.626362e+03
1.850000e-06	7.493262e-06	2.477039e-08	5.288130e+01	1.623762e+03
1.860000e-06	7.435212e-06	2.479340e-08	5.247163e+01	1.620849e+03
1.870000e-06	7.374495e-06	2.463988e-08	5.204314e+01	1.617667e+03
1.880000e-06	7.310979e-06	2.461464e-08	5.159489e+01	1.614282e+03
1.890000e-06	7.244563e-06	2.460091e-08	5.112618e+01	1.610762e+03
1.900000e-06	7.175388e-06	2.449863e-08	5.063800e+01	1.607157e+03
1.910000e-06	7.103372e-06	2.450939e-08	5.012977e+01	1.603485e+03
1.920000e-06	7.028552e-06	2.441345e-08	4.960175e+01	1.599729e+03
1.930000e-06	6.951009e-06	2.437800e-08	4.905452e+01	1.595847e+03
1.940000e-06	6.870824e-06	2.428089e-08	4.848864e+01	1.591787e+03
1.950000e-06	6.788166e-06	2.421961e-08	4.790530e+01	1.587502e+03
1.960000e-06	6.702909e-06	2.418593e-08	4.730363e+01	1.582971e+03
1.970000e-06	6.615135e-06	2.406488e-08	4.668420e+01	1.578202e+03
1.980000e-06	6.525088e-06	2.401756e-08	4.604872e+01	1.573231e+03
1.990000e-06	6.432785e-06	2.392136e-08	4.539732e+01	1.568109e+03
2.000000e-06	6.338122e-06	2.386818e-08	4.472927e+01	1.562885e+03
2.010000e-06	6.241199e-06	2.377788e-08	4.404526e+01	1.557587e+03
2.020000e-06	6.142098e-06	2.369021e-08	4.334589e+01	1.552216e+03
2.030000e-06	6.040716e-06	2.360036e-08	4.263042e+01	1.546740e+03
2.040000e-06	5.937135e-06	2.349777e-08	4.189943e+01	1.541104e+03
2.050000e-06	5.831541e-06	2.342415e-08	4.115423e+01	1.535249e+03
2.060000e-06	5.723990e-06	2.333134e-08	4.039523e+01	1.529128e+03
2.070000e-06	5.614358e-06	2.324817e-08	3.962153e+01	1.522721e+03
2.080000e-06	5.502676e-06	2.313183e-08	3.883338e+01	1.516041e+03
2.090000e-06	5.388982e-06	2.302978e-08	3.803101e+01	1.509132e+03
2.100000e-06	5.273223e-06	2.292061e-08	3.721408e+01	1.502052e+03
2.110000e-06	5.155430e-06	2.282237e-08	3.638279e+01	1.494853e+03
2.120000e-06	5.035709e-06	2.271711e-08	3.553790e+01	1.487564e+03
2.130000e-06	4.914197e-06	2.260706e-08	3.468037e+01	1.480178e+03
2.140000e-06	4.790892e-06	2.248205e-08	3.381019e+01	1.472653e+03
2.150000e-06	4.665792e-06	2.234997e-08	3.292733e+01	1.464917e+03
2.160000e-06	4.538956e-06	2.222679e-08	3.203223e+01	1.456894e+03
2.170000e-06	4.410485e-06	2.210402e-08	3.112559e+01	1.448521e+03
2.180000e-06	4.280439e-06	2.197924e-08	3.020783e+01	1.439766e+03
2.190000e-06	4.148821e-06	2.184029e-08	2.927898e+01	1.430640e+03
2.200000e-06	4.015668e-06	2.170146e-08	2.833929e+01	1.421187e+03
2.210000e-06	3.880997e-06	2.155179e-08	2.738889e+01	1.411472e+03
2.220000e-06	3.744840e-06	2.140391e-08	2.642801e+01	1.401557e+03
2.230000e-06	3.607271e-06	2.125278e-08	2.545716e+01	1.391477e+03
2.240000e-06	3.468296e-06	2.110281e-08	2.447639e+01	1.381228e+03
2.250000e-06	3.327984e-06	2.094498e-08	2.348618e+01	1.370761e+03
2.260000e-06	3.186398e-06	2.077570e-08	2.248699e+01	1.359995e+03
2.270000e-06	3.043548e-06	2.059910e-08	2.147886e+01	1.348836e+03
2.280000e-06	2.899560e-06	2.042222e-08	2.046272e+01	1.337204e+03
2.290000e-06	2.754536e-06	2.024478e-08	1.943925e+01	1.325055e+03
2.300000e-06	2.608578e-06	2.005891e-08	1.840920e+01	1.312389e+03
2.310000e-06	2.461719e-06	1.986348e-08	1.737279e+01	1.299249e+03
2.320000e-06	2.313992e-06	1.965865e-08	1.633026e+01	1.285703e+03
2.330000e-06	2.165485e-06	1.944932e-08	1.528221e+01	1.271813e+03
2.340000e-06	2.016232e-06	1.923281e-08	1.422891e+01	1.257616e+03
2.350000e-06	1.866289e-06	1.900873e-08	1.317073e+01	1.243098e+03
2.360000e-06	1.715770e-06	1.877747e-08	1.210850e+01	1.228192e+03
2.370000e-06	1.564730e-06	1.853713e-08	1.104258e+01	1.212793e+03
2.380000e-06	1.413156e-06	1.828875e-08	9.972898e+00	1.196780e+03
2.390000e-06	1.261095e-06	1.803331e-08	8.899771e+00	1.180044e+03
2.400000e-06	1.108578e-06	1.776944e-08	7.823431e+00	1.162519e+03
2.410000e-06	9.557122e-07	1.749428e-08	6.744632e+00	1.144188e+03
2.420000e-06	8.025274e-07	1.720782e-08	5.663580e+00	1.125081e+03
2.430000e-06	6.490409e-07	1.691146e-08	4.580399e+00	1.105247e+03
2.440000e-06	4.953515e-07	1.660259e-08	3.495785e+00	1.084717e+03
2.450000e-06	3.414393e-07	1.627844e-08	2.409599e+00	1.063471e+03
2.460000e-06	1.873876e-07	1.593737e-08	1.322428e+00	1.041409e+03
2.470000e-06	3.331526e-08	1.557853e-08	2.351118e-01	1.018351e+03
2.480000e-06	-1.207943e-07	1.520189e-08	-8.524673e-01	9.940492e+02
2.490000e-06	-2.749295e-07	1.480604e-08	-1.940227e+00	9.682262e+02
2.500000e-06	-4.289927e-07	1.438811e-08	-3.027478e+00	9.406177e+02
2.510000e-06	-5.829089e-07	1.394454e-08	-4.113693e+00	9.110025e+02
2.520000e-06	-7.366407e-07	1.346854e-08	-5.198606e+00	8.792098e+02
2.530000e-06	-8.901109e-07	1.295358e-08	-6.281673e+00	8.450921e+02
2.540000e-06	-1.043274e-06	1.239616e-08	-7.362573e+00	8.084650e+02
2.550000e-06	-1.196089e-06	1.179221e-08	-8.441013e+00	7.690255e+02
2.560000e-06	-1.348481e-06	1.113380e-08	-9.516473e+00	7.262721e+02
2.570000e-06	-1.500349e-06	1.041213e-08	-1.058823e+01	6.794501e+02
2.580000e-06	-1.651647e-06	9.615517e-09	-1.165597e+01	6.275501e+02
2.590000e-06	-1.802349e-06	8.726807e-09	-1.271950e+01	5.693736e+02
2.600000e-06	-1.952368e-06	7.729866e-09	-1.377821e+01	5.036687e+02
2.610000e-06	-2.101591e-06	6.610489e-09	-1.483130e+01	4.293208e+02
2.620000e-06	-2.249997e-06	5.353005e-09	-1.587864e+01	3.455680e+02
2.630000e-06	-2.397643e-06	3.946669e-09	-1.692060e+01	2.522021e+02
2.640000e-06	-2.544376e-06	2.393665e-09	-1.795612e+01	1.497134e+02
2.650000e-06	-2.690123e-06	7.096335e-10	-1.898468e+01	3.934657e+01
2.660000e-06	-2.834959e-06	-1.077668e-09	-2.000681e+01	-7.695176e+01
2.670000e-06	-2.978682e-06	-2.924473e-09	-2.102109e+01	-1.966906e+02
2.680000e-06	-3.121157e-06	-4.778042e-09	-2.202656e+01	-3.170751e+02
2.690000e-06	-3.262381e-06	-6.588602e-09	-2.302321e+01	-4.352903e+02
2.700000e-06	-3.402425e-06	-8.319993e-09	-2.401152e+01	-5.487828e+02
2.710000e-06	-3.541166e-06	-9.945019e-09	-2.499065e+01	-6.554917e+02
2.720000e-06	-3.678514e-06	-1.144534e-08	-2.595993e+01	-7.539967e+02
2.730000e-06	-3.814531e-06	-1.281428e-08	-2.691983e+01	-8.435637e+02
2.740000e-06	-3.949116e-06	-1.405224e-08	-2.786962e+01	-9.240924e+02
2.750000e-06	-4.082288e-06	-1.516521e-08	-2.880944e+01	-9.959851e+02
2.760000e-06	-4.214080e-06	-1.615955e-08	-2.973952e+01	-1.059973e+03
2.770000e-06	-4.344427e-06	-1.704471e-08	-3.065941e+01	-1.116933e+03
2.780000e-06	-4.473288e-06	-1.783122e-08	-3.156880e+01	-1.167740e+03
2.790000e-06	-4.600571e-06	-1.853115e-08	-3.246706e+01	-1.213160e+03
2.800000e-06	-4.726149e-06	-1.915527e-08	-3.335329e+01	-1.253807e+03
2.810000e-06	-4.850086e-06	-1.970983e-08	-3.422793e+01	-1.290155e+03
2.820000e-06	-4.972341e-06	-2.020055e-08	-3.509070e+01	-1.322582e+03
2.830000e-06	-5.092833e-06	-2.063604e-08	-3.594104e+01	-1.351425e+03
2.840000e-06	-5.211437e-06	-2.102713e-08	-3.677804e+01	-1.377031e+03
2.850000e-06	-5.327942e-06	-2.138135e-08	-3.760025e+01	-1.399780e+03
2.860000e-06	-5.442241e-06	-2.170173e-08	-3.840687e+01	-1.420083e+03
2.870000e-06	-5.554344e-06	-2.198960e-08	-3.919800e+01	-1.438357e+03
2.880000e-06	-5.664294e-06	-2.225001e-08	-3.997394e+01	-1.454982e+03
2.890000e-06	-5.772199e-06	-2.248755e-08	-4.073544e+01	-1.470268e+03
2.900000e-06	-5.878170e-06	-2.270377e-08	-4.148330e+01	-1.484427e+03
2.910000e-06	-5.982065e-06	-2.290067e-08	-4.221651e+01	-1.497575e+03
2.920000e-06	-6.083680e-06	-2.308142e-08	-4.293362e+01	-1.509753e+03
2.930000e-06	-6.183017e-06	-2.324947e-08	-4.363466e+01	-1.520958e+03
2.940000e-06	-6.280235e-06	-2.340476e-08	-4.432075e+01	-1.531186e+03
