# Temperatura_=_47.41
# Concentracion g/m^3_=_41000.0
# C_Vs_to_Am_M_A/Vsm_=_65563218390.804596
# pendiente_HvsI_1/m_=_3716.3
# ordenada_HvsI_A/m_=_1297.0
# frecuencia_Hz_=_302470.57807135093

Tiempo_(s)	Campo_(V.s)	Magnetizacion_(V.s)	Campo_(kA/m)	Magnetizacion_(A/m)
0.000000e+00	-8.007983e-06	-2.571911e-08	-5.688339e+01	-1.684646e+03
1.000000e-08	-8.005414e-06	-2.572104e-08	-5.686514e+01	-1.684630e+03
2.000000e-08	-8.000076e-06	-2.571402e-08	-5.682722e+01	-1.684178e+03
3.000000e-08	-7.992204e-06	-2.570332e-08	-5.677130e+01	-1.683309e+03
4.000000e-08	-7.981628e-06	-2.569477e-08	-5.669618e+01	-1.682144e+03
5.000000e-08	-7.968119e-06	-2.568316e-08	-5.660022e+01	-1.680860e+03
6.000000e-08	-7.951706e-06	-2.566587e-08	-5.648363e+01	-1.679639e+03
7.000000e-08	-7.932815e-06	-2.564736e-08	-5.634944e+01	-1.678615e+03
8.000000e-08	-7.911584e-06	-2.564185e-08	-5.619863e+01	-1.677836e+03
9.000000e-08	-7.887458e-06	-2.569423e-08	-5.602726e+01	-1.677251e+03
1.000000e-07	-7.860050e-06	-2.567734e-08	-5.583257e+01	-1.676734e+03
1.100000e-07	-7.829563e-06	-2.560222e-08	-5.561601e+01	-1.676125e+03
1.200000e-07	-7.796256e-06	-2.557298e-08	-5.537942e+01	-1.675282e+03
1.300000e-07	-7.760266e-06	-2.553986e-08	-5.512377e+01	-1.674123e+03
1.400000e-07	-7.721955e-06	-2.545433e-08	-5.485163e+01	-1.672651e+03
1.500000e-07	-7.681535e-06	-2.542268e-08	-5.456452e+01	-1.670943e+03
1.600000e-07	-7.638630e-06	-2.553304e-08	-5.425975e+01	-1.669125e+03
1.700000e-07	-7.592976e-06	-2.543834e-08	-5.393546e+01	-1.667316e+03
1.800000e-07	-7.544678e-06	-2.537508e-08	-5.359238e+01	-1.665591e+03
1.900000e-07	-7.493316e-06	-2.541069e-08	-5.322753e+01	-1.663946e+03
2.000000e-07	-7.438939e-06	-2.529362e-08	-5.284128e+01	-1.662299e+03
2.100000e-07	-7.381881e-06	-2.526154e-08	-5.243598e+01	-1.660510e+03
2.200000e-07	-7.322039e-06	-2.525694e-08	-5.201090e+01	-1.658428e+03
2.300000e-07	-7.259600e-06	-2.523671e-08	-5.156737e+01	-1.655938e+03
2.400000e-07	-7.194510e-06	-2.517484e-08	-5.110501e+01	-1.653002e+03
2.500000e-07	-7.126690e-06	-2.509210e-08	-5.062327e+01	-1.649672e+03
2.600000e-07	-7.056181e-06	-2.509068e-08	-5.012242e+01	-1.646076e+03
2.700000e-07	-6.982838e-06	-2.504735e-08	-4.960144e+01	-1.642382e+03
2.800000e-07	-6.906729e-06	-2.498145e-08	-4.906081e+01	-1.638740e+03
2.900000e-07	-6.827866e-06	-2.492354e-08	-4.850062e+01	-1.635237e+03
3.000000e-07	-6.746316e-06	-2.487998e-08	-4.792135e+01	-1.631868e+03
3.100000e-07	-6.662402e-06	-2.481117e-08	-4.732527e+01	-1.628531e+03
3.200000e-07	-6.576225e-06	-2.471215e-08	-4.671313e+01	-1.625063e+03
3.300000e-07	-6.487701e-06	-2.468634e-08	-4.608432e+01	-1.621286e+03
3.400000e-07	-6.396759e-06	-2.462215e-08	-4.543832e+01	-1.617065e+03
3.500000e-07	-6.303520e-06	-2.454398e-08	-4.477602e+01	-1.612351e+03
3.600000e-07	-6.208070e-06	-2.447569e-08	-4.409801e+01	-1.607198e+03
3.700000e-07	-6.110324e-06	-2.440549e-08	-4.340368e+01	-1.601746e+03
3.800000e-07	-6.010370e-06	-2.432476e-08	-4.269367e+01	-1.596176e+03
3.900000e-07	-5.908295e-06	-2.423619e-08	-4.196860e+01	-1.590653e+03
4.000000e-07	-5.804106e-06	-2.416254e-08	-4.122851e+01	-1.585268e+03
4.100000e-07	-5.697806e-06	-2.406393e-08	-4.047342e+01	-1.580005e+03
4.200000e-07	-5.589482e-06	-2.397799e-08	-3.970397e+01	-1.574741e+03
4.300000e-07	-5.479231e-06	-2.389023e-08	-3.892081e+01	-1.569280e+03
4.400000e-07	-5.366949e-06	-2.379638e-08	-3.812323e+01	-1.563409e+03
4.500000e-07	-5.252597e-06	-2.368402e-08	-3.731096e+01	-1.556968e+03
4.600000e-07	-5.136226e-06	-2.357506e-08	-3.648434e+01	-1.549894e+03
4.700000e-07	-5.017934e-06	-2.346812e-08	-3.564406e+01	-1.542246e+03
4.800000e-07	-4.897854e-06	-2.335029e-08	-3.479110e+01	-1.534186e+03
4.900000e-07	-4.776037e-06	-2.323509e-08	-3.392579e+01	-1.525923e+03
5.000000e-07	-4.652401e-06	-2.311881e-08	-3.304757e+01	-1.517647e+03
5.100000e-07	-4.527052e-06	-2.299712e-08	-3.215717e+01	-1.509464e+03
5.200000e-07	-4.400114e-06	-2.285438e-08	-3.125548e+01	-1.501349e+03
5.300000e-07	-4.271587e-06	-2.271231e-08	-3.034251e+01	-1.493150e+03
5.400000e-07	-4.141557e-06	-2.256916e-08	-2.941887e+01	-1.484625e+03
5.500000e-07	-4.009921e-06	-2.242429e-08	-2.848381e+01	-1.475512e+03
5.600000e-07	-3.876711e-06	-2.227062e-08	-2.753758e+01	-1.465610e+03
5.700000e-07	-3.742085e-06	-2.210789e-08	-2.658128e+01	-1.454835e+03
5.800000e-07	-3.606029e-06	-2.193714e-08	-2.561483e+01	-1.443251e+03
5.900000e-07	-3.468585e-06	-2.175874e-08	-2.463852e+01	-1.431046e+03
6.000000e-07	-3.329767e-06	-2.157936e-08	-2.365245e+01	-1.418466e+03
6.100000e-07	-3.189518e-06	-2.138978e-08	-2.265621e+01	-1.405732e+03
6.200000e-07	-3.047844e-06	-2.119028e-08	-2.164986e+01	-1.392952e+03
6.300000e-07	-2.904912e-06	-2.097943e-08	-2.063456e+01	-1.380071e+03
6.400000e-07	-2.760942e-06	-2.076003e-08	-1.961189e+01	-1.366867e+03
6.500000e-07	-2.615931e-06	-2.053072e-08	-1.858183e+01	-1.353007e+03
6.600000e-07	-2.470003e-06	-2.029530e-08	-1.754526e+01	-1.338129e+03
6.700000e-07	-2.323315e-06	-2.005104e-08	-1.650329e+01	-1.321954e+03
6.800000e-07	-2.175827e-06	-1.979048e-08	-1.545563e+01	-1.304364e+03
6.900000e-07	-2.027620e-06	-1.951234e-08	-1.440286e+01	-1.285434e+03
7.000000e-07	-1.878813e-06	-1.921841e-08	-1.334584e+01	-1.265400e+03
7.100000e-07	-1.729460e-06	-1.891223e-08	-1.228493e+01	-1.244568e+03
7.200000e-07	-1.579574e-06	-1.858849e-08	-1.122024e+01	-1.223188e+03
7.300000e-07	-1.429199e-06	-1.824786e-08	-1.015208e+01	-1.201329e+03
7.400000e-07	-1.278359e-06	-1.788717e-08	-9.080610e+00	-1.178807e+03
7.500000e-07	-1.127017e-06	-1.750362e-08	-8.005581e+00	-1.155176e+03
7.600000e-07	-9.752298e-07	-1.709545e-08	-6.927384e+00	-1.129810e+03
7.700000e-07	-8.230865e-07	-1.666052e-08	-5.846660e+00	-1.102042e+03
7.800000e-07	-6.706150e-07	-1.619557e-08	-4.763603e+00	-1.071331e+03
7.900000e-07	-5.178889e-07	-1.569297e-08	-3.678738e+00	-1.037388e+03
8.000000e-07	-3.649908e-07	-1.515021e-08	-2.592652e+00	-1.000220e+03
8.100000e-07	-2.119576e-07	-1.456283e-08	-1.505606e+00	-9.600565e+02
8.200000e-07	-5.880175e-08	-1.392563e-08	-4.176885e-01	-9.171587e+02
8.300000e-07	9.442103e-08	-1.322564e-08	6.707042e-01	-8.715440e+02
8.400000e-07	2.475678e-07	-1.245111e-08	1.758557e+00	-8.227044e+02
8.500000e-07	4.006296e-07	-1.159385e-08	2.845806e+00	-7.693954e+02
8.600000e-07	5.536134e-07	-1.064193e-08	3.932502e+00	-7.095813e+02
8.700000e-07	7.064628e-07	-9.572751e-09	5.018242e+00	-6.405857e+02
8.800000e-07	8.590815e-07	-8.348849e-09	6.102344e+00	-5.594546e+02
8.900000e-07	1.011402e-06	-6.928062e-09	7.184328e+00	-4.634864e+02
9.000000e-07	1.163443e-06	-5.254298e-09	8.264322e+00	-3.508342e+02
9.100000e-07	1.315080e-06	-3.265893e-09	9.341455e+00	-2.210572e+02
9.200000e-07	1.466183e-06	-9.816950e-10	1.041479e+01	-7.549808e+01
9.300000e-07	1.616721e-06	1.449519e-09	1.148411e+01	8.261428e+01
9.400000e-07	1.766694e-06	3.901314e-09	1.254942e+01	2.483810e+02
9.500000e-07	1.916128e-06	6.350925e-09	1.361090e+01	4.157511e+02
9.600000e-07	2.064926e-06	8.796729e-09	1.466786e+01	5.782579e+02
9.700000e-07	2.212895e-06	1.118144e-08	1.571893e+01	7.298442e+02
9.800000e-07	2.359951e-06	1.331539e-08	1.676352e+01	8.656246e+02
9.900000e-07	2.506071e-06	1.505600e-08	1.780146e+01	9.824482e+02
1.000000e-06	2.651251e-06	1.643402e-08	1.883273e+01	1.079163e+03
1.010000e-06	2.795421e-06	1.752668e-08	1.985681e+01	1.156548e+03
1.020000e-06	2.938547e-06	1.840352e-08	2.087348e+01	1.216947e+03
1.030000e-06	3.080622e-06	1.912035e-08	2.188269e+01	1.263692e+03
1.040000e-06	3.221522e-06	1.971582e-08	2.288355e+01	1.300447e+03
1.050000e-06	3.361073e-06	2.021976e-08	2.387483e+01	1.330602e+03
1.060000e-06	3.499243e-06	2.065098e-08	2.485630e+01	1.356829e+03
1.070000e-06	3.636126e-06	2.102851e-08	2.582862e+01	1.380855e+03
1.080000e-06	3.771669e-06	2.136425e-08	2.679143e+01	1.403485e+03
1.090000e-06	3.905813e-06	2.166230e-08	2.774430e+01	1.424797e+03
1.100000e-06	4.038591e-06	2.193008e-08	2.868747e+01	1.444456e+03
1.110000e-06	4.169855e-06	2.217102e-08	2.961988e+01	1.462048e+03
1.120000e-06	4.299559e-06	2.239080e-08	3.054121e+01	1.477332e+03
1.130000e-06	4.427800e-06	2.259268e-08	3.145215e+01	1.490387e+03
1.140000e-06	4.554495e-06	2.278044e-08	3.235210e+01	1.501611e+03
1.150000e-06	4.679703e-06	2.295712e-08	3.324150e+01	1.511613e+03
1.160000e-06	4.803356e-06	2.312327e-08	3.411985e+01	1.521038e+03
1.170000e-06	4.925260e-06	2.327960e-08	3.498577e+01	1.530397e+03
1.180000e-06	5.045404e-06	2.342572e-08	3.583919e+01	1.539949e+03
1.190000e-06	5.163745e-06	2.356469e-08	3.667981e+01	1.549660e+03
1.200000e-06	5.280157e-06	2.369714e-08	3.750672e+01	1.559263e+03
1.210000e-06	5.394479e-06	2.382033e-08	3.831879e+01	1.568373e+03
1.220000e-06	5.506666e-06	2.393400e-08	3.911570e+01	1.576628e+03
1.230000e-06	5.616861e-06	2.403712e-08	3.989844e+01	1.583813e+03
1.240000e-06	5.725147e-06	2.413507e-08	4.066764e+01	1.589924e+03
1.250000e-06	5.831351e-06	2.423028e-08	4.142204e+01	1.595168e+03
1.260000e-06	5.935341e-06	2.432173e-08	4.216072e+01	1.599893e+03
1.270000e-06	6.037210e-06	2.440816e-08	4.288433e+01	1.604480e+03
1.280000e-06	6.136866e-06	2.449032e-08	4.359221e+01	1.609235e+03
1.290000e-06	6.234170e-06	2.456843e-08	4.428340e+01	1.614304e+03
1.300000e-06	6.329161e-06	2.464076e-08	4.495815e+01	1.619648e+03
1.310000e-06	6.421927e-06	2.470614e-08	4.561710e+01	1.625072e+03
1.320000e-06	6.512440e-06	2.476902e-08	4.626004e+01	1.630300e+03
1.330000e-06	6.600553e-06	2.483362e-08	4.688594e+01	1.635071e+03
1.340000e-06	6.686358e-06	2.489744e-08	4.749544e+01	1.639221e+03
1.350000e-06	6.769850e-06	2.495882e-08	4.808851e+01	1.642734e+03
1.360000e-06	6.850862e-06	2.501722e-08	4.866397e+01	1.645739e+03
1.370000e-06	6.929353e-06	2.507263e-08	4.922152e+01	1.648465e+03
1.380000e-06	7.005260e-06	2.512368e-08	4.976071e+01	1.651165e+03
1.390000e-06	7.078520e-06	2.517191e-08	5.028110e+01	1.654033e+03
1.400000e-06	7.149247e-06	2.521787e-08	5.078350e+01	1.657150e+03
1.410000e-06	7.217477e-06	2.526063e-08	5.126816e+01	1.660460e+03
1.420000e-06	7.283093e-06	2.529971e-08	5.173425e+01	1.663794e+03
1.430000e-06	7.346147e-06	2.533707e-08	5.218214e+01	1.666930e+03
1.440000e-06	7.406749e-06	2.537420e-08	5.261262e+01	1.669661e+03
1.450000e-06	7.464752e-06	2.541069e-08	5.302464e+01	1.671869e+03
1.460000e-06	7.520069e-06	2.544542e-08	5.341757e+01	1.673554e+03
1.470000e-06	7.572571e-06	2.547660e-08	5.379051e+01	1.674835e+03
1.480000e-06	7.621978e-06	2.550486e-08	5.414146e+01	1.675910e+03
1.490000e-06	7.668454e-06	2.552879e-08	5.447160e+01	1.676995e+03
1.500000e-06	7.712258e-06	2.555003e-08	5.478276e+01	1.678252e+03
1.510000e-06	7.753292e-06	2.556981e-08	5.507424e+01	1.679743e+03
1.520000e-06	7.791526e-06	2.558882e-08	5.534582e+01	1.681415e+03
1.530000e-06	7.827078e-06	2.560666e-08	5.559836e+01	1.683115e+03
1.540000e-06	7.859820e-06	2.562210e-08	5.583093e+01	1.684646e+03
1.550000e-06	7.889769e-06	2.563583e-08	5.604367e+01	1.685828e+03
1.560000e-06	7.916987e-06	2.564860e-08	5.623701e+01	1.686556e+03
1.570000e-06	7.941265e-06	2.566155e-08	5.640947e+01	1.686835e+03
1.580000e-06	7.962668e-06	2.567257e-08	5.656150e+01	1.686775e+03
1.590000e-06	7.981307e-06	2.568063e-08	5.669390e+01	1.686561e+03
1.600000e-06	7.996991e-06	2.568563e-08	5.680531e+01	1.686391e+03
1.610000e-06	8.009610e-06	2.568948e-08	5.689494e+01	1.686417e+03
1.620000e-06	8.019136e-06	2.569364e-08	5.696261e+01	1.686698e+03
1.630000e-06	8.025648e-06	2.569651e-08	5.700887e+01	1.687184e+03
1.640000e-06	8.029363e-06	2.569846e-08	5.703526e+01	1.687733e+03
1.650000e-06	8.030242e-06	2.570087e-08	5.704150e+01	1.688153e+03
1.660000e-06	8.028321e-06	2.569723e-08	5.702786e+01	1.688265e+03
1.670000e-06	8.023807e-06	2.569066e-08	5.699579e+01	1.687956e+03
1.680000e-06	8.016623e-06	2.568487e-08	5.694476e+01	1.687214e+03
1.690000e-06	8.006761e-06	2.567474e-08	5.687471e+01	1.686127e+03
1.700000e-06	7.994112e-06	2.566418e-08	5.678486e+01	1.684861e+03
1.710000e-06	7.978661e-06	2.565988e-08	5.667510e+01	1.683602e+03
1.720000e-06	7.960743e-06	2.565886e-08	5.654783e+01	1.682506e+03
1.730000e-06	7.940563e-06	2.561978e-08	5.640448e+01	1.681649e+03
1.740000e-06	7.917636e-06	2.552008e-08	5.624162e+01	1.681014e+03
1.750000e-06	7.891154e-06	2.553692e-08	5.605351e+01	1.680493e+03
1.760000e-06	7.860932e-06	2.556829e-08	5.583884e+01	1.679931e+03
1.770000e-06	7.827649e-06	2.553526e-08	5.560241e+01	1.679177e+03
1.780000e-06	7.792121e-06	2.556659e-08	5.535005e+01	1.678124e+03
1.790000e-06	7.754378e-06	2.563002e-08	5.508194e+01	1.676747e+03
1.800000e-06	7.714506e-06	2.552790e-08	5.479872e+01	1.675104e+03
1.810000e-06	7.672383e-06	2.550472e-08	5.449951e+01	1.673308e+03
1.820000e-06	7.627594e-06	2.554380e-08	5.418135e+01	1.671486e+03
1.830000e-06	7.580181e-06	2.544662e-08	5.384456e+01	1.669730e+03
1.840000e-06	7.529911e-06	2.552087e-08	5.348749e+01	1.668066e+03
1.850000e-06	7.476650e-06	2.546806e-08	5.310915e+01	1.666434e+03
1.860000e-06	7.420516e-06	2.542006e-08	5.271041e+01	1.664708e+03
1.870000e-06	7.361651e-06	2.538541e-08	5.229228e+01	1.662736e+03
1.880000e-06	7.300200e-06	2.527240e-08	5.185576e+01	1.660386e+03
1.890000e-06	7.235923e-06	2.533835e-08	5.139919e+01	1.657592e+03
1.900000e-06	7.168864e-06	2.524275e-08	5.092285e+01	1.654379e+03
1.910000e-06	7.099020e-06	2.520445e-08	5.042672e+01	1.650852e+03
1.920000e-06	7.026330e-06	2.518722e-08	4.991038e+01	1.647172e+03
1.930000e-06	6.950993e-06	2.508368e-08	4.937523e+01	1.643500e+03
1.940000e-06	6.872879e-06	2.505962e-08	4.882037e+01	1.639949e+03
1.950000e-06	6.792077e-06	2.497204e-08	4.824640e+01	1.636544e+03
1.960000e-06	6.708837e-06	2.497948e-08	4.765512e+01	1.633213e+03
1.970000e-06	6.623188e-06	2.488824e-08	4.704672e+01	1.629808e+03
1.980000e-06	6.535046e-06	2.481144e-08	4.642062e+01	1.626149e+03
1.990000e-06	6.444577e-06	2.476802e-08	4.577799e+01	1.622082e+03
2.000000e-06	6.351925e-06	2.467725e-08	4.511985e+01	1.617526e+03
2.010000e-06	6.256912e-06	2.462295e-08	4.444494e+01	1.612503e+03
2.020000e-06	6.159646e-06	2.452947e-08	4.375403e+01	1.607128e+03
2.030000e-06	6.060229e-06	2.448185e-08	4.304784e+01	1.601577e+03
2.040000e-06	5.958682e-06	2.438732e-08	4.232651e+01	1.596025e+03
2.050000e-06	5.854972e-06	2.431468e-08	4.158983e+01	1.590593e+03
2.060000e-06	5.749193e-06	2.423223e-08	4.083845e+01	1.585300e+03
2.070000e-06	5.641488e-06	2.413972e-08	4.007338e+01	1.580056e+03
2.080000e-06	5.531828e-06	2.404691e-08	3.929443e+01	1.574683e+03
2.090000e-06	5.420119e-06	2.394872e-08	3.850092e+01	1.568965e+03
2.100000e-06	5.306331e-06	2.386155e-08	3.769265e+01	1.562720e+03
2.110000e-06	5.190559e-06	2.375603e-08	3.687028e+01	1.555850e+03
2.120000e-06	5.072772e-06	2.366111e-08	3.603360e+01	1.548374e+03
2.130000e-06	4.953028e-06	2.354559e-08	3.518302e+01	1.540425e+03
2.140000e-06	4.831445e-06	2.342946e-08	3.431938e+01	1.532204e+03
2.150000e-06	4.708142e-06	2.330306e-08	3.344351e+01	1.523917e+03
2.160000e-06	4.583171e-06	2.318935e-08	3.255580e+01	1.515701e+03
2.170000e-06	4.456552e-06	2.306380e-08	3.165638e+01	1.507575e+03
2.180000e-06	4.328260e-06	2.293069e-08	3.074508e+01	1.499427e+03
2.190000e-06	4.198355e-06	2.279038e-08	2.982232e+01	1.491037e+03
2.200000e-06	4.066924e-06	2.264776e-08	2.888873e+01	1.482140e+03
2.210000e-06	3.933971e-06	2.249892e-08	2.794432e+01	1.472508e+03
2.220000e-06	3.799577e-06	2.234297e-08	2.698967e+01	1.462014e+03
2.230000e-06	3.663678e-06	2.218860e-08	2.602433e+01	1.450676e+03
2.240000e-06	3.526383e-06	2.201915e-08	2.504908e+01	1.438645e+03
2.250000e-06	3.387824e-06	2.183989e-08	2.406485e+01	1.426159e+03
2.260000e-06	3.248014e-06	2.165185e-08	2.307173e+01	1.413457e+03
2.270000e-06	3.106927e-06	2.146261e-08	2.206955e+01	1.400690e+03
2.280000e-06	2.964601e-06	2.126393e-08	2.105856e+01	1.387859e+03
2.290000e-06	2.821143e-06	2.105791e-08	2.003952e+01	1.374792e+03
2.300000e-06	2.676567e-06	2.083708e-08	1.901255e+01	1.361183e+03
2.310000e-06	2.531048e-06	2.060201e-08	1.797888e+01	1.346670e+03
2.320000e-06	2.384720e-06	2.035548e-08	1.693946e+01	1.330934e+03
2.330000e-06	2.237638e-06	2.009993e-08	1.589469e+01	1.313801e+03
2.340000e-06	2.089760e-06	1.983545e-08	1.484426e+01	1.295283e+03
2.350000e-06	1.941104e-06	1.955805e-08	1.378831e+01	1.275572e+03
2.360000e-06	1.791809e-06	1.926472e-08	1.272782e+01	1.254964e+03
2.370000e-06	1.641970e-06	1.895063e-08	1.166346e+01	1.233743e+03
2.380000e-06	1.491737e-06	1.861462e-08	1.059630e+01	1.212046e+03
2.390000e-06	1.341094e-06	1.826094e-08	9.526241e+00	1.189774e+03
2.400000e-06	1.189939e-06	1.789204e-08	8.452532e+00	1.166563e+03
2.410000e-06	1.038302e-06	1.749985e-08	7.375404e+00	1.141829e+03
2.420000e-06	8.862051e-07	1.707818e-08	6.295012e+00	1.114902e+03
2.430000e-06	7.337699e-07	1.662541e-08	5.212214e+00	1.085183e+03
2.440000e-06	5.810950e-07	1.613710e-08	4.127713e+00	1.052293e+03
2.450000e-06	4.281827e-07	1.560791e-08	3.041525e+00	1.016144e+03
2.460000e-06	2.750511e-07	1.503560e-08	1.953780e+00	9.769127e+02
2.470000e-06	1.218130e-07	1.441704e-08	8.652787e-01	9.348749e+02
2.480000e-06	-3.148419e-08	1.374373e-08	-2.236427e-01	8.901591e+02
2.490000e-06	-1.848038e-07	1.300334e-08	-1.312723e+00	8.424542e+02
2.500000e-06	-3.380507e-07	1.218500e-08	-2.401287e+00	7.907674e+02
2.510000e-06	-4.912205e-07	1.127622e-08	-3.489304e+00	7.333115e+02
2.520000e-06	-6.442736e-07	1.025481e-08	-4.576491e+00	6.675860e+02
2.530000e-06	-7.970954e-07	9.093149e-09	-5.662035e+00	5.906749e+02
2.540000e-06	-9.495660e-07	7.753891e-09	-6.745086e+00	4.997311e+02
2.550000e-06	-1.101618e-06	6.187566e-09	-7.825159e+00	3.925676e+02
2.560000e-06	-1.253202e-06	4.328102e-09	-8.901917e+00	2.682399e+02
2.570000e-06	-1.404272e-06	2.132241e-09	-9.975015e+00	1.274915e+02
2.580000e-06	-1.554861e-06	-3.034307e-10	-1.104470e+01	-2.704715e+01
2.590000e-06	-1.704966e-06	-2.814380e-09	-1.211094e+01	-1.909707e+02
2.600000e-06	-1.854470e-06	-5.329568e-09	-1.317292e+01	-3.585264e+02
2.610000e-06	-2.003303e-06	-7.842605e-09	-1.423013e+01	-5.232926e+02
2.620000e-06	-2.151341e-06	-1.032571e-08	-1.528170e+01	-6.789912e+02
2.630000e-06	-2.298443e-06	-1.261922e-08	-1.632661e+01	-8.202867e+02
2.640000e-06	-2.444659e-06	-1.453723e-08	-1.736523e+01	-9.434263e+02
2.650000e-06	-2.590104e-06	-1.606233e-08	-1.839838e+01	-1.046607e+03
2.660000e-06	-2.734612e-06	-1.726749e-08	-1.942487e+01	-1.130014e+03
2.670000e-06	-2.878017e-06	-1.822747e-08	-2.044352e+01	-1.195543e+03
2.680000e-06	-3.020219e-06	-1.900655e-08	-2.145363e+01	-1.246279e+03
2.690000e-06	-3.161215e-06	-1.965091e-08	-2.245517e+01	-1.285851e+03
2.700000e-06	-3.300996e-06	-2.019119e-08	-2.344808e+01	-1.317794e+03
2.710000e-06	-3.439514e-06	-2.064993e-08	-2.443202e+01	-1.345047e+03
2.720000e-06	-3.576808e-06	-2.104686e-08	-2.540727e+01	-1.369651e+03
2.730000e-06	-3.712701e-06	-2.139417e-08	-2.637256e+01	-1.392691e+03
2.740000e-06	-3.847148e-06	-2.170102e-08	-2.732758e+01	-1.414450e+03
2.750000e-06	-3.980309e-06	-2.197794e-08	-2.827347e+01	-1.434687e+03
2.760000e-06	-4.112086e-06	-2.223054e-08	-2.920952e+01	-1.452981e+03
2.770000e-06	-4.242425e-06	-2.246244e-08	-3.013537e+01	-1.469014e+03
2.780000e-06	-4.371363e-06	-2.267630e-08	-3.105126e+01	-1.482755e+03
2.790000e-06	-4.498723e-06	-2.287192e-08	-3.195594e+01	-1.494508e+03
2.800000e-06	-4.624529e-06	-2.304992e-08	-3.284958e+01	-1.504830e+03
2.810000e-06	-4.748792e-06	-2.321404e-08	-3.373226e+01	-1.514375e+03
2.820000e-06	-4.871338e-06	-2.336851e-08	-3.460275e+01	-1.523713e+03
2.830000e-06	-4.992122e-06	-2.351579e-08	-3.546072e+01	-1.533191e+03
2.840000e-06	-5.110987e-06	-2.365656e-08	-3.630506e+01	-1.542870e+03
2.850000e-06	-5.227815e-06	-2.378752e-08	-3.713492e+01	-1.552547e+03
2.860000e-06	-5.342561e-06	-2.390972e-08	-3.795000e+01	-1.561858e+03
2.870000e-06	-5.455143e-06	-2.402283e-08	-3.874971e+01	-1.570420e+03
2.880000e-06	-5.565602e-06	-2.412803e-08	-3.953433e+01	-1.577959e+03
2.890000e-06	-5.674085e-06	-2.422887e-08	-4.030492e+01	-1.584401e+03
2.900000e-06	-5.780664e-06	-2.432366e-08	-4.106199e+01	-1.589890e+03
2.910000e-06	-5.885192e-06	-2.441219e-08	-4.180449e+01	-1.594739e+03
2.920000e-06	-5.987503e-06	-2.449533e-08	-4.253124e+01	-1.599331e+03
2.930000e-06	-6.087574e-06	-2.457304e-08	-4.324207e+01	-1.604006e+03
2.940000e-06	-6.185450e-06	-2.464712e-08	-4.393733e+01	-1.608969e+03
