# Temperatura_=_95.45
# Concentracion g/m^3_=_41000.0
# C_Vs_to_Am_M_A/Vsm_=_65563218390.804596
# pendiente_HvsI_1/m_=_3716.3
# ordenada_HvsI_A/m_=_1297.0
# frecuencia_Hz_=_302488.47403103864

Tiempo_(s)	Campo_(V.s)	Magnetizacion_(V.s)	Campo_(kA/m)	Magnetizacion_(A/m)
0.000000e+00	-8.057805e-06	-2.455875e-08	-5.685581e+01	-1.607246e+03
1.000000e-08	-8.053171e-06	-2.455413e-08	-5.682311e+01	-1.606166e+03
2.000000e-08	-8.045954e-06	-2.454189e-08	-5.677219e+01	-1.604808e+03
3.000000e-08	-8.035998e-06	-2.452661e-08	-5.670194e+01	-1.603420e+03
4.000000e-08	-8.023159e-06	-2.451086e-08	-5.661135e+01	-1.602210e+03
5.000000e-08	-8.007340e-06	-2.449141e-08	-5.649973e+01	-1.601285e+03
6.000000e-08	-7.988842e-06	-2.446781e-08	-5.636921e+01	-1.600616e+03
7.000000e-08	-7.968009e-06	-2.443865e-08	-5.622221e+01	-1.600049e+03
8.000000e-08	-7.944481e-06	-2.443282e-08	-5.605620e+01	-1.599358e+03
9.000000e-08	-7.917731e-06	-2.445839e-08	-5.586745e+01	-1.598316e+03
1.000000e-07	-7.887818e-06	-2.441743e-08	-5.565638e+01	-1.596778e+03
1.100000e-07	-7.855045e-06	-2.436042e-08	-5.542514e+01	-1.594722e+03
1.200000e-07	-7.819460e-06	-2.433468e-08	-5.517405e+01	-1.592265e+03
1.300000e-07	-7.781384e-06	-2.429642e-08	-5.490539e+01	-1.589626e+03
1.400000e-07	-7.741216e-06	-2.421737e-08	-5.462196e+01	-1.587052e+03
1.500000e-07	-7.698743e-06	-2.417125e-08	-5.432227e+01	-1.584746e+03
1.600000e-07	-7.653575e-06	-2.424042e-08	-5.400357e+01	-1.582791e+03
1.700000e-07	-7.605656e-06	-2.413125e-08	-5.366545e+01	-1.581123e+03
1.800000e-07	-7.554650e-06	-2.407568e-08	-5.330556e+01	-1.579543e+03
1.900000e-07	-7.500522e-06	-2.405485e-08	-5.292363e+01	-1.577774e+03
2.000000e-07	-7.443707e-06	-2.397110e-08	-5.252274e+01	-1.575541e+03
2.100000e-07	-7.384217e-06	-2.395825e-08	-5.210298e+01	-1.572655e+03
2.200000e-07	-7.322043e-06	-2.386657e-08	-5.166428e+01	-1.569068e+03
2.300000e-07	-7.257218e-06	-2.383713e-08	-5.120687e+01	-1.564890e+03
2.400000e-07	-7.189664e-06	-2.379291e-08	-5.073021e+01	-1.560350e+03
2.500000e-07	-7.119338e-06	-2.372540e-08	-5.023400e+01	-1.555728e+03
2.600000e-07	-7.046101e-06	-2.364710e-08	-4.971723e+01	-1.551268e+03
2.700000e-07	-6.970097e-06	-2.357819e-08	-4.918096e+01	-1.547097e+03
2.800000e-07	-6.891430e-06	-2.354189e-08	-4.862588e+01	-1.543193e+03
2.900000e-07	-6.809958e-06	-2.344623e-08	-4.805102e+01	-1.539387e+03
3.000000e-07	-6.726060e-06	-2.336236e-08	-4.745903e+01	-1.535417e+03
3.100000e-07	-6.640026e-06	-2.329256e-08	-4.685198e+01	-1.531016e+03
3.200000e-07	-6.551631e-06	-2.321581e-08	-4.622826e+01	-1.525991e+03
3.300000e-07	-6.460747e-06	-2.313752e-08	-4.558698e+01	-1.520291e+03
3.400000e-07	-6.367536e-06	-2.304021e-08	-4.492929e+01	-1.514022e+03
3.500000e-07	-6.272040e-06	-2.296536e-08	-4.425547e+01	-1.507416e+03
3.600000e-07	-6.174195e-06	-2.287548e-08	-4.356507e+01	-1.500756e+03
3.700000e-07	-6.074123e-06	-2.277330e-08	-4.285897e+01	-1.494289e+03
3.800000e-07	-5.971948e-06	-2.266966e-08	-4.213802e+01	-1.488139e+03
3.900000e-07	-5.867596e-06	-2.257105e-08	-4.140171e+01	-1.482270e+03
4.000000e-07	-5.761103e-06	-2.247795e-08	-4.065030e+01	-1.476486e+03
4.100000e-07	-5.652653e-06	-2.237060e-08	-3.988508e+01	-1.470495e+03
4.200000e-07	-5.542249e-06	-2.226633e-08	-3.910607e+01	-1.463996e+03
4.300000e-07	-5.429766e-06	-2.215107e-08	-3.831239e+01	-1.456771e+03
4.400000e-07	-5.315160e-06	-2.203344e-08	-3.750373e+01	-1.448762e+03
4.500000e-07	-5.198550e-06	-2.190755e-08	-3.668093e+01	-1.440084e+03
4.600000e-07	-5.080045e-06	-2.178090e-08	-3.584476e+01	-1.430994e+03
4.700000e-07	-4.959684e-06	-2.165448e-08	-3.499549e+01	-1.421806e+03
4.800000e-07	-4.837501e-06	-2.152334e-08	-3.413337e+01	-1.412794e+03
4.900000e-07	-4.713545e-06	-2.138920e-08	-3.325874e+01	-1.404089e+03
5.000000e-07	-4.587907e-06	-2.124685e-08	-3.237224e+01	-1.395640e+03
5.100000e-07	-4.460598e-06	-2.110018e-08	-3.147394e+01	-1.387211e+03
5.200000e-07	-4.331617e-06	-2.094262e-08	-3.056386e+01	-1.378453e+03
5.300000e-07	-4.201059e-06	-2.078298e-08	-2.964264e+01	-1.369009e+03
5.400000e-07	-4.068867e-06	-2.062374e-08	-2.870990e+01	-1.358625e+03
5.500000e-07	-3.935201e-06	-2.045808e-08	-2.776675e+01	-1.347232e+03
5.600000e-07	-3.800142e-06	-2.028302e-08	-2.681377e+01	-1.334973e+03
5.700000e-07	-3.663527e-06	-2.010102e-08	-2.584982e+01	-1.322159e+03
5.800000e-07	-3.525468e-06	-1.991645e-08	-2.487568e+01	-1.309169e+03
5.900000e-07	-3.385962e-06	-1.972318e-08	-2.389133e+01	-1.296324e+03
6.000000e-07	-3.244971e-06	-1.952395e-08	-2.289650e+01	-1.283768e+03
6.100000e-07	-3.102687e-06	-1.931906e-08	-2.189254e+01	-1.271407e+03
6.200000e-07	-2.959159e-06	-1.910693e-08	-2.087980e+01	-1.258914e+03
6.300000e-07	-2.814505e-06	-1.888254e-08	-1.985913e+01	-1.245815e+03
6.400000e-07	-2.668866e-06	-1.864887e-08	-1.883150e+01	-1.231625e+03
6.500000e-07	-2.522242e-06	-1.840934e-08	-1.779692e+01	-1.215995e+03
6.600000e-07	-2.374820e-06	-1.816046e-08	-1.675671e+01	-1.198823e+03
6.700000e-07	-2.226674e-06	-1.790058e-08	-1.571140e+01	-1.180290e+03
6.800000e-07	-2.077796e-06	-1.762686e-08	-1.466092e+01	-1.160798e+03
6.900000e-07	-1.928315e-06	-1.734103e-08	-1.360618e+01	-1.140835e+03
7.000000e-07	-1.778256e-06	-1.703718e-08	-1.254736e+01	-1.120796e+03
7.100000e-07	-1.627530e-06	-1.671898e-08	-1.148384e+01	-1.100809e+03
7.200000e-07	-1.476154e-06	-1.638465e-08	-1.041574e+01	-1.080642e+03
7.300000e-07	-1.324318e-06	-1.603114e-08	-9.344376e+00	-1.059709e+03
7.400000e-07	-1.172052e-06	-1.565679e-08	-8.269990e+00	-1.037193e+03
7.500000e-07	-1.019396e-06	-1.525970e-08	-7.192848e+00	-1.012249e+03
7.600000e-07	-8.663729e-07	-1.483834e-08	-6.113120e+00	-9.842348e+02
7.700000e-07	-7.130030e-07	-1.438474e-08	-5.030944e+00	-9.528851e+02
7.800000e-07	-5.593456e-07	-1.389738e-08	-3.946738e+00	-9.183639e+02
7.900000e-07	-4.054063e-07	-1.336764e-08	-2.860544e+00	-8.811567e+02
8.000000e-07	-2.513384e-07	-1.279055e-08	-1.773442e+00	-8.418057e+02
8.100000e-07	-9.719149e-08	-1.215757e-08	-6.857824e-01	-8.005446e+02
8.200000e-07	5.706790e-08	-1.145698e-08	4.026707e-01	-7.569273e+02
8.300000e-07	2.113703e-07	-1.067462e-08	1.491427e+00	-7.095631e+02
8.400000e-07	3.656110e-07	-9.795393e-09	2.579749e+00	-6.560588e+02
8.500000e-07	5.197359e-07	-8.800696e-09	3.667253e+00	-5.932275e+02
8.600000e-07	6.736759e-07	-7.655579e-09	4.753452e+00	-5.175629e+02
8.700000e-07	8.273612e-07	-6.312257e-09	5.837854e+00	-4.259083e+02
8.800000e-07	9.807948e-07	-4.708505e-09	6.920481e+00	-3.161929e+02
8.900000e-07	1.133893e-06	-2.777366e-09	8.000738e+00	-1.880778e+02
9.000000e-07	1.286587e-06	-5.244901e-10	9.078146e+00	-4.335919e+01
9.100000e-07	1.438885e-06	1.895759e-09	1.015276e+01	1.139839e+02
9.200000e-07	1.590723e-06	4.344716e-09	1.122413e+01	2.781351e+02
9.300000e-07	1.741977e-06	6.794741e-09	1.229138e+01	4.421364e+02
9.400000e-07	1.892570e-06	9.223517e-09	1.335396e+01	5.988138e+02
9.500000e-07	2.042463e-06	1.148734e-08	1.441161e+01	7.417590e+02
9.600000e-07	2.191557e-06	1.337134e-08	1.546361e+01	8.661808e+02
9.700000e-07	2.339757e-06	1.482648e-08	1.650931e+01	9.694669e+02
9.800000e-07	2.487041e-06	1.594386e-08	1.754855e+01	1.051357e+03
9.900000e-07	2.633366e-06	1.681550e-08	1.858101e+01	1.113714e+03
1.000000e-06	2.778723e-06	1.750659e-08	1.960665e+01	1.159962e+03
1.010000e-06	2.923175e-06	1.806817e-08	2.062590e+01	1.194325e+03
1.020000e-06	3.066518e-06	1.853731e-08	2.163733e+01	1.221030e+03
1.030000e-06	3.208600e-06	1.893783e-08	2.263986e+01	1.243638e+03
1.040000e-06	3.349385e-06	1.928718e-08	2.363324e+01	1.264619e+03
1.050000e-06	3.488815e-06	1.959470e-08	2.461706e+01	1.285226e+03
1.060000e-06	3.626949e-06	1.987308e-08	2.559172e+01	1.305650e+03
1.070000e-06	3.763772e-06	2.012864e-08	2.655715e+01	1.325369e+03
1.080000e-06	3.899158e-06	2.036324e-08	2.751243e+01	1.343585e+03
1.090000e-06	4.033056e-06	2.058028e-08	2.845721e+01	1.359626e+03
1.100000e-06	4.165580e-06	2.078537e-08	2.939230e+01	1.373218e+03
1.110000e-06	4.296625e-06	2.097706e-08	3.031695e+01	1.384577e+03
1.120000e-06	4.426074e-06	2.115374e-08	3.123035e+01	1.394327e+03
1.130000e-06	4.553988e-06	2.132089e-08	3.213291e+01	1.403296e+03
1.140000e-06	4.680369e-06	2.148279e-08	3.302465e+01	1.412269e+03
1.150000e-06	4.805189e-06	2.163798e-08	3.390538e+01	1.421769e+03
1.160000e-06	4.928366e-06	2.178564e-08	3.477451e+01	1.431941e+03
1.170000e-06	5.049817e-06	2.192835e-08	3.563147e+01	1.442554e+03
1.180000e-06	5.169419e-06	2.206719e-08	3.647538e+01	1.453121e+03
1.190000e-06	5.287108e-06	2.219968e-08	3.730579e+01	1.463074e+03
1.200000e-06	5.402763e-06	2.232405e-08	3.812186e+01	1.471957e+03
1.210000e-06	5.516265e-06	2.244144e-08	3.892272e+01	1.479564e+03
1.220000e-06	5.627675e-06	2.255226e-08	3.970883e+01	1.485987e+03
1.230000e-06	5.737115e-06	2.265900e-08	4.048104e+01	1.491578e+03
1.240000e-06	5.844577e-06	2.276165e-08	4.123929e+01	1.496820e+03
1.250000e-06	5.949904e-06	2.286003e-08	4.198248e+01	1.502179e+03
1.260000e-06	6.052983e-06	2.295429e-08	4.270980e+01	1.507965e+03
1.270000e-06	6.153853e-06	2.304505e-08	4.342155e+01	1.514249e+03
1.280000e-06	6.252478e-06	2.313187e-08	4.411744e+01	1.520862e+03
1.290000e-06	6.348725e-06	2.321349e-08	4.479656e+01	1.527467e+03
1.300000e-06	6.442645e-06	2.328823e-08	4.545925e+01	1.533677e+03
1.310000e-06	6.534316e-06	2.335919e-08	4.610608e+01	1.539185e+03
1.320000e-06	6.623659e-06	2.343151e-08	4.673649e+01	1.543863e+03
1.330000e-06	6.710615e-06	2.350367e-08	4.735005e+01	1.547793e+03
1.340000e-06	6.795201e-06	2.357442e-08	4.794689e+01	1.551236e+03
1.350000e-06	6.877366e-06	2.364312e-08	4.852664e+01	1.554547e+03
1.360000e-06	6.956989e-06	2.370787e-08	4.908847e+01	1.558060e+03
1.370000e-06	7.034059e-06	2.376796e-08	4.963227e+01	1.561980e+03
1.380000e-06	7.108500e-06	2.382565e-08	5.015753e+01	1.566329e+03
1.390000e-06	7.180266e-06	2.388219e-08	5.066390e+01	1.570940e+03
1.400000e-06	7.249522e-06	2.393602e-08	5.115258e+01	1.575520e+03
1.410000e-06	7.316232e-06	2.398777e-08	5.162328e+01	1.579739e+03
1.420000e-06	7.380283e-06	2.403795e-08	5.207522e+01	1.583338e+03
1.430000e-06	7.441829e-06	2.408656e-08	5.250949e+01	1.586207e+03
1.440000e-06	7.500872e-06	2.413339e-08	5.292610e+01	1.588414e+03
1.450000e-06	7.557176e-06	2.417665e-08	5.332338e+01	1.590178e+03
1.460000e-06	7.610635e-06	2.421704e-08	5.370059e+01	1.591797e+03
1.470000e-06	7.661067e-06	2.425513e-08	5.405643e+01	1.593553e+03
1.480000e-06	7.708507e-06	2.429011e-08	5.439117e+01	1.595622e+03
1.490000e-06	7.753230e-06	2.432153e-08	5.470673e+01	1.598023e+03
1.500000e-06	7.795224e-06	2.434931e-08	5.500304e+01	1.600617e+03
1.510000e-06	7.834362e-06	2.437409e-08	5.527920e+01	1.603153e+03
1.520000e-06	7.870768e-06	2.439618e-08	5.553608e+01	1.605352e+03
1.530000e-06	7.904433e-06	2.441654e-08	5.577362e+01	1.606996e+03
1.540000e-06	7.935264e-06	2.443575e-08	5.599116e+01	1.607995e+03
1.550000e-06	7.963341e-06	2.445431e-08	5.618927e+01	1.608417e+03
1.560000e-06	7.988484e-06	2.446977e-08	5.636669e+01	1.608463e+03
1.570000e-06	8.010712e-06	2.448219e-08	5.652353e+01	1.608405e+03
1.580000e-06	8.030178e-06	2.449173e-08	5.666088e+01	1.608497e+03
1.590000e-06	8.046757e-06	2.449688e-08	5.677786e+01	1.608900e+03
1.600000e-06	8.060334e-06	2.450041e-08	5.687365e+01	1.609633e+03
1.610000e-06	8.070775e-06	2.450428e-08	5.694733e+01	1.610569e+03
1.620000e-06	8.078117e-06	2.450761e-08	5.699913e+01	1.611479e+03
1.630000e-06	8.082573e-06	2.451053e-08	5.703058e+01	1.612104e+03
1.640000e-06	8.084121e-06	2.451354e-08	5.704150e+01	1.612240e+03
1.650000e-06	8.082861e-06	2.451596e-08	5.703261e+01	1.611799e+03
1.660000e-06	8.079000e-06	2.450883e-08	5.700537e+01	1.610837e+03
1.670000e-06	8.072402e-06	2.450209e-08	5.695881e+01	1.609532e+03
1.680000e-06	8.063091e-06	2.449279e-08	5.689311e+01	1.608126e+03
1.690000e-06	8.051061e-06	2.447815e-08	5.680823e+01	1.606847e+03
1.700000e-06	8.036154e-06	2.446340e-08	5.670304e+01	1.605836e+03
1.710000e-06	8.018686e-06	2.445547e-08	5.657979e+01	1.605103e+03
1.720000e-06	7.998963e-06	2.445552e-08	5.644063e+01	1.604526e+03
1.730000e-06	7.976491e-06	2.439814e-08	5.628206e+01	1.603893e+03
1.740000e-06	7.950569e-06	2.434044e-08	5.609916e+01	1.602969e+03
1.750000e-06	7.920945e-06	2.435128e-08	5.589013e+01	1.601579e+03
1.760000e-06	7.888119e-06	2.433495e-08	5.565851e+01	1.599663e+03
1.770000e-06	7.852885e-06	2.428974e-08	5.540990e+01	1.597300e+03
1.780000e-06	7.815395e-06	2.430367e-08	5.514537e+01	1.594685e+03
1.790000e-06	7.775810e-06	2.432253e-08	5.486606e+01	1.592067e+03
1.800000e-06	7.734063e-06	2.419352e-08	5.457149e+01	1.589667e+03
1.810000e-06	7.689606e-06	2.421730e-08	5.425780e+01	1.587610e+03
1.820000e-06	7.642489e-06	2.419811e-08	5.392535e+01	1.585873e+03
1.830000e-06	7.592615e-06	2.415283e-08	5.357344e+01	1.584293e+03
1.840000e-06	7.539584e-06	2.421106e-08	5.319925e+01	1.582606e+03
1.850000e-06	7.483653e-06	2.408741e-08	5.280460e+01	1.580528e+03
1.860000e-06	7.425102e-06	2.410691e-08	5.239146e+01	1.577838e+03
1.870000e-06	7.363901e-06	2.403586e-08	5.195963e+01	1.574445e+03
1.880000e-06	7.299838e-06	2.394373e-08	5.150760e+01	1.570415e+03
1.890000e-06	7.232906e-06	2.392253e-08	5.103533e+01	1.565948e+03
1.900000e-06	7.163242e-06	2.383077e-08	5.054378e+01	1.561320e+03
1.910000e-06	7.090768e-06	2.383800e-08	5.003241e+01	1.556792e+03
1.920000e-06	7.015543e-06	2.372747e-08	4.950162e+01	1.552532e+03
1.930000e-06	6.937476e-06	2.367749e-08	4.895078e+01	1.548561e+03
1.940000e-06	6.856729e-06	2.361963e-08	4.838103e+01	1.544749e+03
1.950000e-06	6.773608e-06	2.351349e-08	4.779453e+01	1.540853e+03
1.960000e-06	6.688032e-06	2.346722e-08	4.719070e+01	1.536598e+03
1.970000e-06	6.599906e-06	2.336600e-08	4.656889e+01	1.531762e+03
1.980000e-06	6.509381e-06	2.332183e-08	4.593015e+01	1.526248e+03
1.990000e-06	6.416627e-06	2.321056e-08	4.527567e+01	1.520121e+03
2.000000e-06	6.321549e-06	2.313198e-08	4.460481e+01	1.513581e+03
2.010000e-06	6.224215e-06	2.304531e-08	4.391802e+01	1.506906e+03
2.020000e-06	6.124696e-06	2.295730e-08	4.321581e+01	1.500363e+03
2.030000e-06	6.022908e-06	2.287199e-08	4.249759e+01	1.494117e+03
2.040000e-06	5.918876e-06	2.275903e-08	4.176354e+01	1.488179e+03
2.050000e-06	5.812870e-06	2.266788e-08	4.101557e+01	1.482396e+03
2.060000e-06	5.704966e-06	2.254754e-08	4.025420e+01	1.476495e+03
2.070000e-06	5.595020e-06	2.245301e-08	3.947842e+01	1.470166e+03
2.080000e-06	5.483024e-06	2.233770e-08	3.868818e+01	1.463160e+03
2.090000e-06	5.368938e-06	2.223397e-08	3.788319e+01	1.455369e+03
2.100000e-06	5.252764e-06	2.211263e-08	3.706346e+01	1.446859e+03
2.110000e-06	5.134502e-06	2.199315e-08	3.622901e+01	1.437853e+03
2.120000e-06	5.014325e-06	2.186350e-08	3.538104e+01	1.428660e+03
2.130000e-06	4.892437e-06	2.173341e-08	3.452100e+01	1.419574e+03
2.140000e-06	4.768847e-06	2.160503e-08	3.364895e+01	1.410777e+03
2.150000e-06	4.643502e-06	2.146630e-08	3.276451e+01	1.402270e+03
2.160000e-06	4.516339e-06	2.132982e-08	3.186726e+01	1.393865e+03
2.170000e-06	4.387475e-06	2.118131e-08	3.095799e+01	1.385238e+03
2.180000e-06	4.257088e-06	2.103114e-08	3.003798e+01	1.376020e+03
2.190000e-06	4.125199e-06	2.086970e-08	2.910737e+01	1.365919e+03
2.200000e-06	3.991711e-06	2.071565e-08	2.816548e+01	1.354807e+03
2.210000e-06	3.856743e-06	2.054985e-08	2.721315e+01	1.342768e+03
2.220000e-06	3.720323e-06	2.037942e-08	2.625057e+01	1.330072e+03
2.230000e-06	3.582474e-06	2.019835e-08	2.527791e+01	1.317093e+03
2.240000e-06	3.443274e-06	2.001202e-08	2.429572e+01	1.304180e+03
2.250000e-06	3.302732e-06	1.981896e-08	2.330405e+01	1.291539e+03
2.260000e-06	3.160901e-06	1.961928e-08	2.230329e+01	1.279144e+03
2.270000e-06	3.017792e-06	1.941638e-08	2.129352e+01	1.266731e+03
2.280000e-06	2.873533e-06	1.920310e-08	2.027563e+01	1.253855e+03
2.290000e-06	2.728279e-06	1.897863e-08	1.925071e+01	1.240019e+03
2.300000e-06	2.582120e-06	1.873955e-08	1.821942e+01	1.224821e+03
2.310000e-06	2.435039e-06	1.849404e-08	1.718162e+01	1.208081e+03
2.320000e-06	2.287098e-06	1.823956e-08	1.613775e+01	1.189902e+03
2.330000e-06	2.138382e-06	1.797328e-08	1.508841e+01	1.170632e+03
2.340000e-06	1.988937e-06	1.769597e-08	1.403392e+01	1.150755e+03
2.350000e-06	1.838814e-06	1.740462e-08	1.297466e+01	1.130708e+03
2.360000e-06	1.688099e-06	1.709685e-08	1.191122e+01	1.110711e+03
2.370000e-06	1.536921e-06	1.676996e-08	1.084450e+01	1.090639e+03
2.380000e-06	1.385296e-06	1.642517e-08	9.774641e+00	1.070000e+03
2.390000e-06	1.233148e-06	1.606265e-08	8.701084e+00	1.048024e+03
2.400000e-06	1.080461e-06	1.567820e-08	7.623726e+00	1.023850e+03
2.410000e-06	9.273554e-07	1.526716e-08	6.543413e+00	9.967569e+02
2.420000e-06	7.740030e-07	1.482619e-08	5.461359e+00	9.663598e+02
2.430000e-06	6.204677e-07	1.435099e-08	4.378015e+00	9.327036e+02
2.440000e-06	4.667771e-07	1.383490e-08	3.293576e+00	8.962028e+02
2.450000e-06	3.129354e-07	1.327338e-08	2.208070e+00	8.574177e+02
2.460000e-06	1.589690e-07	1.266071e-08	1.121684e+00	8.167099e+02
2.470000e-06	4.917931e-09	1.198545e-08	3.470088e-02	7.738613e+02
2.480000e-06	-1.491216e-07	1.123477e-08	-1.052201e+00	7.277677e+02
2.490000e-06	-3.031101e-07	1.039532e-08	-2.138743e+00	6.763130e+02
2.500000e-06	-4.570709e-07	9.448238e-09	-3.225089e+00	6.164997e+02
2.510000e-06	-6.110136e-07	8.363885e-09	-4.311307e+00	5.448511e+02
2.520000e-06	-7.647900e-07	7.098098e-09	-5.396353e+00	4.580355e+02
2.530000e-06	-9.182744e-07	5.597571e-09	-6.479337e+00	3.535989e+02
2.540000e-06	-1.071484e-06	3.794572e-09	-7.560384e+00	2.306533e+02
2.550000e-06	-1.224343e-06	1.637471e-09	-8.638953e+00	9.036296e+01
2.560000e-06	-1.376799e-06	-7.837623e-10	-9.714685e+00	-6.389861e+01
2.570000e-06	-1.528704e-06	-3.291476e-09	-1.078652e+01	-2.267826e+02
2.580000e-06	-1.679882e-06	-5.807280e-09	-1.185324e+01	-3.915698e+02
2.590000e-06	-1.830381e-06	-8.316251e-09	-1.291516e+01	-5.510468e+02
2.600000e-06	-1.980253e-06	-1.071696e-08	-1.397265e+01	-6.984906e+02
2.610000e-06	-2.129397e-06	-1.278822e-08	-1.502501e+01	-8.285754e+02
2.620000e-06	-2.277752e-06	-1.441483e-08	-1.607180e+01	-9.380306e+02
2.630000e-06	-2.425239e-06	-1.566181e-08	-1.711247e+01	-1.025930e+03
2.640000e-06	-2.571806e-06	-1.662807e-08	-1.814664e+01	-1.093575e+03
2.650000e-06	-2.717483e-06	-1.738937e-08	-1.917454e+01	-1.144017e+03
2.660000e-06	-2.862197e-06	-1.800142e-08	-2.019564e+01	-1.181333e+03
2.670000e-06	-3.005768e-06	-1.850487e-08	-2.120868e+01	-1.209825e+03
2.680000e-06	-3.148147e-06	-1.892897e-08	-2.221330e+01	-1.233300e+03
2.690000e-06	-3.289301e-06	-1.929654e-08	-2.320928e+01	-1.254567e+03
2.700000e-06	-3.429122e-06	-1.962141e-08	-2.419586e+01	-1.275223e+03
2.710000e-06	-3.567599e-06	-1.991360e-08	-2.517296e+01	-1.295731e+03
2.720000e-06	-3.704755e-06	-2.017866e-08	-2.614073e+01	-1.315731e+03
2.730000e-06	-3.840542e-06	-2.042045e-08	-2.709884e+01	-1.334458e+03
2.740000e-06	-3.974946e-06	-2.064547e-08	-2.804719e+01	-1.351171e+03
2.750000e-06	-4.107920e-06	-2.085814e-08	-2.898545e+01	-1.365465e+03
2.760000e-06	-4.239406e-06	-2.105627e-08	-2.991322e+01	-1.377415e+03
2.770000e-06	-4.369433e-06	-2.124014e-08	-3.083069e+01	-1.387546e+03
2.780000e-06	-4.498002e-06	-2.141146e-08	-3.173787e+01	-1.396654e+03
2.790000e-06	-4.624994e-06	-2.157194e-08	-3.263392e+01	-1.405560e+03
2.800000e-06	-4.750347e-06	-2.172415e-08	-3.351841e+01	-1.414878e+03
2.810000e-06	-4.874066e-06	-2.187100e-08	-3.439138e+01	-1.424868e+03
2.820000e-06	-4.996091e-06	-2.201250e-08	-3.525238e+01	-1.435399e+03
2.830000e-06	-5.116321e-06	-2.214862e-08	-3.610072e+01	-1.446039e+03
2.840000e-06	-5.234555e-06	-2.227710e-08	-3.693498e+01	-1.456224e+03
2.850000e-06	-5.350649e-06	-2.240047e-08	-3.775414e+01	-1.465449e+03
2.860000e-06	-5.464517e-06	-2.251993e-08	-3.855760e+01	-1.473425e+03
2.870000e-06	-5.576216e-06	-2.263338e-08	-3.934574e+01	-1.480162e+03
2.880000e-06	-5.685872e-06	-2.274133e-08	-4.011947e+01	-1.485947e+03
2.890000e-06	-5.793542e-06	-2.284324e-08	-4.087919e+01	-1.491239e+03
2.900000e-06	-5.899247e-06	-2.293972e-08	-4.162505e+01	-1.496526e+03
2.910000e-06	-6.002804e-06	-2.303156e-08	-4.235574e+01	-1.502174e+03
2.920000e-06	-6.104068e-06	-2.311982e-08	-4.307026e+01	-1.508325e+03
2.930000e-06	-6.203118e-06	-2.320420e-08	-4.376915e+01	-1.514875e+03
2.940000e-06	-6.300005e-06	-2.328750e-08	-4.445279e+01	-1.521524e+03
