# Temperatura_=_34.08
# Concentracion g/m^3_=_41000.0
# C_Vs_to_Am_M_A/Vsm_=_65563218390.804596
# pendiente_HvsI_1/m_=_3716.3
# ordenada_HvsI_A/m_=_1297.0
# frecuencia_Hz_=_302468.7772671848

Tiempo_(s)	Campo_(V.s)	Magnetizacion_(V.s)	Campo_(kA/m)	Magnetizacion_(A/m)
0.000000e+00	-8.037932e-06	-2.506690e-08	-5.688526e+01	-1.642268e+03
1.000000e-08	-8.035495e-06	-2.506936e-08	-5.686800e+01	-1.642386e+03
2.000000e-08	-8.030332e-06	-2.506313e-08	-5.683147e+01	-1.642019e+03
3.000000e-08	-8.022594e-06	-2.505385e-08	-5.677671e+01	-1.641168e+03
4.000000e-08	-8.012054e-06	-2.504904e-08	-5.670211e+01	-1.639955e+03
5.000000e-08	-7.998540e-06	-2.503982e-08	-5.660647e+01	-1.638587e+03
6.000000e-08	-7.982042e-06	-2.502227e-08	-5.648972e+01	-1.637287e+03
7.000000e-08	-7.963002e-06	-2.500248e-08	-5.635497e+01	-1.636232e+03
8.000000e-08	-7.941689e-06	-2.499230e-08	-5.620413e+01	-1.635497e+03
9.000000e-08	-7.917566e-06	-2.505596e-08	-5.603341e+01	-1.635033e+03
1.000000e-07	-7.890156e-06	-2.504367e-08	-5.583943e+01	-1.634691e+03
1.100000e-07	-7.859646e-06	-2.495896e-08	-5.562351e+01	-1.634268e+03
1.200000e-07	-7.826326e-06	-2.493286e-08	-5.538770e+01	-1.633571e+03
1.300000e-07	-7.790284e-06	-2.491725e-08	-5.513262e+01	-1.632480e+03
1.400000e-07	-7.751867e-06	-2.483394e-08	-5.486075e+01	-1.630980e+03
1.500000e-07	-7.711354e-06	-2.476045e-08	-5.457403e+01	-1.629165e+03
1.600000e-07	-7.668433e-06	-2.489358e-08	-5.427027e+01	-1.627201e+03
1.700000e-07	-7.622719e-06	-2.480073e-08	-5.394675e+01	-1.625266e+03
1.800000e-07	-7.574262e-06	-2.469776e-08	-5.360381e+01	-1.623494e+03
1.900000e-07	-7.522794e-06	-2.478117e-08	-5.323957e+01	-1.621919e+03
2.000000e-07	-7.468298e-06	-2.467758e-08	-5.285390e+01	-1.620466e+03
2.100000e-07	-7.411098e-06	-2.465806e-08	-5.244909e+01	-1.618970e+03
2.200000e-07	-7.351237e-06	-2.465874e-08	-5.202544e+01	-1.617224e+03
2.300000e-07	-7.288751e-06	-2.461459e-08	-5.158323e+01	-1.615047e+03
2.400000e-07	-7.223517e-06	-2.455246e-08	-5.112156e+01	-1.612339e+03
2.500000e-07	-7.155494e-06	-2.445725e-08	-5.064015e+01	-1.609120e+03
2.600000e-07	-7.084777e-06	-2.446794e-08	-5.013968e+01	-1.605517e+03
2.700000e-07	-7.011256e-06	-2.442231e-08	-4.961936e+01	-1.601736e+03
2.800000e-07	-6.934954e-06	-2.435894e-08	-4.907937e+01	-1.597990e+03
2.900000e-07	-6.855874e-06	-2.430058e-08	-4.851971e+01	-1.594434e+03
3.000000e-07	-6.774054e-06	-2.424567e-08	-4.794066e+01	-1.591119e+03
3.100000e-07	-6.689878e-06	-2.418701e-08	-4.734494e+01	-1.587967e+03
3.200000e-07	-6.603504e-06	-2.409871e-08	-4.673367e+01	-1.584801e+03
3.300000e-07	-6.514737e-06	-2.409319e-08	-4.610545e+01	-1.581394e+03
3.400000e-07	-6.423519e-06	-2.402158e-08	-4.545989e+01	-1.577540e+03
3.500000e-07	-6.330062e-06	-2.393738e-08	-4.479849e+01	-1.573124e+03
3.600000e-07	-6.234368e-06	-2.387383e-08	-4.412125e+01	-1.568150e+03
3.700000e-07	-6.136361e-06	-2.380652e-08	-4.342765e+01	-1.562748e+03
3.800000e-07	-6.036077e-06	-2.373058e-08	-4.271792e+01	-1.557129e+03
3.900000e-07	-5.933651e-06	-2.364736e-08	-4.199305e+01	-1.551518e+03
4.000000e-07	-5.829128e-06	-2.358002e-08	-4.125333e+01	-1.546081e+03
4.100000e-07	-5.722510e-06	-2.347610e-08	-4.049878e+01	-1.540870e+03
4.200000e-07	-5.613925e-06	-2.339024e-08	-3.973032e+01	-1.535801e+03
4.300000e-07	-5.503348e-06	-2.330217e-08	-3.894774e+01	-1.530675e+03
4.400000e-07	-5.390650e-06	-2.321213e-08	-3.815017e+01	-1.525242e+03
4.500000e-07	-5.275901e-06	-2.310361e-08	-3.733808e+01	-1.519274e+03
4.600000e-07	-5.159235e-06	-2.300468e-08	-3.651242e+01	-1.512636e+03
4.700000e-07	-5.040674e-06	-2.290534e-08	-3.567335e+01	-1.505332e+03
4.800000e-07	-4.920185e-06	-2.279215e-08	-3.482065e+01	-1.497499e+03
4.900000e-07	-4.797902e-06	-2.268275e-08	-3.395523e+01	-1.489366e+03
5.000000e-07	-4.673902e-06	-2.257088e-08	-3.307768e+01	-1.481175e+03
5.100000e-07	-4.548181e-06	-2.245314e-08	-3.218793e+01	-1.473101e+03
5.200000e-07	-4.420868e-06	-2.231214e-08	-3.128693e+01	-1.465187e+03
5.300000e-07	-4.291898e-06	-2.217611e-08	-3.037419e+01	-1.457319e+03
5.400000e-07	-4.161412e-06	-2.203508e-08	-2.945074e+01	-1.449257e+03
5.500000e-07	-4.029406e-06	-2.189152e-08	-2.851651e+01	-1.440701e+03
5.600000e-07	-3.895798e-06	-2.174082e-08	-2.757095e+01	-1.431380e+03
5.700000e-07	-3.760712e-06	-2.158815e-08	-2.661494e+01	-1.421140e+03
5.800000e-07	-3.624137e-06	-2.142857e-08	-2.564838e+01	-1.409991e+03
5.900000e-07	-3.486147e-06	-2.125956e-08	-2.467181e+01	-1.398105e+03
6.000000e-07	-3.346811e-06	-2.108866e-08	-2.368572e+01	-1.385757e+03
6.100000e-07	-3.206034e-06	-2.090613e-08	-2.268943e+01	-1.373234e+03
6.200000e-07	-3.063866e-06	-2.071423e-08	-2.168329e+01	-1.360733e+03
6.300000e-07	-2.920486e-06	-2.050911e-08	-2.066857e+01	-1.348273e+03
6.400000e-07	-2.776033e-06	-2.029802e-08	-1.964627e+01	-1.335679e+03
6.500000e-07	-2.630582e-06	-2.007611e-08	-1.861689e+01	-1.322608e+03
6.600000e-07	-2.484176e-06	-1.984866e-08	-1.758076e+01	-1.308645e+03
6.700000e-07	-2.336941e-06	-1.961246e-08	-1.653877e+01	-1.293419e+03
6.800000e-07	-2.189013e-06	-1.936188e-08	-1.549186e+01	-1.276720e+03
6.900000e-07	-2.040392e-06	-1.909710e-08	-1.444006e+01	-1.258557e+03
7.000000e-07	-1.891054e-06	-1.881674e-08	-1.338318e+01	-1.239158e+03
7.100000e-07	-1.741058e-06	-1.852558e-08	-1.232165e+01	-1.218884e+03
7.200000e-07	-1.590521e-06	-1.821675e-08	-1.125628e+01	-1.198096e+03
7.300000e-07	-1.439583e-06	-1.789276e-08	-1.018807e+01	-1.177005e+03
7.400000e-07	-1.288176e-06	-1.754849e-08	-9.116550e+00	-1.155551e+03
7.500000e-07	-1.136219e-06	-1.718486e-08	-8.041133e+00	-1.133360e+03
7.600000e-07	-9.838161e-07	-1.679971e-08	-6.962565e+00	-1.109797e+03
7.700000e-07	-8.310289e-07	-1.638828e-08	-5.881275e+00	-1.084108e+03
7.800000e-07	-6.779264e-07	-1.594918e-08	-4.797753e+00	-1.055604e+03
7.900000e-07	-5.245364e-07	-1.547715e-08	-3.712197e+00	-1.023842e+03
8.000000e-07	-3.709345e-07	-1.496895e-08	-2.625141e+00	-9.887330e+02
8.100000e-07	-2.172147e-07	-1.441669e-08	-1.537250e+00	-9.505187e+02
8.200000e-07	-6.335284e-08	-1.381757e-08	-4.483544e-01	-9.096176e+02
8.300000e-07	9.055825e-08	-1.316368e-08	6.408898e-01	-8.663471e+02
8.400000e-07	2.444241e-07	-1.244831e-08	1.729814e+00	-8.205963e+02
8.500000e-07	3.982358e-07	-1.165849e-08	2.818355e+00	-7.715349e+02
8.600000e-07	5.519515e-07	-1.078292e-08	3.906217e+00	-7.174570e+02
8.700000e-07	7.054678e-07	-9.806418e-09	4.992667e+00	-6.558328e+02
8.800000e-07	8.587391e-07	-8.696349e-09	6.077383e+00	-5.835993e+02
8.900000e-07	1.011651e-06	-7.415975e-09	7.159553e+00	-4.976639e+02
9.000000e-07	1.164131e-06	-5.917086e-09	8.238675e+00	-3.955367e+02
9.100000e-07	1.316199e-06	-4.138256e-09	9.314871e+00	-2.759679e+02
9.200000e-07	1.467813e-06	-2.034521e-09	1.038786e+01	-1.394486e+02
9.300000e-07	1.618971e-06	3.201978e-10	1.145762e+01	1.154673e+01
9.400000e-07	1.769587e-06	2.763713e-09	1.252354e+01	1.726507e+02
9.500000e-07	1.919532e-06	5.212771e-09	1.358472e+01	3.380348e+02
9.600000e-07	2.068791e-06	7.659152e-09	1.464104e+01	5.011176e+02
9.700000e-07	2.217284e-06	1.006019e-08	1.569194e+01	6.554227e+02
9.800000e-07	2.364906e-06	1.224942e-08	1.673668e+01	7.954285e+02
9.900000e-07	2.511699e-06	1.407051e-08	1.777555e+01	9.172514e+02
1.000000e-06	2.657536e-06	1.552509e-08	1.880765e+01	1.019038e+03
1.010000e-06	2.802265e-06	1.668353e-08	1.983191e+01	1.101007e+03
1.020000e-06	2.945960e-06	1.761349e-08	2.084886e+01	1.165150e+03
1.030000e-06	3.088512e-06	1.837410e-08	2.185771e+01	1.214676e+03
1.040000e-06	3.229867e-06	1.900318e-08	2.285810e+01	1.253329e+03
1.050000e-06	3.369982e-06	1.953179e-08	2.384970e+01	1.284709e+03
1.060000e-06	3.508763e-06	1.998072e-08	2.483187e+01	1.311754e+03
1.070000e-06	3.646200e-06	2.036805e-08	2.580453e+01	1.336439e+03
1.080000e-06	3.782225e-06	2.071042e-08	2.676719e+01	1.359731e+03
1.090000e-06	3.916842e-06	2.101511e-08	2.771988e+01	1.381774e+03
1.100000e-06	4.050080e-06	2.129063e-08	2.866282e+01	1.402209e+03
1.110000e-06	4.181904e-06	2.154152e-08	2.959576e+01	1.420530e+03
1.120000e-06	4.312250e-06	2.177182e-08	3.051822e+01	1.436401e+03
1.130000e-06	4.441080e-06	2.197999e-08	3.142997e+01	1.449824e+03
1.140000e-06	4.568296e-06	2.216976e-08	3.233029e+01	1.461177e+03
1.150000e-06	4.693908e-06	2.234468e-08	3.321926e+01	1.471110e+03
1.160000e-06	4.817992e-06	2.250699e-08	3.409742e+01	1.480352e+03
1.170000e-06	4.940448e-06	2.266006e-08	3.496405e+01	1.489516e+03
1.180000e-06	5.061119e-06	2.280675e-08	3.581805e+01	1.498948e+03
1.190000e-06	5.179918e-06	2.294905e-08	3.665880e+01	1.508665e+03
1.200000e-06	5.296810e-06	2.308296e-08	3.748606e+01	1.518397e+03
1.210000e-06	5.411662e-06	2.320747e-08	3.829887e+01	1.527712e+03
1.220000e-06	5.524347e-06	2.332292e-08	3.909636e+01	1.536174e+03
1.230000e-06	5.634962e-06	2.342664e-08	3.987919e+01	1.543495e+03
1.240000e-06	5.743621e-06	2.352291e-08	4.064819e+01	1.549623e+03
1.250000e-06	5.850310e-06	2.361528e-08	4.140323e+01	1.554753e+03
1.260000e-06	5.954840e-06	2.370496e-08	4.214300e+01	1.559265e+03
1.270000e-06	6.057131e-06	2.378927e-08	4.286693e+01	1.563602e+03
1.280000e-06	6.157226e-06	2.386919e-08	4.357531e+01	1.568139e+03
1.290000e-06	6.254961e-06	2.394644e-08	4.426699e+01	1.573080e+03
1.300000e-06	6.350277e-06	2.401926e-08	4.494155e+01	1.578412e+03
1.310000e-06	6.443367e-06	2.408684e-08	4.560036e+01	1.583928e+03
1.320000e-06	6.534229e-06	2.415168e-08	4.624340e+01	1.589307e+03
1.330000e-06	6.622696e-06	2.421533e-08	4.686949e+01	1.594223e+03
1.340000e-06	6.708832e-06	2.427597e-08	4.747908e+01	1.598450e+03
1.350000e-06	6.792705e-06	2.433384e-08	4.807265e+01	1.601932e+03
1.360000e-06	6.874124e-06	2.439034e-08	4.864887e+01	1.604791e+03
1.370000e-06	6.953019e-06	2.444533e-08	4.920722e+01	1.607285e+03
1.380000e-06	7.029394e-06	2.449515e-08	4.974773e+01	1.609720e+03
1.390000e-06	7.103025e-06	2.454130e-08	5.026883e+01	1.612353e+03
1.400000e-06	7.174002e-06	2.458591e-08	5.077114e+01	1.615315e+03
1.410000e-06	7.242550e-06	2.462884e-08	5.125626e+01	1.618574e+03
1.420000e-06	7.308496e-06	2.466861e-08	5.172296e+01	1.621952e+03
1.430000e-06	7.371802e-06	2.470646e-08	5.217098e+01	1.625186e+03
1.440000e-06	7.432641e-06	2.474411e-08	5.260155e+01	1.628016e+03
1.450000e-06	7.490851e-06	2.478082e-08	5.301350e+01	1.630267e+03
1.460000e-06	7.546405e-06	2.481490e-08	5.340667e+01	1.631902e+03
1.470000e-06	7.599218e-06	2.484300e-08	5.378043e+01	1.633034e+03
1.480000e-06	7.648833e-06	2.486723e-08	5.413156e+01	1.633887e+03
1.490000e-06	7.695442e-06	2.488969e-08	5.446142e+01	1.634723e+03
1.500000e-06	7.739467e-06	2.491169e-08	5.477299e+01	1.635761e+03
1.510000e-06	7.780727e-06	2.493095e-08	5.506499e+01	1.637112e+03
1.520000e-06	7.819138e-06	2.494880e-08	5.533682e+01	1.638745e+03
1.530000e-06	7.854925e-06	2.496647e-08	5.559010e+01	1.640503e+03
1.540000e-06	7.887905e-06	2.498217e-08	5.582350e+01	1.642154e+03
1.550000e-06	7.917994e-06	2.499607e-08	5.603644e+01	1.643469e+03
1.560000e-06	7.945354e-06	2.500815e-08	5.623007e+01	1.644292e+03
1.570000e-06	7.969794e-06	2.501883e-08	5.640304e+01	1.644594e+03
1.580000e-06	7.991328e-06	2.502818e-08	5.655543e+01	1.644473e+03
1.590000e-06	8.010091e-06	2.503538e-08	5.668822e+01	1.644133e+03
1.600000e-06	8.025937e-06	2.504005e-08	5.680036e+01	1.643810e+03
1.610000e-06	8.038762e-06	2.504393e-08	5.689113e+01	1.643704e+03
1.620000e-06	8.048447e-06	2.504678e-08	5.695967e+01	1.643915e+03
1.630000e-06	8.055118e-06	2.504923e-08	5.700688e+01	1.644414e+03
1.640000e-06	8.059008e-06	2.505218e-08	5.703441e+01	1.645052e+03
1.650000e-06	8.060010e-06	2.505679e-08	5.704150e+01	1.645609e+03
1.660000e-06	8.058216e-06	2.505342e-08	5.702881e+01	1.645863e+03
1.670000e-06	8.053832e-06	2.504358e-08	5.699778e+01	1.645659e+03
1.680000e-06	8.046730e-06	2.503682e-08	5.694752e+01	1.644957e+03
1.690000e-06	8.036895e-06	2.502604e-08	5.687792e+01	1.643842e+03
1.700000e-06	8.024284e-06	2.501408e-08	5.678867e+01	1.642499e+03
1.710000e-06	8.008859e-06	2.501130e-08	5.667950e+01	1.641156e+03
1.720000e-06	7.990963e-06	2.501482e-08	5.655285e+01	1.640010e+03
1.730000e-06	7.970798e-06	2.498421e-08	5.641014e+01	1.639171e+03
1.740000e-06	7.947836e-06	2.486883e-08	5.624764e+01	1.638633e+03
1.750000e-06	7.921328e-06	2.489013e-08	5.606004e+01	1.638274e+03
1.760000e-06	7.891120e-06	2.493013e-08	5.584625e+01	1.637901e+03
1.770000e-06	7.857822e-06	2.488258e-08	5.561060e+01	1.637311e+03
1.780000e-06	7.822149e-06	2.489568e-08	5.535814e+01	1.636354e+03
1.790000e-06	7.784248e-06	2.499963e-08	5.508991e+01	1.634982e+03
1.800000e-06	7.744376e-06	2.489791e-08	5.480773e+01	1.633253e+03
1.810000e-06	7.702294e-06	2.485738e-08	5.450991e+01	1.631318e+03
1.820000e-06	7.657450e-06	2.494558e-08	5.419254e+01	1.629357e+03
1.830000e-06	7.609999e-06	2.479194e-08	5.385673e+01	1.627524e+03
1.840000e-06	7.559629e-06	2.487291e-08	5.350025e+01	1.625890e+03
1.850000e-06	7.506098e-06	2.481051e-08	5.312141e+01	1.624413e+03
1.860000e-06	7.449728e-06	2.473840e-08	5.272248e+01	1.622954e+03
1.870000e-06	7.390730e-06	2.475589e-08	5.230494e+01	1.621311e+03
1.880000e-06	7.329169e-06	2.462644e-08	5.186927e+01	1.619289e+03
1.890000e-06	7.264695e-06	2.473078e-08	5.141298e+01	1.616757e+03
1.900000e-06	7.197389e-06	2.462779e-08	5.093665e+01	1.613694e+03
1.910000e-06	7.127367e-06	2.456368e-08	5.044109e+01	1.610196e+03
1.920000e-06	7.054504e-06	2.455954e-08	4.992544e+01	1.606449e+03
1.930000e-06	6.978943e-06	2.445150e-08	4.939068e+01	1.602672e+03
1.940000e-06	6.900595e-06	2.445967e-08	4.883621e+01	1.599044e+03
1.950000e-06	6.819621e-06	2.436595e-08	4.826314e+01	1.595655e+03
1.960000e-06	6.736163e-06	2.437059e-08	4.767251e+01	1.592467e+03
1.970000e-06	6.650203e-06	2.426783e-08	4.706415e+01	1.589331e+03
1.980000e-06	6.561789e-06	2.418553e-08	4.643844e+01	1.586027e+03
1.990000e-06	6.471004e-06	2.415995e-08	4.579595e+01	1.582336e+03
2.000000e-06	6.377979e-06	2.407148e-08	4.513760e+01	1.578107e+03
2.010000e-06	6.282628e-06	2.403081e-08	4.446279e+01	1.573304e+03
2.020000e-06	6.185033e-06	2.393092e-08	4.377210e+01	1.568021e+03
2.030000e-06	6.085289e-06	2.387390e-08	4.306621e+01	1.562447e+03
2.040000e-06	5.983378e-06	2.377128e-08	4.234497e+01	1.556812e+03
2.050000e-06	5.879334e-06	2.370562e-08	4.160864e+01	1.551309e+03
2.060000e-06	5.773266e-06	2.363445e-08	4.085798e+01	1.546029e+03
2.070000e-06	5.665207e-06	2.354636e-08	4.009324e+01	1.540932e+03
2.080000e-06	5.555161e-06	2.346133e-08	3.931443e+01	1.535851e+03
2.090000e-06	5.443073e-06	2.336642e-08	3.852118e+01	1.530546e+03
2.100000e-06	5.328884e-06	2.328023e-08	3.771305e+01	1.524771e+03
2.110000e-06	5.212685e-06	2.317237e-08	3.689070e+01	1.518356e+03
2.120000e-06	5.094532e-06	2.308321e-08	3.605452e+01	1.511258e+03
2.130000e-06	4.974465e-06	2.297445e-08	3.520479e+01	1.503574e+03
2.140000e-06	4.852506e-06	2.286266e-08	3.434167e+01	1.495511e+03
2.150000e-06	4.728818e-06	2.273687e-08	3.346632e+01	1.487316e+03
2.160000e-06	4.603422e-06	2.262549e-08	3.257888e+01	1.479193e+03
2.170000e-06	4.476327e-06	2.250522e-08	3.167942e+01	1.471234e+03
2.180000e-06	4.347592e-06	2.238138e-08	3.076835e+01	1.463373e+03
2.190000e-06	4.217311e-06	2.225150e-08	2.984633e+01	1.455407e+03
2.200000e-06	4.085530e-06	2.211566e-08	2.891371e+01	1.447043e+03
2.210000e-06	3.952145e-06	2.197085e-08	2.796973e+01	1.437992e+03
2.220000e-06	3.817285e-06	2.181578e-08	2.701531e+01	1.428056e+03
2.230000e-06	3.680996e-06	2.166292e-08	2.605078e+01	1.417189e+03
2.240000e-06	3.543258e-06	2.149720e-08	2.507599e+01	1.405514e+03
2.250000e-06	3.404210e-06	2.132631e-08	2.409193e+01	1.393282e+03
2.260000e-06	3.263884e-06	2.114735e-08	2.309883e+01	1.380789e+03
2.270000e-06	3.122207e-06	2.096621e-08	2.209617e+01	1.368270e+03
2.280000e-06	2.979324e-06	2.077382e-08	2.108498e+01	1.355808e+03
2.290000e-06	2.835373e-06	2.057432e-08	2.006622e+01	1.343289e+03
2.300000e-06	2.690351e-06	2.036161e-08	1.903988e+01	1.330416e+03
2.310000e-06	2.544374e-06	2.013721e-08	1.800679e+01	1.316786e+03
2.320000e-06	2.397602e-06	1.990439e-08	1.696807e+01	1.302000e+03
2.330000e-06	2.250053e-06	1.966296e-08	1.592385e+01	1.285785e+03
2.340000e-06	2.101729e-06	1.940986e-08	1.487415e+01	1.268078e+03
2.350000e-06	1.952616e-06	1.914061e-08	1.381886e+01	1.249042e+03
2.360000e-06	1.802745e-06	1.885718e-08	1.275821e+01	1.229007e+03
2.370000e-06	1.652303e-06	1.855720e-08	1.169351e+01	1.208353e+03
2.380000e-06	1.501422e-06	1.824004e-08	1.062571e+01	1.187353e+03
2.390000e-06	1.350143e-06	1.790652e-08	9.555098e+00	1.166042e+03
2.400000e-06	1.198440e-06	1.755504e-08	8.481477e+00	1.144147e+03
2.410000e-06	1.046312e-06	1.718097e-08	7.404855e+00	1.121107e+03
2.420000e-06	8.937613e-07	1.678055e-08	6.325238e+00	1.096185e+03
2.430000e-06	7.408435e-07	1.635249e-08	5.243024e+00	1.068649e+03
2.440000e-06	5.877019e-07	1.589458e-08	4.159226e+00	1.037963e+03
2.450000e-06	4.343825e-07	1.540070e-08	3.074169e+00	1.003919e+03
2.460000e-06	2.808340e-07	1.486577e-08	1.987490e+00	9.666616e+02
2.470000e-06	1.271286e-07	1.428559e-08	8.997021e-01	9.265792e+02
2.480000e-06	-2.663215e-08	1.365486e-08	-1.884784e-01	8.840562e+02
2.490000e-06	-1.804168e-07	1.296593e-08	-1.276828e+00	8.391548e+02
2.500000e-06	-3.341144e-07	1.220867e-08	-2.364561e+00	7.913014e+02
2.510000e-06	-4.877396e-07	1.137156e-08	-3.451782e+00	7.390769e+02
2.520000e-06	-6.412840e-07	1.043382e-08	-4.538432e+00	6.801961e+02
2.530000e-06	-7.946554e-07	9.372613e-09	-5.623856e+00	6.117216e+02
2.540000e-06	-9.477475e-07	8.160183e-09	-6.707304e+00	5.305052e+02
2.550000e-06	-1.100405e-06	6.753154e-09	-7.787680e+00	4.337913e+02
2.560000e-06	-1.252564e-06	5.091792e-09	-8.864525e+00	3.198676e+02
2.570000e-06	-1.404239e-06	3.111798e-09	-9.937939e+00	1.886245e+02
2.580000e-06	-1.555473e-06	8.167742e-10	-1.100824e+01	4.189222e+01
2.590000e-06	-1.706237e-06	-1.658378e-09	-1.207521e+01	-1.165390e+02
2.600000e-06	-1.856359e-06	-4.172691e-09	-1.313764e+01	-2.812445e+02
2.610000e-06	-2.005687e-06	-6.686731e-09	-1.419445e+01	-4.457953e+02
2.620000e-06	-2.154194e-06	-9.179370e-09	-1.524545e+01	-6.035847e+02
2.630000e-06	-2.301854e-06	-1.151640e-08	-1.629045e+01	-7.486990e+02
2.640000e-06	-2.448664e-06	-1.351065e-08	-1.732944e+01	-8.766692e+02
2.650000e-06	-2.594624e-06	-1.511535e-08	-1.836242e+01	-9.849678e+02
2.660000e-06	-2.739731e-06	-1.639048e-08	-1.938935e+01	-1.073164e+03
2.670000e-06	-2.883814e-06	-1.740779e-08	-2.040905e+01	-1.142731e+03
2.680000e-06	-3.026731e-06	-1.823072e-08	-2.142048e+01	-1.196558e+03
2.690000e-06	-3.168360e-06	-1.890796e-08	-2.242280e+01	-1.238293e+03
2.700000e-06	-3.308718e-06	-1.947450e-08	-2.341613e+01	-1.271649e+03
2.710000e-06	-3.447842e-06	-1.995300e-08	-2.440072e+01	-1.299822e+03
2.720000e-06	-3.585618e-06	-2.036398e-08	-2.537578e+01	-1.325112e+03
2.730000e-06	-3.722023e-06	-2.072429e-08	-2.634113e+01	-1.348801e+03
2.740000e-06	-3.857105e-06	-2.104447e-08	-2.729712e+01	-1.371267e+03
2.750000e-06	-3.990825e-06	-2.133106e-08	-2.824347e+01	-1.392273e+03
2.760000e-06	-4.123065e-06	-2.159042e-08	-2.917935e+01	-1.411322e+03
2.770000e-06	-4.253861e-06	-2.182678e-08	-3.010501e+01	-1.427998e+03
2.780000e-06	-4.383244e-06	-2.204295e-08	-3.102066e+01	-1.442182e+03
2.790000e-06	-4.511154e-06	-2.224152e-08	-3.192589e+01	-1.454139e+03
2.800000e-06	-4.637513e-06	-2.242293e-08	-3.282015e+01	-1.464447e+03
2.810000e-06	-4.762223e-06	-2.259052e-08	-3.370273e+01	-1.473834e+03
2.820000e-06	-4.885227e-06	-2.274698e-08	-3.457324e+01	-1.482969e+03
2.830000e-06	-5.006553e-06	-2.289506e-08	-3.543188e+01	-1.492297e+03
2.840000e-06	-5.126107e-06	-2.303477e-08	-3.627797e+01	-1.501939e+03
2.850000e-06	-5.243626e-06	-2.316400e-08	-3.710967e+01	-1.511708e+03
2.860000e-06	-5.358945e-06	-2.328656e-08	-3.792579e+01	-1.521206e+03
2.870000e-06	-5.472003e-06	-2.340147e-08	-3.872592e+01	-1.529982e+03
2.880000e-06	-5.582886e-06	-2.350825e-08	-3.951065e+01	-1.537687e+03
2.890000e-06	-5.691791e-06	-2.360826e-08	-4.028138e+01	-1.544187e+03
2.900000e-06	-5.798823e-06	-2.369975e-08	-4.103885e+01	-1.549602e+03
2.910000e-06	-5.903854e-06	-2.378474e-08	-4.178217e+01	-1.554264e+03
2.920000e-06	-6.006635e-06	-2.386696e-08	-4.250956e+01	-1.558610e+03
2.930000e-06	-6.107111e-06	-2.394658e-08	-4.322064e+01	-1.563049e+03
2.940000e-06	-6.205385e-06	-2.402273e-08	-4.391613e+01	-1.567850e+03
