# Temperatura_=_93.41
# Concentracion g/m^3_=_41000.0
# C_Vs_to_Am_M_A/Vsm_=_65563218390.804596
# pendiente_HvsI_1/m_=_3716.3
# ordenada_HvsI_A/m_=_1297.0
# frecuencia_Hz_=_302488.97371060925

Tiempo_(s)	Campo_(V.s)	Magnetizacion_(V.s)	Campo_(kA/m)	Magnetizacion_(A/m)
0.000000e+00	-8.073525e-06	-2.428592e-08	-5.687548e+01	-1.592681e+03
1.000000e-08	-8.071226e-06	-2.428585e-08	-5.685928e+01	-1.591981e+03
2.000000e-08	-8.066178e-06	-2.427962e-08	-5.682372e+01	-1.590800e+03
3.000000e-08	-8.058552e-06	-2.427029e-08	-5.677000e+01	-1.589361e+03
4.000000e-08	-8.048132e-06	-2.426113e-08	-5.669659e+01	-1.587924e+03
5.000000e-08	-8.034822e-06	-2.424689e-08	-5.660283e+01	-1.586702e+03
6.000000e-08	-8.018604e-06	-2.422702e-08	-5.648858e+01	-1.585797e+03
7.000000e-08	-7.999787e-06	-2.420820e-08	-5.635601e+01	-1.585172e+03
8.000000e-08	-7.978639e-06	-2.420138e-08	-5.620704e+01	-1.584664e+03
9.000000e-08	-7.954633e-06	-2.424192e-08	-5.603792e+01	-1.584044e+03
1.000000e-07	-7.927336e-06	-2.422267e-08	-5.584562e+01	-1.583088e+03
1.100000e-07	-7.896895e-06	-2.415189e-08	-5.563117e+01	-1.581657e+03
1.200000e-07	-7.863538e-06	-2.411445e-08	-5.539619e+01	-1.579738e+03
1.300000e-07	-7.827530e-06	-2.407984e-08	-5.514252e+01	-1.577455e+03
1.400000e-07	-7.789159e-06	-2.400735e-08	-5.487221e+01	-1.575022e+03
1.500000e-07	-7.748580e-06	-2.394529e-08	-5.458634e+01	-1.572678e+03
1.600000e-07	-7.705581e-06	-2.400346e-08	-5.428343e+01	-1.570603e+03
1.700000e-07	-7.659839e-06	-2.393766e-08	-5.396119e+01	-1.568858e+03
1.800000e-07	-7.611351e-06	-2.385388e-08	-5.361960e+01	-1.567355e+03
1.900000e-07	-7.559821e-06	-2.387574e-08	-5.325659e+01	-1.565880e+03
2.000000e-07	-7.505212e-06	-2.380276e-08	-5.287189e+01	-1.564153e+03
2.100000e-07	-7.447886e-06	-2.375939e-08	-5.246805e+01	-1.561912e+03
2.200000e-07	-7.387905e-06	-2.372773e-08	-5.204550e+01	-1.558988e+03
2.300000e-07	-7.325306e-06	-2.367186e-08	-5.160451e+01	-1.555361e+03
2.400000e-07	-7.260022e-06	-2.360979e-08	-5.114461e+01	-1.551166e+03
2.500000e-07	-7.191994e-06	-2.352646e-08	-5.066537e+01	-1.546646e+03
2.600000e-07	-7.121204e-06	-2.349382e-08	-5.016667e+01	-1.542085e+03
2.700000e-07	-7.047511e-06	-2.343501e-08	-4.964753e+01	-1.537715e+03
2.800000e-07	-6.971061e-06	-2.337225e-08	-4.910896e+01	-1.533645e+03
2.900000e-07	-6.891882e-06	-2.329981e-08	-4.855117e+01	-1.529829e+03
3.000000e-07	-6.810004e-06	-2.322302e-08	-4.797437e+01	-1.526080e+03
3.100000e-07	-6.725783e-06	-2.315551e-08	-4.738105e+01	-1.522132e+03
3.200000e-07	-6.639236e-06	-2.306323e-08	-4.677136e+01	-1.517721e+03
3.300000e-07	-6.550214e-06	-2.301015e-08	-4.614423e+01	-1.512672e+03
3.400000e-07	-6.458769e-06	-2.292892e-08	-4.550002e+01	-1.506958e+03
3.500000e-07	-6.365045e-06	-2.284127e-08	-4.483977e+01	-1.500706e+03
3.600000e-07	-6.269049e-06	-2.275416e-08	-4.416350e+01	-1.494160e+03
3.700000e-07	-6.170694e-06	-2.266566e-08	-4.347062e+01	-1.487604e+03
3.800000e-07	-6.070133e-06	-2.257522e-08	-4.276220e+01	-1.481270e+03
3.900000e-07	-5.967445e-06	-2.247781e-08	-4.203880e+01	-1.475258e+03
4.000000e-07	-5.862547e-06	-2.238623e-08	-4.129982e+01	-1.469506e+03
4.100000e-07	-5.755514e-06	-2.227732e-08	-4.054581e+01	-1.463800e+03
4.200000e-07	-5.646494e-06	-2.217841e-08	-3.977780e+01	-1.457839e+03
4.300000e-07	-5.535500e-06	-2.206910e-08	-3.899588e+01	-1.451330e+03
4.400000e-07	-5.422439e-06	-2.195825e-08	-3.819940e+01	-1.444080e+03
4.500000e-07	-5.307277e-06	-2.183944e-08	-3.738812e+01	-1.436057e+03
4.600000e-07	-5.190153e-06	-2.172150e-08	-3.656302e+01	-1.427406e+03
4.700000e-07	-5.071173e-06	-2.159903e-08	-3.572484e+01	-1.418400e+03
4.800000e-07	-4.950350e-06	-2.147054e-08	-3.487368e+01	-1.409358e+03
4.900000e-07	-4.827698e-06	-2.134310e-08	-3.400963e+01	-1.400537e+03
5.000000e-07	-4.703240e-06	-2.120941e-08	-3.313286e+01	-1.392043e+03
5.100000e-07	-4.577105e-06	-2.107138e-08	-3.224428e+01	-1.383792e+03
5.200000e-07	-4.449318e-06	-2.092317e-08	-3.134406e+01	-1.375521e+03
5.300000e-07	-4.319928e-06	-2.077442e-08	-3.043255e+01	-1.366870e+03
5.400000e-07	-4.188928e-06	-2.061730e-08	-2.950970e+01	-1.357487e+03
5.500000e-07	-4.056348e-06	-2.045895e-08	-2.857571e+01	-1.347138e+03
5.600000e-07	-3.922356e-06	-2.029461e-08	-2.763178e+01	-1.335786e+03
5.700000e-07	-3.786801e-06	-2.012619e-08	-2.667684e+01	-1.323603e+03
5.800000e-07	-3.649699e-06	-1.995050e-08	-2.571100e+01	-1.310920e+03
5.900000e-07	-3.511234e-06	-1.976703e-08	-2.473555e+01	-1.298117e+03
6.000000e-07	-3.371299e-06	-1.958031e-08	-2.374975e+01	-1.285496e+03
6.100000e-07	-3.229874e-06	-1.938257e-08	-2.275346e+01	-1.273168e+03
6.200000e-07	-3.087118e-06	-1.917774e-08	-2.174779e+01	-1.261001e+03
6.300000e-07	-2.943151e-06	-1.896370e-08	-2.073358e+01	-1.248636e+03
6.400000e-07	-2.798062e-06	-1.874424e-08	-1.971148e+01	-1.235586e+03
6.500000e-07	-2.651996e-06	-1.851434e-08	-1.868249e+01	-1.221379e+03
6.600000e-07	-2.505074e-06	-1.827550e-08	-1.764747e+01	-1.205698e+03
6.700000e-07	-2.357336e-06	-1.802770e-08	-1.660670e+01	-1.188488e+03
6.800000e-07	-2.208828e-06	-1.776982e-08	-1.556051e+01	-1.169974e+03
6.900000e-07	-2.059641e-06	-1.749967e-08	-1.450953e+01	-1.150590e+03
7.000000e-07	-1.909794e-06	-1.721294e-08	-1.345391e+01	-1.130827e+03
7.100000e-07	-1.759331e-06	-1.691409e-08	-1.239394e+01	-1.111054e+03
7.200000e-07	-1.608241e-06	-1.659759e-08	-1.132956e+01	-1.091349e+03
7.300000e-07	-1.456540e-06	-1.626397e-08	-1.026087e+01	-1.071419e+03
7.400000e-07	-1.304312e-06	-1.591179e-08	-9.188471e+00	-1.050625e+03
7.500000e-07	-1.151580e-06	-1.554069e-08	-8.112520e+00	-1.028119e+03
7.600000e-07	-9.984744e-07	-1.514742e-08	-7.033942e+00	-1.003064e+03
7.700000e-07	-8.450588e-07	-1.472662e-08	-5.953177e+00	-9.748554e+02
7.800000e-07	-6.913240e-07	-1.427471e-08	-4.870163e+00	-9.432924e+02
7.900000e-07	-5.373075e-07	-1.378673e-08	-3.785165e+00	-9.086037e+02
8.000000e-07	-3.831101e-07	-1.325721e-08	-2.698892e+00	-8.713168e+02
8.100000e-07	-2.288182e-07	-1.267748e-08	-1.611953e+00	-8.319712e+02
8.200000e-07	-7.435981e-08	-1.204145e-08	-5.238418e-01	-7.907434e+02
8.300000e-07	8.020880e-08	-1.133563e-08	5.650461e-01	-7.470800e+02
8.400000e-07	2.347368e-07	-1.054744e-08	1.653648e+00	-6.994545e+02
8.500000e-07	3.891667e-07	-9.662691e-09	2.741559e+00	-6.453439e+02
8.600000e-07	5.435163e-07	-8.659877e-09	3.828904e+00	-5.814781e+02
8.700000e-07	6.977537e-07	-7.503491e-09	4.915458e+00	-5.043491e+02
8.800000e-07	8.517491e-07	-6.143907e-09	6.000308e+00	-4.109012e+02
8.900000e-07	1.005451e-06	-4.519378e-09	7.083093e+00	-2.992674e+02
9.000000e-07	1.158841e-06	-2.561449e-09	8.163674e+00	-1.693914e+02
9.100000e-07	1.311884e-06	-2.910513e-10	9.241816e+00	-2.338544e+01
9.200000e-07	1.464493e-06	2.132466e-09	1.031690e+01	1.344786e+02
9.300000e-07	1.616492e-06	4.581922e-09	1.138768e+01	2.981716e+02
9.400000e-07	1.767817e-06	7.031830e-09	1.245372e+01	4.606485e+02
9.500000e-07	1.918509e-06	9.446801e-09	1.351530e+01	6.147957e+02
9.600000e-07	2.068437e-06	1.165437e-08	1.457150e+01	7.544072e+02
9.700000e-07	2.217543e-06	1.345767e-08	1.562190e+01	8.750028e+02
9.800000e-07	2.365813e-06	1.484816e-08	1.666642e+01	9.743359e+02
9.900000e-07	2.513158e-06	1.592037e-08	1.770442e+01	1.052504e+03
1.000000e-06	2.659586e-06	1.675744e-08	1.873596e+01	1.111661e+03
1.010000e-06	2.805081e-06	1.742465e-08	1.976092e+01	1.155411e+03
1.020000e-06	2.949568e-06	1.796969e-08	2.077879e+01	1.188030e+03
1.030000e-06	3.092903e-06	1.842729e-08	2.178854e+01	1.213673e+03
1.040000e-06	3.234992e-06	1.881899e-08	2.278952e+01	1.235740e+03
1.050000e-06	3.375849e-06	1.916003e-08	2.378181e+01	1.256496e+03
1.060000e-06	3.515448e-06	1.946124e-08	2.476524e+01	1.276989e+03
1.070000e-06	3.653710e-06	1.973269e-08	2.573925e+01	1.297251e+03
1.080000e-06	3.790544e-06	1.998152e-08	2.670321e+01	1.316670e+03
1.090000e-06	3.925899e-06	2.020975e-08	2.765674e+01	1.334435e+03
1.100000e-06	4.059846e-06	2.042412e-08	2.860036e+01	1.349920e+03
1.110000e-06	4.192374e-06	2.062620e-08	2.953398e+01	1.362936e+03
1.120000e-06	4.323400e-06	2.081522e-08	3.045701e+01	1.373785e+03
1.130000e-06	4.452941e-06	2.099070e-08	3.136959e+01	1.383157e+03
1.140000e-06	4.580857e-06	2.115658e-08	3.227072e+01	1.391906e+03
1.150000e-06	4.707134e-06	2.131519e-08	3.316030e+01	1.400798e+03
1.160000e-06	4.831909e-06	2.146602e-08	3.403930e+01	1.410303e+03
1.170000e-06	4.955038e-06	2.161072e-08	3.490671e+01	1.420497e+03
1.180000e-06	5.076380e-06	2.175064e-08	3.576152e+01	1.431085e+03
1.190000e-06	5.195812e-06	2.188695e-08	3.660288e+01	1.441536e+03
1.200000e-06	5.313327e-06	2.201891e-08	3.743074e+01	1.451271e+03
1.210000e-06	5.428923e-06	2.214290e-08	3.824507e+01	1.459854e+03
1.220000e-06	5.542419e-06	2.225929e-08	3.904462e+01	1.467120e+03
1.230000e-06	5.653720e-06	2.236828e-08	3.982871e+01	1.473212e+03
1.240000e-06	5.762958e-06	2.247159e-08	4.059825e+01	1.478524e+03
1.250000e-06	5.870185e-06	2.257152e-08	4.135363e+01	1.483564e+03
1.260000e-06	5.975253e-06	2.266826e-08	4.209380e+01	1.488797e+03
1.270000e-06	6.078131e-06	2.276019e-08	4.281855e+01	1.494511e+03
1.280000e-06	6.178845e-06	2.284629e-08	4.352805e+01	1.500744e+03
1.290000e-06	6.277250e-06	2.292851e-08	4.422128e+01	1.507293e+03
1.300000e-06	6.373216e-06	2.300812e-08	4.489733e+01	1.513796e+03
1.310000e-06	6.466906e-06	2.308461e-08	4.555735e+01	1.519860e+03
1.320000e-06	6.558371e-06	2.315850e-08	4.620169e+01	1.525189e+03
1.330000e-06	6.647445e-06	2.323235e-08	4.682919e+01	1.529679e+03
1.340000e-06	6.734124e-06	2.330556e-08	4.743982e+01	1.533438e+03
1.350000e-06	6.818499e-06	2.337640e-08	4.803421e+01	1.536753e+03
1.360000e-06	6.900454e-06	2.344318e-08	4.861156e+01	1.539986e+03
1.370000e-06	6.979813e-06	2.350574e-08	4.917062e+01	1.543464e+03
1.380000e-06	7.056614e-06	2.356329e-08	4.971165e+01	1.547374e+03
1.390000e-06	7.130753e-06	2.361844e-08	5.023394e+01	1.551710e+03
1.400000e-06	7.202225e-06	2.367433e-08	5.073744e+01	1.556278e+03
1.410000e-06	7.271199e-06	2.372914e-08	5.122334e+01	1.560768e+03
1.420000e-06	7.337575e-06	2.378160e-08	5.169094e+01	1.564849e+03
1.430000e-06	7.401324e-06	2.383395e-08	5.214003e+01	1.568276e+03
1.440000e-06	7.462635e-06	2.388457e-08	5.257195e+01	1.570963e+03
1.450000e-06	7.521395e-06	2.393156e-08	5.298589e+01	1.573006e+03
1.460000e-06	7.577425e-06	2.397352e-08	5.338061e+01	1.574647e+03
1.470000e-06	7.630667e-06	2.400934e-08	5.375568e+01	1.576197e+03
1.480000e-06	7.680802e-06	2.404251e-08	5.410887e+01	1.577935e+03
1.490000e-06	7.727873e-06	2.407438e-08	5.444046e+01	1.580020e+03
1.500000e-06	7.772241e-06	2.410677e-08	5.475303e+01	1.582449e+03
1.510000e-06	7.813859e-06	2.413775e-08	5.504621e+01	1.585055e+03
1.520000e-06	7.852611e-06	2.416584e-08	5.531921e+01	1.587570e+03
1.530000e-06	7.888679e-06	2.419045e-08	5.557330e+01	1.589708e+03
1.540000e-06	7.921982e-06	2.421065e-08	5.580790e+01	1.591257e+03
1.550000e-06	7.952428e-06	2.422846e-08	5.602239e+01	1.592144e+03
1.560000e-06	7.980094e-06	2.424435e-08	5.621729e+01	1.592460e+03
1.570000e-06	8.004822e-06	2.425765e-08	5.639149e+01	1.592428e+03
1.580000e-06	8.026671e-06	2.426950e-08	5.654541e+01	1.592331e+03
1.590000e-06	8.045790e-06	2.427980e-08	5.668009e+01	1.592428e+03
1.600000e-06	8.061956e-06	2.428832e-08	5.679398e+01	1.592868e+03
1.610000e-06	8.075024e-06	2.429530e-08	5.688604e+01	1.593652e+03
1.620000e-06	8.084958e-06	2.430065e-08	5.695602e+01	1.594633e+03
1.630000e-06	8.091830e-06	2.430549e-08	5.700443e+01	1.595563e+03
1.640000e-06	8.095887e-06	2.430831e-08	5.703301e+01	1.596174e+03
1.650000e-06	8.097092e-06	2.430861e-08	5.704150e+01	1.596261e+03
1.660000e-06	8.095478e-06	2.430172e-08	5.703013e+01	1.595745e+03
1.670000e-06	8.091198e-06	2.429235e-08	5.699998e+01	1.594698e+03
1.680000e-06	8.084161e-06	2.428251e-08	5.695040e+01	1.593313e+03
1.690000e-06	8.074451e-06	2.426985e-08	5.688200e+01	1.591848e+03
1.700000e-06	8.062028e-06	2.425609e-08	5.679449e+01	1.590539e+03
1.710000e-06	8.046753e-06	2.424704e-08	5.668687e+01	1.589529e+03
1.720000e-06	8.028902e-06	2.423831e-08	5.656112e+01	1.588826e+03
1.730000e-06	8.008759e-06	2.419329e-08	5.641922e+01	1.588303e+03
1.740000e-06	7.985894e-06	2.409945e-08	5.625815e+01	1.587745e+03
1.750000e-06	7.959523e-06	2.410286e-08	5.607237e+01	1.586917e+03
1.760000e-06	7.929424e-06	2.411698e-08	5.586033e+01	1.585646e+03
1.770000e-06	7.896167e-06	2.408201e-08	5.562605e+01	1.583877e+03
1.780000e-06	7.860532e-06	2.409234e-08	5.537501e+01	1.581690e+03
1.790000e-06	7.822640e-06	2.413729e-08	5.510807e+01	1.579278e+03
1.800000e-06	7.782621e-06	2.406156e-08	5.482615e+01	1.576881e+03
1.810000e-06	7.740371e-06	2.403094e-08	5.452851e+01	1.574706e+03
1.820000e-06	7.695422e-06	2.405963e-08	5.421186e+01	1.572857e+03
1.830000e-06	7.647902e-06	2.397056e-08	5.387710e+01	1.571293e+03
1.840000e-06	7.597483e-06	2.400233e-08	5.352191e+01	1.569838e+03
1.850000e-06	7.543880e-06	2.393965e-08	5.314430e+01	1.568223e+03
1.860000e-06	7.487464e-06	2.389374e-08	5.274686e+01	1.566171e+03
1.870000e-06	7.428434e-06	2.387941e-08	5.233102e+01	1.563475e+03
1.880000e-06	7.366774e-06	2.377917e-08	5.189663e+01	1.560067e+03
1.890000e-06	7.302218e-06	2.380353e-08	5.144186e+01	1.556031e+03
1.900000e-06	7.234855e-06	2.371090e-08	5.096731e+01	1.551584e+03
1.910000e-06	7.164705e-06	2.365351e-08	5.047312e+01	1.547007e+03
1.920000e-06	7.091662e-06	2.360377e-08	4.995856e+01	1.542556e+03
1.930000e-06	7.015856e-06	2.350798e-08	4.942453e+01	1.538386e+03
1.940000e-06	6.937245e-06	2.348309e-08	4.887074e+01	1.534502e+03
1.950000e-06	6.856063e-06	2.338142e-08	4.829884e+01	1.530758e+03
1.960000e-06	6.772432e-06	2.334397e-08	4.770968e+01	1.526905e+03
1.970000e-06	6.686230e-06	2.324578e-08	4.710242e+01	1.522666e+03
1.980000e-06	6.597542e-06	2.316170e-08	4.647764e+01	1.517833e+03
1.990000e-06	6.506538e-06	2.309755e-08	4.583654e+01	1.512326e+03
2.000000e-06	6.413268e-06	2.300372e-08	4.517948e+01	1.506224e+03
2.010000e-06	6.317637e-06	2.293398e-08	4.450580e+01	1.499741e+03
2.020000e-06	6.219814e-06	2.282575e-08	4.381666e+01	1.493159e+03
2.030000e-06	6.119802e-06	2.274668e-08	4.311210e+01	1.486734e+03
2.040000e-06	6.017527e-06	2.264122e-08	4.239161e+01	1.480617e+03
2.050000e-06	5.913096e-06	2.255150e-08	4.165593e+01	1.474798e+03
2.060000e-06	5.806670e-06	2.244964e-08	4.090619e+01	1.469107e+03
2.070000e-06	5.698307e-06	2.234963e-08	4.014280e+01	1.463262e+03
2.080000e-06	5.587861e-06	2.224471e-08	3.936474e+01	1.456956e+03
2.090000e-06	5.475353e-06	2.212907e-08	3.857216e+01	1.449956e+03
2.100000e-06	5.360767e-06	2.201718e-08	3.776494e+01	1.442173e+03
2.110000e-06	5.244074e-06	2.189892e-08	3.694288e+01	1.433698e+03
2.120000e-06	5.125401e-06	2.178827e-08	3.610686e+01	1.424771e+03
2.130000e-06	5.004874e-06	2.165865e-08	3.525779e+01	1.415708e+03
2.140000e-06	4.882567e-06	2.153146e-08	3.439617e+01	1.406795e+03
2.150000e-06	4.758469e-06	2.139684e-08	3.352194e+01	1.398195e+03
2.160000e-06	4.632546e-06	2.126721e-08	3.263485e+01	1.389886e+03
2.170000e-06	4.504902e-06	2.112619e-08	3.173563e+01	1.381658e+03
2.180000e-06	4.375672e-06	2.098158e-08	3.082525e+01	1.373170e+03
2.190000e-06	4.244925e-06	2.083060e-08	2.990418e+01	1.364055e+03
2.200000e-06	4.112547e-06	2.067487e-08	2.897162e+01	1.354030e+03
2.210000e-06	3.978584e-06	2.051347e-08	2.802789e+01	1.342991e+03
2.220000e-06	3.843184e-06	2.034968e-08	2.707404e+01	1.331044e+03
2.230000e-06	3.706332e-06	2.018414e-08	2.610996e+01	1.318480e+03
2.240000e-06	3.568113e-06	2.000669e-08	2.513625e+01	1.305675e+03
2.250000e-06	3.428486e-06	1.982194e-08	2.415262e+01	1.292973e+03
2.260000e-06	3.287450e-06	1.962839e-08	2.315906e+01	1.280553e+03
2.270000e-06	3.145122e-06	1.943183e-08	2.215641e+01	1.268363e+03
2.280000e-06	3.001561e-06	1.922458e-08	2.114507e+01	1.256110e+03
2.290000e-06	2.856902e-06	1.901037e-08	2.012599e+01	1.243336e+03
2.300000e-06	2.711300e-06	1.878701e-08	1.910027e+01	1.229545e+03
2.310000e-06	2.564848e-06	1.855485e-08	1.806856e+01	1.214357e+03
2.320000e-06	2.417547e-06	1.831216e-08	1.703087e+01	1.197626e+03
2.330000e-06	2.269304e-06	1.805970e-08	1.598654e+01	1.179491e+03
2.340000e-06	2.120174e-06	1.779694e-08	1.493597e+01	1.160332e+03
2.350000e-06	1.970373e-06	1.752005e-08	1.388066e+01	1.140641e+03
2.360000e-06	1.819961e-06	1.722919e-08	1.282106e+01	1.120845e+03
2.370000e-06	1.668953e-06	1.692123e-08	1.175726e+01	1.101132e+03
2.380000e-06	1.517367e-06	1.659602e-08	1.068938e+01	1.081328e+03
2.390000e-06	1.365260e-06	1.625408e-08	9.617830e+00	1.060898e+03
2.400000e-06	1.212737e-06	1.589369e-08	8.543355e+00	1.039038e+03
2.410000e-06	1.059787e-06	1.551209e-08	7.465868e+00	1.014883e+03
2.420000e-06	9.064791e-07	1.510234e-08	6.385864e+00	9.877311e+02
2.430000e-06	7.529065e-07	1.466020e-08	5.303993e+00	9.572406e+02
2.440000e-06	5.990989e-07	1.418477e-08	4.220466e+00	9.235085e+02
2.450000e-06	4.451224e-07	1.366990e-08	3.135749e+00	8.869909e+02
2.460000e-06	2.910123e-07	1.310862e-08	2.050091e+00	8.482619e+02
2.470000e-06	1.367813e-07	1.249240e-08	9.635818e-01	8.076575e+02
2.480000e-06	-1.757191e-08	1.181286e-08	-1.237887e-01	7.648934e+02
2.490000e-06	-1.719321e-07	1.105812e-08	-1.211209e+00	7.187706e+02
2.500000e-06	-3.262104e-07	1.021433e-08	-2.298051e+00	6.670728e+02
2.510000e-06	-4.804466e-07	9.263655e-09	-3.384597e+00	6.067260e+02
2.520000e-06	-6.345741e-07	8.171641e-09	-4.470377e+00	5.342297e+02
2.530000e-06	-7.884825e-07	6.892773e-09	-5.554614e+00	4.463017e+02
2.540000e-06	-9.421627e-07	5.372223e-09	-6.637244e+00	3.406162e+02
2.550000e-06	-1.095574e-06	3.543392e-09	-7.717978e+00	2.164807e+02
2.560000e-06	-1.248626e-06	1.364050e-09	-8.796184e+00	7.529230e+01
2.570000e-06	-1.401262e-06	-1.065879e-09	-9.871454e+00	-7.934596e+01
2.580000e-06	-1.553300e-06	-3.574317e-09	-1.094251e+01	-2.419032e+02
2.590000e-06	-1.704643e-06	-6.090812e-09	-1.200868e+01	-4.055641e+02
2.600000e-06	-1.855340e-06	-8.594543e-09	-1.307030e+01	-5.631283e+02
2.610000e-06	-2.005333e-06	-1.095159e-08	-1.412695e+01	-7.079976e+02
2.620000e-06	-2.154618e-06	-1.294217e-08	-1.517862e+01	-8.350644e+02
2.630000e-06	-2.303131e-06	-1.449438e-08	-1.622485e+01	-9.413320e+02
2.640000e-06	-2.450713e-06	-1.568851e-08	-1.726451e+01	-1.026158e+03
2.650000e-06	-2.597359e-06	-1.661641e-08	-1.829759e+01	-1.091088e+03
2.660000e-06	-2.743147e-06	-1.734864e-08	-1.932462e+01	-1.139340e+03
2.670000e-06	-2.887924e-06	-1.793960e-08	-2.034453e+01	-1.175064e+03
2.680000e-06	-3.031506e-06	-1.842709e-08	-2.135602e+01	-1.202532e+03
2.690000e-06	-3.173928e-06	-1.883871e-08	-2.235933e+01	-1.225443e+03
2.700000e-06	-3.315093e-06	-1.919570e-08	-2.335380e+01	-1.246449e+03
2.710000e-06	-3.454874e-06	-1.951003e-08	-2.433851e+01	-1.266981e+03
2.720000e-06	-3.593315e-06	-1.979147e-08	-2.531379e+01	-1.287363e+03
2.730000e-06	-3.730469e-06	-2.004731e-08	-2.627999e+01	-1.307141e+03
2.740000e-06	-3.866292e-06	-2.028413e-08	-2.723683e+01	-1.325522e+03
2.750000e-06	-4.000768e-06	-2.050642e-08	-2.818417e+01	-1.341785e+03
2.760000e-06	-4.133819e-06	-2.071526e-08	-2.912147e+01	-1.355585e+03
2.770000e-06	-4.265326e-06	-2.090893e-08	-3.004790e+01	-1.367070e+03
2.780000e-06	-4.395361e-06	-2.108704e-08	-3.096395e+01	-1.376827e+03
2.790000e-06	-4.523891e-06	-2.125346e-08	-3.186941e+01	-1.385684e+03
2.800000e-06	-4.650832e-06	-2.140932e-08	-3.276367e+01	-1.394462e+03
2.810000e-06	-4.776165e-06	-2.155619e-08	-3.364660e+01	-1.403742e+03
2.820000e-06	-4.899774e-06	-2.169847e-08	-3.451739e+01	-1.413731e+03
2.830000e-06	-5.021723e-06	-2.183767e-08	-3.537648e+01	-1.424244e+03
2.840000e-06	-5.141984e-06	-2.197217e-08	-3.622368e+01	-1.434805e+03
2.850000e-06	-5.260220e-06	-2.209816e-08	-3.705662e+01	-1.444828e+03
2.860000e-06	-5.376276e-06	-2.221847e-08	-3.787420e+01	-1.453814e+03
2.870000e-06	-5.490087e-06	-2.233444e-08	-3.867596e+01	-1.461502e+03
2.880000e-06	-5.601678e-06	-2.244419e-08	-3.946208e+01	-1.467939e+03
2.890000e-06	-5.711178e-06	-2.254798e-08	-4.023348e+01	-1.473450e+03
2.900000e-06	-5.818738e-06	-2.264476e-08	-4.099120e+01	-1.478522e+03
2.910000e-06	-5.924349e-06	-2.273601e-08	-4.173520e+01	-1.483651e+03
2.920000e-06	-6.027710e-06	-2.282314e-08	-4.246334e+01	-1.489194e+03
2.930000e-06	-6.128755e-06	-2.290681e-08	-4.317518e+01	-1.495272e+03
2.940000e-06	-6.227632e-06	-2.298854e-08	-4.387173e+01	-1.501754e+03
