# Temperatura_=_54.24
# Concentracion g/m^3_=_41000.0
# C_Vs_to_Am_M_A/Vsm_=_65563218390.804596
# pendiente_HvsI_1/m_=_3716.3
# ordenada_HvsI_A/m_=_1297.0
# frecuencia_Hz_=_302477.5472034229

Tiempo_(s)	Campo_(V.s)	Magnetizacion_(V.s)	Campo_(kA/m)	Magnetizacion_(A/m)
0.000000e+00	-8.101142e-06	-2.538404e-08	-5.688110e+01	-1.663811e+03
1.000000e-08	-8.098874e-06	-2.538531e-08	-5.686518e+01	-1.663730e+03
2.000000e-08	-8.093892e-06	-2.538115e-08	-5.683020e+01	-1.663221e+03
3.000000e-08	-8.086410e-06	-2.537132e-08	-5.677766e+01	-1.662335e+03
4.000000e-08	-8.076153e-06	-2.536473e-08	-5.670565e+01	-1.661211e+03
5.000000e-08	-8.062928e-06	-2.535473e-08	-5.661279e+01	-1.660027e+03
6.000000e-08	-8.046717e-06	-2.533912e-08	-5.649896e+01	-1.658950e+03
7.000000e-08	-8.027875e-06	-2.532600e-08	-5.636667e+01	-1.658082e+03
8.000000e-08	-8.006687e-06	-2.532205e-08	-5.621790e+01	-1.657437e+03
9.000000e-08	-7.982716e-06	-2.536627e-08	-5.604959e+01	-1.656933e+03
1.000000e-07	-7.955477e-06	-2.536398e-08	-5.585834e+01	-1.656432e+03
1.100000e-07	-7.925078e-06	-2.528699e-08	-5.564489e+01	-1.655779e+03
1.200000e-07	-7.891808e-06	-2.524835e-08	-5.541129e+01	-1.654856e+03
1.300000e-07	-7.855778e-06	-2.522519e-08	-5.515831e+01	-1.653621e+03
1.400000e-07	-7.817344e-06	-2.515530e-08	-5.488845e+01	-1.652113e+03
1.500000e-07	-7.776701e-06	-2.509185e-08	-5.460309e+01	-1.650439e+03
1.600000e-07	-7.733605e-06	-2.517294e-08	-5.430049e+01	-1.648733e+03
1.700000e-07	-7.687738e-06	-2.516404e-08	-5.397844e+01	-1.647105e+03
1.800000e-07	-7.639112e-06	-2.504878e-08	-5.363702e+01	-1.645598e+03
1.900000e-07	-7.587506e-06	-2.509250e-08	-5.327468e+01	-1.644170e+03
2.000000e-07	-7.532879e-06	-2.502238e-08	-5.289112e+01	-1.642698e+03
2.100000e-07	-7.475563e-06	-2.494173e-08	-5.248869e+01	-1.641018e+03
2.200000e-07	-7.415522e-06	-2.494427e-08	-5.206711e+01	-1.638969e+03
2.300000e-07	-7.352755e-06	-2.491106e-08	-5.162640e+01	-1.636451e+03
2.400000e-07	-7.287234e-06	-2.487321e-08	-5.116636e+01	-1.633454e+03
2.500000e-07	-7.219000e-06	-2.477707e-08	-5.068726e+01	-1.630067e+03
2.600000e-07	-7.148000e-06	-2.477119e-08	-5.018874e+01	-1.626452e+03
2.700000e-07	-7.074088e-06	-2.473848e-08	-4.966978e+01	-1.622793e+03
2.800000e-07	-6.997399e-06	-2.466879e-08	-4.913132e+01	-1.619246e+03
2.900000e-07	-6.917915e-06	-2.462069e-08	-4.857323e+01	-1.615882e+03
3.000000e-07	-6.835728e-06	-2.457730e-08	-4.799617e+01	-1.612670e+03
3.100000e-07	-6.751225e-06	-2.451693e-08	-4.740284e+01	-1.609482e+03
3.200000e-07	-6.664481e-06	-2.441321e-08	-4.679378e+01	-1.606134e+03
3.300000e-07	-6.575292e-06	-2.438288e-08	-4.616755e+01	-1.602441e+03
3.400000e-07	-6.483637e-06	-2.432600e-08	-4.552401e+01	-1.598277e+03
3.500000e-07	-6.389716e-06	-2.424291e-08	-4.486455e+01	-1.593613e+03
3.600000e-07	-6.293518e-06	-2.418396e-08	-4.418911e+01	-1.588528e+03
3.700000e-07	-6.194936e-06	-2.412202e-08	-4.349693e+01	-1.583180e+03
3.800000e-07	-6.094125e-06	-2.404022e-08	-4.278909e+01	-1.577761e+03
3.900000e-07	-5.991157e-06	-2.395044e-08	-4.206612e+01	-1.572427e+03
4.000000e-07	-5.885991e-06	-2.387765e-08	-4.132771e+01	-1.567251e+03
4.100000e-07	-5.778717e-06	-2.378317e-08	-4.057450e+01	-1.562191e+03
4.200000e-07	-5.669485e-06	-2.369275e-08	-3.980754e+01	-1.557099e+03
4.300000e-07	-5.558294e-06	-2.360922e-08	-3.902683e+01	-1.551767e+03
4.400000e-07	-5.444921e-06	-2.352233e-08	-3.823080e+01	-1.545986e+03
4.500000e-07	-5.329428e-06	-2.341570e-08	-3.741988e+01	-1.539611e+03
4.600000e-07	-5.212015e-06	-2.330966e-08	-3.659548e+01	-1.532609e+03
4.700000e-07	-5.092708e-06	-2.320416e-08	-3.575778e+01	-1.525065e+03
4.800000e-07	-4.971492e-06	-2.308822e-08	-3.490668e+01	-1.517159e+03
4.900000e-07	-4.848470e-06	-2.297105e-08	-3.404289e+01	-1.509103e+03
5.000000e-07	-4.723667e-06	-2.285824e-08	-3.316661e+01	-1.501070e+03
5.100000e-07	-4.597113e-06	-2.273973e-08	-3.227802e+01	-1.493134e+03
5.200000e-07	-4.468902e-06	-2.260180e-08	-3.137781e+01	-1.485237e+03
5.300000e-07	-4.339086e-06	-2.246366e-08	-3.046632e+01	-1.477196e+03
5.400000e-07	-4.207712e-06	-2.232248e-08	-2.954390e+01	-1.468759e+03
5.500000e-07	-4.074768e-06	-2.217754e-08	-2.861045e+01	-1.459675e+03
5.600000e-07	-3.940339e-06	-2.202461e-08	-2.766657e+01	-1.449771e+03
5.700000e-07	-3.804372e-06	-2.186777e-08	-2.671190e+01	-1.439009e+03
5.800000e-07	-3.666838e-06	-2.169912e-08	-2.574622e+01	-1.427494e+03
5.900000e-07	-3.527839e-06	-2.152094e-08	-2.477026e+01	-1.415442e+03
6.000000e-07	-3.387347e-06	-2.134093e-08	-2.378381e+01	-1.403104e+03
6.100000e-07	-3.245415e-06	-2.115554e-08	-2.278725e+01	-1.390674e+03
6.200000e-07	-3.102199e-06	-2.096168e-08	-2.178168e+01	-1.378217e+03
6.300000e-07	-2.957778e-06	-2.075547e-08	-2.076765e+01	-1.365626e+03
6.400000e-07	-2.812277e-06	-2.053959e-08	-1.974604e+01	-1.352633e+03
6.500000e-07	-2.665798e-06	-2.031008e-08	-1.871755e+01	-1.338883e+03
6.600000e-07	-2.518406e-06	-2.007541e-08	-1.768266e+01	-1.324025e+03
6.700000e-07	-2.370203e-06	-1.983321e-08	-1.664207e+01	-1.307819e+03
6.800000e-07	-2.221276e-06	-1.957796e-08	-1.559640e+01	-1.290205e+03
6.900000e-07	-2.071731e-06	-1.930501e-08	-1.454639e+01	-1.271315e+03
7.000000e-07	-1.921563e-06	-1.901479e-08	-1.349200e+01	-1.251424e+03
7.100000e-07	-1.770662e-06	-1.871018e-08	-1.243247e+01	-1.230842e+03
7.200000e-07	-1.618967e-06	-1.838640e-08	-1.136737e+01	-1.209779e+03
7.300000e-07	-1.466638e-06	-1.804542e-08	-1.029780e+01	-1.188237e+03
7.400000e-07	-1.313889e-06	-1.768609e-08	-9.225299e+00	-1.165947e+03
7.500000e-07	-1.160742e-06	-1.730526e-08	-8.149997e+00	-1.142392e+03
7.600000e-07	-1.007215e-06	-1.689661e-08	-7.072030e+00	-1.116907e+03
7.700000e-07	-8.533258e-07	-1.646102e-08	-5.991515e+00	-1.088840e+03
7.800000e-07	-6.990743e-07	-1.599358e-08	-4.908458e+00	-1.057709e+03
7.900000e-07	-5.445586e-07	-1.548932e-08	-3.823547e+00	-1.023317e+03
8.000000e-07	-3.898758e-07	-1.494438e-08	-2.737462e+00	-9.857559e+02
8.100000e-07	-2.350346e-07	-1.435151e-08	-1.650265e+00	-9.453018e+02
8.200000e-07	-7.998609e-08	-1.370436e-08	-5.616118e-01	-9.021840e+02
8.300000e-07	7.512107e-08	-1.299162e-08	5.274527e-01	-8.562976e+02
8.400000e-07	2.301809e-07	-1.220506e-08	1.616185e+00	-8.069281e+02
8.500000e-07	3.851989e-07	-1.133261e-08	2.704623e+00	-7.525768e+02
8.600000e-07	5.401274e-07	-1.035879e-08	3.792434e+00	-6.909627e+02
8.700000e-07	6.948949e-07	-9.257082e-09	4.879113e+00	-6.192423e+02
8.800000e-07	8.494001e-07	-7.990092e-09	5.963951e+00	-5.344360e+02
8.900000e-07	1.003633e-06	-6.509506e-09	7.046874e+00	-4.340000e+02
9.000000e-07	1.157510e-06	-4.751705e-09	8.127303e+00	-3.164364e+02
9.100000e-07	1.310948e-06	-2.664791e-09	9.204650e+00	-1.818129e+02
9.200000e-07	1.463984e-06	-3.182800e-10	1.027917e+01	-3.206968e+01
9.300000e-07	1.616609e-06	2.124322e-09	1.135081e+01	1.289719e+02
9.400000e-07	1.768697e-06	4.574893e-09	1.241867e+01	2.959276e+02
9.500000e-07	1.920094e-06	7.023196e-09	1.348169e+01	4.624554e+02
9.600000e-07	2.070667e-06	9.460575e-09	1.453892e+01	6.220476e+02
9.700000e-07	2.220303e-06	1.178626e-08	1.558957e+01	7.688665e+02
9.800000e-07	2.369012e-06	1.379834e-08	1.663371e+01	8.984704e+02
9.900000e-07	2.516870e-06	1.540457e-08	1.767187e+01	1.008300e+03
1.000000e-06	2.663739e-06	1.666768e-08	1.870309e+01	1.097845e+03
1.010000e-06	2.809613e-06	1.766892e-08	1.972733e+01	1.168472e+03
1.020000e-06	2.954568e-06	1.847372e-08	2.074511e+01	1.222970e+03
1.030000e-06	3.098409e-06	1.913295e-08	2.175507e+01	1.264928e+03
1.040000e-06	3.241013e-06	1.968036e-08	2.275635e+01	1.298064e+03
1.050000e-06	3.382351e-06	2.014243e-08	2.374874e+01	1.325642e+03
1.060000e-06	3.522442e-06	2.053870e-08	2.473236e+01	1.350093e+03
1.070000e-06	3.661218e-06	2.088653e-08	2.570676e+01	1.372857e+03
1.080000e-06	3.798608e-06	2.119874e-08	2.667143e+01	1.394472e+03
1.090000e-06	3.934496e-06	2.147999e-08	2.762555e+01	1.414820e+03
1.100000e-06	4.068835e-06	2.173473e-08	2.856879e+01	1.433471e+03
1.110000e-06	4.201745e-06	2.196581e-08	2.950200e+01	1.450003e+03
1.120000e-06	4.333220e-06	2.217694e-08	3.042513e+01	1.464239e+03
1.130000e-06	4.463216e-06	2.237063e-08	3.133789e+01	1.476345e+03
1.140000e-06	4.591621e-06	2.255045e-08	3.223946e+01	1.486798e+03
1.150000e-06	4.718415e-06	2.271814e-08	3.312973e+01	1.496241e+03
1.160000e-06	4.843599e-06	2.287486e-08	3.400869e+01	1.505308e+03
1.170000e-06	4.967139e-06	2.302311e-08	3.487611e+01	1.514449e+03
1.180000e-06	5.088988e-06	2.316479e-08	3.573166e+01	1.523837e+03
1.190000e-06	5.208950e-06	2.330075e-08	3.657396e+01	1.533357e+03
1.200000e-06	5.326964e-06	2.342967e-08	3.740258e+01	1.542683e+03
1.210000e-06	5.442995e-06	2.354893e-08	3.821727e+01	1.551409e+03
1.220000e-06	5.556916e-06	2.365871e-08	3.901715e+01	1.559199e+03
1.230000e-06	5.668640e-06	2.376094e-08	3.980161e+01	1.565889e+03
1.240000e-06	5.778292e-06	2.385644e-08	4.057152e+01	1.571544e+03
1.250000e-06	5.885973e-06	2.394656e-08	4.132759e+01	1.576426e+03
1.260000e-06	5.991562e-06	2.403138e-08	4.206896e+01	1.580914e+03
1.270000e-06	6.094885e-06	2.411120e-08	4.279444e+01	1.585385e+03
1.280000e-06	6.195908e-06	2.418842e-08	4.350375e+01	1.590110e+03
1.290000e-06	6.294664e-06	2.426202e-08	4.419716e+01	1.595181e+03
1.300000e-06	6.391007e-06	2.433263e-08	4.487362e+01	1.600506e+03
1.310000e-06	6.485001e-06	2.439971e-08	4.553359e+01	1.605847e+03
1.320000e-06	6.576762e-06	2.446483e-08	4.617787e+01	1.610914e+03
1.330000e-06	6.666162e-06	2.452955e-08	4.680558e+01	1.615459e+03
1.340000e-06	6.753165e-06	2.459186e-08	4.741646e+01	1.619353e+03
1.350000e-06	6.837849e-06	2.465020e-08	4.801106e+01	1.622625e+03
1.360000e-06	6.920118e-06	2.470539e-08	4.858870e+01	1.625443e+03
1.370000e-06	6.999815e-06	2.475827e-08	4.914828e+01	1.628058e+03
1.380000e-06	7.077002e-06	2.480741e-08	4.969024e+01	1.630721e+03
1.390000e-06	7.151564e-06	2.485531e-08	5.021377e+01	1.633605e+03
1.400000e-06	7.223403e-06	2.490239e-08	5.071817e+01	1.636754e+03
1.410000e-06	7.292721e-06	2.494637e-08	5.120488e+01	1.640074e+03
1.420000e-06	7.359464e-06	2.498666e-08	5.167351e+01	1.643371e+03
1.430000e-06	7.423543e-06	2.502586e-08	5.212343e+01	1.646412e+03
1.440000e-06	7.485157e-06	2.506341e-08	5.255605e+01	1.649005e+03
1.450000e-06	7.544221e-06	2.509994e-08	5.297076e+01	1.651059e+03
1.460000e-06	7.600563e-06	2.513320e-08	5.336635e+01	1.652606e+03
1.470000e-06	7.654144e-06	2.516179e-08	5.374257e+01	1.653796e+03
1.480000e-06	7.704658e-06	2.518870e-08	5.409724e+01	1.654840e+03
1.490000e-06	7.752030e-06	2.521435e-08	5.442986e+01	1.655950e+03
1.500000e-06	7.796637e-06	2.523892e-08	5.474306e+01	1.657267e+03
1.510000e-06	7.838523e-06	2.526034e-08	5.503716e+01	1.658824e+03
1.520000e-06	7.877514e-06	2.528013e-08	5.531093e+01	1.660536e+03
1.530000e-06	7.913795e-06	2.529904e-08	5.556567e+01	1.662233e+03
1.540000e-06	7.947315e-06	2.531614e-08	5.580103e+01	1.663712e+03
1.550000e-06	7.977947e-06	2.532979e-08	5.601611e+01	1.664809e+03
1.560000e-06	8.005805e-06	2.534112e-08	5.621170e+01	1.665444e+03
1.570000e-06	8.030710e-06	2.535153e-08	5.638658e+01	1.665653e+03
1.580000e-06	8.052680e-06	2.536163e-08	5.654083e+01	1.665568e+03
1.590000e-06	8.071943e-06	2.537089e-08	5.667609e+01	1.665384e+03
1.600000e-06	8.088273e-06	2.537792e-08	5.679074e+01	1.665291e+03
1.610000e-06	8.101509e-06	2.538445e-08	5.688368e+01	1.665418e+03
1.620000e-06	8.111570e-06	2.539042e-08	5.695432e+01	1.665796e+03
1.630000e-06	8.118515e-06	2.539517e-08	5.700308e+01	1.666347e+03
1.640000e-06	8.122666e-06	2.539741e-08	5.703223e+01	1.666912e+03
1.650000e-06	8.123986e-06	2.539773e-08	5.704150e+01	1.667301e+03
1.660000e-06	8.122484e-06	2.539311e-08	5.703095e+01	1.667351e+03
1.670000e-06	8.118294e-06	2.538166e-08	5.700153e+01	1.666979e+03
1.680000e-06	8.111280e-06	2.537689e-08	5.695229e+01	1.666204e+03
1.690000e-06	8.101552e-06	2.537017e-08	5.688398e+01	1.665138e+03
1.700000e-06	8.089100e-06	2.536113e-08	5.679655e+01	1.663954e+03
1.710000e-06	8.073835e-06	2.535608e-08	5.668937e+01	1.662828e+03
1.720000e-06	8.056047e-06	2.535111e-08	5.656447e+01	1.661888e+03
1.730000e-06	8.035934e-06	2.532321e-08	5.642325e+01	1.661176e+03
1.740000e-06	8.013092e-06	2.522147e-08	5.626287e+01	1.660641e+03
1.750000e-06	7.986731e-06	2.522037e-08	5.607778e+01	1.660156e+03
1.760000e-06	7.956600e-06	2.526217e-08	5.586622e+01	1.659568e+03
1.770000e-06	7.923319e-06	2.523388e-08	5.563254e+01	1.658742e+03
1.780000e-06	7.887662e-06	2.523841e-08	5.538219e+01	1.657607e+03
1.790000e-06	7.849693e-06	2.532140e-08	5.511559e+01	1.656178e+03
1.800000e-06	7.809643e-06	2.527892e-08	5.483438e+01	1.654543e+03
1.810000e-06	7.767459e-06	2.517261e-08	5.453819e+01	1.652834e+03
1.820000e-06	7.722475e-06	2.524917e-08	5.422234e+01	1.651173e+03
1.830000e-06	7.674762e-06	2.516734e-08	5.388733e+01	1.649628e+03
1.840000e-06	7.624192e-06	2.517560e-08	5.353226e+01	1.648185e+03
1.850000e-06	7.570535e-06	2.518974e-08	5.315552e+01	1.646745e+03
1.860000e-06	7.514073e-06	2.510877e-08	5.275908e+01	1.645151e+03
1.870000e-06	7.454908e-06	2.512299e-08	5.234366e+01	1.643236e+03
1.880000e-06	7.393102e-06	2.500098e-08	5.190970e+01	1.640875e+03
1.890000e-06	7.328452e-06	2.503710e-08	5.145576e+01	1.638028e+03
1.900000e-06	7.260905e-06	2.498098e-08	5.098149e+01	1.634752e+03
1.910000e-06	7.190514e-06	2.489390e-08	5.048725e+01	1.631190e+03
1.920000e-06	7.117269e-06	2.491408e-08	4.997297e+01	1.627527e+03
1.930000e-06	7.041306e-06	2.480501e-08	4.943960e+01	1.623931e+03
1.940000e-06	6.962576e-06	2.477719e-08	4.888681e+01	1.620507e+03
1.950000e-06	6.881235e-06	2.469597e-08	4.831568e+01	1.617257e+03
1.960000e-06	6.797387e-06	2.467612e-08	4.772696e+01	1.614080e+03
1.970000e-06	6.710944e-06	2.461315e-08	4.712001e+01	1.610805e+03
1.980000e-06	6.622050e-06	2.452118e-08	4.649585e+01	1.607241e+03
1.990000e-06	6.530910e-06	2.450247e-08	4.585593e+01	1.603238e+03
2.000000e-06	6.437505e-06	2.440688e-08	4.520010e+01	1.598732e+03
2.010000e-06	6.341721e-06	2.434626e-08	4.452756e+01	1.593768e+03
2.020000e-06	6.243702e-06	2.425189e-08	4.383933e+01	1.588485e+03
2.030000e-06	6.143420e-06	2.420052e-08	4.313521e+01	1.583069e+03
2.040000e-06	6.040820e-06	2.412256e-08	4.241483e+01	1.577695e+03
2.050000e-06	5.936096e-06	2.404782e-08	4.167952e+01	1.572468e+03
2.060000e-06	5.829406e-06	2.397824e-08	4.093041e+01	1.567383e+03
2.070000e-06	5.720721e-06	2.387787e-08	4.016729e+01	1.562323e+03
2.080000e-06	5.609999e-06	2.378496e-08	3.938987e+01	1.557093e+03
2.090000e-06	5.497218e-06	2.368216e-08	3.859799e+01	1.551477e+03
2.100000e-06	5.382276e-06	2.359951e-08	3.779094e+01	1.545303e+03
2.110000e-06	5.265197e-06	2.349612e-08	3.696889e+01	1.538499e+03
2.120000e-06	5.146103e-06	2.340496e-08	3.613269e+01	1.531114e+03
2.130000e-06	5.025195e-06	2.329632e-08	3.528375e+01	1.523302e+03
2.140000e-06	4.902525e-06	2.318268e-08	3.442243e+01	1.515272e+03
2.150000e-06	4.778036e-06	2.305935e-08	3.354835e+01	1.507218e+03
2.160000e-06	4.651754e-06	2.294438e-08	3.266168e+01	1.499252e+03
2.170000e-06	4.523801e-06	2.282163e-08	3.176328e+01	1.491357e+03
2.180000e-06	4.394258e-06	2.268737e-08	3.085370e+01	1.483389e+03
2.190000e-06	4.263122e-06	2.254942e-08	2.993295e+01	1.475109e+03
2.200000e-06	4.130414e-06	2.240415e-08	2.900116e+01	1.466257e+03
2.210000e-06	3.996147e-06	2.225608e-08	2.805842e+01	1.456628e+03
2.220000e-06	3.860361e-06	2.210103e-08	2.710502e+01	1.446138e+03
2.230000e-06	3.723107e-06	2.195127e-08	2.614131e+01	1.434846e+03
2.240000e-06	3.584426e-06	2.178747e-08	2.516758e+01	1.422940e+03
2.250000e-06	3.444274e-06	2.161444e-08	2.418352e+01	1.410668e+03
2.260000e-06	3.302780e-06	2.143077e-08	2.319003e+01	1.398254e+03
2.270000e-06	3.160044e-06	2.124062e-08	2.218783e+01	1.385810e+03
2.280000e-06	3.016085e-06	2.103984e-08	2.117705e+01	1.373284e+03
2.290000e-06	2.871075e-06	2.083218e-08	2.015888e+01	1.360458e+03
2.300000e-06	2.725111e-06	2.061419e-08	1.913401e+01	1.346992e+03
2.310000e-06	2.578228e-06	2.038266e-08	1.810269e+01	1.332524e+03
2.320000e-06	2.430369e-06	2.014054e-08	1.706451e+01	1.316768e+03
2.330000e-06	2.281578e-06	1.988779e-08	1.601980e+01	1.299602e+03
2.340000e-06	2.132043e-06	1.962358e-08	1.496986e+01	1.281097e+03
2.350000e-06	1.981787e-06	1.934588e-08	1.391486e+01	1.261494e+03
2.360000e-06	1.830790e-06	1.905471e-08	1.285465e+01	1.241104e+03
2.370000e-06	1.679187e-06	1.874469e-08	1.179019e+01	1.220184e+03
2.380000e-06	1.527114e-06	1.841132e-08	1.072243e+01	1.198813e+03
2.390000e-06	1.374593e-06	1.805605e-08	9.651525e+00	1.176810e+03
2.400000e-06	1.221677e-06	1.768406e-08	8.577844e+00	1.153730e+03
2.410000e-06	1.068415e-06	1.729182e-08	7.501733e+00	1.128941e+03
2.420000e-06	9.147742e-07	1.687088e-08	6.422967e+00	1.101768e+03
2.430000e-06	7.608121e-07	1.641779e-08	5.341942e+00	1.071660e+03
2.440000e-06	6.066188e-07	1.592855e-08	4.259294e+00	1.038319e+03
2.450000e-06	4.522056e-07	1.539676e-08	3.175102e+00	1.001752e+03
2.460000e-06	2.975724e-07	1.481855e-08	2.089366e+00	9.621957e+02
2.470000e-06	1.428148e-07	1.419044e-08	1.002756e+00	9.199240e+02
2.480000e-06	-1.200717e-08	1.350413e-08	-8.430677e-02	8.749719e+02
2.490000e-06	-1.668151e-07	1.274991e-08	-1.171270e+00	8.268464e+02
2.500000e-06	-3.215281e-07	1.191533e-08	-2.257568e+00	7.743104e+02
2.510000e-06	-4.761756e-07	1.098527e-08	-3.343404e+00	7.153213e+02
2.520000e-06	-6.307233e-07	9.935180e-09	-4.428540e+00	6.471788e+02
2.530000e-06	-7.850483e-07	8.732763e-09	-5.512113e+00	5.668901e+02
2.540000e-06	-9.391072e-07	7.338956e-09	-6.593818e+00	4.717039e+02
2.550000e-06	-1.092874e-06	5.697720e-09	-7.673469e+00	3.597226e+02
2.560000e-06	-1.246256e-06	3.737999e-09	-8.750422e+00	2.304648e+02
2.570000e-06	-1.399226e-06	1.449201e-09	-9.824482e+00	8.525228e+01
2.580000e-06	-1.551726e-06	-1.026919e-09	-1.089524e+01	-7.267908e+01
2.590000e-06	-1.703657e-06	-3.542668e-09	-1.196201e+01	-2.383936e+02
2.600000e-06	-1.854960e-06	-6.059579e-09	-1.302436e+01	-4.057772e+02
2.610000e-06	-2.005499e-06	-8.572243e-09	-1.408135e+01	-5.682833e+02
2.620000e-06	-2.155232e-06	-1.101964e-08	-1.513268e+01	-7.197713e+02
2.630000e-06	-2.304222e-06	-1.320585e-08	-1.617879e+01	-8.552841e+02
2.640000e-06	-2.452326e-06	-1.498225e-08	-1.721869e+01	-9.716232e+02
2.650000e-06	-2.599461e-06	-1.638096e-08	-1.825178e+01	-1.067622e+03
2.660000e-06	-2.745636e-06	-1.748364e-08	-1.927812e+01	-1.144081e+03
2.670000e-06	-2.890800e-06	-1.836239e-08	-2.029737e+01	-1.203396e+03
2.680000e-06	-3.034958e-06	-1.907507e-08	-2.130956e+01	-1.248973e+03
2.690000e-06	-3.177957e-06	-1.966511e-08	-2.231361e+01	-1.284556e+03
2.700000e-06	-3.319717e-06	-2.016101e-08	-2.330896e+01	-1.313609e+03
2.710000e-06	-3.460177e-06	-2.058443e-08	-2.429518e+01	-1.338860e+03
2.720000e-06	-3.599186e-06	-2.095154e-08	-2.527121e+01	-1.362068e+03
2.730000e-06	-3.736818e-06	-2.127317e-08	-2.623757e+01	-1.384039e+03
2.740000e-06	-3.873139e-06	-2.156129e-08	-2.719473e+01	-1.404833e+03
2.750000e-06	-4.008108e-06	-2.182222e-08	-2.814240e+01	-1.424081e+03
2.760000e-06	-4.141665e-06	-2.206081e-08	-2.908016e+01	-1.441328e+03
2.770000e-06	-4.273694e-06	-2.228203e-08	-3.000718e+01	-1.456300e+03
2.780000e-06	-4.404200e-06	-2.248632e-08	-3.092351e+01	-1.469051e+03
2.790000e-06	-4.533247e-06	-2.267258e-08	-3.182959e+01	-1.479969e+03
2.800000e-06	-4.660756e-06	-2.284075e-08	-3.272489e+01	-1.489663e+03
2.810000e-06	-4.786611e-06	-2.299480e-08	-3.360856e+01	-1.498789e+03
2.820000e-06	-4.910696e-06	-2.314138e-08	-3.447981e+01	-1.507873e+03
2.830000e-06	-5.033032e-06	-2.328136e-08	-3.533877e+01	-1.517181e+03
2.840000e-06	-5.153644e-06	-2.341390e-08	-3.618563e+01	-1.526685e+03
2.850000e-06	-5.272375e-06	-2.353734e-08	-3.701929e+01	-1.536116e+03
2.860000e-06	-5.388922e-06	-2.365407e-08	-3.783761e+01	-1.545078e+03
2.870000e-06	-5.503213e-06	-2.376402e-08	-3.864009e+01	-1.553196e+03
2.880000e-06	-5.615323e-06	-2.386658e-08	-3.942725e+01	-1.560243e+03
2.890000e-06	-5.725288e-06	-2.396249e-08	-4.019936e+01	-1.566209e+03
2.900000e-06	-5.833232e-06	-2.405085e-08	-4.095727e+01	-1.571302e+03
2.910000e-06	-5.939242e-06	-2.413486e-08	-4.170161e+01	-1.575872e+03
2.920000e-06	-6.043137e-06	-2.421499e-08	-4.243109e+01	-1.580311e+03
2.930000e-06	-6.144685e-06	-2.429057e-08	-4.314410e+01	-1.584934e+03
2.940000e-06	-6.243933e-06	-2.436253e-08	-4.384096e+01	-1.589896e+03
