# Temperatura_=_87.53
# Concentracion g/m^3_=_41000.0
# C_Vs_to_Am_M_A/Vsm_=_65563218390.804596
# pendiente_HvsI_1/m_=_3716.3
# ordenada_HvsI_A/m_=_1297.0
# frecuencia_Hz_=_302487.24013182207

Tiempo_(s)	Campo_(V.s)	Magnetizacion_(V.s)	Campo_(kA/m)	Magnetizacion_(A/m)
0.000000e+00	-8.044064e-06	-2.420228e-08	-5.687956e+01	-1.587081e+03
1.000000e-08	-8.041828e-06	-2.420068e-08	-5.686375e+01	-1.586451e+03
2.000000e-08	-8.036845e-06	-2.419324e-08	-5.682851e+01	-1.585340e+03
3.000000e-08	-8.029297e-06	-2.418271e-08	-5.677514e+01	-1.583952e+03
4.000000e-08	-8.019026e-06	-2.417148e-08	-5.670251e+01	-1.582531e+03
5.000000e-08	-8.005804e-06	-2.415750e-08	-5.660902e+01	-1.581289e+03
6.000000e-08	-7.989583e-06	-2.413984e-08	-5.649432e+01	-1.580340e+03
7.000000e-08	-7.970792e-06	-2.412361e-08	-5.636145e+01	-1.579667e+03
8.000000e-08	-7.949744e-06	-2.411778e-08	-5.621262e+01	-1.579134e+03
9.000000e-08	-7.925918e-06	-2.413156e-08	-5.604414e+01	-1.578530e+03
1.000000e-07	-7.898771e-06	-2.412206e-08	-5.585219e+01	-1.577648e+03
1.100000e-07	-7.868497e-06	-2.407539e-08	-5.563812e+01	-1.576347e+03
1.200000e-07	-7.835426e-06	-2.403054e-08	-5.540428e+01	-1.574603e+03
1.300000e-07	-7.799642e-06	-2.398420e-08	-5.515125e+01	-1.572512e+03
1.400000e-07	-7.761471e-06	-2.391943e-08	-5.488134e+01	-1.570260e+03
1.500000e-07	-7.721196e-06	-2.388458e-08	-5.459656e+01	-1.568057e+03
1.600000e-07	-7.678477e-06	-2.389777e-08	-5.429449e+01	-1.566064e+03
1.700000e-07	-7.632975e-06	-2.387307e-08	-5.397275e+01	-1.564329e+03
1.800000e-07	-7.584712e-06	-2.382166e-08	-5.363148e+01	-1.562772e+03
1.900000e-07	-7.533416e-06	-2.378915e-08	-5.326877e+01	-1.561192e+03
2.000000e-07	-7.479119e-06	-2.372368e-08	-5.288483e+01	-1.559334e+03
2.100000e-07	-7.422136e-06	-2.363650e-08	-5.248191e+01	-1.556958e+03
2.200000e-07	-7.362459e-06	-2.361094e-08	-5.205993e+01	-1.553921e+03
2.300000e-07	-7.300137e-06	-2.360615e-08	-5.161925e+01	-1.550220e+03
2.400000e-07	-7.235116e-06	-2.353934e-08	-5.115949e+01	-1.545996e+03
2.500000e-07	-7.167329e-06	-2.345332e-08	-5.068017e+01	-1.541498e+03
2.600000e-07	-7.096825e-06	-2.342687e-08	-5.018164e+01	-1.537002e+03
2.700000e-07	-7.023511e-06	-2.338945e-08	-4.966323e+01	-1.532732e+03
2.800000e-07	-6.947398e-06	-2.329000e-08	-4.912504e+01	-1.528788e+03
2.900000e-07	-6.868489e-06	-2.322314e-08	-4.856707e+01	-1.525113e+03
3.000000e-07	-6.786824e-06	-2.318564e-08	-4.798961e+01	-1.521511e+03
3.100000e-07	-6.702784e-06	-2.309806e-08	-4.739537e+01	-1.517706e+03
3.200000e-07	-6.616531e-06	-2.299168e-08	-4.678548e+01	-1.513430e+03
3.300000e-07	-6.527899e-06	-2.293844e-08	-4.615876e+01	-1.508504e+03
3.400000e-07	-6.436846e-06	-2.287830e-08	-4.551493e+01	-1.502899e+03
3.500000e-07	-6.343536e-06	-2.278179e-08	-4.485513e+01	-1.496744e+03
3.600000e-07	-6.247921e-06	-2.269805e-08	-4.417903e+01	-1.490289e+03
3.700000e-07	-6.149919e-06	-2.261924e-08	-4.348606e+01	-1.483825e+03
3.800000e-07	-6.049733e-06	-2.252423e-08	-4.277764e+01	-1.477592e+03
3.900000e-07	-5.947466e-06	-2.242388e-08	-4.205452e+01	-1.471704e+03
4.000000e-07	-5.843032e-06	-2.233295e-08	-4.131607e+01	-1.466100e+03
4.100000e-07	-5.736467e-06	-2.223213e-08	-4.056255e+01	-1.460570e+03
4.200000e-07	-5.627984e-06	-2.212567e-08	-3.979546e+01	-1.454808e+03
4.300000e-07	-5.517576e-06	-2.202899e-08	-3.901477e+01	-1.448511e+03
4.400000e-07	-5.405097e-06	-2.192752e-08	-3.821943e+01	-1.441472e+03
4.500000e-07	-5.290503e-06	-2.180923e-08	-3.740913e+01	-1.433645e+03
4.600000e-07	-5.173851e-06	-2.168819e-08	-3.658428e+01	-1.425164e+03
4.700000e-07	-5.055268e-06	-2.157125e-08	-3.574579e+01	-1.416299e+03
4.800000e-07	-4.934874e-06	-2.144281e-08	-3.489448e+01	-1.407373e+03
4.900000e-07	-4.812707e-06	-2.131084e-08	-3.403064e+01	-1.398651e+03
5.000000e-07	-4.688776e-06	-2.118639e-08	-3.315433e+01	-1.390257e+03
5.100000e-07	-4.563202e-06	-2.105630e-08	-3.226639e+01	-1.382117e+03
5.200000e-07	-4.435999e-06	-2.090899e-08	-3.136694e+01	-1.373982e+03
5.300000e-07	-4.307131e-06	-2.075522e-08	-3.045572e+01	-1.365493e+03
5.400000e-07	-4.176644e-06	-2.060246e-08	-2.953304e+01	-1.356291e+03
5.500000e-07	-4.044607e-06	-2.044794e-08	-2.859941e+01	-1.346131e+03
5.600000e-07	-3.911107e-06	-2.028838e-08	-2.765543e+01	-1.334960e+03
5.700000e-07	-3.776099e-06	-2.012145e-08	-2.670079e+01	-1.322940e+03
5.800000e-07	-3.639597e-06	-1.994489e-08	-2.573558e+01	-1.310396e+03
5.900000e-07	-3.501632e-06	-1.975981e-08	-2.476003e+01	-1.297713e+03
6.000000e-07	-3.362261e-06	-1.957200e-08	-2.377454e+01	-1.285206e+03
6.100000e-07	-3.221486e-06	-1.938028e-08	-2.277912e+01	-1.273006e+03
6.200000e-07	-3.079336e-06	-1.918139e-08	-2.177398e+01	-1.260996e+03
6.300000e-07	-2.935922e-06	-1.897404e-08	-2.075989e+01	-1.248829e+03
6.400000e-07	-2.791399e-06	-1.875848e-08	-1.973798e+01	-1.236018e+03
6.500000e-07	-2.645910e-06	-1.853107e-08	-1.870923e+01	-1.222076e+03
6.600000e-07	-2.499483e-06	-1.829475e-08	-1.767384e+01	-1.206664e+03
6.700000e-07	-2.352239e-06	-1.805238e-08	-1.663268e+01	-1.189699e+03
6.800000e-07	-2.204311e-06	-1.779875e-08	-1.558668e+01	-1.171386e+03
6.900000e-07	-2.055695e-06	-1.752847e-08	-1.453582e+01	-1.152150e+03
7.000000e-07	-1.906342e-06	-1.724244e-08	-1.347974e+01	-1.132491e+03
7.100000e-07	-1.756388e-06	-1.694449e-08	-1.241941e+01	-1.112803e+03
7.200000e-07	-1.605935e-06	-1.663124e-08	-1.135556e+01	-1.093200e+03
7.300000e-07	-1.454994e-06	-1.630204e-08	-1.028826e+01	-1.073426e+03
7.400000e-07	-1.303522e-06	-1.595569e-08	-9.217204e+00	-1.052866e+03
7.500000e-07	-1.151476e-06	-1.558934e-08	-8.142083e+00	-1.030678e+03
7.600000e-07	-9.989641e-07	-1.519969e-08	-7.063673e+00	-1.006003e+03
7.700000e-07	-8.460853e-07	-1.478202e-08	-5.982667e+00	-9.781994e+02
7.800000e-07	-6.929241e-07	-1.433313e-08	-4.899665e+00	-9.470171e+02
7.900000e-07	-5.394857e-07	-1.384775e-08	-3.814702e+00	-9.126446e+02
8.000000e-07	-3.857926e-07	-1.332055e-08	-2.727939e+00	-8.755944e+02
8.100000e-07	-2.319508e-07	-1.274759e-08	-1.640124e+00	-8.364306e+02
8.200000e-07	-7.800624e-08	-1.212021e-08	-5.515820e-01	-7.953978e+02
8.300000e-07	7.596177e-08	-1.142487e-08	5.371255e-01	-7.520465e+02
8.400000e-07	2.299026e-07	-1.064660e-08	1.625641e+00	-7.049712e+02
8.500000e-07	3.838076e-07	-9.770703e-09	2.713903e+00	-6.517588e+02
8.600000e-07	5.376637e-07	-8.779218e-09	3.801819e+00	-5.892062e+02
8.700000e-07	6.913932e-07	-7.641941e-09	4.888840e+00	-5.138039e+02
8.800000e-07	8.448932e-07	-6.311596e-09	5.974238e+00	-4.224104e+02
8.900000e-07	9.981445e-07	-4.723503e-09	7.057877e+00	-3.129905e+02
9.000000e-07	1.151038e-06	-2.808434e-09	8.138988e+00	-1.852565e+02
9.100000e-07	1.303435e-06	-5.698589e-10	9.216587e+00	-4.106114e+01
9.200000e-07	1.455241e-06	1.844866e-09	1.029000e+01	1.155673e+02
9.300000e-07	1.606456e-06	4.295350e-09	1.135925e+01	2.787837e+02
9.400000e-07	1.757191e-06	6.746704e-09	1.242510e+01	4.416318e+02
9.500000e-07	1.907402e-06	9.169890e-09	1.348724e+01	5.969742e+02
9.600000e-07	2.056876e-06	1.140795e-08	1.454417e+01	7.384704e+02
9.700000e-07	2.205471e-06	1.325971e-08	1.559488e+01	8.614190e+02
9.800000e-07	2.353155e-06	1.469550e-08	1.663915e+01	9.633040e+02
9.900000e-07	2.499949e-06	1.580310e-08	1.767713e+01	1.043952e+03
1.000000e-06	2.645894e-06	1.666827e-08	1.870911e+01	1.105289e+03
1.010000e-06	2.790915e-06	1.735604e-08	1.973455e+01	1.150768e+03
1.020000e-06	2.934912e-06	1.791456e-08	2.075276e+01	1.184605e+03
1.030000e-06	3.077804e-06	1.838053e-08	2.176315e+01	1.210985e+03
1.040000e-06	3.219460e-06	1.877659e-08	2.276480e+01	1.233406e+03
1.050000e-06	3.359809e-06	1.912029e-08	2.375720e+01	1.254268e+03
1.060000e-06	3.498861e-06	1.942503e-08	2.474044e+01	1.274760e+03
1.070000e-06	3.636603e-06	1.970172e-08	2.571441e+01	1.295021e+03
1.080000e-06	3.772905e-06	1.995696e-08	2.667820e+01	1.314505e+03
1.090000e-06	3.907744e-06	2.018892e-08	2.763165e+01	1.332413e+03
1.100000e-06	4.041191e-06	2.040379e-08	2.857525e+01	1.348091e+03
1.110000e-06	4.173183e-06	2.060453e-08	2.950857e+01	1.361294e+03
1.120000e-06	4.303722e-06	2.079088e-08	3.043161e+01	1.372271e+03
1.130000e-06	4.432828e-06	2.096368e-08	3.134452e+01	1.381669e+03
1.140000e-06	4.560332e-06	2.112762e-08	3.224610e+01	1.390332e+03
1.150000e-06	4.686254e-06	2.128543e-08	3.313649e+01	1.399043e+03
1.160000e-06	4.810609e-06	2.143380e-08	3.401581e+01	1.408314e+03
1.170000e-06	4.933310e-06	2.157648e-08	3.488342e+01	1.418273e+03
1.180000e-06	5.054229e-06	2.171567e-08	3.573844e+01	1.428669e+03
1.190000e-06	5.173246e-06	2.185131e-08	3.658001e+01	1.438998e+03
1.200000e-06	5.290387e-06	2.198184e-08	3.740831e+01	1.448685e+03
1.210000e-06	5.405535e-06	2.210434e-08	3.822253e+01	1.457273e+03
1.220000e-06	5.518561e-06	2.221828e-08	3.902173e+01	1.464561e+03
1.230000e-06	5.629497e-06	2.232375e-08	3.980616e+01	1.470655e+03
1.240000e-06	5.738468e-06	2.242332e-08	4.057670e+01	1.475917e+03
1.250000e-06	5.845435e-06	2.251958e-08	4.133305e+01	1.480843e+03
1.260000e-06	5.950228e-06	2.261366e-08	4.207405e+01	1.485905e+03
1.270000e-06	6.052782e-06	2.270483e-08	4.279921e+01	1.491417e+03
1.280000e-06	6.153129e-06	2.279321e-08	4.350876e+01	1.497449e+03
1.290000e-06	6.251206e-06	2.287899e-08	4.420226e+01	1.503830e+03
1.300000e-06	6.346897e-06	2.295930e-08	4.487889e+01	1.510219e+03
1.310000e-06	6.440330e-06	2.303278e-08	4.553956e+01	1.516227e+03
1.320000e-06	6.531564e-06	2.310302e-08	4.618467e+01	1.521545e+03
1.330000e-06	6.620386e-06	2.317208e-08	4.681273e+01	1.526040e+03
1.340000e-06	6.706798e-06	2.324014e-08	4.742376e+01	1.529794e+03
1.350000e-06	6.790885e-06	2.330819e-08	4.801833e+01	1.533065e+03
1.360000e-06	6.872604e-06	2.337497e-08	4.859617e+01	1.536206e+03
1.370000e-06	6.951851e-06	2.343903e-08	4.915652e+01	1.539546e+03
1.380000e-06	7.028513e-06	2.349907e-08	4.969860e+01	1.543287e+03
1.390000e-06	7.102501e-06	2.355755e-08	5.022177e+01	1.547449e+03
1.400000e-06	7.173848e-06	2.361383e-08	5.072626e+01	1.551868e+03
1.410000e-06	7.242679e-06	2.366576e-08	5.121297e+01	1.556248e+03
1.420000e-06	7.308924e-06	2.371375e-08	5.168138e+01	1.560267e+03
1.430000e-06	7.372518e-06	2.375944e-08	5.213105e+01	1.563669e+03
1.440000e-06	7.433606e-06	2.380426e-08	5.256301e+01	1.566349e+03
1.450000e-06	7.492156e-06	2.384797e-08	5.297702e+01	1.568378e+03
1.460000e-06	7.548023e-06	2.389171e-08	5.337205e+01	1.569979e+03
1.470000e-06	7.601118e-06	2.393316e-08	5.374749e+01	1.571450e+03
1.480000e-06	7.651124e-06	2.397132e-08	5.410108e+01	1.573071e+03
1.490000e-06	7.698129e-06	2.400418e-08	5.443345e+01	1.575016e+03
1.500000e-06	7.742451e-06	2.403227e-08	5.474685e+01	1.577303e+03
1.510000e-06	7.783965e-06	2.405815e-08	5.504040e+01	1.579790e+03
1.520000e-06	7.822683e-06	2.408220e-08	5.531417e+01	1.582227e+03
1.530000e-06	7.858692e-06	2.410495e-08	5.556879e+01	1.584335e+03
1.540000e-06	7.891891e-06	2.412564e-08	5.580354e+01	1.585894e+03
1.550000e-06	7.922304e-06	2.414443e-08	5.601860e+01	1.586816e+03
1.560000e-06	7.949964e-06	2.416087e-08	5.621418e+01	1.587168e+03
1.570000e-06	7.974683e-06	2.417444e-08	5.638897e+01	1.587150e+03
1.580000e-06	7.996513e-06	2.418679e-08	5.654333e+01	1.587031e+03
1.590000e-06	8.015622e-06	2.419870e-08	5.667845e+01	1.587068e+03
1.600000e-06	8.031786e-06	2.420768e-08	5.679274e+01	1.587420e+03
1.610000e-06	8.044865e-06	2.421366e-08	5.688522e+01	1.588109e+03
1.620000e-06	8.054794e-06	2.421844e-08	5.695543e+01	1.589007e+03
1.630000e-06	8.061658e-06	2.422192e-08	5.700396e+01	1.589889e+03
1.640000e-06	8.065745e-06	2.422278e-08	5.703286e+01	1.590495e+03
1.650000e-06	8.066966e-06	2.422248e-08	5.704150e+01	1.590619e+03
1.660000e-06	8.065360e-06	2.421897e-08	5.703014e+01	1.590169e+03
1.670000e-06	8.061191e-06	2.421275e-08	5.700066e+01	1.589195e+03
1.680000e-06	8.054320e-06	2.420465e-08	5.695208e+01	1.587869e+03
1.690000e-06	8.044725e-06	2.419284e-08	5.688424e+01	1.586432e+03
1.700000e-06	8.032326e-06	2.417986e-08	5.679656e+01	1.585114e+03
1.710000e-06	8.017076e-06	2.416830e-08	5.668873e+01	1.584066e+03
1.720000e-06	7.999366e-06	2.415415e-08	5.656350e+01	1.583314e+03
1.730000e-06	7.979393e-06	2.411436e-08	5.642227e+01	1.582756e+03
1.740000e-06	7.956676e-06	2.405050e-08	5.626164e+01	1.582199e+03
1.750000e-06	7.930490e-06	2.403478e-08	5.607648e+01	1.581426e+03
1.760000e-06	7.900581e-06	2.404183e-08	5.586499e+01	1.580268e+03
1.770000e-06	7.867495e-06	2.402286e-08	5.563104e+01	1.578661e+03
1.780000e-06	7.832040e-06	2.403067e-08	5.538034e+01	1.576664e+03
1.790000e-06	7.794359e-06	2.404300e-08	5.511390e+01	1.574440e+03
1.800000e-06	7.754567e-06	2.401376e-08	5.483253e+01	1.572200e+03
1.810000e-06	7.712591e-06	2.397569e-08	5.453571e+01	1.570127e+03
1.820000e-06	7.667950e-06	2.395600e-08	5.422006e+01	1.568312e+03
1.830000e-06	7.620643e-06	2.393140e-08	5.388555e+01	1.566714e+03
1.840000e-06	7.570488e-06	2.391857e-08	5.353090e+01	1.565168e+03
1.850000e-06	7.517250e-06	2.391240e-08	5.315446e+01	1.563427e+03
1.860000e-06	7.461107e-06	2.387630e-08	5.275747e+01	1.561239e+03
1.870000e-06	7.402252e-06	2.379552e-08	5.234130e+01	1.558422e+03
1.880000e-06	7.340825e-06	2.370864e-08	5.190696e+01	1.554925e+03
1.890000e-06	7.276580e-06	2.369003e-08	5.145268e+01	1.550846e+03
1.900000e-06	7.209493e-06	2.363165e-08	5.097831e+01	1.546405e+03
1.910000e-06	7.139694e-06	2.356335e-08	5.048476e+01	1.541879e+03
1.920000e-06	7.067080e-06	2.353746e-08	4.997130e+01	1.537519e+03
1.930000e-06	6.991699e-06	2.345850e-08	4.943829e+01	1.533468e+03
1.940000e-06	6.913538e-06	2.337455e-08	4.888561e+01	1.529721e+03
1.950000e-06	6.832746e-06	2.330907e-08	4.831433e+01	1.526123e+03
1.960000e-06	6.749450e-06	2.326950e-08	4.772535e+01	1.522415e+03
1.970000e-06	6.663570e-06	2.318154e-08	4.711809e+01	1.518315e+03
1.980000e-06	6.575246e-06	2.308610e-08	4.649355e+01	1.513609e+03
1.990000e-06	6.484675e-06	2.303006e-08	4.585312e+01	1.508215e+03
2.000000e-06	6.391891e-06	2.294771e-08	4.519704e+01	1.502214e+03
2.010000e-06	6.296737e-06	2.285966e-08	4.452421e+01	1.495823e+03
2.020000e-06	6.199347e-06	2.276762e-08	4.383557e+01	1.489331e+03
2.030000e-06	6.099783e-06	2.269154e-08	4.313155e+01	1.483004e+03
2.040000e-06	5.997983e-06	2.259551e-08	4.241172e+01	1.477003e+03
2.050000e-06	5.894029e-06	2.249727e-08	4.167666e+01	1.471324e+03
2.060000e-06	5.788048e-06	2.240809e-08	4.092728e+01	1.465800e+03
2.070000e-06	5.680135e-06	2.230245e-08	4.016422e+01	1.460148e+03
2.080000e-06	5.570189e-06	2.218954e-08	3.938680e+01	1.454051e+03
2.090000e-06	5.458177e-06	2.207883e-08	3.859475e+01	1.447264e+03
2.100000e-06	5.344096e-06	2.197755e-08	3.778809e+01	1.439683e+03
2.110000e-06	5.227985e-06	2.186598e-08	3.696707e+01	1.431388e+03
2.120000e-06	5.109801e-06	2.175343e-08	3.613139e+01	1.422611e+03
2.130000e-06	4.989702e-06	2.163333e-08	3.528217e+01	1.413671e+03
2.140000e-06	4.867860e-06	2.150192e-08	3.442063e+01	1.404862e+03
2.150000e-06	4.744282e-06	2.136561e-08	3.354680e+01	1.396360e+03
2.160000e-06	4.618953e-06	2.123574e-08	3.266060e+01	1.388157e+03
2.170000e-06	4.491896e-06	2.110097e-08	3.176219e+01	1.380057e+03
2.180000e-06	4.363184e-06	2.095574e-08	3.085207e+01	1.371722e+03
2.190000e-06	4.232913e-06	2.080711e-08	2.993092e+01	1.362783e+03
2.200000e-06	4.101096e-06	2.065527e-08	2.899884e+01	1.352947e+03
2.210000e-06	3.967716e-06	2.049795e-08	2.805571e+01	1.342093e+03
2.220000e-06	3.832850e-06	2.033435e-08	2.710207e+01	1.330316e+03
2.230000e-06	3.696535e-06	2.017164e-08	2.613819e+01	1.317898e+03
2.240000e-06	3.558837e-06	2.000045e-08	2.516453e+01	1.305219e+03
2.250000e-06	3.419772e-06	1.981853e-08	2.418120e+01	1.292631e+03
2.260000e-06	3.279410e-06	1.962820e-08	2.318870e+01	1.280332e+03
2.270000e-06	3.137765e-06	1.943112e-08	2.218713e+01	1.268288e+03
2.280000e-06	2.994832e-06	1.922615e-08	2.117645e+01	1.256221e+03
2.290000e-06	2.850746e-06	1.901512e-08	2.015762e+01	1.243673e+03
2.300000e-06	2.705639e-06	1.879614e-08	1.913157e+01	1.230141e+03
2.310000e-06	2.559648e-06	1.856525e-08	1.809927e+01	1.215223e+03
2.320000e-06	2.412834e-06	1.832208e-08	1.706115e+01	1.198748e+03
2.330000e-06	2.265129e-06	1.806944e-08	1.601672e+01	1.180830e+03
2.340000e-06	2.116592e-06	1.780887e-08	1.496642e+01	1.161836e+03
2.350000e-06	1.967369e-06	1.753715e-08	1.391126e+01	1.142261e+03
2.360000e-06	1.817511e-06	1.725278e-08	1.285161e+01	1.122553e+03
2.370000e-06	1.667065e-06	1.695089e-08	1.178782e+01	1.102932e+03
2.380000e-06	1.516085e-06	1.662827e-08	1.072023e+01	1.083264e+03
2.390000e-06	1.364638e-06	1.628614e-08	9.649354e+00	1.063041e+03
2.400000e-06	1.212779e-06	1.592816e-08	8.575559e+00	1.041473e+03
2.410000e-06	1.060554e-06	1.555076e-08	7.499173e+00	1.017682e+03
2.420000e-06	9.079459e-07	1.514521e-08	6.420083e+00	9.909324e+02
2.430000e-06	7.549783e-07	1.470837e-08	5.338450e+00	9.608357e+02
2.440000e-06	6.017353e-07	1.423726e-08	4.254869e+00	9.274438e+02
2.450000e-06	4.482594e-07	1.372658e-08	3.169641e+00	8.911879e+02
2.460000e-06	2.946310e-07	1.316992e-08	2.083335e+00	8.526532e+02
2.470000e-06	1.408474e-07	1.256021e-08	9.959314e-01	8.122297e+02
2.480000e-06	-1.307567e-08	1.188756e-08	-9.245806e-02	7.697273e+02
2.490000e-06	-1.670302e-07	1.114215e-08	-1.181070e+00	7.240652e+02
2.500000e-06	-3.209134e-07	1.031181e-08	-2.269178e+00	6.731439e+02
2.510000e-06	-4.746666e-07	9.376086e-09	-3.356367e+00	6.139734e+02
2.520000e-06	-6.282933e-07	8.300334e-09	-4.442660e+00	5.430762e+02
2.530000e-06	-7.816912e-07	7.043219e-09	-5.527337e+00	4.571120e+02
2.540000e-06	-9.348269e-07	5.555237e-09	-6.610159e+00	3.536121e+02
2.550000e-06	-1.087638e-06	3.769321e-09	-7.690683e+00	2.316696e+02
2.560000e-06	-1.240002e-06	1.634543e-09	-8.768049e+00	9.242670e+01
2.570000e-06	-1.391882e-06	-7.713047e-10	-9.841998e+00	-6.076727e+01
2.580000e-06	-1.543255e-06	-3.275613e-09	-1.091235e+01	-2.225890e+02
2.590000e-06	-1.694159e-06	-5.791036e-09	-1.197940e+01	-3.863456e+02
2.600000e-06	-1.844472e-06	-8.297260e-09	-1.304226e+01	-5.448496e+02
2.610000e-06	-1.994041e-06	-1.067660e-08	-1.409986e+01	-6.914025e+02
2.620000e-06	-2.142766e-06	-1.271349e-08	-1.515149e+01	-8.206995e+02
2.630000e-06	-2.290641e-06	-1.431643e-08	-1.619712e+01	-9.294855e+02
2.640000e-06	-2.437737e-06	-1.555117e-08	-1.723723e+01	-1.016842e+03
2.650000e-06	-2.584017e-06	-1.650986e-08	-1.827158e+01	-1.084069e+03
2.660000e-06	-2.729320e-06	-1.726574e-08	-1.929902e+01	-1.134206e+03
2.670000e-06	-2.873514e-06	-1.787296e-08	-2.031861e+01	-1.171312e+03
2.680000e-06	-3.016640e-06	-1.837209e-08	-2.133066e+01	-1.199664e+03
2.690000e-06	-3.158593e-06	-1.879240e-08	-2.233441e+01	-1.223038e+03
2.700000e-06	-3.299217e-06	-1.915537e-08	-2.332875e+01	-1.244215e+03
2.710000e-06	-3.438513e-06	-1.947414e-08	-2.431372e+01	-1.264766e+03
2.720000e-06	-3.576499e-06	-1.975900e-08	-2.528941e+01	-1.285137e+03
2.730000e-06	-3.713113e-06	-2.001737e-08	-2.625541e+01	-1.304955e+03
2.740000e-06	-3.848410e-06	-2.025516e-08	-2.721210e+01	-1.323455e+03
2.750000e-06	-3.982387e-06	-2.047723e-08	-2.815945e+01	-1.339900e+03
2.760000e-06	-4.114879e-06	-2.068561e-08	-2.909630e+01	-1.353895e+03
2.770000e-06	-4.245917e-06	-2.087933e-08	-3.002287e+01	-1.365533e+03
2.780000e-06	-4.375586e-06	-2.105788e-08	-3.093976e+01	-1.375351e+03
2.790000e-06	-4.503766e-06	-2.122288e-08	-3.184612e+01	-1.384158e+03
2.800000e-06	-4.630374e-06	-2.137692e-08	-3.274137e+01	-1.392781e+03
2.810000e-06	-4.755327e-06	-2.152249e-08	-3.362490e+01	-1.401839e+03
2.820000e-06	-4.878546e-06	-2.166426e-08	-3.449619e+01	-1.411588e+03
2.830000e-06	-5.000088e-06	-2.180402e-08	-3.535561e+01	-1.421890e+03
2.840000e-06	-5.119837e-06	-2.193907e-08	-3.620235e+01	-1.432305e+03
2.850000e-06	-5.237579e-06	-2.206571e-08	-3.703491e+01	-1.442257e+03
2.860000e-06	-5.353196e-06	-2.218450e-08	-3.785244e+01	-1.451235e+03
2.870000e-06	-5.466595e-06	-2.229672e-08	-3.865428e+01	-1.458944e+03
2.880000e-06	-5.577816e-06	-2.240246e-08	-3.944072e+01	-1.465393e+03
2.890000e-06	-5.686969e-06	-2.250445e-08	-4.021255e+01	-1.470873e+03
2.900000e-06	-5.794159e-06	-2.260221e-08	-4.097048e+01	-1.475851e+03
2.910000e-06	-5.899401e-06	-2.269396e-08	-4.171465e+01	-1.480826e+03
2.920000e-06	-6.002493e-06	-2.278079e-08	-4.244361e+01	-1.486173e+03
2.930000e-06	-6.103299e-06	-2.286234e-08	-4.315642e+01	-1.492046e+03
2.940000e-06	-6.201926e-06	-2.294158e-08	-4.385381e+01	-1.498346e+03
