# Temperatura_=_68.52
# Concentracion g/m^3_=_28200.0
# C_Vs_to_Am_M_A/Vsm_=_65563218390.804596
# pendiente_HvsI_1/m_=_3716.3
# ordenada_HvsI_A/m_=_1297.0
# frecuencia_Hz_=_302299.1693262867

Tiempo_(s)	Campo_(V.s)	Magnetizacion_(V.s)	Campo_(kA/m)	Magnetizacion_(A/m)
0.000000e+00	-6.856977e-06	-2.603714e-08	-4.951578e+01	-1.704760e+03
1.000000e-08	-6.854497e-06	-2.603108e-08	-4.949786e+01	-1.704362e+03
2.000000e-08	-6.849708e-06	-2.601964e-08	-4.946328e+01	-1.703801e+03
3.000000e-08	-6.842800e-06	-2.600600e-08	-4.941340e+01	-1.703078e+03
4.000000e-08	-6.833641e-06	-2.599505e-08	-4.934727e+01	-1.702191e+03
5.000000e-08	-6.822006e-06	-2.598054e-08	-4.926324e+01	-1.701137e+03
6.000000e-08	-6.807742e-06	-2.596432e-08	-4.916024e+01	-1.699907e+03
7.000000e-08	-6.791038e-06	-2.594010e-08	-4.903962e+01	-1.698497e+03
8.000000e-08	-6.772301e-06	-2.590444e-08	-4.890431e+01	-1.696908e+03
9.000000e-08	-6.751454e-06	-2.591675e-08	-4.875377e+01	-1.695149e+03
1.000000e-07	-6.728047e-06	-2.593681e-08	-4.858474e+01	-1.693241e+03
1.100000e-07	-6.701861e-06	-2.585856e-08	-4.839565e+01	-1.691214e+03
1.200000e-07	-6.673120e-06	-2.578609e-08	-4.818810e+01	-1.689099e+03
1.300000e-07	-6.642152e-06	-2.576052e-08	-4.796447e+01	-1.686923e+03
1.400000e-07	-6.608996e-06	-2.568667e-08	-4.772505e+01	-1.684698e+03
1.500000e-07	-6.573890e-06	-2.560294e-08	-4.747154e+01	-1.682416e+03
1.600000e-07	-6.537010e-06	-2.569421e-08	-4.720522e+01	-1.680042e+03
1.700000e-07	-6.498145e-06	-2.563729e-08	-4.692457e+01	-1.677523e+03
1.800000e-07	-6.457131e-06	-2.550276e-08	-4.662840e+01	-1.674789e+03
1.900000e-07	-6.413624e-06	-2.555524e-08	-4.631422e+01	-1.671772e+03
2.000000e-07	-6.367664e-06	-2.541059e-08	-4.598233e+01	-1.668418e+03
2.100000e-07	-6.319378e-06	-2.532886e-08	-4.563366e+01	-1.664696e+03
2.200000e-07	-6.268402e-06	-2.532213e-08	-4.526554e+01	-1.660607e+03
2.300000e-07	-6.214767e-06	-2.521460e-08	-4.487823e+01	-1.656180e+03
2.400000e-07	-6.158802e-06	-2.517849e-08	-4.447410e+01	-1.651465e+03
2.500000e-07	-6.100494e-06	-2.510288e-08	-4.405304e+01	-1.646521e+03
2.600000e-07	-6.039902e-06	-2.503192e-08	-4.361550e+01	-1.641397e+03
2.700000e-07	-5.977187e-06	-2.495195e-08	-4.316261e+01	-1.636121e+03
2.800000e-07	-5.912255e-06	-2.485157e-08	-4.269372e+01	-1.630693e+03
2.900000e-07	-5.845058e-06	-2.476774e-08	-4.220848e+01	-1.625083e+03
3.000000e-07	-5.775671e-06	-2.465653e-08	-4.170742e+01	-1.619241e+03
3.100000e-07	-5.704134e-06	-2.458746e-08	-4.119083e+01	-1.613108e+03
3.200000e-07	-5.630304e-06	-2.448680e-08	-4.065770e+01	-1.606633e+03
3.300000e-07	-5.554140e-06	-2.437869e-08	-4.010770e+01	-1.599782e+03
3.400000e-07	-5.475699e-06	-2.427003e-08	-3.954126e+01	-1.592551e+03
3.500000e-07	-5.395096e-06	-2.413758e-08	-3.895920e+01	-1.584955e+03
3.600000e-07	-5.312614e-06	-2.403512e-08	-3.836358e+01	-1.577027e+03
3.700000e-07	-5.228460e-06	-2.390829e-08	-3.775589e+01	-1.568805e+03
3.800000e-07	-5.142613e-06	-2.378331e-08	-3.713597e+01	-1.560312e+03
3.900000e-07	-5.055043e-06	-2.364998e-08	-3.650360e+01	-1.551552e+03
4.000000e-07	-4.965693e-06	-2.350019e-08	-3.585839e+01	-1.542505e+03
4.100000e-07	-4.874490e-06	-2.334649e-08	-3.519979e+01	-1.533126e+03
4.200000e-07	-4.781621e-06	-2.319677e-08	-3.452916e+01	-1.523360e+03
4.300000e-07	-4.687180e-06	-2.305574e-08	-3.384719e+01	-1.513153e+03
4.400000e-07	-4.591050e-06	-2.289116e-08	-3.315301e+01	-1.502462e+03
4.500000e-07	-4.493201e-06	-2.271879e-08	-3.244642e+01	-1.491265e+03
4.600000e-07	-4.393650e-06	-2.254383e-08	-3.172754e+01	-1.479565e+03
4.700000e-07	-4.292487e-06	-2.235644e-08	-3.099702e+01	-1.467377e+03
4.800000e-07	-4.189919e-06	-2.216097e-08	-3.025635e+01	-1.454719e+03
4.900000e-07	-4.085960e-06	-2.195886e-08	-2.950564e+01	-1.441603e+03
5.000000e-07	-3.980441e-06	-2.175149e-08	-2.874366e+01	-1.428017e+03
5.100000e-07	-3.873330e-06	-2.153401e-08	-2.797019e+01	-1.413925e+03
5.200000e-07	-3.764820e-06	-2.130763e-08	-2.718661e+01	-1.399269e+03
5.300000e-07	-3.655068e-06	-2.107260e-08	-2.639407e+01	-1.383974e+03
5.400000e-07	-3.544057e-06	-2.082482e-08	-2.559244e+01	-1.367967e+03
5.500000e-07	-3.431677e-06	-2.056512e-08	-2.478091e+01	-1.351186e+03
5.600000e-07	-3.317799e-06	-2.029500e-08	-2.395858e+01	-1.333591e+03
5.700000e-07	-3.202407e-06	-2.001611e-08	-2.312530e+01	-1.315160e+03
5.800000e-07	-3.085668e-06	-1.972334e-08	-2.228230e+01	-1.295885e+03
5.900000e-07	-2.967804e-06	-1.941484e-08	-2.143118e+01	-1.275761e+03
6.000000e-07	-2.848896e-06	-1.909316e-08	-2.057252e+01	-1.254763e+03
6.100000e-07	-2.728976e-06	-1.875625e-08	-1.970655e+01	-1.232838e+03
6.200000e-07	-2.608054e-06	-1.840214e-08	-1.883335e+01	-1.209897e+03
6.300000e-07	-2.486073e-06	-1.803083e-08	-1.795249e+01	-1.185820e+03
6.400000e-07	-2.363069e-06	-1.764145e-08	-1.706425e+01	-1.160460e+03
6.500000e-07	-2.239185e-06	-1.723049e-08	-1.616966e+01	-1.133667e+03
6.600000e-07	-2.114586e-06	-1.679796e-08	-1.526990e+01	-1.105297e+03
6.700000e-07	-1.989365e-06	-1.634029e-08	-1.436565e+01	-1.075221e+03
6.800000e-07	-1.863482e-06	-1.585696e-08	-1.345663e+01	-1.043333e+03
6.900000e-07	-1.736974e-06	-1.534608e-08	-1.254308e+01	-1.009530e+03
7.000000e-07	-1.609940e-06	-1.480185e-08	-1.162574e+01	-9.737073e+02
7.100000e-07	-1.482321e-06	-1.422170e-08	-1.070417e+01	-9.357329e+02
7.200000e-07	-1.354103e-06	-1.360421e-08	-9.778286e+00	-8.954445e+02
7.300000e-07	-1.225464e-06	-1.294745e-08	-8.849350e+00	-8.526518e+02
7.400000e-07	-1.096479e-06	-1.224918e-08	-7.917921e+00	-8.071582e+02
7.500000e-07	-9.670851e-07	-1.150959e-08	-6.983540e+00	-7.587980e+02
7.600000e-07	-8.372612e-07	-1.072743e-08	-6.046052e+00	-7.074820e+02
7.700000e-07	-7.071476e-07	-9.903414e-09	-5.106472e+00	-6.532423e+02
7.800000e-07	-5.768432e-07	-9.036643e-09	-4.165515e+00	-5.962621e+02
7.900000e-07	-4.463321e-07	-8.132745e-09	-3.223065e+00	-5.368807e+02
8.000000e-07	-3.156691e-07	-7.199163e-09	-2.279518e+00	-4.755680e+02
8.100000e-07	-1.848133e-07	-6.243795e-09	-1.334578e+00	-4.128675e+02
8.200000e-07	-5.379480e-08	-5.275907e-09	-3.884643e-01	-3.493177e+02
8.300000e-07	7.724780e-08	-4.301392e-09	5.578237e-01	-2.853663e+02
8.400000e-07	2.082882e-07	-3.325471e-09	1.504096e+00	-2.212941e+02
8.500000e-07	3.392728e-07	-2.349760e-09	2.449966e+00	-1.571685e+02
8.600000e-07	4.701242e-07	-1.373437e-09	3.394873e+00	-9.283776e+01
8.700000e-07	6.008244e-07	-3.898127e-10	4.338689e+00	-2.797122e+01
8.800000e-07	7.313236e-07	6.115971e-10	5.281053e+00	3.785948e+01
8.900000e-07	8.615641e-07	1.636383e-09	6.221549e+00	1.050722e+02
9.000000e-07	9.915004e-07	2.685393e-09	7.159848e+00	1.739600e+02
9.100000e-07	1.121058e-06	3.761911e-09	8.095414e+00	2.445933e+02
9.200000e-07	1.250162e-06	4.865170e-09	9.027704e+00	3.167587e+02
9.300000e-07	1.378804e-06	5.984781e-09	9.956653e+00	3.899464e+02
9.400000e-07	1.506955e-06	7.106989e-09	1.088206e+01	4.633903e+02
9.500000e-07	1.634534e-06	8.217442e-09	1.180334e+01	5.361526e+02
9.600000e-07	1.761511e-06	9.300099e-09	1.272027e+01	6.072363e+02
9.700000e-07	1.887854e-06	1.033825e-08	1.363262e+01	6.757051e+02
9.800000e-07	2.013542e-06	1.132219e-08	1.454024e+01	7.407883e+02
9.900000e-07	2.138556e-06	1.224836e-08	1.544299e+01	8.019533e+02
1.000000e-06	2.262853e-06	1.311292e-08	1.634057e+01	8.589354e+02
1.010000e-06	2.386379e-06	1.391394e-08	1.723258e+01	9.117251e+02
1.020000e-06	2.508991e-06	1.465561e-08	1.811799e+01	9.605181e+02
1.030000e-06	2.630555e-06	1.534073e-08	1.899583e+01	1.005645e+03
1.040000e-06	2.751028e-06	1.597535e-08	1.986580e+01	1.047496e+03
1.050000e-06	2.870431e-06	1.656574e-08	2.072803e+01	1.086453e+03
1.060000e-06	2.988795e-06	1.711701e-08	2.158276e+01	1.122844e+03
1.070000e-06	3.106126e-06	1.763427e-08	2.243003e+01	1.156925e+03
1.080000e-06	3.222377e-06	1.811774e-08	2.326951e+01	1.188880e+03
1.090000e-06	3.337359e-06	1.856938e-08	2.409982e+01	1.218845e+03
1.100000e-06	3.450867e-06	1.899395e-08	2.491949e+01	1.246932e+03
1.110000e-06	3.562933e-06	1.939358e-08	2.572874e+01	1.273250e+03
1.120000e-06	3.673713e-06	1.976907e-08	2.652871e+01	1.297927e+03
1.130000e-06	3.783339e-06	2.012306e-08	2.732034e+01	1.321109e+03
1.140000e-06	3.891816e-06	2.045777e-08	2.810368e+01	1.342952e+03
1.150000e-06	3.999015e-06	2.077489e-08	2.887779e+01	1.363605e+03
1.160000e-06	4.104704e-06	2.107395e-08	2.964099e+01	1.383200e+03
1.170000e-06	4.208798e-06	2.135723e-08	3.039268e+01	1.401837e+03
1.180000e-06	4.311356e-06	2.162567e-08	3.113328e+01	1.419578e+03
1.190000e-06	4.412435e-06	2.187924e-08	3.186319e+01	1.436460e+03
1.200000e-06	4.512069e-06	2.211975e-08	3.258267e+01	1.452498e+03
1.210000e-06	4.610016e-06	2.234929e-08	3.328996e+01	1.467706e+03
1.220000e-06	4.706131e-06	2.256855e-08	3.398403e+01	1.482107e+03
1.230000e-06	4.800531e-06	2.277753e-08	3.466572e+01	1.495740e+03
1.240000e-06	4.893308e-06	2.297383e-08	3.533568e+01	1.508661e+03
1.250000e-06	4.984436e-06	2.315972e-08	3.599374e+01	1.520938e+03
1.260000e-06	5.073707e-06	2.333773e-08	3.663838e+01	1.532640e+03
1.270000e-06	5.161012e-06	2.350700e-08	3.726883e+01	1.543827e+03
1.280000e-06	5.246473e-06	2.366937e-08	3.788596e+01	1.554539e+03
1.290000e-06	5.330228e-06	2.382498e-08	3.849078e+01	1.564798e+03
1.300000e-06	5.412100e-06	2.397422e-08	3.908199e+01	1.574605e+03
1.310000e-06	5.491901e-06	2.411648e-08	3.965825e+01	1.583949e+03
1.320000e-06	5.569642e-06	2.425284e-08	4.021964e+01	1.592818e+03
1.330000e-06	5.645268e-06	2.438288e-08	4.076575e+01	1.601205e+03
1.340000e-06	5.718650e-06	2.450608e-08	4.129566e+01	1.609115e+03
1.350000e-06	5.789842e-06	2.462146e-08	4.180975e+01	1.616566e+03
1.360000e-06	5.859039e-06	2.472933e-08	4.230944e+01	1.623588e+03
1.370000e-06	5.926202e-06	2.483131e-08	4.279444e+01	1.630215e+03
1.380000e-06	5.991162e-06	2.492694e-08	4.326353e+01	1.636481e+03
1.390000e-06	6.053964e-06	2.501747e-08	4.371704e+01	1.642415e+03
1.400000e-06	6.114773e-06	2.510201e-08	4.415615e+01	1.648038e+03
1.410000e-06	6.173493e-06	2.518127e-08	4.458018e+01	1.653362e+03
1.420000e-06	6.230004e-06	2.525665e-08	4.498826e+01	1.658395e+03
1.430000e-06	6.284297e-06	2.532854e-08	4.538032e+01	1.663144e+03
1.440000e-06	6.336156e-06	2.539821e-08	4.575481e+01	1.667617e+03
1.450000e-06	6.385330e-06	2.546497e-08	4.610991e+01	1.671826e+03
1.460000e-06	6.431979e-06	2.552756e-08	4.644677e+01	1.675785e+03
1.470000e-06	6.476485e-06	2.558547e-08	4.676816e+01	1.679509e+03
1.480000e-06	6.518765e-06	2.563742e-08	4.707347e+01	1.683009e+03
1.490000e-06	6.558570e-06	2.568618e-08	4.736091e+01	1.686288e+03
1.500000e-06	6.596098e-06	2.573248e-08	4.763191e+01	1.689342e+03
1.510000e-06	6.631478e-06	2.577500e-08	4.788740e+01	1.692162e+03
1.520000e-06	6.664432e-06	2.581385e-08	4.812536e+01	1.694734e+03
1.530000e-06	6.694919e-06	2.584815e-08	4.834552e+01	1.697045e+03
1.540000e-06	6.723183e-06	2.587896e-08	4.854962e+01	1.699088e+03
1.550000e-06	6.748995e-06	2.590656e-08	4.873602e+01	1.700864e+03
1.560000e-06	6.772223e-06	2.593193e-08	4.890375e+01	1.702383e+03
1.570000e-06	6.793132e-06	2.595344e-08	4.905474e+01	1.703662e+03
1.580000e-06	6.811785e-06	2.596876e-08	4.918943e+01	1.704722e+03
1.590000e-06	6.827902e-06	2.597908e-08	4.930582e+01	1.705583e+03
1.600000e-06	6.841384e-06	2.598675e-08	4.940317e+01	1.706261e+03
1.610000e-06	6.852176e-06	2.599390e-08	4.948111e+01	1.706766e+03
1.620000e-06	6.860208e-06	2.600052e-08	4.953911e+01	1.707103e+03
1.630000e-06	6.865797e-06	2.600623e-08	4.957946e+01	1.707272e+03
1.640000e-06	6.869085e-06	2.601069e-08	4.960321e+01	1.707274e+03
1.650000e-06	6.869873e-06	2.601372e-08	4.960890e+01	1.707107e+03
1.660000e-06	6.868260e-06	2.600948e-08	4.959725e+01	1.706773e+03
1.670000e-06	6.864538e-06	2.599541e-08	4.957038e+01	1.706276e+03
1.680000e-06	6.858462e-06	2.598442e-08	4.952650e+01	1.705616e+03
1.690000e-06	6.850019e-06	2.597145e-08	4.946553e+01	1.704794e+03
1.700000e-06	6.839409e-06	2.595704e-08	4.938891e+01	1.703806e+03
1.710000e-06	6.826438e-06	2.594343e-08	4.929525e+01	1.702645e+03
1.720000e-06	6.811019e-06	2.593585e-08	4.918390e+01	1.701306e+03
1.730000e-06	6.793442e-06	2.593198e-08	4.905697e+01	1.699786e+03
1.740000e-06	6.773819e-06	2.584119e-08	4.891527e+01	1.698092e+03
1.750000e-06	6.751409e-06	2.577226e-08	4.875344e+01	1.696239e+03
1.760000e-06	6.725733e-06	2.580432e-08	4.856803e+01	1.694255e+03
1.770000e-06	6.697202e-06	2.578236e-08	4.836200e+01	1.692170e+03
1.780000e-06	6.666319e-06	2.574063e-08	4.813899e+01	1.690015e+03
1.790000e-06	6.633655e-06	2.579964e-08	4.790312e+01	1.687809e+03
1.800000e-06	6.599680e-06	2.568868e-08	4.765777e+01	1.685552e+03
1.810000e-06	6.563851e-06	2.558076e-08	4.739905e+01	1.683219e+03
1.820000e-06	6.525413e-06	2.569814e-08	4.712148e+01	1.680764e+03
1.830000e-06	6.484724e-06	2.556356e-08	4.682766e+01	1.678123e+03
1.840000e-06	6.441922e-06	2.557386e-08	4.651857e+01	1.675225e+03
1.850000e-06	6.396844e-06	2.559526e-08	4.619305e+01	1.672008e+03
1.860000e-06	6.349487e-06	2.540621e-08	4.585108e+01	1.668432e+03
1.870000e-06	6.299646e-06	2.545103e-08	4.549116e+01	1.664485e+03
1.880000e-06	6.247456e-06	2.531767e-08	4.511429e+01	1.660185e+03
1.890000e-06	6.192682e-06	2.524933e-08	4.471875e+01	1.655576e+03
1.900000e-06	6.135317e-06	2.522657e-08	4.430451e+01	1.650715e+03
1.910000e-06	6.075768e-06	2.506381e-08	4.387449e+01	1.645656e+03
1.920000e-06	6.013833e-06	2.507984e-08	4.342724e+01	1.640438e+03
1.930000e-06	5.949637e-06	2.495664e-08	4.296367e+01	1.635072e+03
1.940000e-06	5.883396e-06	2.489357e-08	4.248533e+01	1.629538e+03
1.950000e-06	5.814983e-06	2.481186e-08	4.199130e+01	1.623794e+03
1.960000e-06	5.744216e-06	2.465138e-08	4.148027e+01	1.617781e+03
1.970000e-06	5.671114e-06	2.461375e-08	4.095240e+01	1.611445e+03
1.980000e-06	5.595944e-06	2.445579e-08	4.040958e+01	1.604744e+03
1.990000e-06	5.518439e-06	2.439438e-08	3.984989e+01	1.597661e+03
2.000000e-06	5.438672e-06	2.428342e-08	3.927387e+01	1.590205e+03
2.010000e-06	5.357072e-06	2.416011e-08	3.868462e+01	1.582403e+03
2.020000e-06	5.273755e-06	2.405754e-08	3.808298e+01	1.574292e+03
2.030000e-06	5.188561e-06	2.388326e-08	3.746777e+01	1.565903e+03
2.040000e-06	5.101251e-06	2.378475e-08	3.683728e+01	1.557249e+03
2.050000e-06	5.012138e-06	2.363537e-08	3.619378e+01	1.548319e+03
2.060000e-06	4.921449e-06	2.351032e-08	3.553889e+01	1.539076e+03
2.070000e-06	4.829187e-06	2.334701e-08	3.487265e+01	1.529469e+03
2.080000e-06	4.735196e-06	2.318763e-08	3.419392e+01	1.519441e+03
2.090000e-06	4.639373e-06	2.303547e-08	3.350196e+01	1.508943e+03
2.100000e-06	4.541918e-06	2.285939e-08	3.279821e+01	1.497946e+03
2.110000e-06	4.442988e-06	2.270237e-08	3.208382e+01	1.486442e+03
2.120000e-06	4.342632e-06	2.251595e-08	3.135912e+01	1.474442e+03
2.130000e-06	4.240609e-06	2.233123e-08	3.062239e+01	1.461967e+03
2.140000e-06	4.136908e-06	2.212184e-08	2.987354e+01	1.449030e+03
2.150000e-06	4.031709e-06	2.192174e-08	2.911388e+01	1.435632e+03
2.160000e-06	3.925132e-06	2.170851e-08	2.834426e+01	1.421744e+03
2.170000e-06	3.817307e-06	2.149341e-08	2.756563e+01	1.407317e+03
2.180000e-06	3.708149e-06	2.126951e-08	2.677738e+01	1.392282e+03
2.190000e-06	3.597551e-06	2.102937e-08	2.597872e+01	1.376563e+03
2.200000e-06	3.485488e-06	2.078036e-08	2.516950e+01	1.360092e+03
2.210000e-06	3.372022e-06	2.051595e-08	2.435013e+01	1.342820e+03
2.220000e-06	3.257234e-06	2.024597e-08	2.352122e+01	1.324718e+03
2.230000e-06	3.141093e-06	1.995843e-08	2.268254e+01	1.305775e+03
2.240000e-06	3.023604e-06	1.966063e-08	2.183413e+01	1.285986e+03
2.250000e-06	2.904848e-06	1.934601e-08	2.097656e+01	1.265335e+03
2.260000e-06	2.784904e-06	1.902063e-08	2.011042e+01	1.243782e+03
2.270000e-06	2.663940e-06	1.867423e-08	1.923691e+01	1.221253e+03
2.280000e-06	2.542061e-06	1.831348e-08	1.835680e+01	1.197639e+03
2.290000e-06	2.419345e-06	1.793495e-08	1.747064e+01	1.172801e+03
2.300000e-06	2.295832e-06	1.753633e-08	1.657872e+01	1.146588e+03
2.310000e-06	2.171539e-06	1.711541e-08	1.568117e+01	1.118853e+03
2.320000e-06	2.046502e-06	1.667034e-08	1.477825e+01	1.089461e+03
2.330000e-06	1.920696e-06	1.619718e-08	1.386978e+01	1.058297e+03
2.340000e-06	1.794164e-06	1.569017e-08	1.295606e+01	1.025258e+03
2.350000e-06	1.666936e-06	1.515386e-08	1.203732e+01	9.902424e+02
2.360000e-06	1.539074e-06	1.458559e-08	1.111400e+01	9.531304e+02
2.370000e-06	1.410699e-06	1.398725e-08	1.018698e+01	9.137722e+02
2.380000e-06	1.281971e-06	1.335127e-08	9.257398e+00	8.719868e+02
2.390000e-06	1.152875e-06	1.267361e-08	8.325172e+00	8.275764e+02
2.400000e-06	1.023342e-06	1.195196e-08	7.389785e+00	7.803579e+02
2.410000e-06	8.935057e-07	1.118535e-08	6.452206e+00	7.302065e+02
2.420000e-06	7.634044e-07	1.037622e-08	5.512715e+00	6.771021e+02
2.430000e-06	6.330751e-07	9.525480e-09	4.571578e+00	6.211661e+02
2.440000e-06	5.025652e-07	8.636922e-09	3.629136e+00	5.626779e+02
2.450000e-06	3.718804e-07	7.715567e-09	2.685433e+00	5.020613e+02
2.460000e-06	2.410914e-07	6.766877e-09	1.740976e+00	4.398392e+02
2.470000e-06	1.101929e-07	5.796668e-09	7.957276e-01	3.765625e+02
2.480000e-06	-2.078243e-08	4.814422e-09	-1.500746e-01	3.127244e+02
2.490000e-06	-1.517507e-07	3.830673e-09	-1.095826e+00	2.486788e+02
2.500000e-06	-2.826611e-07	2.847018e-09	-2.041159e+00	1.845803e+02
2.510000e-06	-4.134874e-07	1.863726e-09	-2.985886e+00	1.203608e+02
2.520000e-06	-5.442096e-07	8.766757e-10	-3.929860e+00	5.575228e+01
2.530000e-06	-6.748077e-07	-1.219843e-10	-4.872938e+00	-9.646969e+00
2.540000e-06	-8.052451e-07	-1.138059e-09	-5.814856e+00	-7.627275e+01
2.550000e-06	-9.354030e-07	-2.177502e-09	-6.754756e+00	-1.444802e+02
2.560000e-06	-1.065245e-06	-3.240747e-09	-7.692377e+00	-2.144371e+02
2.570000e-06	-1.194756e-06	-4.328611e-09	-8.627601e+00	-2.860456e+02
2.580000e-06	-1.323854e-06	-5.440111e-09	-9.559847e+00	-3.589107e+02
2.590000e-06	-1.452543e-06	-6.565350e-09	-1.048914e+01	-4.323589e+02
2.600000e-06	-1.580799e-06	-7.687346e-09	-1.141530e+01	-5.055076e+02
2.610000e-06	-1.708486e-06	-8.788477e-09	-1.233736e+01	-5.773686e+02
2.620000e-06	-1.835472e-06	-9.854362e-09	-1.325436e+01	-6.469682e+02
2.630000e-06	-1.961621e-06	-1.087198e-08	-1.416531e+01	-7.134596e+02
2.640000e-06	-2.086947e-06	-1.182891e-08	-1.507031e+01	-7.762108e+02
2.650000e-06	-2.211505e-06	-1.272241e-08	-1.596978e+01	-8.348510e+02
2.660000e-06	-2.335165e-06	-1.355449e-08	-1.686275e+01	-8.892746e+02
2.670000e-06	-2.457879e-06	-1.432629e-08	-1.774890e+01	-9.396044e+02
2.680000e-06	-2.579706e-06	-1.504334e-08	-1.862864e+01	-9.861273e+02
2.690000e-06	-2.700663e-06	-1.570928e-08	-1.950210e+01	-1.029219e+03
2.700000e-06	-2.820700e-06	-1.632810e-08	-2.036891e+01	-1.069270e+03
2.710000e-06	-2.939607e-06	-1.690374e-08	-2.122757e+01	-1.106634e+03
2.720000e-06	-3.057269e-06	-1.744208e-08	-2.207723e+01	-1.141597e+03
2.730000e-06	-3.173722e-06	-1.794489e-08	-2.291816e+01	-1.174369e+03
2.740000e-06	-3.288912e-06	-1.841294e-08	-2.374998e+01	-1.205103e+03
2.750000e-06	-3.402721e-06	-1.885039e-08	-2.457182e+01	-1.233915e+03
2.760000e-06	-3.515091e-06	-1.925897e-08	-2.538326e+01	-1.260914e+03
2.770000e-06	-3.626038e-06	-1.964498e-08	-2.618444e+01	-1.286220e+03
2.780000e-06	-3.735700e-06	-2.001194e-08	-2.697633e+01	-1.309971e+03
2.790000e-06	-3.844191e-06	-2.035900e-08	-2.775977e+01	-1.332322e+03
2.800000e-06	-3.951506e-06	-2.068301e-08	-2.853472e+01	-1.353426e+03
2.810000e-06	-4.057541e-06	-2.098689e-08	-2.930042e+01	-1.373423e+03
2.820000e-06	-4.162174e-06	-2.127689e-08	-3.005600e+01	-1.392427e+03
2.830000e-06	-4.265183e-06	-2.155460e-08	-3.079985e+01	-1.410515e+03
2.840000e-06	-4.366462e-06	-2.181923e-08	-3.153120e+01	-1.427732e+03
2.850000e-06	-4.466221e-06	-2.206915e-08	-3.225159e+01	-1.444100e+03
2.860000e-06	-4.564501e-06	-2.230584e-08	-3.296129e+01	-1.459633e+03
2.870000e-06	-4.661271e-06	-2.252816e-08	-3.366009e+01	-1.474348e+03
2.880000e-06	-4.756423e-06	-2.273942e-08	-3.434720e+01	-1.488276e+03
2.890000e-06	-4.849779e-06	-2.294351e-08	-3.502134e+01	-1.501470e+03
2.900000e-06	-4.941349e-06	-2.313998e-08	-3.568259e+01	-1.513992e+03
2.910000e-06	-5.031128e-06	-2.332708e-08	-3.633091e+01	-1.525913e+03
2.920000e-06	-5.119126e-06	-2.350353e-08	-3.696637e+01	-1.537296e+03
2.930000e-06	-5.205215e-06	-2.367164e-08	-3.758803e+01	-1.548192e+03
2.940000e-06	-5.289380e-06	-2.382955e-08	-3.819581e+01	-1.558628e+03
