# Temperatura_=_82.85
# Concentracion g/m^3_=_28200.0
# C_Vs_to_Am_M_A/Vsm_=_65563218390.804596
# pendiente_HvsI_1/m_=_3716.3
# ordenada_HvsI_A/m_=_1297.0
# frecuencia_Hz_=_302299.22777410655

Tiempo_(s)	Campo_(V.s)	Magnetizacion_(V.s)	Campo_(kA/m)	Magnetizacion_(A/m)
0.000000e+00	-6.841684e-06	-2.806652e-08	-4.952188e+01	-1.837419e+03
1.000000e-08	-6.838893e-06	-2.806023e-08	-4.950168e+01	-1.836926e+03
2.000000e-08	-6.833769e-06	-2.804840e-08	-4.946459e+01	-1.836267e+03
3.000000e-08	-6.826597e-06	-2.803529e-08	-4.941267e+01	-1.835447e+03
4.000000e-08	-6.817206e-06	-2.802063e-08	-4.934470e+01	-1.834459e+03
5.000000e-08	-6.805292e-06	-2.800393e-08	-4.925847e+01	-1.833287e+03
6.000000e-08	-6.790814e-06	-2.798371e-08	-4.915367e+01	-1.831907e+03
7.000000e-08	-6.773941e-06	-2.795415e-08	-4.903154e+01	-1.830295e+03
8.000000e-08	-6.754978e-06	-2.791687e-08	-4.889428e+01	-1.828439e+03
9.000000e-08	-6.733816e-06	-2.793559e-08	-4.874110e+01	-1.826344e+03
1.000000e-07	-6.710068e-06	-2.792160e-08	-4.856921e+01	-1.824038e+03
1.100000e-07	-6.683581e-06	-2.784121e-08	-4.837749e+01	-1.821572e+03
1.200000e-07	-6.654546e-06	-2.778248e-08	-4.816733e+01	-1.819007e+03
1.300000e-07	-6.623283e-06	-2.774271e-08	-4.794104e+01	-1.816400e+03
1.400000e-07	-6.589908e-06	-2.764862e-08	-4.769946e+01	-1.813791e+03
1.500000e-07	-6.554661e-06	-2.760658e-08	-4.744433e+01	-1.811182e+03
1.600000e-07	-6.517589e-06	-2.767663e-08	-4.717600e+01	-1.808537e+03
1.700000e-07	-6.478470e-06	-2.754451e-08	-4.689284e+01	-1.805781e+03
1.800000e-07	-6.437193e-06	-2.750013e-08	-4.659407e+01	-1.802813e+03
1.900000e-07	-6.393485e-06	-2.749011e-08	-4.627770e+01	-1.799527e+03
2.000000e-07	-6.347324e-06	-2.733412e-08	-4.594357e+01	-1.795833e+03
2.100000e-07	-6.298791e-06	-2.730541e-08	-4.559228e+01	-1.791679e+03
2.200000e-07	-6.247587e-06	-2.722031e-08	-4.522165e+01	-1.787056e+03
2.300000e-07	-6.193780e-06	-2.713086e-08	-4.483218e+01	-1.782003e+03
2.400000e-07	-6.137691e-06	-2.709063e-08	-4.442620e+01	-1.776595e+03
2.500000e-07	-6.079247e-06	-2.699685e-08	-4.400316e+01	-1.770917e+03
2.600000e-07	-6.018480e-06	-2.691571e-08	-4.356332e+01	-1.765048e+03
2.700000e-07	-5.955535e-06	-2.681970e-08	-4.310770e+01	-1.759036e+03
2.800000e-07	-5.890433e-06	-2.671841e-08	-4.263648e+01	-1.752887e+03
2.900000e-07	-5.823124e-06	-2.661358e-08	-4.214928e+01	-1.746567e+03
3.000000e-07	-5.753557e-06	-2.651046e-08	-4.164574e+01	-1.740008e+03
3.100000e-07	-5.681857e-06	-2.643204e-08	-4.112675e+01	-1.733132e+03
3.200000e-07	-5.607982e-06	-2.631078e-08	-4.059203e+01	-1.725867e+03
3.300000e-07	-5.531777e-06	-2.619545e-08	-4.004043e+01	-1.718171e+03
3.400000e-07	-5.453279e-06	-2.605040e-08	-3.947225e+01	-1.710034e+03
3.500000e-07	-5.372655e-06	-2.591759e-08	-3.888867e+01	-1.701485e+03
3.600000e-07	-5.290113e-06	-2.580477e-08	-3.829121e+01	-1.692572e+03
3.700000e-07	-5.205841e-06	-2.565881e-08	-3.768123e+01	-1.683347e+03
3.800000e-07	-5.119867e-06	-2.552359e-08	-3.705892e+01	-1.673849e+03
3.900000e-07	-5.032179e-06	-2.536699e-08	-3.642421e+01	-1.664085e+03
4.000000e-07	-4.942748e-06	-2.520061e-08	-3.577689e+01	-1.654028e+03
4.100000e-07	-4.851523e-06	-2.503045e-08	-3.511658e+01	-1.643621e+03
4.200000e-07	-4.758645e-06	-2.487377e-08	-3.444430e+01	-1.632789e+03
4.300000e-07	-4.664172e-06	-2.470689e-08	-3.376049e+01	-1.621463e+03
4.400000e-07	-4.568037e-06	-2.452058e-08	-3.306463e+01	-1.609589e+03
4.500000e-07	-4.470206e-06	-2.433456e-08	-3.235651e+01	-1.597148e+03
4.600000e-07	-4.370649e-06	-2.413701e-08	-3.163589e+01	-1.584149e+03
4.700000e-07	-4.269533e-06	-2.393435e-08	-3.090399e+01	-1.570624e+03
4.800000e-07	-4.167019e-06	-2.372273e-08	-3.016197e+01	-1.556609e+03
4.900000e-07	-4.063053e-06	-2.350462e-08	-2.940943e+01	-1.542129e+03
5.000000e-07	-3.957579e-06	-2.326996e-08	-2.864598e+01	-1.527180e+03
5.100000e-07	-3.850531e-06	-2.302643e-08	-2.787114e+01	-1.511721e+03
5.200000e-07	-3.742052e-06	-2.277693e-08	-2.708594e+01	-1.495681e+03
5.300000e-07	-3.632334e-06	-2.251743e-08	-2.629177e+01	-1.478970e+03
5.400000e-07	-3.521296e-06	-2.224662e-08	-2.548805e+01	-1.461495e+03
5.500000e-07	-3.408902e-06	-2.196599e-08	-2.467451e+01	-1.443180e+03
5.600000e-07	-3.295168e-06	-2.167880e-08	-2.385128e+01	-1.423975e+03
5.700000e-07	-3.180022e-06	-2.137508e-08	-2.301783e+01	-1.403860e+03
5.800000e-07	-3.063469e-06	-2.105627e-08	-2.217418e+01	-1.382831e+03
5.900000e-07	-2.945670e-06	-2.071994e-08	-2.132153e+01	-1.360890e+03
6.000000e-07	-2.826752e-06	-2.036782e-08	-2.046076e+01	-1.338016e+03
6.100000e-07	-2.706846e-06	-1.999735e-08	-1.959285e+01	-1.314158e+03
6.200000e-07	-2.586023e-06	-1.961174e-08	-1.871830e+01	-1.289218e+03
6.300000e-07	-2.464266e-06	-1.920993e-08	-1.783699e+01	-1.263063e+03
6.400000e-07	-2.341459e-06	-1.878855e-08	-1.694808e+01	-1.235534e+03
6.500000e-07	-2.217685e-06	-1.834585e-08	-1.605218e+01	-1.206466e+03
6.600000e-07	-2.093179e-06	-1.787659e-08	-1.515097e+01	-1.175707e+03
6.700000e-07	-1.968056e-06	-1.738019e-08	-1.424530e+01	-1.143129e+03
6.800000e-07	-1.842330e-06	-1.685684e-08	-1.333526e+01	-1.108626e+03
6.900000e-07	-1.715906e-06	-1.630629e-08	-1.242017e+01	-1.072100e+03
7.000000e-07	-1.588843e-06	-1.571863e-08	-1.150046e+01	-1.033445e+03
7.100000e-07	-1.461302e-06	-1.509136e-08	-1.057728e+01	-9.925218e+02
7.200000e-07	-1.333367e-06	-1.442428e-08	-9.651253e+00	-9.491473e+02
7.300000e-07	-1.205025e-06	-1.371689e-08	-8.722284e+00	-9.031029e+02
7.400000e-07	-1.076280e-06	-1.296602e-08	-7.790394e+00	-8.541592e+02
7.500000e-07	-9.472112e-07	-1.216996e-08	-6.856160e+00	-8.021206e+02
7.600000e-07	-8.178395e-07	-1.132956e-08	-5.919734e+00	-7.468799e+02
7.700000e-07	-6.881501e-07	-1.044151e-08	-4.981008e+00	-6.884684e+02
7.800000e-07	-5.582025e-07	-9.507714e-09	-4.040414e+00	-6.270881e+02
7.900000e-07	-4.280760e-07	-8.534039e-09	-3.098525e+00	-5.631133e+02
8.000000e-07	-2.977879e-07	-7.528009e-09	-2.155466e+00	-4.970562e+02
8.100000e-07	-1.673411e-07	-6.496874e-09	-1.211258e+00	-4.294978e+02
8.200000e-07	-3.674465e-08	-5.451698e-09	-2.659673e-01	-3.609977e+02
8.300000e-07	9.391695e-08	-4.398947e-09	6.797952e-01	-2.919985e+02
8.400000e-07	2.245688e-07	-3.342128e-09	1.625487e+00	-2.227477e+02
8.500000e-07	3.551570e-07	-2.283694e-09	2.570718e+00	-1.532568e+02
8.600000e-07	4.856004e-07	-1.221448e-09	3.514902e+00	-8.330836e+01
8.700000e-07	6.158594e-07	-1.478254e-10	4.457750e+00	-1.251529e+01
8.800000e-07	7.458784e-07	9.489654e-10	5.398861e+00	5.957763e+01
8.900000e-07	8.756280e-07	2.074578e-09	6.338022e+00	1.333689e+02
9.000000e-07	1.005057e-06	3.230643e-09	7.274865e+00	2.090770e+02
9.100000e-07	1.134138e-06	4.415078e-09	8.209181e+00	2.866438e+02
9.200000e-07	1.262862e-06	5.623188e-09	9.140922e+00	3.656858e+02
9.300000e-07	1.391184e-06	6.842915e-09	1.006975e+01	4.455038e+02
9.400000e-07	1.519055e-06	8.058149e-09	1.099532e+01	5.251495e+02
9.500000e-07	1.646409e-06	9.253831e-09	1.191713e+01	6.035359e+02
9.600000e-07	1.773109e-06	1.041141e-08	1.283422e+01	6.795711e+02
9.700000e-07	1.899115e-06	1.151385e-08	1.374629e+01	7.522891e+02
9.800000e-07	2.024464e-06	1.255184e-08	1.465359e+01	8.209535e+02
9.900000e-07	2.149156e-06	1.352338e-08	1.555615e+01	8.851188e+02
1.000000e-06	2.273153e-06	1.442522e-08	1.645367e+01	9.446402e+02
1.010000e-06	2.396244e-06	1.525907e-08	1.734464e+01	9.996376e+02
1.020000e-06	2.518252e-06	1.603235e-08	1.822776e+01	1.050425e+03
1.030000e-06	2.639281e-06	1.674709e-08	1.910380e+01	1.097423e+03
1.040000e-06	2.759419e-06	1.740938e-08	1.997339e+01	1.141076e+03
1.050000e-06	2.878553e-06	1.802771e-08	2.083571e+01	1.181788e+03
1.060000e-06	2.996618e-06	1.860529e-08	2.169030e+01	1.219881e+03
1.070000e-06	3.113558e-06	1.914644e-08	2.253674e+01	1.255593e+03
1.080000e-06	3.229215e-06	1.965438e-08	2.337390e+01	1.289090e+03
1.090000e-06	3.343461e-06	2.012918e-08	2.420083e+01	1.320496e+03
1.100000e-06	3.456406e-06	2.057323e-08	2.501836e+01	1.349924e+03
1.110000e-06	3.568195e-06	2.099098e-08	2.582752e+01	1.377501e+03
1.120000e-06	3.678736e-06	2.138568e-08	2.662764e+01	1.403376e+03
1.130000e-06	3.788004e-06	2.175893e-08	2.741855e+01	1.427719e+03
1.140000e-06	3.896138e-06	2.211012e-08	2.820126e+01	1.450704e+03
1.150000e-06	4.002912e-06	2.244248e-08	2.897411e+01	1.472490e+03
1.160000e-06	4.108110e-06	2.275837e-08	2.973556e+01	1.493206e+03
1.170000e-06	4.211807e-06	2.306014e-08	3.048615e+01	1.512940e+03
1.180000e-06	4.313929e-06	2.334680e-08	3.122534e+01	1.531744e+03
1.190000e-06	4.414559e-06	2.361688e-08	3.195372e+01	1.549640e+03
1.200000e-06	4.513626e-06	2.387229e-08	3.267079e+01	1.566640e+03
1.210000e-06	4.610967e-06	2.411530e-08	3.337537e+01	1.582758e+03
1.220000e-06	4.706658e-06	2.434711e-08	3.406801e+01	1.598026e+03
1.230000e-06	4.800710e-06	2.456718e-08	3.474878e+01	1.612494e+03
1.240000e-06	4.893180e-06	2.477685e-08	3.541811e+01	1.626226e+03
1.250000e-06	4.983899e-06	2.497699e-08	3.607475e+01	1.639296e+03
1.260000e-06	5.072625e-06	2.516772e-08	3.671697e+01	1.651771e+03
1.270000e-06	5.159480e-06	2.534718e-08	3.734565e+01	1.663705e+03
1.280000e-06	5.244605e-06	2.551752e-08	3.796181e+01	1.675129e+03
1.290000e-06	5.327952e-06	2.568167e-08	3.856510e+01	1.686059e+03
1.300000e-06	5.409312e-06	2.583974e-08	3.915400e+01	1.696497e+03
1.310000e-06	5.488623e-06	2.599041e-08	3.972807e+01	1.706440e+03
1.320000e-06	5.565962e-06	2.613489e-08	4.028788e+01	1.715890e+03
1.330000e-06	5.641159e-06	2.627395e-08	4.083217e+01	1.724858e+03
1.340000e-06	5.714054e-06	2.640679e-08	4.135980e+01	1.733365e+03
1.350000e-06	5.784799e-06	2.653359e-08	4.187187e+01	1.741441e+03
1.360000e-06	5.853567e-06	2.665402e-08	4.236964e+01	1.749113e+03
1.370000e-06	5.920250e-06	2.676751e-08	4.285230e+01	1.756404e+03
1.380000e-06	5.984719e-06	2.687401e-08	4.331895e+01	1.763327e+03
1.390000e-06	6.047115e-06	2.697431e-08	4.377059e+01	1.769885e+03
1.400000e-06	6.107607e-06	2.706827e-08	4.420844e+01	1.776073e+03
1.410000e-06	6.165950e-06	2.715553e-08	4.463074e+01	1.781887e+03
1.420000e-06	6.221975e-06	2.723639e-08	4.503627e+01	1.787331e+03
1.430000e-06	6.275798e-06	2.731241e-08	4.542585e+01	1.792419e+03
1.440000e-06	6.327090e-06	2.738455e-08	4.579711e+01	1.797180e+03
1.450000e-06	6.375739e-06	2.745349e-08	4.614925e+01	1.801651e+03
1.460000e-06	6.422067e-06	2.751956e-08	4.648459e+01	1.805872e+03
1.470000e-06	6.466258e-06	2.758223e-08	4.680445e+01	1.809875e+03
1.480000e-06	6.508109e-06	2.764025e-08	4.710738e+01	1.813680e+03
1.490000e-06	6.547515e-06	2.769407e-08	4.739261e+01	1.817286e+03
1.500000e-06	6.584757e-06	2.774435e-08	4.766218e+01	1.820676e+03
1.510000e-06	6.619758e-06	2.779053e-08	4.791552e+01	1.823822e+03
1.520000e-06	6.652282e-06	2.783235e-08	4.815094e+01	1.826692e+03
1.530000e-06	6.682460e-06	2.787064e-08	4.836938e+01	1.829258e+03
1.540000e-06	6.710452e-06	2.790640e-08	4.857199e+01	1.831507e+03
1.550000e-06	6.735946e-06	2.793932e-08	4.875652e+01	1.833444e+03
1.560000e-06	6.758826e-06	2.796669e-08	4.892213e+01	1.835085e+03
1.570000e-06	6.779403e-06	2.798693e-08	4.907108e+01	1.836460e+03
1.580000e-06	6.797629e-06	2.800184e-08	4.920300e+01	1.837596e+03
1.590000e-06	6.813288e-06	2.801221e-08	4.931634e+01	1.838520e+03
1.600000e-06	6.826426e-06	2.801938e-08	4.941144e+01	1.839247e+03
1.610000e-06	6.836939e-06	2.802585e-08	4.948753e+01	1.839783e+03
1.620000e-06	6.844768e-06	2.803236e-08	4.954420e+01	1.840127e+03
1.630000e-06	6.850192e-06	2.803868e-08	4.958346e+01	1.840274e+03
1.640000e-06	6.853208e-06	2.804260e-08	4.960529e+01	1.840224e+03
1.650000e-06	6.853706e-06	2.804285e-08	4.960890e+01	1.839981e+03
1.660000e-06	6.851869e-06	2.803245e-08	4.959560e+01	1.839557e+03
1.670000e-06	6.847896e-06	2.801964e-08	4.956685e+01	1.838962e+03
1.680000e-06	6.841588e-06	2.800685e-08	4.952118e+01	1.838204e+03
1.690000e-06	6.832932e-06	2.799011e-08	4.945853e+01	1.837283e+03
1.700000e-06	6.822109e-06	2.797290e-08	4.938019e+01	1.836185e+03
1.710000e-06	6.808900e-06	2.795722e-08	4.928458e+01	1.834890e+03
1.720000e-06	6.793276e-06	2.794894e-08	4.917149e+01	1.833371e+03
1.730000e-06	6.775589e-06	2.792783e-08	4.904347e+01	1.831611e+03
1.740000e-06	6.755810e-06	2.783389e-08	4.890030e+01	1.829607e+03
1.750000e-06	6.733123e-06	2.779615e-08	4.873609e+01	1.827378e+03
1.760000e-06	6.707161e-06	2.780052e-08	4.854817e+01	1.824968e+03
1.770000e-06	6.678472e-06	2.775582e-08	4.834051e+01	1.822434e+03
1.780000e-06	6.647504e-06	2.774854e-08	4.811636e+01	1.819837e+03
1.790000e-06	6.614712e-06	2.775667e-08	4.787900e+01	1.817226e+03
1.800000e-06	6.580563e-06	2.759187e-08	4.763182e+01	1.814619e+03
1.810000e-06	6.544451e-06	2.757667e-08	4.737043e+01	1.811994e+03
1.820000e-06	6.505775e-06	2.759765e-08	4.709049e+01	1.809292e+03
1.830000e-06	6.464947e-06	2.748669e-08	4.679496e+01	1.806420e+03
1.840000e-06	6.421953e-06	2.757929e-08	4.648376e+01	1.803270e+03
1.850000e-06	6.376645e-06	2.748064e-08	4.615580e+01	1.799745e+03
1.860000e-06	6.329054e-06	2.738554e-08	4.581134e+01	1.795775e+03
1.870000e-06	6.279063e-06	2.738619e-08	4.544948e+01	1.791334e+03
1.880000e-06	6.226724e-06	2.721382e-08	4.507064e+01	1.786442e+03
1.890000e-06	6.171789e-06	2.718402e-08	4.467301e+01	1.781163e+03
1.900000e-06	6.114328e-06	2.708127e-08	4.425709e+01	1.775580e+03
1.910000e-06	6.054685e-06	2.697069e-08	4.382538e+01	1.769778e+03
1.920000e-06	5.992651e-06	2.695617e-08	4.337636e+01	1.763818e+03
1.930000e-06	5.928384e-06	2.683020e-08	4.291118e+01	1.757725e+03
1.940000e-06	5.862009e-06	2.677579e-08	4.243074e+01	1.751478e+03
1.950000e-06	5.793438e-06	2.661789e-08	4.193441e+01	1.745022e+03
1.960000e-06	5.722557e-06	2.650372e-08	4.142135e+01	1.738279e+03
1.970000e-06	5.649369e-06	2.641171e-08	4.089160e+01	1.731174e+03
1.980000e-06	5.574107e-06	2.626619e-08	4.034683e+01	1.723650e+03
1.990000e-06	5.496506e-06	2.619466e-08	3.978513e+01	1.715684e+03
2.000000e-06	5.416763e-06	2.604521e-08	3.920794e+01	1.707292e+03
2.010000e-06	5.335213e-06	2.593263e-08	3.861766e+01	1.698515e+03
2.020000e-06	5.251850e-06	2.577982e-08	3.801425e+01	1.689406e+03
2.030000e-06	5.166577e-06	2.562772e-08	3.739702e+01	1.680012e+03
2.040000e-06	5.079291e-06	2.551185e-08	3.676522e+01	1.670354e+03
2.050000e-06	4.990237e-06	2.535446e-08	3.612063e+01	1.660417e+03
2.060000e-06	4.899581e-06	2.520160e-08	3.546444e+01	1.650155e+03
2.070000e-06	4.807361e-06	2.501037e-08	3.479692e+01	1.639498e+03
2.080000e-06	4.713350e-06	2.484559e-08	3.411645e+01	1.628373e+03
2.090000e-06	4.617509e-06	2.466412e-08	3.342273e+01	1.616719e+03
2.100000e-06	4.520083e-06	2.448329e-08	3.271753e+01	1.604501e+03
2.110000e-06	4.421179e-06	2.430150e-08	3.200164e+01	1.591718e+03
2.120000e-06	4.320865e-06	2.409879e-08	3.127554e+01	1.578394e+03
2.130000e-06	4.218913e-06	2.388775e-08	3.053758e+01	1.564567e+03
2.140000e-06	4.115234e-06	2.365945e-08	2.978713e+01	1.550268e+03
2.150000e-06	4.010075e-06	2.343993e-08	2.902596e+01	1.535506e+03
2.160000e-06	3.903606e-06	2.320573e-08	2.825531e+01	1.520253e+03
2.170000e-06	3.795787e-06	2.297003e-08	2.747489e+01	1.504452e+03
2.180000e-06	3.686602e-06	2.271878e-08	2.668458e+01	1.488015e+03
2.190000e-06	3.575999e-06	2.245836e-08	2.588401e+01	1.470850e+03
2.200000e-06	3.463951e-06	2.218334e-08	2.507297e+01	1.452872e+03
2.210000e-06	3.350520e-06	2.189851e-08	2.425193e+01	1.434020e+03
2.220000e-06	3.235732e-06	2.160134e-08	2.342107e+01	1.414263e+03
2.230000e-06	3.119640e-06	2.128831e-08	2.258076e+01	1.393593e+03
2.240000e-06	3.002310e-06	2.096192e-08	2.173149e+01	1.372011e+03
2.250000e-06	2.883741e-06	2.061940e-08	2.087327e+01	1.349507e+03
2.260000e-06	2.763906e-06	2.026267e-08	2.000587e+01	1.326044e+03
2.270000e-06	2.643020e-06	1.988464e-08	1.913086e+01	1.301542e+03
2.280000e-06	2.521307e-06	1.949271e-08	1.824987e+01	1.275882e+03
2.290000e-06	2.398766e-06	1.908182e-08	1.736289e+01	1.248913e+03
2.300000e-06	2.275317e-06	1.865159e-08	1.646933e+01	1.220468e+03
2.310000e-06	2.151059e-06	1.819513e-08	1.556993e+01	1.190390e+03
2.320000e-06	2.026166e-06	1.771190e-08	1.466592e+01	1.158540e+03
2.330000e-06	1.900684e-06	1.719653e-08	1.375764e+01	1.124804e+03
2.340000e-06	1.774519e-06	1.664931e-08	1.284443e+01	1.089084e+03
2.350000e-06	1.647598e-06	1.607315e-08	1.192574e+01	1.051280e+03
2.360000e-06	1.519990e-06	1.546442e-08	1.100208e+01	1.011266e+03
2.370000e-06	1.391840e-06	1.481924e-08	1.007450e+01	9.688784e+02
2.380000e-06	1.263263e-06	1.413206e-08	9.143828e+00	9.239101e+02
2.390000e-06	1.134351e-06	1.340104e-08	8.210728e+00	8.761314e+02
2.400000e-06	1.005147e-06	1.262154e-08	7.275517e+00	8.253271e+02
2.410000e-06	8.756036e-07	1.179801e-08	6.337846e+00	7.713488e+02
2.420000e-06	7.457930e-07	1.093134e-08	5.398243e+00	7.141683e+02
2.430000e-06	6.158123e-07	1.001735e-08	4.457409e+00	6.539184e+02
2.440000e-06	4.855978e-07	9.058561e-09	3.514883e+00	5.909078e+02
2.450000e-06	3.551734e-07	8.063696e-09	2.570837e+00	5.256010e+02
2.460000e-06	2.245778e-07	7.042271e-09	1.625552e+00	4.585618e+02
2.470000e-06	9.383367e-08	5.999419e-09	6.791924e-01	3.903700e+02
2.480000e-06	-3.694604e-08	4.944329e-09	-2.674250e-01	3.215247e+02
2.490000e-06	-1.677145e-07	3.883847e-09	-1.213961e+00	2.523575e+02
2.500000e-06	-2.984499e-07	2.819431e-09	-2.160258e+00	1.829745e+02
2.510000e-06	-4.290929e-07	1.749657e-09	-3.105885e+00	1.132440e+02
2.520000e-06	-5.595991e-07	6.726062e-10	-4.050523e+00	4.283551e+01
2.530000e-06	-6.899228e-07	-4.168918e-10	-4.993840e+00	-2.869364e+01
2.540000e-06	-8.200046e-07	-1.527668e-09	-5.935405e+00	-1.017796e+02
2.550000e-06	-9.497944e-07	-2.666013e-09	-6.874858e+00	-1.767250e+02
2.560000e-06	-1.079265e-06	-3.833132e-09	-7.811999e+00	-2.535893e+02
2.570000e-06	-1.208440e-06	-5.028158e-09	-8.747002e+00	-3.321190e+02
2.580000e-06	-1.337267e-06	-6.244478e-09	-9.679483e+00	-4.117340e+02
2.590000e-06	-1.465653e-06	-7.468107e-09	-1.060877e+01	-4.915726e+02
2.600000e-06	-1.593555e-06	-8.681475e-09	-1.153456e+01	-5.705872e+02
2.610000e-06	-1.720798e-06	-9.864425e-09	-1.245558e+01	-6.476714e+02
2.620000e-06	-1.847214e-06	-1.100004e-08	-1.337061e+01	-7.217955e+02
2.630000e-06	-1.972812e-06	-1.207405e-08	-1.427972e+01	-7.921228e+02
2.640000e-06	-2.097686e-06	-1.307815e-08	-1.518360e+01	-8.580896e+02
2.650000e-06	-2.221845e-06	-1.401226e-08	-1.608229e+01	-9.194348e+02
2.660000e-06	-2.345205e-06	-1.487959e-08	-1.697520e+01	-9.761814e+02
2.670000e-06	-2.467676e-06	-1.568424e-08	-1.786168e+01	-1.028577e+03
2.680000e-06	-2.589218e-06	-1.643187e-08	-1.874143e+01	-1.077011e+03
2.690000e-06	-2.709851e-06	-1.712656e-08	-1.961460e+01	-1.121927e+03
2.700000e-06	-2.829477e-06	-1.777272e-08	-2.048049e+01	-1.163751e+03
2.710000e-06	-2.947902e-06	-1.837403e-08	-2.133768e+01	-1.202840e+03
2.720000e-06	-3.065087e-06	-1.893569e-08	-2.218589e+01	-1.239465e+03
2.730000e-06	-3.181070e-06	-1.946033e-08	-2.302541e+01	-1.273817e+03
2.740000e-06	-3.295770e-06	-1.994921e-08	-2.385564e+01	-1.306031e+03
2.750000e-06	-3.409052e-06	-2.040590e-08	-2.467560e+01	-1.336222e+03
2.760000e-06	-3.520892e-06	-2.083478e-08	-2.548513e+01	-1.364510e+03
2.770000e-06	-3.631445e-06	-2.124038e-08	-2.628534e+01	-1.391035e+03
2.780000e-06	-3.740776e-06	-2.162416e-08	-2.707671e+01	-1.415960e+03
2.790000e-06	-3.848932e-06	-2.198750e-08	-2.785957e+01	-1.439459e+03
2.800000e-06	-3.955879e-06	-2.233072e-08	-2.863367e+01	-1.461699e+03
2.810000e-06	-4.061486e-06	-2.265513e-08	-2.939809e+01	-1.482822e+03
2.820000e-06	-4.165641e-06	-2.296294e-08	-3.015199e+01	-1.502935e+03
2.830000e-06	-4.268167e-06	-2.325450e-08	-3.089410e+01	-1.522100e+03
2.840000e-06	-4.369068e-06	-2.353193e-08	-3.162444e+01	-1.540352e+03
2.850000e-06	-4.468452e-06	-2.379500e-08	-3.234381e+01	-1.557703e+03
2.860000e-06	-4.566354e-06	-2.404420e-08	-3.305245e+01	-1.574165e+03
2.870000e-06	-4.662746e-06	-2.427992e-08	-3.375016e+01	-1.589763e+03
2.880000e-06	-4.757440e-06	-2.450378e-08	-3.443558e+01	-1.604539e+03
2.890000e-06	-4.850378e-06	-2.472100e-08	-3.510829e+01	-1.618552e+03
2.900000e-06	-4.941618e-06	-2.493086e-08	-3.576871e+01	-1.631874e+03
2.910000e-06	-5.031109e-06	-2.513074e-08	-3.641647e+01	-1.644576e+03
2.920000e-06	-5.118755e-06	-2.532030e-08	-3.705088e+01	-1.656717e+03
2.930000e-06	-5.204410e-06	-2.550013e-08	-3.767087e+01	-1.668339e+03
2.940000e-06	-5.288136e-06	-2.566856e-08	-3.827690e+01	-1.679463e+03
