# Temperatura_=_85.59
# Concentracion g/m^3_=_28200.0
# C_Vs_to_Am_M_A/Vsm_=_65563218390.804596
# pendiente_HvsI_1/m_=_3716.3
# ordenada_HvsI_A/m_=_1297.0
# frecuencia_Hz_=_302300.61042249965

Tiempo_(s)	Campo_(V.s)	Magnetizacion_(V.s)	Campo_(kA/m)	Magnetizacion_(A/m)
0.000000e+00	-6.865051e-06	-2.810058e-08	-4.951353e+01	-1.839958e+03
1.000000e-08	-6.862215e-06	-2.809184e-08	-4.949308e+01	-1.839457e+03
2.000000e-08	-6.857075e-06	-2.808069e-08	-4.945601e+01	-1.838787e+03
3.000000e-08	-6.849801e-06	-2.806754e-08	-4.940355e+01	-1.837957e+03
4.000000e-08	-6.840235e-06	-2.805170e-08	-4.933455e+01	-1.836963e+03
5.000000e-08	-6.828144e-06	-2.803486e-08	-4.924734e+01	-1.835792e+03
6.000000e-08	-6.813515e-06	-2.801616e-08	-4.914184e+01	-1.834422e+03
7.000000e-08	-6.796511e-06	-2.799161e-08	-4.901919e+01	-1.832827e+03
8.000000e-08	-6.777439e-06	-2.796781e-08	-4.888164e+01	-1.830994e+03
9.000000e-08	-6.756215e-06	-2.796756e-08	-4.872856e+01	-1.828923e+03
1.000000e-07	-6.732370e-06	-2.793737e-08	-4.855659e+01	-1.826639e+03
1.100000e-07	-6.705691e-06	-2.787463e-08	-4.836416e+01	-1.824186e+03
1.200000e-07	-6.676455e-06	-2.782048e-08	-4.815330e+01	-1.821619e+03
1.300000e-07	-6.644994e-06	-2.776634e-08	-4.792639e+01	-1.818993e+03
1.400000e-07	-6.611447e-06	-2.769307e-08	-4.768444e+01	-1.816343e+03
1.500000e-07	-6.576111e-06	-2.767597e-08	-4.742958e+01	-1.813672e+03
1.600000e-07	-6.538971e-06	-2.767876e-08	-4.716171e+01	-1.810947e+03
1.700000e-07	-6.499756e-06	-2.758210e-08	-4.687887e+01	-1.808099e+03
1.800000e-07	-6.458230e-06	-2.755109e-08	-4.657937e+01	-1.805037e+03
1.900000e-07	-6.414112e-06	-2.749198e-08	-4.626117e+01	-1.801662e+03
2.000000e-07	-6.367624e-06	-2.738202e-08	-4.592588e+01	-1.797895e+03
2.100000e-07	-6.318790e-06	-2.733155e-08	-4.557368e+01	-1.793688e+03
2.200000e-07	-6.267242e-06	-2.724076e-08	-4.520189e+01	-1.789038e+03
2.300000e-07	-6.213138e-06	-2.716834e-08	-4.481167e+01	-1.783982e+03
2.400000e-07	-6.156667e-06	-2.710742e-08	-4.440438e+01	-1.778587e+03
2.500000e-07	-6.097829e-06	-2.702531e-08	-4.398002e+01	-1.772931e+03
2.600000e-07	-6.036758e-06	-2.694507e-08	-4.353955e+01	-1.767080e+03
2.700000e-07	-5.973528e-06	-2.685586e-08	-4.308350e+01	-1.761070e+03
2.800000e-07	-5.908121e-06	-2.675930e-08	-4.261176e+01	-1.754901e+03
2.900000e-07	-5.840468e-06	-2.664665e-08	-4.212382e+01	-1.748531e+03
3.000000e-07	-5.770590e-06	-2.655029e-08	-4.161984e+01	-1.741895e+03
3.100000e-07	-5.698549e-06	-2.645210e-08	-4.110025e+01	-1.734920e+03
3.200000e-07	-5.624290e-06	-2.632707e-08	-4.056466e+01	-1.727546e+03
3.300000e-07	-5.547737e-06	-2.620659e-08	-4.001253e+01	-1.719742e+03
3.400000e-07	-5.468874e-06	-2.607432e-08	-3.944374e+01	-1.711512e+03
3.500000e-07	-5.387921e-06	-2.595073e-08	-3.885987e+01	-1.702890e+03
3.600000e-07	-5.305138e-06	-2.582426e-08	-3.826281e+01	-1.693930e+03
3.700000e-07	-5.220558e-06	-2.568472e-08	-3.765278e+01	-1.684682e+03
3.800000e-07	-5.134238e-06	-2.554196e-08	-3.703021e+01	-1.675177e+03
3.900000e-07	-5.046146e-06	-2.538265e-08	-3.639485e+01	-1.665413e+03
4.000000e-07	-4.956265e-06	-2.521860e-08	-3.574660e+01	-1.655353e+03
4.100000e-07	-4.864654e-06	-2.505491e-08	-3.508586e+01	-1.644930e+03
4.200000e-07	-4.771385e-06	-2.489743e-08	-3.441316e+01	-1.634067e+03
4.300000e-07	-4.676516e-06	-2.472606e-08	-3.372893e+01	-1.622692e+03
4.400000e-07	-4.579969e-06	-2.454200e-08	-3.303259e+01	-1.610757e+03
4.500000e-07	-4.481747e-06	-2.435327e-08	-3.232418e+01	-1.598247e+03
4.600000e-07	-4.381816e-06	-2.415599e-08	-3.160343e+01	-1.585178e+03
4.700000e-07	-4.280323e-06	-2.395253e-08	-3.087143e+01	-1.571586e+03
4.800000e-07	-4.177439e-06	-2.373843e-08	-3.012939e+01	-1.557512e+03
4.900000e-07	-4.073024e-06	-2.351552e-08	-2.937630e+01	-1.542977e+03
5.000000e-07	-3.967074e-06	-2.328072e-08	-2.861214e+01	-1.527972e+03
5.100000e-07	-3.859637e-06	-2.304022e-08	-2.783727e+01	-1.512452e+03
5.200000e-07	-3.750778e-06	-2.279143e-08	-2.705213e+01	-1.496339e+03
5.300000e-07	-3.640619e-06	-2.253315e-08	-2.625762e+01	-1.479538e+03
5.400000e-07	-3.529174e-06	-2.226450e-08	-2.545383e+01	-1.461959e+03
5.500000e-07	-3.416326e-06	-2.198232e-08	-2.463993e+01	-1.443527e+03
5.600000e-07	-3.302021e-06	-2.168864e-08	-2.381551e+01	-1.424202e+03
5.700000e-07	-3.186351e-06	-2.138195e-08	-2.298126e+01	-1.403968e+03
5.800000e-07	-3.069351e-06	-2.106112e-08	-2.213740e+01	-1.382832e+03
5.900000e-07	-2.951083e-06	-2.072076e-08	-2.128440e+01	-1.360798e+03
6.000000e-07	-2.831739e-06	-2.036495e-08	-2.042365e+01	-1.337846e+03
6.100000e-07	-2.711366e-06	-1.999558e-08	-1.955547e+01	-1.313922e+03
6.200000e-07	-2.589996e-06	-1.961122e-08	-1.868010e+01	-1.288921e+03
6.300000e-07	-2.467685e-06	-1.920934e-08	-1.779794e+01	-1.262704e+03
6.400000e-07	-2.344398e-06	-1.878735e-08	-1.690875e+01	-1.235102e+03
6.500000e-07	-2.220216e-06	-1.834291e-08	-1.601310e+01	-1.205947e+03
6.600000e-07	-2.095248e-06	-1.787116e-08	-1.511178e+01	-1.175085e+03
6.700000e-07	-1.969690e-06	-1.737281e-08	-1.420620e+01	-1.142388e+03
6.800000e-07	-1.843522e-06	-1.684732e-08	-1.329623e+01	-1.107754e+03
6.900000e-07	-1.716643e-06	-1.629170e-08	-1.238113e+01	-1.071090e+03
7.000000e-07	-1.589163e-06	-1.570065e-08	-1.146168e+01	-1.032291e+03
7.100000e-07	-1.461164e-06	-1.507156e-08	-1.053851e+01	-9.912175e+02
7.200000e-07	-1.332629e-06	-1.440306e-08	-9.611457e+00	-9.476849e+02
7.300000e-07	-1.203625e-06	-1.369399e-08	-8.681029e+00	-9.014700e+02
7.400000e-07	-1.074287e-06	-1.294105e-08	-7.748194e+00	-8.523387e+02
7.500000e-07	-9.446677e-07	-1.214112e-08	-6.813326e+00	-8.000926e+02
7.600000e-07	-8.147962e-07	-1.129526e-08	-5.876641e+00	-7.446245e+02
7.700000e-07	-6.846475e-07	-1.040234e-08	-4.937955e+00	-6.859694e+02
7.800000e-07	-5.542449e-07	-9.464578e-09	-3.997439e+00	-6.243358e+02
7.900000e-07	-4.236427e-07	-8.488381e-09	-3.055483e+00	-5.601055e+02
8.000000e-07	-2.928826e-07	-7.480311e-09	-2.112388e+00	-4.937966e+02
8.100000e-07	-1.620466e-07	-6.446466e-09	-1.168746e+00	-4.259921e+02
8.200000e-07	-3.108488e-08	-5.397810e-09	-2.241967e-01	-3.572473e+02
8.300000e-07	1.000017e-07	-4.340855e-09	7.212525e-01	-2.879947e+02
8.400000e-07	2.310716e-07	-3.278539e-09	1.666582e+00	-2.184670e+02
8.500000e-07	3.620228e-07	-2.213790e-09	2.611055e+00	-1.486597e+02
8.600000e-07	4.928767e-07	-1.144089e-09	3.554827e+00	-7.834253e+01
8.700000e-07	6.236262e-07	-6.199653e-11	4.497845e+00	-7.123446e+00
8.800000e-07	7.541194e-07	1.042273e-09	5.439015e+00	6.544674e+01
8.900000e-07	8.843160e-07	2.174427e-09	6.378046e+00	1.397479e+02
9.000000e-07	1.014207e-06	3.335500e-09	7.314875e+00	2.159681e+02
9.100000e-07	1.143765e-06	4.523171e-09	8.249295e+00	2.940115e+02
9.200000e-07	1.272981e-06	5.735008e-09	9.181253e+00	3.734545e+02
9.300000e-07	1.401766e-06	6.961156e-09	1.011010e+01	4.535621e+02
9.400000e-07	1.530078e-06	8.181813e-09	1.103554e+01	5.333608e+02
9.500000e-07	1.657846e-06	9.378045e-09	1.195706e+01	6.117529e+02
9.600000e-07	1.784923e-06	1.053415e-08	1.287359e+01	6.876526e+02
9.700000e-07	1.911269e-06	1.163386e-08	1.378485e+01	7.601143e+02
9.800000e-07	2.036979e-06	1.266543e-08	1.469152e+01	8.284338e+02
9.900000e-07	2.162072e-06	1.362811e-08	1.559374e+01	8.922027e+02
1.000000e-06	2.286438e-06	1.452197e-08	1.649072e+01	9.513128e+02
1.010000e-06	2.409978e-06	1.534866e-08	1.738174e+01	1.005914e+03
1.020000e-06	2.532492e-06	1.611523e-08	1.826536e+01	1.056340e+03
1.030000e-06	2.653956e-06	1.682719e-08	1.914140e+01	1.103021e+03
1.040000e-06	2.774516e-06	1.748737e-08	2.001094e+01	1.146400e+03
1.050000e-06	2.894004e-06	1.810159e-08	2.087273e+01	1.186871e+03
1.060000e-06	3.012348e-06	1.867528e-08	2.172628e+01	1.224746e+03
1.070000e-06	3.129630e-06	1.921356e-08	2.257216e+01	1.260251e+03
1.080000e-06	3.245758e-06	1.971763e-08	2.340973e+01	1.293545e+03
1.090000e-06	3.360562e-06	2.018851e-08	2.423774e+01	1.324749e+03
1.100000e-06	3.474016e-06	2.063023e-08	2.505601e+01	1.353980e+03
1.110000e-06	3.586185e-06	2.104485e-08	2.586502e+01	1.381368e+03
1.120000e-06	3.696982e-06	2.143652e-08	2.666413e+01	1.407071e+03
1.130000e-06	3.806497e-06	2.180816e-08	2.745400e+01	1.431261e+03
1.140000e-06	3.914858e-06	2.215907e-08	2.823554e+01	1.454116e+03
1.150000e-06	4.021893e-06	2.248996e-08	2.900752e+01	1.475791e+03
1.160000e-06	4.127418e-06	2.280414e-08	2.976861e+01	1.496412e+03
1.170000e-06	4.231358e-06	2.310418e-08	3.051827e+01	1.516062e+03
1.180000e-06	4.333751e-06	2.338992e-08	3.125677e+01	1.534786e+03
1.190000e-06	4.434676e-06	2.365924e-08	3.198468e+01	1.552605e+03
1.200000e-06	4.534099e-06	2.391258e-08	3.270176e+01	1.569531e+03
1.210000e-06	4.631861e-06	2.415265e-08	3.340686e+01	1.585581e+03
1.220000e-06	4.727818e-06	2.438250e-08	3.409894e+01	1.600792e+03
1.230000e-06	4.822074e-06	2.460268e-08	3.477875e+01	1.615219e+03
1.240000e-06	4.914762e-06	2.481427e-08	3.544726e+01	1.628932e+03
1.250000e-06	5.005726e-06	2.501661e-08	3.610333e+01	1.642005e+03
1.260000e-06	5.094742e-06	2.520800e-08	3.674535e+01	1.654503e+03
1.270000e-06	5.181806e-06	2.538783e-08	3.737329e+01	1.666473e+03
1.280000e-06	5.267064e-06	2.555867e-08	3.798820e+01	1.677941e+03
1.290000e-06	5.350587e-06	2.572284e-08	3.859061e+01	1.688913e+03
1.300000e-06	5.432158e-06	2.588100e-08	3.917892e+01	1.699383e+03
1.310000e-06	5.511624e-06	2.603290e-08	3.975207e+01	1.709344e+03
1.320000e-06	5.589085e-06	2.617796e-08	4.031075e+01	1.718794e+03
1.330000e-06	5.664461e-06	2.631592e-08	4.085439e+01	1.727746e+03
1.340000e-06	5.737558e-06	2.644782e-08	4.138159e+01	1.736226e+03
1.350000e-06	5.808475e-06	2.657465e-08	4.189308e+01	1.744266e+03
1.360000e-06	5.877400e-06	2.669391e-08	4.239019e+01	1.751899e+03
1.370000e-06	5.944272e-06	2.680655e-08	4.287250e+01	1.759153e+03
1.380000e-06	6.008928e-06	2.691327e-08	4.333883e+01	1.766042e+03
1.390000e-06	6.071452e-06	2.701287e-08	4.378977e+01	1.772571e+03
1.400000e-06	6.132021e-06	2.710514e-08	4.422662e+01	1.778735e+03
1.410000e-06	6.190485e-06	2.719164e-08	4.464829e+01	1.784528e+03
1.420000e-06	6.246688e-06	2.727312e-08	4.505365e+01	1.789952e+03
1.430000e-06	6.300611e-06	2.735077e-08	4.544256e+01	1.795022e+03
1.440000e-06	6.352032e-06	2.742454e-08	4.581343e+01	1.799764e+03
1.450000e-06	6.400810e-06	2.749408e-08	4.616523e+01	1.804215e+03
1.460000e-06	6.447213e-06	2.756014e-08	4.649992e+01	1.808417e+03
1.470000e-06	6.491463e-06	2.762243e-08	4.681906e+01	1.812400e+03
1.480000e-06	6.533379e-06	2.767918e-08	4.712138e+01	1.816185e+03
1.490000e-06	6.572842e-06	2.773231e-08	4.740600e+01	1.819771e+03
1.500000e-06	6.610059e-06	2.778392e-08	4.767442e+01	1.823142e+03
1.510000e-06	6.645047e-06	2.783067e-08	4.792677e+01	1.826269e+03
1.520000e-06	6.677604e-06	2.787177e-08	4.816159e+01	1.829120e+03
1.530000e-06	6.707800e-06	2.790915e-08	4.837938e+01	1.831670e+03
1.540000e-06	6.735734e-06	2.794534e-08	4.858085e+01	1.833907e+03
1.550000e-06	6.761197e-06	2.797762e-08	4.876449e+01	1.835837e+03
1.560000e-06	6.784130e-06	2.800321e-08	4.892989e+01	1.837479e+03
1.570000e-06	6.804738e-06	2.802389e-08	4.907853e+01	1.838862e+03
1.580000e-06	6.822952e-06	2.804176e-08	4.920990e+01	1.840016e+03
1.590000e-06	6.838570e-06	2.805573e-08	4.932254e+01	1.840963e+03
1.600000e-06	6.851601e-06	2.806471e-08	4.941652e+01	1.841717e+03
1.610000e-06	6.861933e-06	2.807260e-08	4.949104e+01	1.842279e+03
1.620000e-06	6.869581e-06	2.807971e-08	4.954620e+01	1.842645e+03
1.630000e-06	6.874890e-06	2.808430e-08	4.958450e+01	1.842809e+03
1.640000e-06	6.877849e-06	2.808561e-08	4.960583e+01	1.842768e+03
1.650000e-06	6.878274e-06	2.808276e-08	4.960890e+01	1.842526e+03
1.660000e-06	6.876316e-06	2.807365e-08	4.959478e+01	1.842095e+03
1.670000e-06	6.872176e-06	2.806204e-08	4.956492e+01	1.841490e+03
1.680000e-06	6.865713e-06	2.804915e-08	4.951831e+01	1.840721e+03
1.690000e-06	6.856878e-06	2.803404e-08	4.945458e+01	1.839792e+03
1.700000e-06	6.845823e-06	2.801902e-08	4.937485e+01	1.838693e+03
1.710000e-06	6.832389e-06	2.800423e-08	4.927796e+01	1.837403e+03
1.720000e-06	6.816604e-06	2.798952e-08	4.916411e+01	1.835899e+03
1.730000e-06	6.798815e-06	2.795406e-08	4.903581e+01	1.834160e+03
1.740000e-06	6.778860e-06	2.788940e-08	4.889188e+01	1.832181e+03
1.750000e-06	6.755914e-06	2.785719e-08	4.872639e+01	1.829976e+03
1.760000e-06	6.729733e-06	2.783937e-08	4.853757e+01	1.827582e+03
1.770000e-06	6.700764e-06	2.780259e-08	4.832863e+01	1.825053e+03
1.780000e-06	6.669491e-06	2.779531e-08	4.810308e+01	1.822444e+03
1.790000e-06	6.636545e-06	2.776178e-08	4.786545e+01	1.819800e+03
1.800000e-06	6.602221e-06	2.765954e-08	4.761789e+01	1.817139e+03
1.810000e-06	6.565853e-06	2.765059e-08	4.735559e+01	1.814441e+03
1.820000e-06	6.526932e-06	2.762476e-08	4.707488e+01	1.811651e+03
1.830000e-06	6.485845e-06	2.757080e-08	4.677855e+01	1.808684e+03
1.840000e-06	6.442569e-06	2.758294e-08	4.646642e+01	1.805443e+03
1.850000e-06	6.396979e-06	2.748993e-08	4.613760e+01	1.801837e+03
1.860000e-06	6.349093e-06	2.743555e-08	4.579223e+01	1.797806e+03
1.870000e-06	6.298798e-06	2.738409e-08	4.542948e+01	1.793327e+03
1.880000e-06	6.246038e-06	2.727314e-08	4.504895e+01	1.788423e+03
1.890000e-06	6.190691e-06	2.721629e-08	4.464978e+01	1.783152e+03
1.900000e-06	6.132961e-06	2.711194e-08	4.423340e+01	1.777589e+03
1.910000e-06	6.072989e-06	2.703285e-08	4.380086e+01	1.771807e+03
1.920000e-06	6.010631e-06	2.695961e-08	4.335111e+01	1.765858e+03
1.930000e-06	5.946033e-06	2.686132e-08	4.288520e+01	1.759754e+03
1.940000e-06	5.879291e-06	2.677594e-08	4.240383e+01	1.753469e+03
1.950000e-06	5.810273e-06	2.664023e-08	4.190604e+01	1.746945e+03
1.960000e-06	5.738981e-06	2.654546e-08	4.139186e+01	1.740111e+03
1.970000e-06	5.665466e-06	2.643039e-08	4.086164e+01	1.732899e+03
1.980000e-06	5.589738e-06	2.631330e-08	4.031546e+01	1.725266e+03
1.990000e-06	5.511732e-06	2.620928e-08	3.975285e+01	1.717200e+03
2.000000e-06	5.431578e-06	2.607486e-08	3.917474e+01	1.708726e+03
2.010000e-06	5.349595e-06	2.595140e-08	3.858345e+01	1.699892e+03
2.020000e-06	5.265796e-06	2.579928e-08	3.797906e+01	1.690751e+03
2.030000e-06	5.180012e-06	2.566155e-08	3.736034e+01	1.681344e+03
2.040000e-06	5.092267e-06	2.552029e-08	3.672749e+01	1.671684e+03
2.050000e-06	5.002824e-06	2.537181e-08	3.608239e+01	1.661747e+03
2.060000e-06	4.911791e-06	2.521126e-08	3.542583e+01	1.651475e+03
2.070000e-06	4.819043e-06	2.503809e-08	3.475689e+01	1.640795e+03
2.080000e-06	4.724553e-06	2.486917e-08	3.407539e+01	1.629628e+03
2.090000e-06	4.628346e-06	2.468656e-08	3.338151e+01	1.617916e+03
2.100000e-06	4.530562e-06	2.450567e-08	3.267625e+01	1.605631e+03
2.110000e-06	4.431312e-06	2.431318e-08	3.196042e+01	1.592777e+03
2.120000e-06	4.330466e-06	2.411403e-08	3.123307e+01	1.579385e+03
2.130000e-06	4.227993e-06	2.389833e-08	3.049400e+01	1.565496e+03
2.140000e-06	4.123966e-06	2.367600e-08	2.974371e+01	1.551141e+03
2.150000e-06	4.018449e-06	2.345006e-08	2.898268e+01	1.536323e+03
2.160000e-06	3.911560e-06	2.321738e-08	2.821176e+01	1.521013e+03
2.170000e-06	3.803256e-06	2.297789e-08	2.743062e+01	1.505143e+03
2.180000e-06	3.693577e-06	2.272507e-08	2.663957e+01	1.488624e+03
2.190000e-06	3.582510e-06	2.246289e-08	2.583851e+01	1.471360e+03
2.200000e-06	3.470013e-06	2.218697e-08	2.502714e+01	1.453270e+03
2.210000e-06	3.356169e-06	2.190056e-08	2.420605e+01	1.434298e+03
2.220000e-06	3.240914e-06	2.160066e-08	2.337478e+01	1.414421e+03
2.230000e-06	3.124277e-06	2.128935e-08	2.253355e+01	1.393638e+03
2.240000e-06	3.006379e-06	2.096231e-08	2.168323e+01	1.371956e+03
2.250000e-06	2.887318e-06	2.061987e-08	2.082451e+01	1.349369e+03
2.260000e-06	2.767084e-06	2.026043e-08	1.995733e+01	1.325836e+03
2.270000e-06	2.645773e-06	1.988427e-08	1.908239e+01	1.301273e+03
2.280000e-06	2.523623e-06	1.949059e-08	1.820140e+01	1.275552e+03
2.290000e-06	2.400655e-06	1.907778e-08	1.731450e+01	1.248514e+03
2.300000e-06	2.276764e-06	1.864389e-08	1.642094e+01	1.219988e+03
2.310000e-06	2.152038e-06	1.818417e-08	1.552137e+01	1.189813e+03
2.320000e-06	2.026652e-06	1.769790e-08	1.461703e+01	1.157850e+03
2.330000e-06	1.900604e-06	1.718150e-08	1.370793e+01	1.123988e+03
2.340000e-06	1.773876e-06	1.663591e-08	1.279391e+01	1.088132e+03
2.350000e-06	1.646519e-06	1.605942e-08	1.187537e+01	1.050186e+03
2.360000e-06	1.518569e-06	1.544797e-08	1.095254e+01	1.010025e+03
2.370000e-06	1.390065e-06	1.480004e-08	1.002571e+01	9.674827e+02
2.380000e-06	1.261073e-06	1.411122e-08	9.095368e+00	9.223493e+02
2.390000e-06	1.131703e-06	1.337748e-08	8.162301e+00	8.743901e+02
2.400000e-06	1.002032e-06	1.259639e-08	7.227063e+00	8.233863e+02
2.410000e-06	8.720755e-07	1.176969e-08	6.289762e+00	7.691883e+02
2.420000e-06	7.419001e-07	1.089775e-08	5.350884e+00	7.117699e+02
2.430000e-06	6.115294e-07	9.978598e-09	4.410598e+00	6.512696e+02
2.440000e-06	4.809237e-07	9.016504e-09	3.468616e+00	5.880035e+02
2.450000e-06	3.501596e-07	8.018207e-09	2.525493e+00	5.224429e+02
2.460000e-06	2.192144e-07	6.991362e-09	1.581063e+00	4.551555e+02
2.470000e-06	8.807976e-08	5.944528e-09	6.352670e-01	3.867194e+02
2.480000e-06	-4.311018e-08	4.886204e-09	-3.109281e-01	3.176257e+02
2.490000e-06	-1.742902e-07	3.820616e-09	-1.257051e+00	2.481927e+02
2.500000e-06	-3.053985e-07	2.750929e-09	-2.202658e+00	1.785106e+02
2.510000e-06	-4.364092e-07	1.677829e-09	-3.147560e+00	1.084331e+02
2.520000e-06	-5.672818e-07	5.975602e-10	-4.091466e+00	3.762102e+01
2.530000e-06	-6.979836e-07	-4.978944e-10	-5.034141e+00	-3.436679e+01
2.540000e-06	-8.284313e-07	-1.617152e-09	-5.974982e+00	-1.079528e+02
2.550000e-06	-9.585375e-07	-2.763034e-09	-6.913361e+00	-1.834137e+02
2.560000e-06	-1.088329e-06	-3.938199e-09	-7.849468e+00	-2.607734e+02
2.570000e-06	-1.217792e-06	-5.142494e-09	-8.783213e+00	-3.397384e+02
2.580000e-06	-1.346971e-06	-6.365478e-09	-9.714898e+00	-4.196905e+02
2.590000e-06	-1.475745e-06	-7.592914e-09	-1.064367e+01	-4.997379e+02
2.600000e-06	-1.603960e-06	-8.807415e-09	-1.156841e+01	-5.788163e+02
2.610000e-06	-1.731640e-06	-9.988264e-09	-1.248929e+01	-6.558187e+02
2.620000e-06	-1.858591e-06	-1.111855e-08	-1.340491e+01	-7.297306e+02
2.630000e-06	-1.984691e-06	-1.218676e-08	-1.431440e+01	-7.997436e+02
2.640000e-06	-2.110071e-06	-1.318645e-08	-1.521869e+01	-8.653297e+02
2.650000e-06	-2.234734e-06	-1.411607e-08	-1.611781e+01	-9.262654e+02
2.660000e-06	-2.358524e-06	-1.497896e-08	-1.701063e+01	-9.826069e+02
2.670000e-06	-2.481343e-06	-1.577872e-08	-1.789645e+01	-1.034626e+03
2.680000e-06	-2.603177e-06	-1.652088e-08	-1.877517e+01	-1.082725e+03
2.690000e-06	-2.724088e-06	-1.721089e-08	-1.964723e+01	-1.127350e+03
2.700000e-06	-2.844025e-06	-1.785288e-08	-2.051226e+01	-1.168922e+03
2.710000e-06	-2.962735e-06	-1.845048e-08	-2.136845e+01	-1.207786e+03
2.720000e-06	-3.080252e-06	-1.900829e-08	-2.221602e+01	-1.244200e+03
2.730000e-06	-3.196715e-06	-1.952988e-08	-2.305601e+01	-1.278348e+03
2.740000e-06	-3.311896e-06	-2.001672e-08	-2.388674e+01	-1.310360e+03
2.750000e-06	-3.425640e-06	-2.047092e-08	-2.470711e+01	-1.340352e+03
2.760000e-06	-3.537986e-06	-2.089654e-08	-2.551739e+01	-1.368447e+03
2.770000e-06	-3.648976e-06	-2.129871e-08	-2.631789e+01	-1.394792e+03
2.780000e-06	-3.758618e-06	-2.168104e-08	-2.710867e+01	-1.419556e+03
2.790000e-06	-3.867011e-06	-2.204392e-08	-2.789045e+01	-1.442915e+03
2.800000e-06	-3.974229e-06	-2.238493e-08	-2.866375e+01	-1.465038e+03
2.810000e-06	-4.080099e-06	-2.270558e-08	-2.942733e+01	-1.486061e+03
2.820000e-06	-4.184520e-06	-2.300926e-08	-3.018046e+01	-1.506085e+03
2.830000e-06	-4.287387e-06	-2.329837e-08	-3.092238e+01	-1.525170e+03
2.840000e-06	-4.388683e-06	-2.357582e-08	-3.165296e+01	-1.543344e+03
2.850000e-06	-4.488420e-06	-2.384070e-08	-3.237230e+01	-1.560619e+03
2.860000e-06	-4.586568e-06	-2.409061e-08	-3.308019e+01	-1.577011e+03
2.870000e-06	-4.683135e-06	-2.432597e-08	-3.377667e+01	-1.592546e+03
2.880000e-06	-4.778020e-06	-2.454953e-08	-3.446102e+01	-1.607274e+03
2.890000e-06	-4.871160e-06	-2.476493e-08	-3.513278e+01	-1.621259e+03
2.900000e-06	-4.962591e-06	-2.497183e-08	-3.579222e+01	-1.634576e+03
2.910000e-06	-5.052290e-06	-2.517094e-08	-3.643916e+01	-1.647293e+03
2.920000e-06	-5.140107e-06	-2.536158e-08	-3.707253e+01	-1.659467e+03
2.930000e-06	-5.225947e-06	-2.554181e-08	-3.769165e+01	-1.671131e+03
2.940000e-06	-5.309858e-06	-2.571113e-08	-3.829685e+01	-1.682298e+03
