# Temperatura_=_75.7
# Concentracion g/m^3_=_28200.0
# C_Vs_to_Am_M_A/Vsm_=_65563218390.804596
# pendiente_HvsI_1/m_=_3716.3
# ordenada_HvsI_A/m_=_1297.0
# frecuencia_Hz_=_302299.01623485953

Tiempo_(s)	Campo_(V.s)	Magnetizacion_(V.s)	Campo_(kA/m)	Magnetizacion_(A/m)
0.000000e+00	-6.862727e-06	-2.764073e-08	-4.951999e+01	-1.809822e+03
1.000000e-08	-6.860000e-06	-2.763338e-08	-4.950031e+01	-1.809354e+03
2.000000e-08	-6.855036e-06	-2.762181e-08	-4.946449e+01	-1.808693e+03
3.000000e-08	-6.848036e-06	-2.760892e-08	-4.941398e+01	-1.807848e+03
4.000000e-08	-6.838727e-06	-2.759558e-08	-4.934681e+01	-1.806827e+03
5.000000e-08	-6.826893e-06	-2.758062e-08	-4.926142e+01	-1.805633e+03
6.000000e-08	-6.812453e-06	-2.756233e-08	-4.915722e+01	-1.804264e+03
7.000000e-08	-6.795525e-06	-2.753530e-08	-4.903507e+01	-1.802713e+03
8.000000e-08	-6.776556e-06	-2.750164e-08	-4.889819e+01	-1.800975e+03
9.000000e-08	-6.755475e-06	-2.751095e-08	-4.874608e+01	-1.799050e+03
1.000000e-07	-6.731812e-06	-2.750329e-08	-4.857533e+01	-1.796949e+03
1.100000e-07	-6.705324e-06	-2.743025e-08	-4.838420e+01	-1.794695e+03
1.200000e-07	-6.676289e-06	-2.736952e-08	-4.817469e+01	-1.792318e+03
1.300000e-07	-6.645094e-06	-2.733230e-08	-4.794959e+01	-1.789849e+03
1.400000e-07	-6.611761e-06	-2.725338e-08	-4.770907e+01	-1.787308e+03
1.500000e-07	-6.576522e-06	-2.719877e-08	-4.745479e+01	-1.784697e+03
1.600000e-07	-6.539466e-06	-2.724683e-08	-4.718740e+01	-1.781994e+03
1.700000e-07	-6.500325e-06	-2.714566e-08	-4.690497e+01	-1.779153e+03
1.800000e-07	-6.458984e-06	-2.706081e-08	-4.660667e+01	-1.776107e+03
1.900000e-07	-6.415196e-06	-2.705954e-08	-4.629070e+01	-1.772786e+03
2.000000e-07	-6.368905e-06	-2.693322e-08	-4.595667e+01	-1.769126e+03
2.100000e-07	-6.320245e-06	-2.689027e-08	-4.560555e+01	-1.765085e+03
2.200000e-07	-6.268996e-06	-2.685609e-08	-4.523575e+01	-1.760651e+03
2.300000e-07	-6.215185e-06	-2.677038e-08	-4.484746e+01	-1.755843e+03
2.400000e-07	-6.158984e-06	-2.670567e-08	-4.444193e+01	-1.750705e+03
2.500000e-07	-6.100384e-06	-2.660799e-08	-4.401908e+01	-1.745292e+03
2.600000e-07	-6.039515e-06	-2.651959e-08	-4.357986e+01	-1.739655e+03
2.700000e-07	-5.976434e-06	-2.642728e-08	-4.312469e+01	-1.733829e+03
2.800000e-07	-5.911161e-06	-2.633673e-08	-4.265368e+01	-1.727820e+03
2.900000e-07	-5.843658e-06	-2.624324e-08	-4.216660e+01	-1.721609e+03
3.000000e-07	-5.773956e-06	-2.613384e-08	-4.166364e+01	-1.715150e+03
3.100000e-07	-5.702165e-06	-2.604350e-08	-4.114562e+01	-1.708393e+03
3.200000e-07	-5.628167e-06	-2.592641e-08	-4.061167e+01	-1.701289e+03
3.300000e-07	-5.551777e-06	-2.581623e-08	-4.006045e+01	-1.693807e+03
3.400000e-07	-5.473006e-06	-2.569598e-08	-3.949205e+01	-1.685940e+03
3.500000e-07	-5.392144e-06	-2.556792e-08	-3.890857e+01	-1.677702e+03
3.600000e-07	-5.309422e-06	-2.545126e-08	-3.831166e+01	-1.669122e+03
3.700000e-07	-5.224984e-06	-2.531231e-08	-3.770238e+01	-1.660229e+03
3.800000e-07	-5.138897e-06	-2.517581e-08	-3.708119e+01	-1.651040e+03
3.900000e-07	-5.051112e-06	-2.502839e-08	-3.644776e+01	-1.641551e+03
4.000000e-07	-4.961482e-06	-2.487233e-08	-3.580101e+01	-1.631736e+03
4.100000e-07	-4.869955e-06	-2.470690e-08	-3.514057e+01	-1.621547e+03
4.200000e-07	-4.776777e-06	-2.454584e-08	-3.446821e+01	-1.610928e+03
4.300000e-07	-4.682057e-06	-2.438269e-08	-3.378473e+01	-1.599830e+03
4.400000e-07	-4.585710e-06	-2.420140e-08	-3.308951e+01	-1.588218e+03
4.500000e-07	-4.487631e-06	-2.401441e-08	-3.238180e+01	-1.576082e+03
4.600000e-07	-4.387844e-06	-2.382184e-08	-3.166176e+01	-1.563433e+03
4.700000e-07	-4.286533e-06	-2.362351e-08	-3.093072e+01	-1.550294e+03
4.800000e-07	-4.183722e-06	-2.341782e-08	-3.018885e+01	-1.536686e+03
4.900000e-07	-4.079458e-06	-2.320717e-08	-2.943651e+01	-1.522615e+03
5.000000e-07	-3.973720e-06	-2.298516e-08	-2.867352e+01	-1.508059e+03
5.100000e-07	-3.866415e-06	-2.275126e-08	-2.789923e+01	-1.492967e+03
5.200000e-07	-3.757724e-06	-2.250519e-08	-2.711494e+01	-1.477262e+03
5.300000e-07	-3.647764e-06	-2.224920e-08	-2.632150e+01	-1.460860e+03
5.400000e-07	-3.536460e-06	-2.198425e-08	-2.551835e+01	-1.443676e+03
5.500000e-07	-3.423800e-06	-2.170750e-08	-2.470542e+01	-1.425651e+03
5.600000e-07	-3.309681e-06	-2.141976e-08	-2.388196e+01	-1.406748e+03
5.700000e-07	-3.194010e-06	-2.111854e-08	-2.304730e+01	-1.386958e+03
5.800000e-07	-3.077028e-06	-2.080339e-08	-2.220318e+01	-1.366289e+03
5.900000e-07	-2.958947e-06	-2.047428e-08	-2.135114e+01	-1.344742e+03
6.000000e-07	-2.839775e-06	-2.013402e-08	-2.049122e+01	-1.322298e+03
6.100000e-07	-2.719603e-06	-1.977803e-08	-1.962408e+01	-1.298900e+03
6.200000e-07	-2.598463e-06	-1.940110e-08	-1.874996e+01	-1.274448e+03
6.300000e-07	-2.476236e-06	-1.900323e-08	-1.786799e+01	-1.248801e+03
6.400000e-07	-2.353006e-06	-1.858650e-08	-1.697880e+01	-1.221798e+03
6.500000e-07	-2.228940e-06	-1.814877e-08	-1.608356e+01	-1.193269e+03
6.600000e-07	-2.104157e-06	-1.768722e-08	-1.518316e+01	-1.163059e+03
6.700000e-07	-1.978757e-06	-1.720087e-08	-1.427830e+01	-1.131038e+03
6.800000e-07	-1.852747e-06	-1.668636e-08	-1.336903e+01	-1.097099e+03
6.900000e-07	-1.726091e-06	-1.614067e-08	-1.245510e+01	-1.061145e+03
7.000000e-07	-1.598774e-06	-1.556042e-08	-1.153642e+01	-1.023070e+03
7.100000e-07	-1.470888e-06	-1.494546e-08	-1.061362e+01	-9.827357e+02
7.200000e-07	-1.342507e-06	-1.429284e-08	-9.687245e+00	-9.399664e+02
7.300000e-07	-1.213695e-06	-1.359779e-08	-8.757765e+00	-8.945485e+02
7.400000e-07	-1.084555e-06	-1.285637e-08	-7.825921e+00	-8.462590e+02
7.500000e-07	-9.550509e-07	-1.206900e-08	-6.891446e+00	-7.949078e+02
7.600000e-07	-8.251782e-07	-1.123583e-08	-5.954311e+00	-7.403912e+02
7.700000e-07	-6.949442e-07	-1.035721e-08	-5.014570e+00	-6.827411e+02
7.800000e-07	-5.643721e-07	-9.434850e-09	-4.072390e+00	-6.221578e+02
7.900000e-07	-4.336065e-07	-8.474651e-09	-3.128813e+00	-5.590128e+02
8.000000e-07	-3.027180e-07	-7.483696e-09	-2.184349e+00	-4.938161e+02
8.100000e-07	-1.717269e-07	-6.467254e-09	-1.239145e+00	-4.271498e+02
8.200000e-07	-4.061534e-08	-5.435872e-09	-2.930717e-01	-3.595791e+02
8.300000e-07	9.057441e-08	-4.396547e-09	6.535658e-01	-2.915569e+02
8.400000e-07	2.217272e-07	-3.353911e-09	1.599936e+00	-2.233454e+02
8.500000e-07	3.527887e-07	-2.310650e-09	2.545649e+00	-1.549712e+02
8.600000e-07	4.837161e-07	-1.265378e-09	3.490393e+00	-8.622899e+01
8.700000e-07	6.145114e-07	-2.120538e-10	4.434185e+00	-1.673646e+01
8.800000e-07	7.450977e-07	8.616486e-10	5.376468e+00	5.396814e+01
8.900000e-07	8.754254e-07	1.963544e-09	6.316885e+00	1.263028e+02
9.000000e-07	1.005451e-06	3.095698e-09	7.255120e+00	2.005179e+02
9.100000e-07	1.135116e-06	4.257323e-09	8.190760e+00	2.765967e+02
9.200000e-07	1.264361e-06	5.443419e-09	9.123360e+00	3.542012e+02
9.300000e-07	1.393030e-06	6.643190e-09	1.005181e+01	4.326757e+02
9.400000e-07	1.521144e-06	7.840938e-09	1.097626e+01	5.111070e+02
9.500000e-07	1.648725e-06	9.021663e-09	1.189685e+01	5.884307e+02
9.600000e-07	1.775671e-06	1.016725e-08	1.281286e+01	6.635625e+02
9.700000e-07	1.902004e-06	1.125827e-08	1.372446e+01	7.355293e+02
9.800000e-07	2.027727e-06	1.228602e-08	1.463165e+01	8.035761e+02
9.900000e-07	2.152742e-06	1.324717e-08	1.553373e+01	8.672318e+02
1.000000e-06	2.277039e-06	1.413913e-08	1.643063e+01	9.263246e+02
1.010000e-06	2.400550e-06	1.496594e-08	1.732186e+01	9.809496e+02
1.020000e-06	2.523191e-06	1.573442e-08	1.820681e+01	1.031402e+03
1.030000e-06	2.644878e-06	1.644605e-08	1.908488e+01	1.078089e+03
1.040000e-06	2.765368e-06	1.710499e-08	1.995431e+01	1.121449e+03
1.050000e-06	2.884699e-06	1.771943e-08	2.081538e+01	1.161881e+03
1.060000e-06	3.003051e-06	1.829336e-08	2.166938e+01	1.199707e+03
1.070000e-06	3.120348e-06	1.883018e-08	2.251577e+01	1.235161e+03
1.080000e-06	3.236458e-06	1.933295e-08	2.335360e+01	1.268405e+03
1.090000e-06	3.351291e-06	1.980355e-08	2.418221e+01	1.299556e+03
1.100000e-06	3.464772e-06	2.024475e-08	2.500106e+01	1.328724e+03
1.110000e-06	3.576827e-06	2.065821e-08	2.580962e+01	1.356031e+03
1.120000e-06	3.687559e-06	2.104760e-08	2.660865e+01	1.381627e+03
1.130000e-06	3.797131e-06	2.141735e-08	2.739930e+01	1.405685e+03
1.140000e-06	3.905517e-06	2.176650e-08	2.818138e+01	1.428387e+03
1.150000e-06	4.012637e-06	2.209607e-08	2.895434e+01	1.449900e+03
1.160000e-06	4.118339e-06	2.240835e-08	2.971706e+01	1.470360e+03
1.170000e-06	4.222384e-06	2.270519e-08	3.046783e+01	1.489859e+03
1.180000e-06	4.324810e-06	2.298742e-08	3.120691e+01	1.508449e+03
1.190000e-06	4.425755e-06	2.325533e-08	3.193531e+01	1.526147e+03
1.200000e-06	4.525214e-06	2.350868e-08	3.265299e+01	1.542957e+03
1.210000e-06	4.623082e-06	2.374888e-08	3.335918e+01	1.558884e+03
1.220000e-06	4.719137e-06	2.397827e-08	3.405230e+01	1.573953e+03
1.230000e-06	4.813443e-06	2.419701e-08	3.473279e+01	1.588211e+03
1.240000e-06	4.906146e-06	2.440291e-08	3.540171e+01	1.601727e+03
1.250000e-06	4.997197e-06	2.459770e-08	3.605872e+01	1.614580e+03
1.260000e-06	5.086414e-06	2.478462e-08	3.670249e+01	1.626849e+03
1.270000e-06	5.173648e-06	2.496286e-08	3.733195e+01	1.638596e+03
1.280000e-06	5.259032e-06	2.513333e-08	3.794806e+01	1.649863e+03
1.290000e-06	5.342658e-06	2.529656e-08	3.855149e+01	1.660666e+03
1.300000e-06	5.424307e-06	2.545266e-08	3.914065e+01	1.671002e+03
1.310000e-06	5.503845e-06	2.560091e-08	3.971458e+01	1.680860e+03
1.320000e-06	5.581404e-06	2.574367e-08	4.027423e+01	1.690228e+03
1.330000e-06	5.656922e-06	2.588285e-08	4.081915e+01	1.699106e+03
1.340000e-06	5.730169e-06	2.601652e-08	4.134769e+01	1.707508e+03
1.350000e-06	5.801197e-06	2.614117e-08	4.186021e+01	1.715458e+03
1.360000e-06	5.870170e-06	2.625615e-08	4.235791e+01	1.722988e+03
1.370000e-06	5.937119e-06	2.636495e-08	4.284099e+01	1.730129e+03
1.380000e-06	6.001891e-06	2.646754e-08	4.330838e+01	1.736905e+03
1.390000e-06	6.064512e-06	2.656475e-08	4.376024e+01	1.743328e+03
1.400000e-06	6.125225e-06	2.665760e-08	4.419833e+01	1.749401e+03
1.410000e-06	6.183930e-06	2.674391e-08	4.462193e+01	1.755123e+03
1.420000e-06	6.240393e-06	2.682510e-08	4.502936e+01	1.760493e+03
1.430000e-06	6.294531e-06	2.690234e-08	4.542001e+01	1.765519e+03
1.440000e-06	6.346137e-06	2.697506e-08	4.579238e+01	1.770220e+03
1.450000e-06	6.395001e-06	2.704353e-08	4.614498e+01	1.774627e+03
1.460000e-06	6.441403e-06	2.710785e-08	4.647981e+01	1.778775e+03
1.470000e-06	6.485695e-06	2.716796e-08	4.679941e+01	1.782696e+03
1.480000e-06	6.527762e-06	2.722302e-08	4.710295e+01	1.786414e+03
1.490000e-06	6.567387e-06	2.727531e-08	4.738887e+01	1.789934e+03
1.500000e-06	6.604711e-06	2.732610e-08	4.765820e+01	1.793246e+03
1.510000e-06	6.639818e-06	2.737340e-08	4.791152e+01	1.796326e+03
1.520000e-06	6.672482e-06	2.741526e-08	4.814722e+01	1.799141e+03
1.530000e-06	6.702742e-06	2.745178e-08	4.836557e+01	1.801662e+03
1.540000e-06	6.730824e-06	2.748558e-08	4.856820e+01	1.803872e+03
1.550000e-06	6.756464e-06	2.751609e-08	4.875322e+01	1.805767e+03
1.560000e-06	6.779471e-06	2.754199e-08	4.891923e+01	1.807365e+03
1.570000e-06	6.800174e-06	2.756297e-08	4.906862e+01	1.808692e+03
1.580000e-06	6.818589e-06	2.757775e-08	4.920149e+01	1.809785e+03
1.590000e-06	6.834396e-06	2.758805e-08	4.931556e+01	1.810675e+03
1.600000e-06	6.847598e-06	2.759682e-08	4.941082e+01	1.811386e+03
1.610000e-06	6.858127e-06	2.760579e-08	4.948679e+01	1.811931e+03
1.620000e-06	6.865957e-06	2.761475e-08	4.954329e+01	1.812307e+03
1.630000e-06	6.871376e-06	2.762239e-08	4.958240e+01	1.812506e+03
1.640000e-06	6.874435e-06	2.762629e-08	4.960447e+01	1.812516e+03
1.650000e-06	6.875049e-06	2.762555e-08	4.960890e+01	1.812327e+03
1.660000e-06	6.873305e-06	2.761586e-08	4.959632e+01	1.811937e+03
1.670000e-06	6.869309e-06	2.760082e-08	4.956748e+01	1.811351e+03
1.680000e-06	6.862970e-06	2.758684e-08	4.952174e+01	1.810577e+03
1.690000e-06	6.854314e-06	2.757158e-08	4.945928e+01	1.809623e+03
1.700000e-06	6.843451e-06	2.755687e-08	4.938090e+01	1.808497e+03
1.710000e-06	6.830234e-06	2.754275e-08	4.928552e+01	1.807197e+03
1.720000e-06	6.814642e-06	2.753239e-08	4.917302e+01	1.805718e+03
1.730000e-06	6.796960e-06	2.751172e-08	4.904543e+01	1.804053e+03
1.740000e-06	6.777130e-06	2.742795e-08	4.890234e+01	1.802201e+03
1.750000e-06	6.754411e-06	2.738237e-08	4.873840e+01	1.800167e+03
1.760000e-06	6.728458e-06	2.738839e-08	4.855113e+01	1.797969e+03
1.770000e-06	6.699721e-06	2.735112e-08	4.834377e+01	1.795636e+03
1.780000e-06	6.668676e-06	2.733026e-08	4.811976e+01	1.793200e+03
1.790000e-06	6.635856e-06	2.734259e-08	4.788293e+01	1.790685e+03
1.800000e-06	6.601685e-06	2.722026e-08	4.763636e+01	1.788102e+03
1.810000e-06	6.565599e-06	2.718047e-08	4.737598e+01	1.785440e+03
1.820000e-06	6.526962e-06	2.722902e-08	4.709718e+01	1.782659e+03
1.830000e-06	6.486099e-06	2.713669e-08	4.680232e+01	1.779702e+03
1.840000e-06	6.443071e-06	2.717020e-08	4.649183e+01	1.776497e+03
1.850000e-06	6.397723e-06	2.709380e-08	4.616462e+01	1.772976e+03
1.860000e-06	6.350048e-06	2.695287e-08	4.582060e+01	1.769088e+03
1.870000e-06	6.299903e-06	2.693751e-08	4.545877e+01	1.764807e+03
1.880000e-06	6.247390e-06	2.680768e-08	4.507985e+01	1.760142e+03
1.890000e-06	6.192331e-06	2.678118e-08	4.468255e+01	1.755127e+03
1.900000e-06	6.134727e-06	2.672617e-08	4.426690e+01	1.749814e+03
1.910000e-06	6.074882e-06	2.661132e-08	4.383506e+01	1.744259e+03
1.920000e-06	6.012661e-06	2.656957e-08	4.338609e+01	1.738505e+03
1.930000e-06	5.948227e-06	2.643469e-08	4.292115e+01	1.732569e+03
1.940000e-06	5.881699e-06	2.636698e-08	4.244110e+01	1.726441e+03
1.950000e-06	5.812956e-06	2.625269e-08	4.194506e+01	1.720085e+03
1.960000e-06	5.741864e-06	2.614059e-08	4.143208e+01	1.713451e+03
1.970000e-06	5.668511e-06	2.605876e-08	4.090278e+01	1.706487e+03
1.980000e-06	5.593111e-06	2.591042e-08	4.035870e+01	1.699156e+03
1.990000e-06	5.515408e-06	2.582435e-08	3.979802e+01	1.691439e+03
2.000000e-06	5.435483e-06	2.568818e-08	3.922130e+01	1.683344e+03
2.010000e-06	5.353684e-06	2.557099e-08	3.863106e+01	1.674894e+03
2.020000e-06	5.270109e-06	2.543981e-08	3.802799e+01	1.666121e+03
2.030000e-06	5.184617e-06	2.528274e-08	3.741110e+01	1.657046e+03
2.040000e-06	5.097090e-06	2.515260e-08	3.677953e+01	1.647677e+03
2.050000e-06	5.007792e-06	2.499531e-08	3.613517e+01	1.637995e+03
2.060000e-06	4.916883e-06	2.485328e-08	3.547919e+01	1.627959e+03
2.070000e-06	4.824388e-06	2.468366e-08	3.481176e+01	1.617515e+03
2.080000e-06	4.730126e-06	2.452194e-08	3.413159e+01	1.606610e+03
2.090000e-06	4.634042e-06	2.434931e-08	3.343827e+01	1.595202e+03
2.100000e-06	4.536444e-06	2.416959e-08	3.273402e+01	1.583271e+03
2.110000e-06	4.437356e-06	2.399065e-08	3.201902e+01	1.570821e+03
2.120000e-06	4.336733e-06	2.379268e-08	3.129295e+01	1.557871e+03
2.130000e-06	4.234510e-06	2.358400e-08	3.055533e+01	1.544445e+03
2.140000e-06	4.130637e-06	2.335713e-08	2.980580e+01	1.530557e+03
2.150000e-06	4.025228e-06	2.313801e-08	2.904520e+01	1.516195e+03
2.160000e-06	3.918457e-06	2.291275e-08	2.827476e+01	1.501321e+03
2.170000e-06	3.810385e-06	2.268631e-08	2.749493e+01	1.485867e+03
2.180000e-06	3.700909e-06	2.244571e-08	2.670497e+01	1.469748e+03
2.190000e-06	3.589955e-06	2.219277e-08	2.590436e+01	1.452880e+03
2.200000e-06	3.477627e-06	2.192315e-08	2.509382e+01	1.435191e+03
2.210000e-06	3.363936e-06	2.163871e-08	2.427345e+01	1.416635e+03
2.220000e-06	3.248848e-06	2.134649e-08	2.344300e+01	1.397193e+03
2.230000e-06	3.132465e-06	2.103974e-08	2.260321e+01	1.376868e+03
2.240000e-06	3.014806e-06	2.071640e-08	2.175420e+01	1.355666e+03
2.250000e-06	2.895802e-06	2.037547e-08	2.089549e+01	1.333578e+03
2.260000e-06	2.775639e-06	2.002365e-08	2.002843e+01	1.310564e+03
2.270000e-06	2.654548e-06	1.965703e-08	1.915466e+01	1.286541e+03
2.280000e-06	2.532535e-06	1.927801e-08	1.827424e+01	1.261382e+03
2.290000e-06	2.409605e-06	1.887983e-08	1.738720e+01	1.234931e+03
2.300000e-06	2.285825e-06	1.845669e-08	1.649403e+01	1.207020e+03
2.310000e-06	2.161350e-06	1.800340e-08	1.559585e+01	1.177488e+03
2.320000e-06	2.036202e-06	1.752243e-08	1.469280e+01	1.146192e+03
2.330000e-06	1.910304e-06	1.701523e-08	1.378435e+01	1.113018e+03
2.340000e-06	1.783596e-06	1.648075e-08	1.287005e+01	1.077867e+03
2.350000e-06	1.656133e-06	1.591696e-08	1.195031e+01	1.040639e+03
2.360000e-06	1.528093e-06	1.531862e-08	1.102640e+01	1.001210e+03
2.370000e-06	1.399560e-06	1.468196e-08	1.009893e+01	9.594211e+02
2.380000e-06	1.270614e-06	1.400339e-08	9.168483e+00	9.150702e+02
2.390000e-06	1.141309e-06	1.328145e-08	8.235447e+00	8.679341e+02
2.400000e-06	1.011686e-06	1.251341e-08	7.300111e+00	8.178037e+02
2.410000e-06	8.817627e-07	1.169992e-08	6.362614e+00	7.645350e+02
2.420000e-06	7.515921e-07	1.084188e-08	5.423330e+00	7.081014e+02
2.430000e-06	6.212316e-07	9.938333e-09	4.482676e+00	6.486349e+02
2.440000e-06	4.906503e-07	8.992856e-09	3.540429e+00	5.864416e+02
2.450000e-06	3.598852e-07	8.012084e-09	2.596856e+00	5.219833e+02
2.460000e-06	2.290111e-07	7.003716e-09	1.652496e+00	4.558235e+02
2.470000e-06	9.803305e-08	5.975862e-09	7.073857e-01	3.885454e+02
2.480000e-06	-3.304474e-08	4.937454e-09	-2.384439e-01	3.206570e+02
2.490000e-06	-1.641110e-07	3.894381e-09	-1.184190e+00	2.525028e+02
2.500000e-06	-2.951020e-07	2.846771e-09	-2.129394e+00	1.842044e+02
2.510000e-06	-4.260297e-07	1.794008e-09	-3.074140e+00	1.156440e+02
2.520000e-06	-5.568788e-07	7.332731e-10	-4.018320e+00	4.649912e+01
2.530000e-06	-6.875927e-07	-3.398196e-10	-4.961523e+00	-2.367454e+01
2.540000e-06	-8.181179e-07	-1.430031e-09	-5.903366e+00	-9.532748e+01
2.550000e-06	-9.483846e-07	-2.544042e-09	-6.843343e+00	-1.687897e+02
2.560000e-06	-1.078302e-06	-3.686356e-09	-7.780799e+00	-2.441586e+02
2.570000e-06	-1.207882e-06	-4.858213e-09	-8.715820e+00	-3.212255e+02
2.580000e-06	-1.337099e-06	-6.053786e-09	-9.648223e+00	-3.994552e+02
2.590000e-06	-1.465837e-06	-7.258806e-09	-1.057717e+01	-4.780251e+02
2.600000e-06	-1.594055e-06	-8.456119e-09	-1.150237e+01	-5.559156e+02
2.610000e-06	-1.721704e-06	-9.624738e-09	-1.242345e+01	-6.320338e+02
2.620000e-06	-1.848703e-06	-1.074662e-08	-1.333985e+01	-7.053484e+02
2.630000e-06	-1.975024e-06	-1.181097e-08	-1.425136e+01	-7.750084e+02
2.640000e-06	-2.100552e-06	-1.280998e-08	-1.515714e+01	-8.404264e+02
2.650000e-06	-2.225148e-06	-1.373943e-08	-1.605619e+01	-9.013144e+02
2.660000e-06	-2.348817e-06	-1.460029e-08	-1.694857e+01	-9.576691e+02
2.670000e-06	-2.471572e-06	-1.539879e-08	-1.783434e+01	-1.009716e+03
2.680000e-06	-2.593408e-06	-1.614172e-08	-1.871349e+01	-1.057831e+03
2.690000e-06	-2.714347e-06	-1.683241e-08	-1.958615e+01	-1.102447e+03
2.700000e-06	-2.834290e-06	-1.747355e-08	-2.045164e+01	-1.143987e+03
2.710000e-06	-2.953152e-06	-1.807017e-08	-2.130932e+01	-1.182804e+03
2.720000e-06	-3.070839e-06	-1.862757e-08	-2.215852e+01	-1.219168e+03
2.730000e-06	-3.187212e-06	-1.914909e-08	-2.299825e+01	-1.253264e+03
2.740000e-06	-3.302266e-06	-1.963665e-08	-2.382846e+01	-1.285226e+03
2.750000e-06	-3.415991e-06	-2.009011e-08	-2.464907e+01	-1.315160e+03
2.760000e-06	-3.528345e-06	-2.051420e-08	-2.545979e+01	-1.343181e+03
2.770000e-06	-3.639274e-06	-2.091343e-08	-2.626023e+01	-1.369430e+03
2.780000e-06	-3.748878e-06	-2.129253e-08	-2.705111e+01	-1.394072e+03
2.790000e-06	-3.857299e-06	-2.165266e-08	-2.783346e+01	-1.417286e+03
2.800000e-06	-3.964529e-06	-2.199022e-08	-2.860720e+01	-1.439248e+03
2.810000e-06	-4.070503e-06	-2.230866e-08	-2.937189e+01	-1.460108e+03
2.820000e-06	-4.175021e-06	-2.261140e-08	-3.012607e+01	-1.479977e+03
2.830000e-06	-4.278002e-06	-2.290105e-08	-3.086916e+01	-1.498921e+03
2.840000e-06	-4.379347e-06	-2.317840e-08	-3.160044e+01	-1.516969e+03
2.850000e-06	-4.479075e-06	-2.344008e-08	-3.232006e+01	-1.534128e+03
2.860000e-06	-4.577338e-06	-2.368564e-08	-3.302911e+01	-1.550401e+03
2.870000e-06	-4.674032e-06	-2.391622e-08	-3.372683e+01	-1.565803e+03
2.880000e-06	-4.769051e-06	-2.413658e-08	-3.441247e+01	-1.580373e+03
2.890000e-06	-4.862260e-06	-2.435034e-08	-3.508504e+01	-1.594171e+03
2.900000e-06	-4.953737e-06	-2.455566e-08	-3.574512e+01	-1.607275e+03
2.910000e-06	-5.043589e-06	-2.475195e-08	-3.639347e+01	-1.619765e+03
2.920000e-06	-5.131633e-06	-2.493933e-08	-3.702878e+01	-1.631712e+03
2.930000e-06	-5.217641e-06	-2.511632e-08	-3.764939e+01	-1.643165e+03
2.940000e-06	-5.301640e-06	-2.528124e-08	-3.825552e+01	-1.654150e+03
