# Temperatura_=_38.36
# Concentracion g/m^3_=_28200.0
# C_Vs_to_Am_M_A/Vsm_=_65563218390.804596
# pendiente_HvsI_1/m_=_3716.3
# ordenada_HvsI_A/m_=_1297.0
# frecuencia_Hz_=_302302.98267918825

Tiempo_(s)	Campo_(V.s)	Magnetizacion_(V.s)	Campo_(kA/m)	Magnetizacion_(A/m)
0.000000e+00	-6.882186e-06	-2.393253e-08	-4.951694e+01	-1.567326e+03
1.000000e-08	-6.879557e-06	-2.392950e-08	-4.949802e+01	-1.566994e+03
2.000000e-08	-6.874573e-06	-2.392147e-08	-4.946216e+01	-1.566521e+03
3.000000e-08	-6.867507e-06	-2.391064e-08	-4.941132e+01	-1.565900e+03
4.000000e-08	-6.858189e-06	-2.390090e-08	-4.934428e+01	-1.565120e+03
5.000000e-08	-6.846327e-06	-2.388840e-08	-4.925894e+01	-1.564172e+03
6.000000e-08	-6.831861e-06	-2.387256e-08	-4.915485e+01	-1.563049e+03
7.000000e-08	-6.814990e-06	-2.384734e-08	-4.903347e+01	-1.561751e+03
8.000000e-08	-6.796093e-06	-2.381169e-08	-4.889751e+01	-1.560287e+03
9.000000e-08	-6.775061e-06	-2.383233e-08	-4.874618e+01	-1.558675e+03
1.000000e-07	-6.751390e-06	-2.384741e-08	-4.857587e+01	-1.556944e+03
1.100000e-07	-6.724862e-06	-2.377104e-08	-4.838500e+01	-1.555124e+03
1.200000e-07	-6.695809e-06	-2.371207e-08	-4.817597e+01	-1.553248e+03
1.300000e-07	-6.664613e-06	-2.369349e-08	-4.795151e+01	-1.551337e+03
1.400000e-07	-6.631243e-06	-2.361490e-08	-4.771142e+01	-1.549397e+03
1.500000e-07	-6.595979e-06	-2.353128e-08	-4.745770e+01	-1.547413e+03
1.600000e-07	-6.558952e-06	-2.363323e-08	-4.719129e+01	-1.545346e+03
1.700000e-07	-6.519821e-06	-2.356740e-08	-4.690975e+01	-1.543144e+03
1.800000e-07	-6.478485e-06	-2.344601e-08	-4.661233e+01	-1.540741e+03
1.900000e-07	-6.434643e-06	-2.350654e-08	-4.629690e+01	-1.538077e+03
2.000000e-07	-6.388315e-06	-2.337369e-08	-4.596356e+01	-1.535104e+03
2.100000e-07	-6.339649e-06	-2.330107e-08	-4.561342e+01	-1.531798e+03
2.200000e-07	-6.288309e-06	-2.330634e-08	-4.524403e+01	-1.528159e+03
2.300000e-07	-6.234429e-06	-2.324048e-08	-4.485637e+01	-1.524214e+03
2.400000e-07	-6.178195e-06	-2.318512e-08	-4.445177e+01	-1.520007e+03
2.500000e-07	-6.119534e-06	-2.308258e-08	-4.402970e+01	-1.515584e+03
2.600000e-07	-6.058620e-06	-2.303511e-08	-4.359143e+01	-1.510988e+03
2.700000e-07	-5.995556e-06	-2.296133e-08	-4.313768e+01	-1.506240e+03
2.800000e-07	-5.930248e-06	-2.286584e-08	-4.266780e+01	-1.501339e+03
2.900000e-07	-5.862637e-06	-2.281105e-08	-4.218134e+01	-1.496262e+03
3.000000e-07	-5.792828e-06	-2.271933e-08	-4.167907e+01	-1.490968e+03
3.100000e-07	-5.720898e-06	-2.263057e-08	-4.116154e+01	-1.485412e+03
3.200000e-07	-5.646714e-06	-2.252443e-08	-4.062778e+01	-1.479552e+03
3.300000e-07	-5.570139e-06	-2.245762e-08	-4.007684e+01	-1.473364e+03
3.400000e-07	-5.491193e-06	-2.236696e-08	-3.950882e+01	-1.466842e+03
3.500000e-07	-5.410114e-06	-2.223641e-08	-3.892546e+01	-1.459998e+03
3.600000e-07	-5.327268e-06	-2.214268e-08	-3.832939e+01	-1.452857e+03
3.700000e-07	-5.242719e-06	-2.202807e-08	-3.772106e+01	-1.445441e+03
3.800000e-07	-5.156449e-06	-2.190770e-08	-3.710036e+01	-1.437767e+03
3.900000e-07	-5.068447e-06	-2.178689e-08	-3.646719e+01	-1.429832e+03
4.000000e-07	-4.978567e-06	-2.167128e-08	-3.582051e+01	-1.421615e+03
4.100000e-07	-4.886852e-06	-2.153032e-08	-3.516062e+01	-1.413077e+03
4.200000e-07	-4.793544e-06	-2.137862e-08	-3.448928e+01	-1.404173e+03
4.300000e-07	-4.698737e-06	-2.124659e-08	-3.380715e+01	-1.394858e+03
4.400000e-07	-4.602237e-06	-2.110242e-08	-3.311284e+01	-1.385102e+03
4.500000e-07	-4.503946e-06	-2.094415e-08	-3.240564e+01	-1.374888e+03
4.600000e-07	-4.403940e-06	-2.078259e-08	-3.168610e+01	-1.364217e+03
4.700000e-07	-4.302394e-06	-2.061463e-08	-3.095548e+01	-1.353100e+03
4.800000e-07	-4.199431e-06	-2.043098e-08	-3.021467e+01	-1.341552e+03
4.900000e-07	-4.094939e-06	-2.024565e-08	-2.946285e+01	-1.329574e+03
5.000000e-07	-3.988879e-06	-2.006442e-08	-2.869976e+01	-1.317153e+03
5.100000e-07	-3.881296e-06	-1.987256e-08	-2.792571e+01	-1.304253e+03
5.200000e-07	-3.772323e-06	-1.966096e-08	-2.714165e+01	-1.290820e+03
5.300000e-07	-3.662129e-06	-1.943929e-08	-2.634881e+01	-1.276788e+03
5.400000e-07	-3.550610e-06	-1.921323e-08	-2.554644e+01	-1.262091e+03
5.500000e-07	-3.437613e-06	-1.897599e-08	-2.473343e+01	-1.246675e+03
5.600000e-07	-3.323164e-06	-1.872845e-08	-2.390998e+01	-1.230499e+03
5.700000e-07	-3.207251e-06	-1.847234e-08	-2.307599e+01	-1.213540e+03
5.800000e-07	-3.090000e-06	-1.820204e-08	-2.223238e+01	-1.195783e+03
5.900000e-07	-2.971660e-06	-1.791604e-08	-2.138093e+01	-1.177212e+03
6.000000e-07	-2.852316e-06	-1.762109e-08	-2.052226e+01	-1.157799e+03
6.100000e-07	-2.731870e-06	-1.731472e-08	-1.965565e+01	-1.137489e+03
6.200000e-07	-2.610350e-06	-1.698945e-08	-1.878132e+01	-1.116201e+03
6.300000e-07	-2.487853e-06	-1.664352e-08	-1.789996e+01	-1.093829e+03
6.400000e-07	-2.364356e-06	-1.627884e-08	-1.701141e+01	-1.070246e+03
6.500000e-07	-2.239957e-06	-1.589381e-08	-1.611636e+01	-1.045323e+03
6.600000e-07	-2.114812e-06	-1.549112e-08	-1.521595e+01	-1.018936e+03
6.700000e-07	-1.989057e-06	-1.506758e-08	-1.431115e+01	-9.909710e+02
6.800000e-07	-1.862727e-06	-1.461787e-08	-1.340222e+01	-9.613262e+02
6.900000e-07	-1.735797e-06	-1.414006e-08	-1.248896e+01	-9.299024e+02
7.000000e-07	-1.608186e-06	-1.363321e-08	-1.157081e+01	-8.965910e+02
7.100000e-07	-1.479914e-06	-1.309605e-08	-1.064790e+01	-8.612625e+02
7.200000e-07	-1.351132e-06	-1.252223e-08	-9.721321e+00	-8.237627e+02
7.300000e-07	-1.221919e-06	-1.191258e-08	-8.791638e+00	-7.839204e+02
7.400000e-07	-1.092311e-06	-1.126443e-08	-7.859116e+00	-7.415695e+02
7.500000e-07	-9.623791e-07	-1.057627e-08	-6.924263e+00	-6.965834e+02
7.600000e-07	-8.321564e-07	-9.846681e-09	-5.987318e+00	-6.489150e+02
7.700000e-07	-7.016637e-07	-9.079228e-09	-5.048431e+00	-5.986334e+02
7.800000e-07	-5.709465e-07	-8.277834e-09	-4.107928e+00	-5.459466e+02
7.900000e-07	-4.400543e-07	-7.446531e-09	-3.166166e+00	-4.912014e+02
8.000000e-07	-3.089798e-07	-6.592684e-09	-2.223092e+00	-4.348554e+02
8.100000e-07	-1.777007e-07	-5.720065e-09	-1.278546e+00	-3.774228e+02
8.200000e-07	-4.633307e-08	-4.835622e-09	-3.333638e-01	-3.194023e+02
8.300000e-07	8.506466e-08	-3.945788e-09	6.120354e-01	-2.611991e+02
8.400000e-07	2.164511e-07	-3.058035e-09	1.557354e+00	-2.030589e+02
8.500000e-07	3.477590e-07	-2.173190e-09	2.502106e+00	-1.450265e+02
8.600000e-07	4.790102e-07	-1.289902e-09	3.446451e+00	-8.694309e+01
8.700000e-07	6.101431e-07	-4.039531e-10	4.389945e+00	-2.848297e+01
8.800000e-07	7.410618e-07	4.951658e-10	5.331897e+00	3.077249e+01
8.900000e-07	8.717154e-07	1.416966e-09	6.271943e+00	9.123775e+01
9.000000e-07	1.002092e-06	2.362395e-09	7.209992e+00	1.532201e+02
9.100000e-07	1.132210e-06	3.330525e-09	8.146186e+00	2.168306e+02
9.200000e-07	1.262006e-06	4.324496e-09	9.080061e+00	2.819272e+02
9.300000e-07	1.391350e-06	5.337970e-09	1.001068e+01	3.480998e+02
9.400000e-07	1.520091e-06	6.356928e-09	1.093697e+01	4.147018e+02
9.500000e-07	1.648120e-06	7.366278e-09	1.185813e+01	4.809209e+02
9.600000e-07	1.775421e-06	8.354188e-09	1.277406e+01	5.458759e+02
9.700000e-07	1.902096e-06	9.308395e-09	1.368548e+01	6.087216e+02
9.800000e-07	2.028153e-06	1.021701e-08	1.459245e+01	6.687417e+02
9.900000e-07	2.153528e-06	1.107478e-08	1.549451e+01	7.254166e+02
1.000000e-06	2.278227e-06	1.187843e-08	1.639172e+01	7.784543e+02
1.010000e-06	2.402063e-06	1.262454e-08	1.728271e+01	8.277854e+02
1.020000e-06	2.524954e-06	1.331693e-08	1.816690e+01	8.735257e+02
1.030000e-06	2.646971e-06	1.396155e-08	1.904481e+01	9.159195e+02
1.040000e-06	2.767920e-06	1.456054e-08	1.991503e+01	9.552763e+02
1.050000e-06	2.887672e-06	1.511888e-08	2.077664e+01	9.919142e+02
1.060000e-06	3.006364e-06	1.563924e-08	2.163062e+01	1.026119e+03
1.070000e-06	3.124075e-06	1.612411e-08	2.247755e+01	1.058124e+03
1.080000e-06	3.240705e-06	1.657629e-08	2.331669e+01	1.088108e+03
1.090000e-06	3.356012e-06	1.699981e-08	2.414632e+01	1.116210e+03
1.100000e-06	3.469873e-06	1.739765e-08	2.496554e+01	1.142548e+03
1.110000e-06	3.582293e-06	1.777204e-08	2.577439e+01	1.167237e+03
1.120000e-06	3.693380e-06	1.812591e-08	2.657366e+01	1.190399e+03
1.130000e-06	3.803284e-06	1.845962e-08	2.736442e+01	1.212170e+03
1.140000e-06	3.911978e-06	1.877462e-08	2.814646e+01	1.232688e+03
1.150000e-06	4.019387e-06	1.907251e-08	2.891926e+01	1.252086e+03
1.160000e-06	4.125389e-06	1.935209e-08	2.968194e+01	1.270477e+03
1.170000e-06	4.229784e-06	1.961535e-08	3.043306e+01	1.287949e+03
1.180000e-06	4.332605e-06	1.986542e-08	3.117285e+01	1.304559e+03
1.190000e-06	4.433944e-06	2.010344e-08	3.190197e+01	1.320340e+03
1.200000e-06	4.533727e-06	2.033053e-08	3.261991e+01	1.335313e+03
1.210000e-06	4.631896e-06	2.054821e-08	3.332623e+01	1.349495e+03
1.220000e-06	4.728258e-06	2.075379e-08	3.401955e+01	1.362915e+03
1.230000e-06	4.822828e-06	2.094782e-08	3.469998e+01	1.375614e+03
1.240000e-06	4.915773e-06	2.112976e-08	3.536871e+01	1.387648e+03
1.250000e-06	5.007076e-06	2.130074e-08	3.602563e+01	1.399081e+03
1.260000e-06	5.096547e-06	2.146609e-08	3.666937e+01	1.409977e+03
1.270000e-06	5.184061e-06	2.162398e-08	3.729902e+01	1.420389e+03
1.280000e-06	5.269715e-06	2.177632e-08	3.791530e+01	1.430353e+03
1.290000e-06	5.353644e-06	2.192248e-08	3.851916e+01	1.439883e+03
1.300000e-06	5.435751e-06	2.206326e-08	3.910992e+01	1.448978e+03
1.310000e-06	5.515741e-06	2.219777e-08	3.968544e+01	1.457624e+03
1.320000e-06	5.593625e-06	2.232524e-08	4.024581e+01	1.465807e+03
1.330000e-06	5.669466e-06	2.244628e-08	4.079149e+01	1.473518e+03
1.340000e-06	5.743054e-06	2.255877e-08	4.132095e+01	1.480763e+03
1.350000e-06	5.814436e-06	2.266144e-08	4.183454e+01	1.487563e+03
1.360000e-06	5.883767e-06	2.275628e-08	4.233337e+01	1.493949e+03
1.370000e-06	5.951040e-06	2.284707e-08	4.281740e+01	1.499962e+03
1.380000e-06	6.016113e-06	2.293550e-08	4.328559e+01	1.505643e+03
1.390000e-06	6.078987e-06	2.302170e-08	4.373797e+01	1.511027e+03
1.400000e-06	6.139856e-06	2.310243e-08	4.417592e+01	1.516139e+03
1.410000e-06	6.198655e-06	2.317686e-08	4.459897e+01	1.520995e+03
1.420000e-06	6.255192e-06	2.324548e-08	4.500575e+01	1.525603e+03
1.430000e-06	6.309469e-06	2.331040e-08	4.539627e+01	1.529962e+03
1.440000e-06	6.361385e-06	2.337263e-08	4.576980e+01	1.534075e+03
1.450000e-06	6.410643e-06	2.343180e-08	4.612421e+01	1.537945e+03
1.460000e-06	6.457372e-06	2.348778e-08	4.646043e+01	1.541577e+03
1.470000e-06	6.501977e-06	2.354102e-08	4.678135e+01	1.544979e+03
1.480000e-06	6.544363e-06	2.359062e-08	4.708632e+01	1.548160e+03
1.490000e-06	6.584227e-06	2.363671e-08	4.737314e+01	1.551126e+03
1.500000e-06	6.621806e-06	2.368002e-08	4.764352e+01	1.553878e+03
1.510000e-06	6.657245e-06	2.371909e-08	4.789850e+01	1.556411e+03
1.520000e-06	6.690227e-06	2.375313e-08	4.813581e+01	1.558719e+03
1.530000e-06	6.720745e-06	2.378182e-08	4.835538e+01	1.560793e+03
1.540000e-06	6.749011e-06	2.380896e-08	4.855875e+01	1.562626e+03
1.550000e-06	6.774819e-06	2.383416e-08	4.874444e+01	1.564216e+03
1.560000e-06	6.798014e-06	2.385519e-08	4.891133e+01	1.565568e+03
1.570000e-06	6.818840e-06	2.387198e-08	4.906117e+01	1.566693e+03
1.580000e-06	6.837349e-06	2.388499e-08	4.919434e+01	1.567607e+03
1.590000e-06	6.853332e-06	2.389566e-08	4.930933e+01	1.568330e+03
1.600000e-06	6.866739e-06	2.390260e-08	4.940580e+01	1.568879e+03
1.610000e-06	6.877439e-06	2.390819e-08	4.948279e+01	1.569272e+03
1.620000e-06	6.885419e-06	2.391437e-08	4.954020e+01	1.569522e+03
1.630000e-06	6.890962e-06	2.391856e-08	4.958008e+01	1.569636e+03
1.640000e-06	6.894207e-06	2.391899e-08	4.960343e+01	1.569619e+03
1.650000e-06	6.894967e-06	2.391904e-08	4.960890e+01	1.569473e+03
1.660000e-06	6.893235e-06	2.391345e-08	4.959643e+01	1.569194e+03
1.670000e-06	6.889310e-06	2.390060e-08	4.956820e+01	1.568777e+03
1.680000e-06	6.883052e-06	2.389004e-08	4.952317e+01	1.568215e+03
1.690000e-06	6.874466e-06	2.387760e-08	4.946140e+01	1.567498e+03
1.700000e-06	6.863724e-06	2.386586e-08	4.938411e+01	1.566617e+03
1.710000e-06	6.850517e-06	2.385603e-08	4.928908e+01	1.565563e+03
1.720000e-06	6.834876e-06	2.385275e-08	4.917655e+01	1.564333e+03
1.730000e-06	6.817187e-06	2.384601e-08	4.904927e+01	1.562932e+03
1.740000e-06	6.797395e-06	2.374953e-08	4.890687e+01	1.561375e+03
1.750000e-06	6.774774e-06	2.369788e-08	4.874412e+01	1.559687e+03
1.760000e-06	6.748905e-06	2.372850e-08	4.855799e+01	1.557898e+03
1.770000e-06	6.720171e-06	2.369668e-08	4.835125e+01	1.556040e+03
1.780000e-06	6.689147e-06	2.366782e-08	4.812804e+01	1.554141e+03
1.790000e-06	6.656365e-06	2.373865e-08	4.789217e+01	1.552213e+03
1.800000e-06	6.622193e-06	2.362745e-08	4.764631e+01	1.550249e+03
1.810000e-06	6.586128e-06	2.354326e-08	4.738682e+01	1.548220e+03
1.820000e-06	6.547427e-06	2.364477e-08	4.710837e+01	1.546078e+03
1.830000e-06	6.506460e-06	2.350783e-08	4.681361e+01	1.543761e+03
1.840000e-06	6.463355e-06	2.354323e-08	4.650347e+01	1.541207e+03
1.850000e-06	6.417882e-06	2.354842e-08	4.617629e+01	1.538359e+03
1.860000e-06	6.370138e-06	2.339225e-08	4.583279e+01	1.535185e+03
1.870000e-06	6.319991e-06	2.339740e-08	4.547198e+01	1.531674e+03
1.880000e-06	6.267460e-06	2.324723e-08	4.509402e+01	1.527845e+03
1.890000e-06	6.212355e-06	2.324584e-08	4.469754e+01	1.523735e+03
1.900000e-06	6.154698e-06	2.322226e-08	4.428271e+01	1.519391e+03
1.910000e-06	6.094844e-06	2.309588e-08	4.385205e+01	1.514859e+03
1.920000e-06	6.032574e-06	2.311590e-08	4.340403e+01	1.510169e+03
1.930000e-06	5.968026e-06	2.295658e-08	4.293961e+01	1.505330e+03
1.940000e-06	5.901406e-06	2.289566e-08	4.246028e+01	1.500326e+03
1.950000e-06	5.832594e-06	2.283153e-08	4.196519e+01	1.495122e+03
1.960000e-06	5.761419e-06	2.273053e-08	4.145308e+01	1.489674e+03
1.970000e-06	5.687879e-06	2.267752e-08	4.092397e+01	1.483937e+03
1.980000e-06	5.612193e-06	2.252237e-08	4.037941e+01	1.477879e+03
1.990000e-06	5.534216e-06	2.247229e-08	3.981837e+01	1.471488e+03
2.000000e-06	5.454115e-06	2.234765e-08	3.924205e+01	1.464768e+03
2.010000e-06	5.372201e-06	2.225509e-08	3.865268e+01	1.457740e+03
2.020000e-06	5.288479e-06	2.217221e-08	3.805031e+01	1.450429e+03
2.030000e-06	5.202814e-06	2.202746e-08	3.743395e+01	1.442856e+03
2.040000e-06	5.115101e-06	2.190997e-08	3.680286e+01	1.435024e+03
2.050000e-06	5.025578e-06	2.175637e-08	3.615875e+01	1.426921e+03
2.060000e-06	4.934478e-06	2.166154e-08	3.550329e+01	1.418514e+03
2.070000e-06	4.841776e-06	2.152086e-08	3.483630e+01	1.409759e+03
2.080000e-06	4.747289e-06	2.138651e-08	3.415647e+01	1.400611e+03
2.090000e-06	4.651005e-06	2.124232e-08	3.346372e+01	1.391031e+03
2.100000e-06	4.553143e-06	2.108029e-08	3.275960e+01	1.380997e+03
2.110000e-06	4.453844e-06	2.092921e-08	3.204516e+01	1.370504e+03
2.120000e-06	4.352978e-06	2.076487e-08	3.131943e+01	1.359560e+03
2.130000e-06	4.250438e-06	2.060259e-08	3.058166e+01	1.348180e+03
2.140000e-06	4.146285e-06	2.040557e-08	2.983228e+01	1.336371e+03
2.150000e-06	4.040610e-06	2.021249e-08	2.907196e+01	1.324127e+03
2.160000e-06	3.933614e-06	2.001348e-08	2.830213e+01	1.311421e+03
2.170000e-06	3.825256e-06	1.982175e-08	2.752250e+01	1.298204e+03
2.180000e-06	3.715495e-06	1.962048e-08	2.673278e+01	1.284415e+03
2.190000e-06	3.604328e-06	1.940988e-08	2.593294e+01	1.269987e+03
2.200000e-06	3.491692e-06	1.917946e-08	2.512252e+01	1.254859e+03
2.210000e-06	3.377741e-06	1.892958e-08	2.430265e+01	1.238985e+03
2.220000e-06	3.262493e-06	1.867520e-08	2.347345e+01	1.222335e+03
2.230000e-06	3.145800e-06	1.841441e-08	2.263385e+01	1.204893e+03
2.240000e-06	3.027740e-06	1.814197e-08	2.178441e+01	1.186644e+03
2.250000e-06	2.908478e-06	1.784488e-08	2.092634e+01	1.167566e+03
2.260000e-06	2.788047e-06	1.753835e-08	2.005984e+01	1.147616e+03
2.270000e-06	2.666580e-06	1.721820e-08	1.918589e+01	1.126724e+03
2.280000e-06	2.544249e-06	1.688759e-08	1.830573e+01	1.104791e+03
2.290000e-06	2.421074e-06	1.654081e-08	1.741949e+01	1.081699e+03
2.300000e-06	2.297042e-06	1.617271e-08	1.652709e+01	1.057318e+03
2.310000e-06	2.172154e-06	1.577645e-08	1.562852e+01	1.031520e+03
2.320000e-06	2.046432e-06	1.535590e-08	1.472396e+01	1.004187e+03
2.330000e-06	1.920053e-06	1.491258e-08	1.381467e+01	9.752138e+02
2.340000e-06	1.793038e-06	1.444651e-08	1.290081e+01	9.445007e+02
2.350000e-06	1.665326e-06	1.395393e-08	1.198193e+01	9.119447e+02
2.360000e-06	1.536988e-06	1.342756e-08	1.105854e+01	8.774254e+02
2.370000e-06	1.408144e-06	1.286682e-08	1.013152e+01	8.407982e+02
2.380000e-06	1.278946e-06	1.226877e-08	9.201943e+00	8.018966e+02
2.390000e-06	1.149370e-06	1.163667e-08	8.269649e+00	7.605491e+02
2.400000e-06	1.019427e-06	1.096892e-08	7.334716e+00	7.166090e+02
2.410000e-06	8.891617e-07	1.026132e-08	6.397468e+00	6.699929e+02
2.420000e-06	7.586003e-07	9.511114e-09	5.458086e+00	6.207208e+02
2.430000e-06	6.278616e-07	8.718816e-09	4.517429e+00	5.689446e+02
2.440000e-06	4.969935e-07	7.892024e-09	3.575840e+00	5.149585e+02
2.450000e-06	3.659469e-07	7.040639e-09	2.632967e+00	4.591815e+02
2.460000e-06	2.347347e-07	6.171567e-09	1.688903e+00	4.021134e+02
2.470000e-06	1.034392e-07	5.288548e-09	7.442394e-01	3.442684e+02
2.480000e-06	-2.792150e-08	4.397060e-09	-2.008936e-01	2.860973e+02
2.490000e-06	-1.592965e-07	3.505283e-09	-1.146129e+00	2.279151e+02
2.500000e-06	-2.906115e-07	2.616444e-09	-2.090933e+00	1.698481e+02
2.510000e-06	-4.218618e-07	1.728168e-09	-3.035272e+00	1.118154e+02
2.520000e-06	-5.530462e-07	8.359324e-10	-3.979136e+00	5.354974e+01
2.530000e-06	-6.841191e-07	-6.590382e-11	-4.922198e+00	-5.341556e+00
2.540000e-06	-8.149837e-07	-9.815606e-10	-5.863761e+00	-6.528702e+01
2.550000e-06	-9.455336e-07	-1.915348e-09	-6.803061e+00	-1.266478e+02
2.560000e-06	-1.075770e-06	-2.871242e-09	-7.740102e+00	-1.896211e+02
2.570000e-06	-1.205677e-06	-3.850808e-09	-8.674781e+00	-2.541685e+02
2.580000e-06	-1.335197e-06	-4.852795e-09	-9.606665e+00	-3.199838e+02
2.590000e-06	-1.464314e-06	-5.870886e-09	-1.053566e+01	-3.865071e+02
2.600000e-06	-1.592952e-06	-6.891129e-09	-1.146120e+01	-4.529804e+02
2.610000e-06	-1.720925e-06	-7.896743e-09	-1.238196e+01	-5.185374e+02
2.620000e-06	-1.848183e-06	-8.873500e-09	-1.329757e+01	-5.823065e+02
2.630000e-06	-1.974879e-06	-9.808481e-09	-1.420914e+01	-6.435109e+02
2.640000e-06	-2.100915e-06	-1.069314e-08	-1.511597e+01	-7.015479e+02
2.650000e-06	-2.226050e-06	-1.152495e-08	-1.601630e+01	-7.560348e+02
2.660000e-06	-2.350186e-06	-1.230112e-08	-1.690946e+01	-8.068177e+02
2.670000e-06	-2.473344e-06	-1.302307e-08	-1.779557e+01	-8.539455e+02
2.680000e-06	-2.595598e-06	-1.369701e-08	-1.867518e+01	-8.976196e+02
2.690000e-06	-2.716921e-06	-1.432397e-08	-1.954809e+01	-9.381312e+02
2.700000e-06	-2.837257e-06	-1.490542e-08	-2.041390e+01	-9.758010e+02
2.710000e-06	-2.956515e-06	-1.544538e-08	-2.127196e+01	-1.010931e+03
2.720000e-06	-3.074680e-06	-1.594776e-08	-2.212215e+01	-1.043776e+03
2.730000e-06	-3.191584e-06	-1.641558e-08	-2.296327e+01	-1.074536e+03
2.740000e-06	-3.307061e-06	-1.685396e-08	-2.379412e+01	-1.103363e+03
2.750000e-06	-3.421184e-06	-1.726507e-08	-2.461522e+01	-1.130381e+03
2.760000e-06	-3.533981e-06	-1.765119e-08	-2.542679e+01	-1.155704e+03
2.770000e-06	-3.645378e-06	-1.801689e-08	-2.622829e+01	-1.179451e+03
2.780000e-06	-3.755391e-06	-1.836086e-08	-2.701982e+01	-1.201752e+03
2.790000e-06	-3.864164e-06	-1.868297e-08	-2.780244e+01	-1.222745e+03
2.800000e-06	-3.971730e-06	-1.898550e-08	-2.857638e+01	-1.242569e+03
2.810000e-06	-4.078030e-06	-1.927267e-08	-2.934119e+01	-1.261344e+03
2.820000e-06	-4.182968e-06	-1.954696e-08	-3.009622e+01	-1.279169e+03
2.830000e-06	-4.286363e-06	-1.980706e-08	-3.084014e+01	-1.296112e+03
2.840000e-06	-4.388032e-06	-2.005258e-08	-3.157164e+01	-1.312216e+03
2.850000e-06	-4.488033e-06	-2.028418e-08	-3.229115e+01	-1.327505e+03
2.860000e-06	-4.586555e-06	-2.050377e-08	-3.300000e+01	-1.341996e+03
2.870000e-06	-4.683558e-06	-2.071213e-08	-3.369793e+01	-1.355712e+03
2.880000e-06	-4.778929e-06	-2.091114e-08	-3.438412e+01	-1.368688e+03
2.890000e-06	-4.872521e-06	-2.110310e-08	-3.505751e+01	-1.380976e+03
2.900000e-06	-4.964345e-06	-2.128480e-08	-3.571818e+01	-1.392638e+03
2.910000e-06	-5.054494e-06	-2.145507e-08	-3.636680e+01	-1.403738e+03
2.920000e-06	-5.142830e-06	-2.161676e-08	-3.700237e+01	-1.414335e+03
2.930000e-06	-5.229190e-06	-2.177163e-08	-3.762372e+01	-1.424472e+03
2.940000e-06	-5.313524e-06	-2.191837e-08	-3.823050e+01	-1.434173e+03
