# Temperatura_=_69.64
# Concentracion g/m^3_=_28200.0
# C_Vs_to_Am_M_A/Vsm_=_65563218390.804596
# pendiente_HvsI_1/m_=_3716.3
# ordenada_HvsI_A/m_=_1297.0
# frecuencia_Hz_=_302297.4656499836

Tiempo_(s)	Campo_(V.s)	Magnetizacion_(V.s)	Campo_(kA/m)	Magnetizacion_(A/m)
0.000000e+00	-6.826695e-06	-2.689832e-08	-4.951640e+01	-1.760981e+03
1.000000e-08	-6.823877e-06	-2.689287e-08	-4.949596e+01	-1.760540e+03
2.000000e-08	-6.818790e-06	-2.688094e-08	-4.945906e+01	-1.759932e+03
3.000000e-08	-6.811667e-06	-2.686713e-08	-4.940740e+01	-1.759161e+03
4.000000e-08	-6.802300e-06	-2.685334e-08	-4.933946e+01	-1.758223e+03
5.000000e-08	-6.790408e-06	-2.683738e-08	-4.925320e+01	-1.757103e+03
6.000000e-08	-6.775950e-06	-2.681799e-08	-4.914833e+01	-1.755786e+03
7.000000e-08	-6.759091e-06	-2.678991e-08	-4.902604e+01	-1.754255e+03
8.000000e-08	-6.740164e-06	-2.675353e-08	-4.888876e+01	-1.752506e+03
9.000000e-08	-6.719068e-06	-2.676948e-08	-4.873575e+01	-1.750551e+03
1.000000e-07	-6.695363e-06	-2.676469e-08	-4.856381e+01	-1.748423e+03
1.100000e-07	-6.668900e-06	-2.668956e-08	-4.837186e+01	-1.746170e+03
1.200000e-07	-6.639920e-06	-2.663123e-08	-4.816166e+01	-1.743846e+03
1.300000e-07	-6.608790e-06	-2.659625e-08	-4.793586e+01	-1.741500e+03
1.400000e-07	-6.575525e-06	-2.651295e-08	-4.769458e+01	-1.739158e+03
1.500000e-07	-6.540365e-06	-2.646159e-08	-4.743955e+01	-1.736813e+03
1.600000e-07	-6.503485e-06	-2.652591e-08	-4.717205e+01	-1.734421e+03
1.700000e-07	-6.464578e-06	-2.642283e-08	-4.688985e+01	-1.731905e+03
1.800000e-07	-6.423424e-06	-2.636093e-08	-4.659134e+01	-1.729167e+03
1.900000e-07	-6.379735e-06	-2.636315e-08	-4.627444e+01	-1.726111e+03
2.000000e-07	-6.333612e-06	-2.622273e-08	-4.593990e+01	-1.722655e+03
2.100000e-07	-6.285195e-06	-2.618262e-08	-4.558872e+01	-1.718758e+03
2.200000e-07	-6.234140e-06	-2.611371e-08	-4.521839e+01	-1.714419e+03
2.300000e-07	-6.180446e-06	-2.601733e-08	-4.482893e+01	-1.709682e+03
2.400000e-07	-6.124391e-06	-2.598028e-08	-4.442235e+01	-1.704620e+03
2.500000e-07	-6.065999e-06	-2.589621e-08	-4.399881e+01	-1.699315e+03
2.600000e-07	-6.005347e-06	-2.582740e-08	-4.355888e+01	-1.693838e+03
2.700000e-07	-5.942543e-06	-2.574608e-08	-4.310334e+01	-1.688232e+03
2.800000e-07	-5.877555e-06	-2.564348e-08	-4.263196e+01	-1.682496e+03
2.900000e-07	-5.810369e-06	-2.554016e-08	-4.214464e+01	-1.676595e+03
3.000000e-07	-5.740985e-06	-2.543839e-08	-4.164137e+01	-1.670463e+03
3.100000e-07	-5.669451e-06	-2.536598e-08	-4.112251e+01	-1.664024e+03
3.200000e-07	-5.595745e-06	-2.525866e-08	-4.058789e+01	-1.657215e+03
3.300000e-07	-5.519727e-06	-2.515642e-08	-4.003651e+01	-1.649997e+03
3.400000e-07	-5.441319e-06	-2.502479e-08	-3.946778e+01	-1.642366e+03
3.500000e-07	-5.360732e-06	-2.489149e-08	-3.888326e+01	-1.634350e+03
3.600000e-07	-5.278367e-06	-2.478223e-08	-3.828584e+01	-1.625997e+03
3.700000e-07	-5.194341e-06	-2.464705e-08	-3.767637e+01	-1.617354e+03
3.800000e-07	-5.108573e-06	-2.451953e-08	-3.705426e+01	-1.608454e+03
3.900000e-07	-5.021090e-06	-2.437518e-08	-3.641972e+01	-1.599301e+03
4.000000e-07	-4.931834e-06	-2.421794e-08	-3.577232e+01	-1.589863e+03
4.100000e-07	-4.840768e-06	-2.405612e-08	-3.511178e+01	-1.580081e+03
4.200000e-07	-4.748072e-06	-2.390868e-08	-3.443942e+01	-1.569884e+03
4.300000e-07	-4.653828e-06	-2.375497e-08	-3.375584e+01	-1.559202e+03
4.400000e-07	-4.557936e-06	-2.357885e-08	-3.306030e+01	-1.547988e+03
4.500000e-07	-4.460274e-06	-2.339942e-08	-3.235193e+01	-1.536223e+03
4.600000e-07	-4.360885e-06	-2.321338e-08	-3.163102e+01	-1.523920e+03
4.700000e-07	-4.259925e-06	-2.302135e-08	-3.089872e+01	-1.511110e+03
4.800000e-07	-4.157580e-06	-2.282038e-08	-3.015638e+01	-1.497831e+03
4.900000e-07	-4.053852e-06	-2.261487e-08	-2.940401e+01	-1.484107e+03
5.000000e-07	-3.948583e-06	-2.239566e-08	-2.864045e+01	-1.469931e+03
5.100000e-07	-3.841760e-06	-2.216489e-08	-2.786563e+01	-1.455263e+03
5.200000e-07	-3.733509e-06	-2.192731e-08	-2.708044e+01	-1.440031e+03
5.300000e-07	-3.623983e-06	-2.168267e-08	-2.628601e+01	-1.424147e+03
5.400000e-07	-3.513220e-06	-2.142623e-08	-2.548261e+01	-1.407517e+03
5.500000e-07	-3.401132e-06	-2.115657e-08	-2.466960e+01	-1.390068e+03
5.600000e-07	-3.287609e-06	-2.087989e-08	-2.384618e+01	-1.371751e+03
5.700000e-07	-3.172611e-06	-2.059016e-08	-2.301205e+01	-1.352548e+03
5.800000e-07	-3.056196e-06	-2.028410e-08	-2.216766e+01	-1.332457e+03
5.900000e-07	-2.938598e-06	-1.996219e-08	-2.131468e+01	-1.311483e+03
6.000000e-07	-2.820012e-06	-1.962790e-08	-2.045453e+01	-1.289610e+03
6.100000e-07	-2.700444e-06	-1.927647e-08	-1.958726e+01	-1.266790e+03
6.200000e-07	-2.579893e-06	-1.890877e-08	-1.871286e+01	-1.242933e+03
6.300000e-07	-2.458346e-06	-1.852430e-08	-1.783124e+01	-1.217908e+03
6.400000e-07	-2.335727e-06	-1.812050e-08	-1.694185e+01	-1.191560e+03
6.500000e-07	-2.212143e-06	-1.769461e-08	-1.604545e+01	-1.163722e+03
6.600000e-07	-2.087877e-06	-1.724400e-08	-1.514410e+01	-1.134241e+03
6.700000e-07	-1.963008e-06	-1.676784e-08	-1.423838e+01	-1.102983e+03
6.800000e-07	-1.837470e-06	-1.626468e-08	-1.332781e+01	-1.069838e+03
6.900000e-07	-1.711344e-06	-1.573353e-08	-1.241298e+01	-1.034709e+03
7.000000e-07	-1.584639e-06	-1.516918e-08	-1.149394e+01	-9.974922e+02
7.100000e-07	-1.457362e-06	-1.456946e-08	-1.057075e+01	-9.580582e+02
7.200000e-07	-1.329641e-06	-1.392960e-08	-9.644348e+00	-9.162430e+02
7.300000e-07	-1.201510e-06	-1.324848e-08	-8.714975e+00	-8.718508e+02
7.400000e-07	-1.072979e-06	-1.252390e-08	-7.782690e+00	-8.246776e+02
7.500000e-07	-9.441262e-07	-1.175356e-08	-6.848077e+00	-7.745518e+02
7.600000e-07	-8.149904e-07	-1.093932e-08	-5.911410e+00	-7.213838e+02
7.700000e-07	-6.855872e-07	-1.008283e-08	-4.972804e+00	-6.652132e+02
7.800000e-07	-5.559818e-07	-9.184993e-09	-4.032730e+00	-6.062396e+02
7.900000e-07	-4.261932e-07	-8.253061e-09	-3.091328e+00	-5.448253e+02
8.000000e-07	-2.962210e-07	-7.294302e-09	-2.148594e+00	-4.814643e+02
8.100000e-07	-1.660540e-07	-6.310928e-09	-1.204448e+00	-4.167191e+02
8.200000e-07	-3.571598e-08	-5.310990e-09	-2.590605e-01	-3.511351e+02
8.300000e-07	9.469878e-08	-4.301669e-09	6.868834e-01	-2.851506e+02
8.400000e-07	2.250893e-07	-3.288217e-09	1.632651e+00	-2.190200e+02
8.500000e-07	3.554013e-07	-2.272960e-09	2.577850e+00	-1.527715e+02
8.600000e-07	4.855548e-07	-1.258187e-09	3.521899e+00	-8.620959e+01
8.700000e-07	6.155277e-07	-2.389306e-10	4.464637e+00	-1.896581e+01
8.800000e-07	7.452751e-07	7.972763e-10	5.405740e+00	4.940813e+01
8.900000e-07	8.747021e-07	1.860189e-09	6.344520e+00	1.193237e+02
9.000000e-07	1.003809e-06	2.951774e-09	7.280974e+00	1.910374e+02
9.100000e-07	1.132605e-06	4.070867e-09	8.215178e+00	2.645546e+02
9.200000e-07	1.261036e-06	5.217185e-09	9.146737e+00	3.395766e+02
9.300000e-07	1.389033e-06	6.380872e-09	1.007514e+01	4.155012e+02
9.400000e-07	1.516544e-06	7.547143e-09	1.100003e+01	4.914767e+02
9.500000e-07	1.643525e-06	8.695222e-09	1.192106e+01	5.665001e+02
9.600000e-07	1.769908e-06	9.805468e-09	1.283776e+01	6.395391e+02
9.700000e-07	1.895628e-06	1.086452e-08	1.374966e+01	7.096551e+02
9.800000e-07	2.020675e-06	1.186562e-08	1.465666e+01	7.761057e+02
9.900000e-07	2.145077e-06	1.280667e-08	1.555899e+01	8.384084e+02
1.000000e-06	2.268819e-06	1.368448e-08	1.645654e+01	8.963593e+02
1.010000e-06	2.391712e-06	1.449992e-08	1.734792e+01	9.500078e+02
1.020000e-06	2.513526e-06	1.525567e-08	1.823148e+01	9.995974e+02
1.030000e-06	2.634301e-06	1.595372e-08	1.910750e+01	1.045489e+03
1.040000e-06	2.754108e-06	1.659983e-08	1.997651e+01	1.088086e+03
1.050000e-06	2.872888e-06	1.720241e-08	2.083806e+01	1.127767e+03
1.060000e-06	2.990661e-06	1.776340e-08	2.169231e+01	1.164851e+03
1.070000e-06	3.107389e-06	1.828859e-08	2.253898e+01	1.199583e+03
1.080000e-06	3.222912e-06	1.877903e-08	2.337690e+01	1.232143e+03
1.090000e-06	3.337034e-06	1.923800e-08	2.420467e+01	1.262668e+03
1.100000e-06	3.449761e-06	1.967167e-08	2.502232e+01	1.291279e+03
1.110000e-06	3.561217e-06	2.008005e-08	2.583075e+01	1.318101e+03
1.120000e-06	3.671437e-06	2.046569e-08	2.663021e+01	1.343276e+03
1.130000e-06	3.780456e-06	2.082993e-08	2.742097e+01	1.366960e+03
1.140000e-06	3.888332e-06	2.117090e-08	2.820343e+01	1.389310e+03
1.150000e-06	3.994865e-06	2.149165e-08	2.897615e+01	1.410471e+03
1.160000e-06	4.099780e-06	2.179613e-08	2.973713e+01	1.430563e+03
1.170000e-06	4.203143e-06	2.208761e-08	3.048687e+01	1.449672e+03
1.180000e-06	4.305044e-06	2.236568e-08	3.122599e+01	1.467851e+03
1.190000e-06	4.405521e-06	2.262752e-08	3.195478e+01	1.485129e+03
1.200000e-06	4.504489e-06	2.287542e-08	3.267263e+01	1.501526e+03
1.210000e-06	4.601685e-06	2.310967e-08	3.337763e+01	1.517065e+03
1.220000e-06	4.697109e-06	2.333257e-08	3.406977e+01	1.531782e+03
1.230000e-06	4.790932e-06	2.354457e-08	3.475030e+01	1.545728e+03
1.240000e-06	4.883202e-06	2.374644e-08	3.541957e+01	1.558969e+03
1.250000e-06	4.973799e-06	2.393910e-08	3.607670e+01	1.571576e+03
1.260000e-06	5.062422e-06	2.412246e-08	3.671951e+01	1.583613e+03
1.270000e-06	5.149110e-06	2.429580e-08	3.734830e+01	1.595130e+03
1.280000e-06	5.234085e-06	2.446083e-08	3.796464e+01	1.606157e+03
1.290000e-06	5.317246e-06	2.461981e-08	3.856785e+01	1.616707e+03
1.300000e-06	5.398446e-06	2.477348e-08	3.915681e+01	1.626779e+03
1.310000e-06	5.477617e-06	2.492061e-08	3.973107e+01	1.636365e+03
1.320000e-06	5.554747e-06	2.506106e-08	4.029052e+01	1.645464e+03
1.330000e-06	5.629782e-06	2.519420e-08	4.083477e+01	1.654082e+03
1.340000e-06	5.702580e-06	2.532011e-08	4.136280e+01	1.662235e+03
1.350000e-06	5.773257e-06	2.543941e-08	4.187545e+01	1.669948e+03
1.360000e-06	5.841937e-06	2.555262e-08	4.237361e+01	1.677251e+03
1.370000e-06	5.908476e-06	2.566097e-08	4.285624e+01	1.684170e+03
1.380000e-06	5.972787e-06	2.576286e-08	4.332271e+01	1.690724e+03
1.390000e-06	6.035036e-06	2.585841e-08	4.377422e+01	1.696926e+03
1.400000e-06	6.095405e-06	2.594704e-08	4.421210e+01	1.702780e+03
1.410000e-06	6.153675e-06	2.602939e-08	4.463476e+01	1.708290e+03
1.420000e-06	6.209649e-06	2.610729e-08	4.504075e+01	1.713463e+03
1.430000e-06	6.263321e-06	2.618050e-08	4.543006e+01	1.718315e+03
1.440000e-06	6.314418e-06	2.624975e-08	4.580068e+01	1.722867e+03
1.450000e-06	6.362891e-06	2.631560e-08	4.615227e+01	1.727148e+03
1.460000e-06	6.409122e-06	2.637886e-08	4.648760e+01	1.731188e+03
1.470000e-06	6.453308e-06	2.643900e-08	4.680810e+01	1.735009e+03
1.480000e-06	6.495170e-06	2.649399e-08	4.711173e+01	1.738624e+03
1.490000e-06	6.534522e-06	2.654564e-08	4.739717e+01	1.742030e+03
1.500000e-06	6.571615e-06	2.659360e-08	4.766622e+01	1.745212e+03
1.510000e-06	6.606467e-06	2.663718e-08	4.791901e+01	1.748148e+03
1.520000e-06	6.638881e-06	2.667726e-08	4.815413e+01	1.750814e+03
1.530000e-06	6.668922e-06	2.671282e-08	4.837202e+01	1.753191e+03
1.540000e-06	6.696786e-06	2.674486e-08	4.857413e+01	1.755275e+03
1.550000e-06	6.722200e-06	2.677386e-08	4.875847e+01	1.757073e+03
1.560000e-06	6.744993e-06	2.679819e-08	4.892379e+01	1.758604e+03
1.570000e-06	6.765471e-06	2.681746e-08	4.907232e+01	1.759896e+03
1.580000e-06	6.783666e-06	2.683308e-08	4.920430e+01	1.760974e+03
1.590000e-06	6.799350e-06	2.684537e-08	4.931806e+01	1.761862e+03
1.600000e-06	6.812453e-06	2.685404e-08	4.941310e+01	1.762570e+03
1.610000e-06	6.822873e-06	2.686047e-08	4.948868e+01	1.763104e+03
1.620000e-06	6.830634e-06	2.686610e-08	4.954497e+01	1.763459e+03
1.630000e-06	6.835971e-06	2.687107e-08	4.958369e+01	1.763631e+03
1.640000e-06	6.838921e-06	2.687394e-08	4.960508e+01	1.763617e+03
1.650000e-06	6.839447e-06	2.687442e-08	4.960890e+01	1.763420e+03
1.660000e-06	6.837617e-06	2.686701e-08	4.959563e+01	1.763045e+03
1.670000e-06	6.833605e-06	2.685492e-08	4.956653e+01	1.762502e+03
1.680000e-06	6.827283e-06	2.684291e-08	4.952067e+01	1.761795e+03
1.690000e-06	6.818588e-06	2.682933e-08	4.945760e+01	1.760923e+03
1.700000e-06	6.807721e-06	2.681579e-08	4.937878e+01	1.759877e+03
1.710000e-06	6.794507e-06	2.680237e-08	4.928293e+01	1.758639e+03
1.720000e-06	6.778920e-06	2.679476e-08	4.916987e+01	1.757192e+03
1.730000e-06	6.761289e-06	2.677855e-08	4.904199e+01	1.755528e+03
1.740000e-06	6.741521e-06	2.668599e-08	4.889861e+01	1.753651e+03
1.750000e-06	6.718858e-06	2.664060e-08	4.873423e+01	1.751586e+03
1.760000e-06	6.692928e-06	2.665057e-08	4.854615e+01	1.749375e+03
1.770000e-06	6.664215e-06	2.661391e-08	4.833788e+01	1.747072e+03
1.780000e-06	6.633238e-06	2.659839e-08	4.811319e+01	1.744730e+03
1.790000e-06	6.600507e-06	2.662092e-08	4.787578e+01	1.742385e+03
1.800000e-06	6.566408e-06	2.648877e-08	4.762845e+01	1.740043e+03
1.810000e-06	6.530406e-06	2.644895e-08	4.736731e+01	1.737677e+03
1.820000e-06	6.491851e-06	2.648926e-08	4.708766e+01	1.735220e+03
1.830000e-06	6.451077e-06	2.637315e-08	4.679192e+01	1.732581e+03
1.840000e-06	6.408190e-06	2.643708e-08	4.648084e+01	1.729661e+03
1.850000e-06	6.362982e-06	2.637536e-08	4.615293e+01	1.726369e+03
1.860000e-06	6.315462e-06	2.626367e-08	4.580825e+01	1.722648e+03
1.870000e-06	6.265581e-06	2.628277e-08	4.544645e+01	1.718479e+03
1.880000e-06	6.213353e-06	2.612704e-08	4.506762e+01	1.713891e+03
1.890000e-06	6.158521e-06	2.608827e-08	4.466990e+01	1.708946e+03
1.900000e-06	6.101123e-06	2.600521e-08	4.425358e+01	1.703726e+03
1.910000e-06	6.041471e-06	2.587629e-08	4.382090e+01	1.698310e+03
1.920000e-06	5.979476e-06	2.586910e-08	4.337123e+01	1.692751e+03
1.930000e-06	5.915272e-06	2.575064e-08	4.290553e+01	1.687069e+03
1.940000e-06	5.849034e-06	2.569906e-08	4.242509e+01	1.681239e+03
1.950000e-06	5.780630e-06	2.556724e-08	4.192893e+01	1.675206e+03
1.960000e-06	5.709836e-06	2.544436e-08	4.141544e+01	1.668896e+03
1.970000e-06	5.636736e-06	2.536571e-08	4.088522e+01	1.662238e+03
1.980000e-06	5.561614e-06	2.522067e-08	4.034033e+01	1.655182e+03
1.990000e-06	5.484226e-06	2.515807e-08	3.977901e+01	1.647712e+03
2.000000e-06	5.404621e-06	2.502353e-08	3.920161e+01	1.639842e+03
2.010000e-06	5.323162e-06	2.491226e-08	3.861075e+01	1.631615e+03
2.020000e-06	5.239952e-06	2.477481e-08	3.800720e+01	1.623080e+03
2.030000e-06	5.154799e-06	2.461814e-08	3.738956e+01	1.614279e+03
2.040000e-06	5.067618e-06	2.450799e-08	3.675720e+01	1.605226e+03
2.050000e-06	4.978670e-06	2.436257e-08	3.611203e+01	1.595906e+03
2.060000e-06	4.888140e-06	2.422815e-08	3.545539e+01	1.586267e+03
2.070000e-06	4.796084e-06	2.405335e-08	3.478767e+01	1.576241e+03
2.080000e-06	4.702297e-06	2.389574e-08	3.410740e+01	1.565757e+03
2.090000e-06	4.606706e-06	2.372486e-08	3.341405e+01	1.554755e+03
2.100000e-06	4.509515e-06	2.354985e-08	3.270909e+01	1.543206e+03
2.110000e-06	4.410835e-06	2.337706e-08	3.199333e+01	1.531111e+03
2.120000e-06	4.310699e-06	2.318354e-08	3.126701e+01	1.518495e+03
2.130000e-06	4.209001e-06	2.298293e-08	3.052936e+01	1.505397e+03
2.140000e-06	4.105590e-06	2.276475e-08	2.977928e+01	1.491846e+03
2.150000e-06	4.000594e-06	2.255674e-08	2.901770e+01	1.477849e+03
2.160000e-06	3.894261e-06	2.233769e-08	2.824644e+01	1.463381e+03
2.170000e-06	3.786672e-06	2.211788e-08	2.746605e+01	1.448381e+03
2.180000e-06	3.677791e-06	2.188100e-08	2.667631e+01	1.432764e+03
2.190000e-06	3.567488e-06	2.163318e-08	2.587624e+01	1.416437e+03
2.200000e-06	3.455748e-06	2.136986e-08	2.506575e+01	1.399317e+03
2.210000e-06	3.342675e-06	2.109496e-08	2.424559e+01	1.381344e+03
2.220000e-06	3.228223e-06	2.081091e-08	2.341543e+01	1.362489e+03
2.230000e-06	3.112440e-06	2.051151e-08	2.257562e+01	1.342746e+03
2.240000e-06	2.995432e-06	2.019991e-08	2.172691e+01	1.322119e+03
2.250000e-06	2.877120e-06	1.987567e-08	2.086876e+01	1.300602e+03
2.260000e-06	2.757517e-06	1.953876e-08	2.000123e+01	1.278162e+03
2.270000e-06	2.636908e-06	1.917819e-08	1.912641e+01	1.254726e+03
2.280000e-06	2.515460e-06	1.880125e-08	1.824551e+01	1.230177e+03
2.290000e-06	2.393152e-06	1.840514e-08	1.735837e+01	1.204368e+03
2.300000e-06	2.270011e-06	1.798973e-08	1.646518e+01	1.177135e+03
2.310000e-06	2.146109e-06	1.755023e-08	1.556648e+01	1.148316e+03
2.320000e-06	2.021535e-06	1.708800e-08	1.466290e+01	1.117770e+03
2.330000e-06	1.896396e-06	1.659574e-08	1.375522e+01	1.085378e+03
2.340000e-06	1.770581e-06	1.607060e-08	1.284264e+01	1.051040e+03
2.350000e-06	1.643970e-06	1.551524e-08	1.192429e+01	1.014656e+03
2.360000e-06	1.516592e-06	1.492793e-08	1.100037e+01	9.761103e+02
2.370000e-06	1.388643e-06	1.430556e-08	1.007231e+01	9.352522e+02
2.380000e-06	1.260318e-06	1.364313e-08	9.141525e+00	8.918966e+02
2.390000e-06	1.131634e-06	1.294016e-08	8.208138e+00	8.458389e+02
2.400000e-06	1.002608e-06	1.219166e-08	7.272264e+00	7.968890e+02
2.410000e-06	8.732461e-07	1.139748e-08	6.333959e+00	7.449191e+02
2.420000e-06	7.436587e-07	1.055982e-08	5.394016e+00	6.899132e+02
2.430000e-06	6.139359e-07	9.680136e-09	4.453092e+00	6.320059e+02
2.440000e-06	4.840265e-07	8.761855e-09	3.510813e+00	5.714973e+02
2.450000e-06	3.539273e-07	7.808810e-09	2.567159e+00	5.088357e+02
2.460000e-06	2.236675e-07	6.828533e-09	1.622339e+00	4.445659e+02
2.470000e-06	9.327714e-08	5.829952e-09	6.765716e-01	3.792509e+02
2.480000e-06	-3.717737e-08	4.820329e-09	-2.696605e-01	3.133815e+02
2.490000e-06	-1.676447e-07	3.806215e-09	-1.215985e+00	2.472915e+02
2.500000e-06	-2.980411e-07	2.790409e-09	-2.161796e+00	1.811006e+02
2.510000e-06	-4.283412e-07	1.773169e-09	-3.106908e+00	1.146975e+02
2.520000e-06	-5.585469e-07	7.499811e-10	-4.051336e+00	4.777264e+01
2.530000e-06	-6.886172e-07	-2.855753e-10	-4.994781e+00	-2.010383e+01
2.540000e-06	-8.185280e-07	-1.339430e-09	-5.937070e+00	-8.937252e+01
2.550000e-06	-9.482011e-07	-2.416611e-09	-6.877634e+00	-1.603639e+02
2.560000e-06	-1.077546e-06	-3.520322e-09	-7.815815e+00	-2.331911e+02
2.570000e-06	-1.206540e-06	-4.654533e-09	-8.751458e+00	-3.076780e+02
2.580000e-06	-1.335158e-06	-5.812920e-09	-9.684369e+00	-3.833380e+02
2.590000e-06	-1.463347e-06	-6.980393e-09	-1.061417e+01	-4.594077e+02
2.600000e-06	-1.591054e-06	-8.140041e-09	-1.154047e+01	-5.349298e+02
2.610000e-06	-1.718102e-06	-9.273420e-09	-1.246199e+01	-6.088685e+02
2.620000e-06	-1.844321e-06	-1.036579e-08	-1.337750e+01	-6.802344e+02
2.630000e-06	-1.969753e-06	-1.140469e-08	-1.428731e+01	-7.481982e+02
2.640000e-06	-2.094507e-06	-1.238097e-08	-1.519219e+01	-8.121704e+02
2.650000e-06	-2.218453e-06	-1.329175e-08	-1.609121e+01	-8.718384e+02
2.660000e-06	-2.341477e-06	-1.413816e-08	-1.698355e+01	-9.271577e+02
2.670000e-06	-2.463598e-06	-1.492283e-08	-1.786934e+01	-9.783039e+02
2.680000e-06	-2.584810e-06	-1.565234e-08	-1.874853e+01	-1.025602e+03
2.690000e-06	-2.705164e-06	-1.633106e-08	-1.962150e+01	-1.069445e+03
2.700000e-06	-2.824486e-06	-1.696121e-08	-2.048698e+01	-1.110230e+03
2.710000e-06	-2.942577e-06	-1.754598e-08	-2.134354e+01	-1.148301e+03
2.720000e-06	-3.059525e-06	-1.809260e-08	-2.219180e+01	-1.183933e+03
2.730000e-06	-3.175281e-06	-1.860479e-08	-2.303142e+01	-1.217329e+03
2.740000e-06	-3.289698e-06	-1.908129e-08	-2.386133e+01	-1.248639e+03
2.750000e-06	-3.402746e-06	-1.952608e-08	-2.468130e+01	-1.277988e+03
2.760000e-06	-3.514433e-06	-1.994365e-08	-2.549141e+01	-1.305497e+03
2.770000e-06	-3.624765e-06	-2.033816e-08	-2.629168e+01	-1.331302e+03
2.780000e-06	-3.733819e-06	-2.071235e-08	-2.708270e+01	-1.355553e+03
2.790000e-06	-3.841711e-06	-2.106683e-08	-2.786527e+01	-1.378409e+03
2.800000e-06	-3.948391e-06	-2.140046e-08	-2.863906e+01	-1.400021e+03
2.810000e-06	-4.053775e-06	-2.171302e-08	-2.940344e+01	-1.420522e+03
2.820000e-06	-4.157750e-06	-2.200849e-08	-3.015761e+01	-1.440009e+03
2.830000e-06	-4.260092e-06	-2.229013e-08	-3.089994e+01	-1.458549e+03
2.840000e-06	-4.360812e-06	-2.255959e-08	-3.163049e+01	-1.476179e+03
2.850000e-06	-4.460045e-06	-2.281557e-08	-3.235027e+01	-1.492920e+03
2.860000e-06	-4.557777e-06	-2.305665e-08	-3.305915e+01	-1.508794e+03
2.870000e-06	-4.653958e-06	-2.328345e-08	-3.375678e+01	-1.523828e+03
2.880000e-06	-4.748456e-06	-2.349980e-08	-3.444221e+01	-1.538070e+03
2.890000e-06	-4.841191e-06	-2.370886e-08	-3.511485e+01	-1.551581e+03
2.900000e-06	-4.932206e-06	-2.390899e-08	-3.577501e+01	-1.564429e+03
2.910000e-06	-5.021482e-06	-2.410007e-08	-3.642256e+01	-1.576683e+03
2.920000e-06	-5.108876e-06	-2.428279e-08	-3.705646e+01	-1.588400e+03
2.930000e-06	-5.194251e-06	-2.445540e-08	-3.767572e+01	-1.599617e+03
2.940000e-06	-5.277757e-06	-2.461659e-08	-3.828142e+01	-1.610355e+03
