# Temperatura_=_84.41
# Concentracion g/m^3_=_28200.0
# C_Vs_to_Am_M_A/Vsm_=_65563218390.804596
# pendiente_HvsI_1/m_=_3716.3
# ordenada_HvsI_A/m_=_1297.0
# frecuencia_Hz_=_302302.1370282055

Tiempo_(s)	Campo_(V.s)	Magnetizacion_(V.s)	Campo_(kA/m)	Magnetizacion_(A/m)
0.000000e+00	-6.928972e-06	-2.818751e-08	-4.951814e+01	-1.845516e+03
1.000000e-08	-6.926149e-06	-2.817849e-08	-4.949796e+01	-1.844992e+03
2.000000e-08	-6.921011e-06	-2.816484e-08	-4.946124e+01	-1.844282e+03
3.000000e-08	-6.913711e-06	-2.814974e-08	-4.940907e+01	-1.843405e+03
4.000000e-08	-6.904068e-06	-2.813481e-08	-4.934016e+01	-1.842371e+03
5.000000e-08	-6.891882e-06	-2.811895e-08	-4.925307e+01	-1.841175e+03
6.000000e-08	-6.877179e-06	-2.809993e-08	-4.914799e+01	-1.839801e+03
7.000000e-08	-6.860119e-06	-2.807515e-08	-4.902608e+01	-1.838222e+03
8.000000e-08	-6.840946e-06	-2.804909e-08	-4.888905e+01	-1.836416e+03
9.000000e-08	-6.819563e-06	-2.805498e-08	-4.873624e+01	-1.834375e+03
1.000000e-07	-6.795561e-06	-2.802529e-08	-4.856471e+01	-1.832111e+03
1.100000e-07	-6.768690e-06	-2.795447e-08	-4.837267e+01	-1.829657e+03
1.200000e-07	-6.739255e-06	-2.790283e-08	-4.816232e+01	-1.827065e+03
1.300000e-07	-6.707647e-06	-2.785855e-08	-4.793643e+01	-1.824390e+03
1.400000e-07	-6.673864e-06	-2.778721e-08	-4.769500e+01	-1.821674e+03
1.500000e-07	-6.638211e-06	-2.774421e-08	-4.744020e+01	-1.818935e+03
1.600000e-07	-6.600734e-06	-2.776487e-08	-4.717237e+01	-1.816152e+03
1.700000e-07	-6.561108e-06	-2.767117e-08	-4.688918e+01	-1.813268e+03
1.800000e-07	-6.519223e-06	-2.762319e-08	-4.658985e+01	-1.810200e+03
1.900000e-07	-6.474832e-06	-2.759336e-08	-4.627261e+01	-1.806853e+03
2.000000e-07	-6.428020e-06	-2.746974e-08	-4.593807e+01	-1.803141e+03
2.100000e-07	-6.378790e-06	-2.741698e-08	-4.558624e+01	-1.799008e+03
2.200000e-07	-6.326835e-06	-2.733379e-08	-4.521494e+01	-1.794439e+03
2.300000e-07	-6.272334e-06	-2.724234e-08	-4.482545e+01	-1.789457e+03
2.400000e-07	-6.215446e-06	-2.718721e-08	-4.441890e+01	-1.784122e+03
2.500000e-07	-6.156192e-06	-2.711599e-08	-4.399544e+01	-1.778505e+03
2.600000e-07	-6.094692e-06	-2.703240e-08	-4.355592e+01	-1.772674e+03
2.700000e-07	-6.030945e-06	-2.693121e-08	-4.310035e+01	-1.766669e+03
2.800000e-07	-5.964986e-06	-2.684960e-08	-4.262898e+01	-1.760497e+03
2.900000e-07	-5.896773e-06	-2.674205e-08	-4.214149e+01	-1.754126e+03
3.000000e-07	-5.826344e-06	-2.662594e-08	-4.163817e+01	-1.747498e+03
3.100000e-07	-5.753718e-06	-2.653781e-08	-4.111914e+01	-1.740546e+03
3.200000e-07	-5.678745e-06	-2.641669e-08	-4.058335e+01	-1.733211e+03
3.300000e-07	-5.601414e-06	-2.629487e-08	-4.003070e+01	-1.725459e+03
3.400000e-07	-5.521814e-06	-2.616246e-08	-3.946183e+01	-1.717291e+03
3.500000e-07	-5.440147e-06	-2.603914e-08	-3.887820e+01	-1.708735e+03
3.600000e-07	-5.356687e-06	-2.591533e-08	-3.828175e+01	-1.699838e+03
3.700000e-07	-5.271515e-06	-2.577342e-08	-3.767307e+01	-1.690647e+03
3.800000e-07	-5.184590e-06	-2.562855e-08	-3.705185e+01	-1.681188e+03
3.900000e-07	-5.095819e-06	-2.546859e-08	-3.641745e+01	-1.671460e+03
4.000000e-07	-5.005161e-06	-2.531255e-08	-3.576955e+01	-1.661427e+03
4.100000e-07	-4.912736e-06	-2.514586e-08	-3.510904e+01	-1.651025e+03
4.200000e-07	-4.818709e-06	-2.498474e-08	-3.443707e+01	-1.640179e+03
4.300000e-07	-4.723045e-06	-2.481499e-08	-3.375340e+01	-1.628820e+03
4.400000e-07	-4.625567e-06	-2.463199e-08	-3.305678e+01	-1.616905e+03
4.500000e-07	-4.526359e-06	-2.444401e-08	-3.234778e+01	-1.604418e+03
4.600000e-07	-4.425466e-06	-2.424861e-08	-3.162675e+01	-1.591378e+03
4.700000e-07	-4.323036e-06	-2.404492e-08	-3.089473e+01	-1.577820e+03
4.800000e-07	-4.219202e-06	-2.382732e-08	-3.015267e+01	-1.563781e+03
4.900000e-07	-4.113826e-06	-2.360321e-08	-2.939960e+01	-1.549281e+03
5.000000e-07	-4.006900e-06	-2.336818e-08	-2.863545e+01	-1.534307e+03
5.100000e-07	-3.898486e-06	-2.313012e-08	-2.786067e+01	-1.518810e+03
5.200000e-07	-3.788681e-06	-2.288321e-08	-2.707594e+01	-1.502709e+03
5.300000e-07	-3.677591e-06	-2.262653e-08	-2.628203e+01	-1.485910e+03
5.400000e-07	-3.565142e-06	-2.235920e-08	-2.547841e+01	-1.468321e+03
5.500000e-07	-3.451219e-06	-2.207750e-08	-2.466425e+01	-1.449872e+03
5.600000e-07	-3.335767e-06	-2.178110e-08	-2.383917e+01	-1.430526e+03
5.700000e-07	-3.218857e-06	-2.147057e-08	-2.300367e+01	-1.410276e+03
5.800000e-07	-3.100718e-06	-2.114879e-08	-2.215938e+01	-1.389131e+03
5.900000e-07	-2.981475e-06	-2.081086e-08	-2.130721e+01	-1.367100e+03
6.000000e-07	-2.861090e-06	-2.045825e-08	-2.044688e+01	-1.344165e+03
6.100000e-07	-2.739651e-06	-2.009034e-08	-1.957901e+01	-1.320266e+03
6.200000e-07	-2.617236e-06	-1.970703e-08	-1.870417e+01	-1.295296e+03
6.300000e-07	-2.493802e-06	-1.930478e-08	-1.782204e+01	-1.269105e+03
6.400000e-07	-2.369406e-06	-1.888186e-08	-1.693304e+01	-1.241519e+03
6.500000e-07	-2.244150e-06	-1.843617e-08	-1.603790e+01	-1.212361e+03
6.600000e-07	-2.118192e-06	-1.796409e-08	-1.513773e+01	-1.181474e+03
6.700000e-07	-1.991645e-06	-1.746469e-08	-1.423336e+01	-1.148730e+03
6.800000e-07	-1.864412e-06	-1.693688e-08	-1.332408e+01	-1.114029e+03
6.900000e-07	-1.736403e-06	-1.638156e-08	-1.240926e+01	-1.077283e+03
7.000000e-07	-1.607743e-06	-1.579216e-08	-1.148979e+01	-1.038391e+03
7.100000e-07	-1.478528e-06	-1.516233e-08	-1.056635e+01	-9.972144e+02
7.200000e-07	-1.348864e-06	-1.449121e-08	-9.639705e+00	-9.535660e+02
7.300000e-07	-1.218819e-06	-1.377978e-08	-8.710333e+00	-9.072140e+02
7.400000e-07	-1.088379e-06	-1.302381e-08	-7.778135e+00	-8.579115e+02
7.500000e-07	-9.575330e-07	-1.222096e-08	-6.843043e+00	-8.054448e+02
7.600000e-07	-8.262899e-07	-1.137151e-08	-5.905109e+00	-7.496921e+02
7.700000e-07	-6.947467e-07	-1.047504e-08	-4.965031e+00	-6.906773e+02
7.800000e-07	-5.629915e-07	-9.531625e-09	-4.023438e+00	-6.286043e+02
7.900000e-07	-4.310500e-07	-8.546705e-09	-3.080514e+00	-5.638581e+02
8.000000e-07	-2.989706e-07	-7.529434e-09	-2.136604e+00	-4.969668e+02
8.100000e-07	-1.668180e-07	-6.486315e-09	-1.192171e+00	-4.285289e+02
8.200000e-07	-3.452844e-08	-5.427874e-09	-2.467587e-01	-3.591162e+02
8.300000e-07	9.785769e-08	-4.359512e-09	6.993434e-01	-2.891755e+02
8.400000e-07	2.302188e-07	-3.285998e-09	1.645267e+00	-2.189485e+02
8.500000e-07	3.624982e-07	-2.210116e-09	2.590606e+00	-1.484319e+02
8.600000e-07	4.946825e-07	-1.129403e-09	3.535266e+00	-7.739061e+01
8.700000e-07	6.266944e-07	-3.653450e-11	4.478693e+00	-5.422933e+00
8.800000e-07	7.584952e-07	1.078799e-09	5.420612e+00	6.792972e+01
8.900000e-07	8.900849e-07	2.222189e-09	6.361022e+00	1.430520e+02
9.000000e-07	1.021367e-06	3.396601e-09	7.299232e+00	2.201283e+02
9.100000e-07	1.152259e-06	4.600577e-09	8.234657e+00	2.990476e+02
9.200000e-07	1.282722e-06	5.828327e-09	9.167020e+00	3.793606e+02
9.300000e-07	1.412738e-06	7.066971e-09	1.009618e+01	4.602981e+02
9.400000e-07	1.542285e-06	8.297993e-09	1.102199e+01	5.408491e+02
9.500000e-07	1.671298e-06	9.503573e-09	1.194399e+01	6.198813e+02
9.600000e-07	1.799602e-06	1.066647e-08	1.286092e+01	6.962825e+02
9.700000e-07	1.927088e-06	1.176926e-08	1.377200e+01	7.690941e+02
9.800000e-07	2.053838e-06	1.280308e-08	1.467783e+01	8.376136e+02
9.900000e-07	2.179958e-06	1.376743e-08	1.557915e+01	9.014488e+02
1.000000e-06	2.305372e-06	1.466105e-08	1.647542e+01	9.605187e+02
1.010000e-06	2.429983e-06	1.548768e-08	1.736595e+01	1.015006e+03
1.020000e-06	2.553708e-06	1.625420e-08	1.825016e+01	1.065278e+03
1.030000e-06	2.676429e-06	1.696427e-08	1.912719e+01	1.111793e+03
1.040000e-06	2.798155e-06	1.762112e-08	1.999711e+01	1.155013e+03
1.050000e-06	2.918788e-06	1.823254e-08	2.085922e+01	1.195344e+03
1.060000e-06	3.038174e-06	1.880380e-08	2.171242e+01	1.233099e+03
1.070000e-06	3.156464e-06	1.934029e-08	2.255778e+01	1.268500e+03
1.080000e-06	3.273716e-06	1.984337e-08	2.339572e+01	1.301697e+03
1.090000e-06	3.389787e-06	2.031289e-08	2.422523e+01	1.332804e+03
1.100000e-06	3.504512e-06	2.075276e-08	2.504512e+01	1.361934e+03
1.110000e-06	3.617769e-06	2.116643e-08	2.585451e+01	1.389217e+03
1.120000e-06	3.729536e-06	2.155695e-08	2.665326e+01	1.414811e+03
1.130000e-06	3.839969e-06	2.192635e-08	2.744247e+01	1.438893e+03
1.140000e-06	3.949240e-06	2.227479e-08	2.822338e+01	1.461645e+03
1.150000e-06	4.057260e-06	2.260406e-08	2.899535e+01	1.483224e+03
1.160000e-06	4.163886e-06	2.291769e-08	2.975736e+01	1.503757e+03
1.170000e-06	4.268929e-06	2.321715e-08	3.050805e+01	1.523322e+03
1.180000e-06	4.372311e-06	2.350111e-08	3.124687e+01	1.541962e+03
1.190000e-06	4.474143e-06	2.376842e-08	3.197462e+01	1.559693e+03
1.200000e-06	4.574454e-06	2.402130e-08	3.269149e+01	1.576524e+03
1.210000e-06	4.673122e-06	2.426037e-08	3.339662e+01	1.592473e+03
1.220000e-06	4.769990e-06	2.448825e-08	3.408889e+01	1.607575e+03
1.230000e-06	4.865106e-06	2.470607e-08	3.476865e+01	1.621892e+03
1.240000e-06	4.958600e-06	2.491538e-08	3.543681e+01	1.635495e+03
1.250000e-06	5.050394e-06	2.511614e-08	3.609281e+01	1.648462e+03
1.260000e-06	5.140334e-06	2.530657e-08	3.673558e+01	1.660861e+03
1.270000e-06	5.228325e-06	2.548629e-08	3.736440e+01	1.672739e+03
1.280000e-06	5.314383e-06	2.565669e-08	3.797942e+01	1.684120e+03
1.290000e-06	5.398596e-06	2.581948e-08	3.858125e+01	1.695008e+03
1.300000e-06	5.480907e-06	2.597504e-08	3.916949e+01	1.705397e+03
1.310000e-06	5.561173e-06	2.612401e-08	3.974311e+01	1.715278e+03
1.320000e-06	5.639380e-06	2.626729e-08	4.030202e+01	1.724654e+03
1.330000e-06	5.715535e-06	2.640539e-08	4.084626e+01	1.733540e+03
1.340000e-06	5.789454e-06	2.653840e-08	4.137453e+01	1.741965e+03
1.350000e-06	5.861122e-06	2.666490e-08	4.188671e+01	1.749966e+03
1.360000e-06	5.930686e-06	2.678369e-08	4.238385e+01	1.757576e+03
1.370000e-06	5.998168e-06	2.689529e-08	4.286611e+01	1.764822e+03
1.380000e-06	6.063431e-06	2.700020e-08	4.333252e+01	1.771713e+03
1.390000e-06	6.126503e-06	2.709843e-08	4.378327e+01	1.778246e+03
1.400000e-06	6.187551e-06	2.719074e-08	4.421954e+01	1.784411e+03
1.410000e-06	6.246516e-06	2.727849e-08	4.464094e+01	1.790197e+03
1.420000e-06	6.303245e-06	2.736123e-08	4.504636e+01	1.795604e+03
1.430000e-06	6.357681e-06	2.743872e-08	4.543539e+01	1.800648e+03
1.440000e-06	6.409681e-06	2.751187e-08	4.580701e+01	1.805360e+03
1.450000e-06	6.459018e-06	2.758073e-08	4.615960e+01	1.809785e+03
1.460000e-06	6.505855e-06	2.764444e-08	4.649432e+01	1.813968e+03
1.470000e-06	6.550484e-06	2.770457e-08	4.681326e+01	1.817947e+03
1.480000e-06	6.592804e-06	2.776137e-08	4.711570e+01	1.821739e+03
1.490000e-06	6.632716e-06	2.781517e-08	4.740093e+01	1.825343e+03
1.500000e-06	6.670392e-06	2.786594e-08	4.767019e+01	1.828733e+03
1.510000e-06	6.705789e-06	2.791317e-08	4.792315e+01	1.831872e+03
1.520000e-06	6.738684e-06	2.795618e-08	4.815824e+01	1.834720e+03
1.530000e-06	6.769184e-06	2.799376e-08	4.837620e+01	1.837249e+03
1.540000e-06	6.797476e-06	2.802846e-08	4.857839e+01	1.839448e+03
1.550000e-06	6.823278e-06	2.806005e-08	4.876279e+01	1.841327e+03
1.560000e-06	6.846448e-06	2.808662e-08	4.892838e+01	1.842916e+03
1.570000e-06	6.867235e-06	2.810647e-08	4.907693e+01	1.844254e+03
1.580000e-06	6.885632e-06	2.812097e-08	4.920840e+01	1.845381e+03
1.590000e-06	6.901447e-06	2.813326e-08	4.932143e+01	1.846326e+03
1.600000e-06	6.914669e-06	2.814279e-08	4.941592e+01	1.847102e+03
1.610000e-06	6.925147e-06	2.815116e-08	4.949080e+01	1.847707e+03
1.620000e-06	6.932918e-06	2.815991e-08	4.954633e+01	1.848124e+03
1.630000e-06	6.938308e-06	2.816710e-08	4.958486e+01	1.848335e+03
1.640000e-06	6.941267e-06	2.817060e-08	4.960600e+01	1.848326e+03
1.650000e-06	6.941672e-06	2.816954e-08	4.960890e+01	1.848094e+03
1.660000e-06	6.939722e-06	2.816063e-08	4.959496e+01	1.847649e+03
1.670000e-06	6.935560e-06	2.814812e-08	4.956522e+01	1.847009e+03
1.680000e-06	6.929029e-06	2.813340e-08	4.951854e+01	1.846195e+03
1.690000e-06	6.920192e-06	2.811662e-08	4.945539e+01	1.845222e+03
1.700000e-06	6.909152e-06	2.810076e-08	4.937649e+01	1.844091e+03
1.710000e-06	6.895683e-06	2.808542e-08	4.928024e+01	1.842789e+03
1.720000e-06	6.879813e-06	2.807116e-08	4.916682e+01	1.841293e+03
1.730000e-06	6.861857e-06	2.804134e-08	4.903849e+01	1.839578e+03
1.740000e-06	6.841682e-06	2.796942e-08	4.889432e+01	1.837629e+03
1.750000e-06	6.818540e-06	2.793895e-08	4.872893e+01	1.835449e+03
1.760000e-06	6.792155e-06	2.792795e-08	4.854037e+01	1.833064e+03
1.770000e-06	6.762984e-06	2.788548e-08	4.833189e+01	1.830519e+03
1.780000e-06	6.731564e-06	2.786183e-08	4.810735e+01	1.827870e+03
1.790000e-06	6.698429e-06	2.784907e-08	4.787055e+01	1.825166e+03
1.800000e-06	6.663879e-06	2.774420e-08	4.762364e+01	1.822436e+03
1.810000e-06	6.627294e-06	2.771301e-08	4.736219e+01	1.819674e+03
1.820000e-06	6.588138e-06	2.771286e-08	4.708235e+01	1.816838e+03
1.830000e-06	6.546766e-06	2.763049e-08	4.678669e+01	1.813853e+03
1.840000e-06	6.503149e-06	2.765094e-08	4.647498e+01	1.810626e+03
1.850000e-06	6.457142e-06	2.757259e-08	4.614619e+01	1.807066e+03
1.860000e-06	6.408844e-06	2.749834e-08	4.580102e+01	1.803103e+03
1.870000e-06	6.358164e-06	2.747447e-08	4.543884e+01	1.798704e+03
1.880000e-06	6.304958e-06	2.736212e-08	4.505860e+01	1.793878e+03
1.890000e-06	6.249122e-06	2.730675e-08	4.465956e+01	1.788673e+03
1.900000e-06	6.190908e-06	2.720190e-08	4.424354e+01	1.783158e+03
1.910000e-06	6.130421e-06	2.712270e-08	4.381126e+01	1.777404e+03
1.920000e-06	6.067543e-06	2.704831e-08	4.336190e+01	1.771464e+03
1.930000e-06	6.002466e-06	2.692747e-08	4.289683e+01	1.765358e+03
1.940000e-06	5.935234e-06	2.687453e-08	4.241635e+01	1.759071e+03
1.950000e-06	5.865715e-06	2.673577e-08	4.191953e+01	1.752551e+03
1.960000e-06	5.793809e-06	2.663040e-08	4.140566e+01	1.745734e+03
1.970000e-06	5.719616e-06	2.652568e-08	4.087543e+01	1.738555e+03
1.980000e-06	5.643135e-06	2.639951e-08	4.032886e+01	1.730968e+03
1.990000e-06	5.564324e-06	2.630027e-08	3.976563e+01	1.722962e+03
2.000000e-06	5.483522e-06	2.615755e-08	3.918818e+01	1.714553e+03
2.010000e-06	5.400945e-06	2.604211e-08	3.859804e+01	1.705783e+03
2.020000e-06	5.316463e-06	2.589189e-08	3.799428e+01	1.696702e+03
2.030000e-06	5.229933e-06	2.575449e-08	3.737590e+01	1.687346e+03
2.040000e-06	5.141454e-06	2.561361e-08	3.674358e+01	1.677726e+03
2.050000e-06	5.051303e-06	2.546334e-08	3.609931e+01	1.667819e+03
2.060000e-06	4.959523e-06	2.531127e-08	3.544340e+01	1.657570e+03
2.070000e-06	4.865972e-06	2.513213e-08	3.477483e+01	1.646907e+03
2.080000e-06	4.770647e-06	2.496681e-08	3.409359e+01	1.635756e+03
2.090000e-06	4.673626e-06	2.478161e-08	3.340023e+01	1.624062e+03
2.100000e-06	4.575056e-06	2.460176e-08	3.269580e+01	1.611799e+03
2.110000e-06	4.474888e-06	2.440942e-08	3.197994e+01	1.598973e+03
2.120000e-06	4.373012e-06	2.421105e-08	3.125188e+01	1.585613e+03
2.130000e-06	4.269542e-06	2.399914e-08	3.051243e+01	1.571759e+03
2.140000e-06	4.164573e-06	2.377824e-08	2.976226e+01	1.557439e+03
2.150000e-06	4.058169e-06	2.355463e-08	2.900184e+01	1.542655e+03
2.160000e-06	3.950396e-06	2.331937e-08	2.823164e+01	1.527371e+03
2.170000e-06	3.841176e-06	2.308135e-08	2.745109e+01	1.511517e+03
2.180000e-06	3.730473e-06	2.282689e-08	2.665995e+01	1.495004e+03
2.190000e-06	3.618296e-06	2.256482e-08	2.585828e+01	1.477734e+03
2.200000e-06	3.504751e-06	2.228869e-08	2.504682e+01	1.459629e+03
2.210000e-06	3.389877e-06	2.200295e-08	2.422587e+01	1.440638e+03
2.220000e-06	3.273477e-06	2.170120e-08	2.339402e+01	1.420741e+03
2.230000e-06	3.155681e-06	2.138785e-08	2.255218e+01	1.399946e+03
2.240000e-06	3.036617e-06	2.105872e-08	2.170129e+01	1.378263e+03
2.250000e-06	2.916349e-06	2.071519e-08	2.084179e+01	1.355687e+03
2.260000e-06	2.795014e-06	2.035704e-08	1.997466e+01	1.332177e+03
2.270000e-06	2.672764e-06	1.998250e-08	1.910100e+01	1.307643e+03
2.280000e-06	2.549646e-06	1.959118e-08	1.822113e+01	1.281951e+03
2.290000e-06	2.425546e-06	1.917820e-08	1.733425e+01	1.254934e+03
2.300000e-06	2.300529e-06	1.874299e-08	1.644081e+01	1.226413e+03
2.310000e-06	2.174733e-06	1.828114e-08	1.554181e+01	1.196222e+03
2.320000e-06	2.048162e-06	1.779450e-08	1.463726e+01	1.164220e+03
2.330000e-06	1.920814e-06	1.727869e-08	1.372716e+01	1.130298e+03
2.340000e-06	1.792761e-06	1.673271e-08	1.281203e+01	1.094366e+03
2.350000e-06	1.664082e-06	1.615400e-08	1.189242e+01	1.056331e+03
2.360000e-06	1.534881e-06	1.554034e-08	1.096908e+01	1.016071e+03
2.370000e-06	1.405240e-06	1.488864e-08	1.004260e+01	9.734185e+02
2.380000e-06	1.275251e-06	1.419638e-08	9.113625e+00	9.281577e+02
2.390000e-06	1.144922e-06	1.346038e-08	8.182224e+00	8.800424e+02
2.400000e-06	1.014253e-06	1.267661e-08	7.248397e+00	8.288394e+02
2.410000e-06	8.832421e-07	1.184662e-08	6.312120e+00	7.743834e+02
2.420000e-06	7.519169e-07	1.096949e-08	5.373600e+00	7.166358e+02
2.430000e-06	6.203844e-07	1.004325e-08	4.433598e+00	6.557275e+02
2.440000e-06	4.886773e-07	9.072812e-09	3.492349e+00	5.919746e+02
2.450000e-06	3.567958e-07	8.065828e-09	2.549853e+00	5.258562e+02
2.460000e-06	2.246533e-07	7.028851e-09	1.605493e+00	4.579535e+02
2.470000e-06	9.230333e-08	5.970378e-09	6.596489e-01	3.888610e+02
2.480000e-06	-4.009187e-08	4.900973e-09	-2.865179e-01	3.190857e+02
2.490000e-06	-1.724522e-07	3.825599e-09	-1.232435e+00	2.489572e+02
2.500000e-06	-3.047178e-07	2.746689e-09	-2.177677e+00	1.785701e+02
2.510000e-06	-4.368606e-07	1.663978e-09	-3.122040e+00	1.077752e+02
2.520000e-06	-5.688661e-07	5.727395e-10	-4.065421e+00	3.622536e+01
2.530000e-06	-7.007115e-07	-5.349189e-10	-5.007658e+00	-3.653068e+01
2.540000e-06	-8.323293e-07	-1.665803e-09	-5.948270e+00	-1.109226e+02
2.550000e-06	-9.636660e-07	-2.825261e-09	-6.886872e+00	-1.872270e+02
2.560000e-06	-1.094650e-06	-4.014942e-09	-7.822952e+00	-2.654573e+02
2.570000e-06	-1.225248e-06	-5.232180e-09	-8.756279e+00	-3.452983e+02
2.580000e-06	-1.355475e-06	-6.468952e-09	-9.686945e+00	-4.261005e+02
2.590000e-06	-1.485313e-06	-7.707609e-09	-1.061484e+01	-5.069351e+02
2.600000e-06	-1.614699e-06	-8.931202e-09	-1.153950e+01	-5.867014e+02
2.610000e-06	-1.743499e-06	-1.011941e-08	-1.245997e+01	-6.642621e+02
2.620000e-06	-1.871641e-06	-1.125491e-08	-1.337575e+01	-7.385841e+02
2.630000e-06	-1.999061e-06	-1.232760e-08	-1.428636e+01	-8.088548e+02
2.640000e-06	-2.125737e-06	-1.332990e-08	-1.519165e+01	-8.745570e+02
2.650000e-06	-2.251613e-06	-1.426107e-08	-1.609123e+01	-9.354907e+02
2.660000e-06	-2.376589e-06	-1.512333e-08	-1.698437e+01	-9.917432e+02
2.670000e-06	-2.500600e-06	-1.592049e-08	-1.787062e+01	-1.043620e+03
2.680000e-06	-2.623608e-06	-1.665939e-08	-1.874970e+01	-1.091555e+03
2.690000e-06	-2.745651e-06	-1.734694e-08	-1.962189e+01	-1.136017e+03
2.700000e-06	-2.866658e-06	-1.798646e-08	-2.048667e+01	-1.177441e+03
2.710000e-06	-2.986590e-06	-1.858039e-08	-2.134377e+01	-1.216177e+03
2.720000e-06	-3.105450e-06	-1.913538e-08	-2.219320e+01	-1.252482e+03
2.730000e-06	-3.223165e-06	-1.965525e-08	-2.303446e+01	-1.286530e+03
2.740000e-06	-3.339536e-06	-2.014075e-08	-2.386611e+01	-1.318446e+03
2.750000e-06	-3.454453e-06	-2.059398e-08	-2.468737e+01	-1.348339e+03
2.760000e-06	-3.568014e-06	-2.101826e-08	-2.549894e+01	-1.376331e+03
2.770000e-06	-3.680179e-06	-2.141933e-08	-2.630053e+01	-1.402568e+03
2.780000e-06	-3.790883e-06	-2.180069e-08	-2.709168e+01	-1.427223e+03
2.790000e-06	-3.900230e-06	-2.216172e-08	-2.787313e+01	-1.450477e+03
2.800000e-06	-4.008348e-06	-2.250080e-08	-2.864580e+01	-1.472501e+03
2.810000e-06	-4.115194e-06	-2.281937e-08	-2.940938e+01	-1.493433e+03
2.820000e-06	-4.220626e-06	-2.312106e-08	-3.016284e+01	-1.513371e+03
2.830000e-06	-4.324532e-06	-2.340937e-08	-3.090542e+01	-1.532372e+03
2.840000e-06	-4.426820e-06	-2.368597e-08	-3.163642e+01	-1.550460e+03
2.850000e-06	-4.527420e-06	-2.394824e-08	-3.235536e+01	-1.567644e+03
2.860000e-06	-4.626441e-06	-2.419513e-08	-3.306302e+01	-1.583936e+03
2.870000e-06	-4.723948e-06	-2.442862e-08	-3.375986e+01	-1.599366e+03
2.880000e-06	-4.819797e-06	-2.465102e-08	-3.444485e+01	-1.613983e+03
2.890000e-06	-4.913898e-06	-2.486590e-08	-3.511734e+01	-1.627858e+03
2.900000e-06	-5.006214e-06	-2.507348e-08	-3.577708e+01	-1.641067e+03
2.910000e-06	-5.096759e-06	-2.527156e-08	-3.642416e+01	-1.653682e+03
2.920000e-06	-5.185476e-06	-2.545840e-08	-3.705818e+01	-1.665761e+03
2.930000e-06	-5.272213e-06	-2.563403e-08	-3.767805e+01	-1.677336e+03
2.940000e-06	-5.356939e-06	-2.580019e-08	-3.828354e+01	-1.688419e+03
