# Temperatura_=_29.12
# Concentracion g/m^3_=_28200.0
# C_Vs_to_Am_M_A/Vsm_=_65563218390.804596
# pendiente_HvsI_1/m_=_3716.3
# ordenada_HvsI_A/m_=_1297.0
# frecuencia_Hz_=_302303.4221388238

Tiempo_(s)	Campo_(V.s)	Magnetizacion_(V.s)	Campo_(kA/m)	Magnetizacion_(A/m)
0.000000e+00	-6.846778e-06	-2.388473e-08	-4.951669e+01	-1.563776e+03
1.000000e-08	-6.844222e-06	-2.387779e-08	-4.949820e+01	-1.563448e+03
2.000000e-08	-6.839326e-06	-2.386847e-08	-4.946280e+01	-1.562983e+03
3.000000e-08	-6.832340e-06	-2.385886e-08	-4.941227e+01	-1.562363e+03
4.000000e-08	-6.823124e-06	-2.384748e-08	-4.934562e+01	-1.561571e+03
5.000000e-08	-6.811395e-06	-2.383211e-08	-4.926080e+01	-1.560588e+03
6.000000e-08	-6.797085e-06	-2.381631e-08	-4.915731e+01	-1.559407e+03
7.000000e-08	-6.780380e-06	-2.379415e-08	-4.903649e+01	-1.558029e+03
8.000000e-08	-6.761627e-06	-2.376175e-08	-4.890087e+01	-1.556473e+03
9.000000e-08	-6.740759e-06	-2.377310e-08	-4.874995e+01	-1.554772e+03
1.000000e-07	-6.717281e-06	-2.378326e-08	-4.858016e+01	-1.552970e+03
1.100000e-07	-6.690989e-06	-2.371643e-08	-4.839001e+01	-1.551110e+03
1.200000e-07	-6.662124e-06	-2.365417e-08	-4.818125e+01	-1.549229e+03
1.300000e-07	-6.631027e-06	-2.362017e-08	-4.795635e+01	-1.547347e+03
1.400000e-07	-6.597812e-06	-2.354961e-08	-4.771614e+01	-1.545456e+03
1.500000e-07	-6.562717e-06	-2.350383e-08	-4.746233e+01	-1.543523e+03
1.600000e-07	-6.525836e-06	-2.357498e-08	-4.719560e+01	-1.541490e+03
1.700000e-07	-6.486915e-06	-2.351289e-08	-4.691412e+01	-1.539284e+03
1.800000e-07	-6.445789e-06	-2.342930e-08	-4.661669e+01	-1.536832e+03
1.900000e-07	-6.402196e-06	-2.344845e-08	-4.630142e+01	-1.534072e+03
2.000000e-07	-6.356195e-06	-2.331508e-08	-4.596874e+01	-1.530968e+03
2.100000e-07	-6.307881e-06	-2.323589e-08	-4.561933e+01	-1.527513e+03
2.200000e-07	-6.256904e-06	-2.320717e-08	-4.525066e+01	-1.523733e+03
2.300000e-07	-6.203343e-06	-2.313958e-08	-4.486329e+01	-1.519676e+03
2.400000e-07	-6.147440e-06	-2.311647e-08	-4.445900e+01	-1.515401e+03
2.500000e-07	-6.089116e-06	-2.304747e-08	-4.403719e+01	-1.510964e+03
2.600000e-07	-6.028541e-06	-2.298272e-08	-4.359911e+01	-1.506400e+03
2.700000e-07	-5.965831e-06	-2.290777e-08	-4.314558e+01	-1.501720e+03
2.800000e-07	-5.900890e-06	-2.281815e-08	-4.267592e+01	-1.496902e+03
2.900000e-07	-5.833733e-06	-2.274677e-08	-4.219023e+01	-1.491905e+03
3.000000e-07	-5.764378e-06	-2.266911e-08	-4.168865e+01	-1.486669e+03
3.100000e-07	-5.692872e-06	-2.260450e-08	-4.117151e+01	-1.481138e+03
3.200000e-07	-5.619113e-06	-2.249619e-08	-4.063808e+01	-1.475270e+03
3.300000e-07	-5.543013e-06	-2.239048e-08	-4.008771e+01	-1.469046e+03
3.400000e-07	-5.464616e-06	-2.228790e-08	-3.952074e+01	-1.462470e+03
3.500000e-07	-5.384055e-06	-2.217822e-08	-3.893811e+01	-1.455568e+03
3.600000e-07	-5.301635e-06	-2.208963e-08	-3.834204e+01	-1.448376e+03
3.700000e-07	-5.217487e-06	-2.197427e-08	-3.773347e+01	-1.440927e+03
3.800000e-07	-5.131641e-06	-2.185325e-08	-3.711262e+01	-1.433238e+03
3.900000e-07	-5.044068e-06	-2.172220e-08	-3.647928e+01	-1.425305e+03
4.000000e-07	-4.954649e-06	-2.158839e-08	-3.583259e+01	-1.417099e+03
4.100000e-07	-4.863398e-06	-2.145809e-08	-3.517266e+01	-1.408574e+03
4.200000e-07	-4.770496e-06	-2.132906e-08	-3.450078e+01	-1.399675e+03
4.300000e-07	-4.676049e-06	-2.119769e-08	-3.381773e+01	-1.390352e+03
4.400000e-07	-4.580000e-06	-2.104444e-08	-3.312309e+01	-1.380570e+03
4.500000e-07	-4.482261e-06	-2.088492e-08	-3.241623e+01	-1.370312e+03
4.600000e-07	-4.382796e-06	-2.072184e-08	-3.169689e+01	-1.359582e+03
4.700000e-07	-4.281688e-06	-2.055396e-08	-3.096566e+01	-1.348396e+03
4.800000e-07	-4.179170e-06	-2.037724e-08	-3.022424e+01	-1.336772e+03
4.900000e-07	-4.075221e-06	-2.019080e-08	-2.947247e+01	-1.324718e+03
5.000000e-07	-3.969696e-06	-1.999549e-08	-2.870930e+01	-1.312223e+03
5.100000e-07	-3.862649e-06	-1.979225e-08	-2.793513e+01	-1.299254e+03
5.200000e-07	-3.754172e-06	-1.958402e-08	-2.715061e+01	-1.285756e+03
5.300000e-07	-3.644434e-06	-1.936679e-08	-2.635697e+01	-1.271663e+03
5.400000e-07	-3.533446e-06	-1.913970e-08	-2.555429e+01	-1.256909e+03
5.500000e-07	-3.421137e-06	-1.890233e-08	-2.474206e+01	-1.241435e+03
5.600000e-07	-3.307419e-06	-1.865704e-08	-2.391964e+01	-1.225199e+03
5.700000e-07	-3.192221e-06	-1.839935e-08	-2.308651e+01	-1.208174e+03
5.800000e-07	-3.075646e-06	-1.812437e-08	-2.224343e+01	-1.190344e+03
5.900000e-07	-2.957846e-06	-1.783339e-08	-2.139149e+01	-1.171692e+03
6.000000e-07	-2.838971e-06	-1.753093e-08	-2.053176e+01	-1.152191e+03
6.100000e-07	-2.719086e-06	-1.721772e-08	-1.966475e+01	-1.131790e+03
6.200000e-07	-2.598191e-06	-1.689116e-08	-1.879042e+01	-1.110411e+03
6.300000e-07	-2.476317e-06	-1.654902e-08	-1.790901e+01	-1.087952e+03
6.400000e-07	-2.353434e-06	-1.618715e-08	-1.702031e+01	-1.064291e+03
6.500000e-07	-2.229611e-06	-1.580366e-08	-1.612481e+01	-1.039298e+03
6.600000e-07	-2.105061e-06	-1.539868e-08	-1.522404e+01	-1.012848e+03
6.700000e-07	-1.979883e-06	-1.497120e-08	-1.431874e+01	-9.848248e+02
6.800000e-07	-1.854079e-06	-1.452112e-08	-1.340891e+01	-9.551207e+02
6.900000e-07	-1.727665e-06	-1.404571e-08	-1.249467e+01	-9.236330e+02
7.000000e-07	-1.600658e-06	-1.353889e-08	-1.157615e+01	-8.902531e+02
7.100000e-07	-1.473115e-06	-1.299744e-08	-1.065374e+01	-8.548583e+02
7.200000e-07	-1.345102e-06	-1.242056e-08	-9.727932e+00	-8.173086e+02
7.300000e-07	-1.216627e-06	-1.180868e-08	-8.798786e+00	-7.774553e+02
7.400000e-07	-1.087769e-06	-1.116185e-08	-7.866873e+00	-7.351605e+02
7.500000e-07	-9.585472e-07	-1.047847e-08	-6.932324e+00	-6.903285e+02
7.600000e-07	-8.289699e-07	-9.756197e-09	-5.995206e+00	-6.429408e+02
7.700000e-07	-6.990814e-07	-8.995061e-09	-5.055838e+00	-5.930892e+02
7.800000e-07	-5.689836e-07	-8.199208e-09	-4.114955e+00	-5.409956e+02
7.900000e-07	-4.387355e-07	-7.375911e-09	-3.172986e+00	-4.870110e+02
8.000000e-07	-3.083632e-07	-6.532550e-09	-2.230118e+00	-4.315900e+02
8.100000e-07	-1.778780e-07	-5.675623e-09	-1.286434e+00	-3.752410e+02
8.200000e-07	-4.724219e-08	-4.810644e-09	-3.416610e-01	-3.184589e+02
8.300000e-07	8.348837e-08	-3.943068e-09	6.037976e-01	-2.616523e+02
8.400000e-07	2.142576e-07	-3.078965e-09	1.549536e+00	-2.050793e+02
8.500000e-07	3.449528e-07	-2.221318e-09	2.494738e+00	-1.488055e+02
8.600000e-07	4.754703e-07	-1.368632e-09	3.438656e+00	-9.269494e+01
8.700000e-07	6.058529e-07	-5.126888e-10	4.381599e+00	-3.643876e+01
8.800000e-07	7.360332e-07	3.542497e-10	5.323077e+00	2.038224e+01
8.900000e-07	8.659222e-07	1.236303e-09	6.262449e+00	7.821006e+01
9.000000e-07	9.955449e-07	2.139188e-09	7.199896e+00	1.374132e+02
9.100000e-07	1.124913e-06	3.065746e-09	8.135503e+00	1.981985e+02
9.200000e-07	1.253907e-06	4.015825e-09	9.068400e+00	2.605481e+02
9.300000e-07	1.382363e-06	4.985674e-09	9.997408e+00	3.241921e+02
9.400000e-07	1.510317e-06	5.968194e-09	1.092279e+01	3.886228e+02
9.500000e-07	1.637738e-06	6.951996e-09	1.184431e+01	4.531461e+02
9.600000e-07	1.764546e-06	7.923757e-09	1.276140e+01	5.169617e+02
9.700000e-07	1.890681e-06	8.873052e-09	1.367362e+01	5.792555e+02
9.800000e-07	2.016116e-06	9.786273e-09	1.458078e+01	6.392889e+02
9.900000e-07	2.140949e-06	1.065355e-08	1.548359e+01	6.964714e+02
1.000000e-06	2.265109e-06	1.147071e-08	1.638153e+01	7.504034e+02
1.010000e-06	2.388351e-06	1.223319e-08	1.727283e+01	8.008893e+02
1.020000e-06	2.510600e-06	1.294409e-08	1.815695e+01	8.479194e+02
1.030000e-06	2.631901e-06	1.360645e-08	1.903422e+01	8.916304e+02
1.040000e-06	2.752160e-06	1.422310e-08	1.990394e+01	9.322547e+02
1.050000e-06	2.871317e-06	1.479825e-08	2.076570e+01	9.700676e+02
1.060000e-06	2.989448e-06	1.533359e-08	2.162003e+01	1.005345e+03
1.070000e-06	3.106494e-06	1.583374e-08	2.246652e+01	1.038335e+03
1.080000e-06	3.222336e-06	1.629980e-08	2.330431e+01	1.069243e+03
1.090000e-06	3.336908e-06	1.673599e-08	2.413291e+01	1.098235e+03
1.100000e-06	3.450188e-06	1.714713e-08	2.495216e+01	1.125447e+03
1.110000e-06	3.562131e-06	1.753476e-08	2.576174e+01	1.150999e+03
1.120000e-06	3.672734e-06	1.790104e-08	2.656163e+01	1.175003e+03
1.130000e-06	3.782124e-06	1.824709e-08	2.735276e+01	1.197578e+03
1.140000e-06	3.890329e-06	1.857327e-08	2.813531e+01	1.218843e+03
1.150000e-06	3.997163e-06	1.888122e-08	2.890794e+01	1.238914e+03
1.160000e-06	4.102481e-06	1.917092e-08	2.966962e+01	1.257901e+03
1.170000e-06	4.206312e-06	1.944394e-08	3.042054e+01	1.275898e+03
1.180000e-06	4.308659e-06	1.970188e-08	3.116072e+01	1.292979e+03
1.190000e-06	4.409553e-06	1.994521e-08	3.189040e+01	1.309200e+03
1.200000e-06	4.508926e-06	2.017678e-08	3.260908e+01	1.324603e+03
1.210000e-06	4.606618e-06	2.039826e-08	3.331559e+01	1.339220e+03
1.220000e-06	4.702564e-06	2.060969e-08	3.400949e+01	1.353083e+03
1.230000e-06	4.796774e-06	2.081056e-08	3.469082e+01	1.366228e+03
1.240000e-06	4.889343e-06	2.100082e-08	3.536029e+01	1.378697e+03
1.250000e-06	4.980228e-06	2.118039e-08	3.601759e+01	1.390538e+03
1.260000e-06	5.069334e-06	2.135106e-08	3.666201e+01	1.401800e+03
1.270000e-06	5.156545e-06	2.151266e-08	3.729273e+01	1.412528e+03
1.280000e-06	5.241910e-06	2.166718e-08	3.791010e+01	1.422761e+03
1.290000e-06	5.325474e-06	2.181575e-08	3.851444e+01	1.432524e+03
1.300000e-06	5.407001e-06	2.195841e-08	3.910406e+01	1.441831e+03
1.310000e-06	5.486455e-06	2.209459e-08	3.967868e+01	1.450685e+03
1.320000e-06	5.563960e-06	2.222465e-08	4.023921e+01	1.459085e+03
1.330000e-06	5.639343e-06	2.234903e-08	4.078438e+01	1.467030e+03
1.340000e-06	5.712491e-06	2.246619e-08	4.131339e+01	1.474521e+03
1.350000e-06	5.783538e-06	2.257420e-08	4.182722e+01	1.481569e+03
1.360000e-06	5.852581e-06	2.267438e-08	4.232654e+01	1.488193e+03
1.370000e-06	5.919527e-06	2.276896e-08	4.281070e+01	1.494417e+03
1.380000e-06	5.984259e-06	2.285701e-08	4.327885e+01	1.500273e+03
1.390000e-06	6.046898e-06	2.294039e-08	4.373187e+01	1.505795e+03
1.400000e-06	6.107573e-06	2.301946e-08	4.417067e+01	1.511012e+03
1.410000e-06	6.166175e-06	2.309435e-08	4.459449e+01	1.515952e+03
1.420000e-06	6.222529e-06	2.316565e-08	4.500205e+01	1.520635e+03
1.430000e-06	6.276609e-06	2.323313e-08	4.539316e+01	1.525075e+03
1.440000e-06	6.328169e-06	2.329796e-08	4.576605e+01	1.529282e+03
1.450000e-06	6.377085e-06	2.335924e-08	4.611982e+01	1.533260e+03
1.460000e-06	6.423626e-06	2.341675e-08	4.645640e+01	1.537008e+03
1.470000e-06	6.468056e-06	2.347065e-08	4.677773e+01	1.540526e+03
1.480000e-06	6.510228e-06	2.351829e-08	4.708272e+01	1.543811e+03
1.490000e-06	6.549956e-06	2.356230e-08	4.737004e+01	1.546862e+03
1.500000e-06	6.587432e-06	2.360561e-08	4.764107e+01	1.549676e+03
1.510000e-06	6.622668e-06	2.364690e-08	4.789590e+01	1.552254e+03
1.520000e-06	6.655466e-06	2.368456e-08	4.813310e+01	1.554594e+03
1.530000e-06	6.685853e-06	2.371592e-08	4.835286e+01	1.556700e+03
1.540000e-06	6.713978e-06	2.374389e-08	4.855627e+01	1.558574e+03
1.550000e-06	6.739655e-06	2.376925e-08	4.874196e+01	1.560222e+03
1.560000e-06	6.762750e-06	2.378950e-08	4.890899e+01	1.561646e+03
1.570000e-06	6.783515e-06	2.380566e-08	4.905917e+01	1.562855e+03
1.580000e-06	6.801942e-06	2.381847e-08	4.919243e+01	1.563855e+03
1.590000e-06	6.817864e-06	2.382881e-08	4.930758e+01	1.564655e+03
1.600000e-06	6.831281e-06	2.383702e-08	4.940462e+01	1.565265e+03
1.610000e-06	6.842002e-06	2.384410e-08	4.948215e+01	1.565697e+03
1.620000e-06	6.849983e-06	2.385073e-08	4.953987e+01	1.565965e+03
1.630000e-06	6.855542e-06	2.385710e-08	4.958007e+01	1.566084e+03
1.640000e-06	6.858773e-06	2.386141e-08	4.960344e+01	1.566066e+03
1.650000e-06	6.859528e-06	2.386226e-08	4.960890e+01	1.565917e+03
1.660000e-06	6.857865e-06	2.385510e-08	4.959687e+01	1.565641e+03
1.670000e-06	6.854030e-06	2.384206e-08	4.956914e+01	1.565231e+03
1.680000e-06	6.847899e-06	2.383192e-08	4.952479e+01	1.564674e+03
1.690000e-06	6.839411e-06	2.381944e-08	4.946342e+01	1.563952e+03
1.700000e-06	6.828749e-06	2.380632e-08	4.938630e+01	1.563045e+03
1.710000e-06	6.815719e-06	2.379594e-08	4.929207e+01	1.561942e+03
1.720000e-06	6.800266e-06	2.379085e-08	4.918031e+01	1.560640e+03
1.730000e-06	6.782716e-06	2.377977e-08	4.905339e+01	1.559150e+03
1.740000e-06	6.763070e-06	2.369518e-08	4.891130e+01	1.557502e+03
1.750000e-06	6.740594e-06	2.364357e-08	4.874875e+01	1.555733e+03
1.760000e-06	6.714871e-06	2.366389e-08	4.856272e+01	1.553890e+03
1.770000e-06	6.686344e-06	2.364057e-08	4.835641e+01	1.552014e+03
1.780000e-06	6.655520e-06	2.362692e-08	4.813349e+01	1.550132e+03
1.790000e-06	6.622913e-06	2.365854e-08	4.789767e+01	1.548247e+03
1.800000e-06	6.588960e-06	2.353902e-08	4.765212e+01	1.546336e+03
1.810000e-06	6.553058e-06	2.346793e-08	4.739247e+01	1.544349e+03
1.820000e-06	6.514567e-06	2.353573e-08	4.711410e+01	1.542220e+03
1.830000e-06	6.473885e-06	2.344718e-08	4.681988e+01	1.539873e+03
1.840000e-06	6.431066e-06	2.348697e-08	4.651021e+01	1.537240e+03
1.850000e-06	6.385957e-06	2.347174e-08	4.618398e+01	1.534273e+03
1.860000e-06	6.338555e-06	2.334262e-08	4.584117e+01	1.530954e+03
1.870000e-06	6.288693e-06	2.335475e-08	4.548056e+01	1.527297e+03
1.880000e-06	6.236464e-06	2.321612e-08	4.510283e+01	1.523342e+03
1.890000e-06	6.181673e-06	2.316368e-08	4.470658e+01	1.519145e+03
1.900000e-06	6.124277e-06	2.311831e-08	4.429148e+01	1.514766e+03
1.910000e-06	6.064647e-06	2.300525e-08	4.386023e+01	1.510248e+03
1.920000e-06	6.002693e-06	2.302070e-08	4.341217e+01	1.505614e+03
1.930000e-06	5.938486e-06	2.290447e-08	4.294782e+01	1.500855e+03
1.940000e-06	5.872225e-06	2.283765e-08	4.246861e+01	1.495934e+03
1.950000e-06	5.803829e-06	2.274043e-08	4.197396e+01	1.490798e+03
1.960000e-06	5.733058e-06	2.262721e-08	4.146214e+01	1.485389e+03
1.970000e-06	5.659945e-06	2.258410e-08	4.093338e+01	1.479658e+03
1.980000e-06	5.584798e-06	2.245187e-08	4.038990e+01	1.473574e+03
1.990000e-06	5.507362e-06	2.239877e-08	3.982988e+01	1.467133e+03
2.000000e-06	5.427713e-06	2.228424e-08	3.925385e+01	1.460355e+03
2.010000e-06	5.346208e-06	2.217481e-08	3.866440e+01	1.453273e+03
2.020000e-06	5.262892e-06	2.207361e-08	3.806184e+01	1.445921e+03
2.030000e-06	5.177669e-06	2.194184e-08	3.744550e+01	1.438325e+03
2.040000e-06	5.090390e-06	2.185337e-08	3.681429e+01	1.430490e+03
2.050000e-06	5.001324e-06	2.171246e-08	3.617015e+01	1.422395e+03
2.060000e-06	4.910677e-06	2.159029e-08	3.551458e+01	1.414002e+03
2.070000e-06	4.818451e-06	2.143626e-08	3.484759e+01	1.405256e+03
2.080000e-06	4.724473e-06	2.129698e-08	3.416793e+01	1.396105e+03
2.090000e-06	4.628665e-06	2.115441e-08	3.347504e+01	1.386506e+03
2.100000e-06	4.531310e-06	2.099965e-08	3.277096e+01	1.376435e+03
2.110000e-06	4.432558e-06	2.085135e-08	3.205677e+01	1.365889e+03
2.120000e-06	4.332331e-06	2.067971e-08	3.133192e+01	1.354880e+03
2.130000e-06	4.230442e-06	2.050954e-08	3.059505e+01	1.343426e+03
2.140000e-06	4.126849e-06	2.031911e-08	2.984585e+01	1.331541e+03
2.150000e-06	4.021675e-06	2.013750e-08	2.908522e+01	1.319222e+03
2.160000e-06	3.915163e-06	1.994283e-08	2.831491e+01	1.306444e+03
2.170000e-06	3.807377e-06	1.974582e-08	2.753539e+01	1.293160e+03
2.180000e-06	3.698226e-06	1.953601e-08	2.674600e+01	1.279309e+03
2.190000e-06	3.587618e-06	1.931495e-08	2.594607e+01	1.264822e+03
2.200000e-06	3.475565e-06	1.908317e-08	2.513569e+01	1.249637e+03
2.210000e-06	3.362216e-06	1.884117e-08	2.431594e+01	1.233704e+03
2.220000e-06	3.247465e-06	1.859166e-08	2.348604e+01	1.216991e+03
2.230000e-06	3.131360e-06	1.832559e-08	2.264636e+01	1.199478e+03
2.240000e-06	3.014004e-06	1.805070e-08	2.179763e+01	1.181152e+03
2.250000e-06	2.895349e-06	1.776026e-08	2.093950e+01	1.161989e+03
2.260000e-06	2.775546e-06	1.745692e-08	2.007307e+01	1.141949e+03
2.270000e-06	2.654775e-06	1.713332e-08	1.919964e+01	1.120965e+03
2.280000e-06	2.533092e-06	1.679705e-08	1.831962e+01	1.098943e+03
2.290000e-06	2.410499e-06	1.644415e-08	1.743300e+01	1.075769e+03
2.300000e-06	2.287051e-06	1.607280e-08	1.654022e+01	1.051314e+03
2.310000e-06	2.162855e-06	1.568012e-08	1.564201e+01	1.025451e+03
2.320000e-06	2.037965e-06	1.526438e-08	1.473880e+01	9.980592e+02
2.330000e-06	1.912397e-06	1.482051e-08	1.383067e+01	9.690274e+02
2.340000e-06	1.786070e-06	1.434812e-08	1.291706e+01	9.382525e+02
2.350000e-06	1.659030e-06	1.385081e-08	1.199830e+01	9.056294e+02
2.360000e-06	1.531417e-06	1.332347e-08	1.107539e+01	8.710417e+02
2.370000e-06	1.403261e-06	1.276552e-08	1.014855e+01	8.343558e+02
2.380000e-06	1.274614e-06	1.217215e-08	9.218158e+00	7.954249e+02
2.390000e-06	1.145594e-06	1.154100e-08	8.285071e+00	7.541035e+02
2.400000e-06	1.016288e-06	1.087206e-08	7.349909e+00	7.102753e+02
2.410000e-06	8.867048e-07	1.016601e-08	6.412752e+00	6.638871e+02
2.420000e-06	7.568478e-07	9.423227e-09	5.473611e+00	6.149842e+02
2.430000e-06	6.266882e-07	8.643973e-09	4.532282e+00	5.637361e+02
2.440000e-06	4.962981e-07	7.829897e-09	3.589285e+00	5.104447e+02
2.450000e-06	3.658350e-07	6.989572e-09	2.645761e+00	4.555288e+02
2.460000e-06	2.352972e-07	6.135529e-09	1.701697e+00	3.994827e+02
2.470000e-06	1.046265e-07	5.273041e-09	7.566708e-01	3.428154e+02
2.480000e-06	-2.621434e-08	4.405137e-09	-1.895851e-01	2.859777e+02
2.490000e-06	-1.571220e-07	3.536399e-09	-1.136324e+00	2.292936e+02
2.500000e-06	-2.879328e-07	2.672018e-09	-2.082363e+00	1.729073e+02
2.510000e-06	-4.186659e-07	1.814082e-09	-3.027840e+00	1.167607e+02
2.520000e-06	-5.493019e-07	9.570013e-10	-3.972615e+00	6.060707e+01
2.530000e-06	-6.797525e-07	9.401833e-11	-4.916049e+00	4.061264e+00
2.540000e-06	-8.100155e-07	-7.815481e-10	-5.858126e+00	-5.332115e+01
2.550000e-06	-9.399521e-07	-1.674656e-09	-6.797843e+00	-1.119489e+02
2.560000e-06	-1.069537e-06	-2.588982e-09	-7.735014e+00	-1.721016e+02
2.570000e-06	-1.198859e-06	-3.527621e-09	-8.670286e+00	-2.338550e+02
2.580000e-06	-1.327824e-06	-4.490940e-09	-9.602973e+00	-2.970390e+02
2.590000e-06	-1.456356e-06	-5.473123e-09	-1.053253e+01	-3.612348e+02
2.600000e-06	-1.584367e-06	-6.463428e-09	-1.145832e+01	-4.258136e+02
2.610000e-06	-1.711744e-06	-7.447826e-09	-1.237953e+01	-4.900059e+02
2.620000e-06	-1.838411e-06	-8.413052e-09	-1.329560e+01	-5.529919e+02
2.630000e-06	-1.964334e-06	-9.345951e-09	-1.420629e+01	-6.139936e+02
2.640000e-06	-2.089495e-06	-1.023527e-08	-1.511147e+01	-6.723552e+02
2.650000e-06	-2.213841e-06	-1.107827e-08	-1.601075e+01	-7.275989e+02
2.660000e-06	-2.337335e-06	-1.187086e-08	-1.690387e+01	-7.794497e+02
2.670000e-06	-2.459912e-06	-1.261072e-08	-1.779037e+01	-8.278284e+02
2.680000e-06	-2.581555e-06	-1.330425e-08	-1.867010e+01	-8.728201e+02
2.690000e-06	-2.702337e-06	-1.395231e-08	-1.954361e+01	-9.146257e+02
2.700000e-06	-2.822124e-06	-1.455455e-08	-2.040992e+01	-9.535097e+02
2.710000e-06	-2.940718e-06	-1.511396e-08	-2.126761e+01	-9.897521e+02
2.720000e-06	-3.058092e-06	-1.563490e-08	-2.211648e+01	-1.023614e+03
2.730000e-06	-3.174258e-06	-1.612093e-08	-2.295660e+01	-1.055318e+03
2.740000e-06	-3.289124e-06	-1.657326e-08	-2.378733e+01	-1.085046e+03
2.750000e-06	-3.402594e-06	-1.699654e-08	-2.460795e+01	-1.112943e+03
2.760000e-06	-3.514693e-06	-1.739421e-08	-2.541867e+01	-1.139133e+03
2.770000e-06	-3.625424e-06	-1.777072e-08	-2.621949e+01	-1.163732e+03
2.780000e-06	-3.734898e-06	-1.812787e-08	-2.701122e+01	-1.186855e+03
2.790000e-06	-3.843224e-06	-1.846378e-08	-2.779464e+01	-1.208620e+03
2.800000e-06	-3.950295e-06	-1.877774e-08	-2.856899e+01	-1.229146e+03
2.810000e-06	-4.056072e-06	-1.907381e-08	-2.933398e+01	-1.248548e+03
2.820000e-06	-4.160429e-06	-1.935585e-08	-3.008870e+01	-1.266924e+03
2.830000e-06	-4.263163e-06	-1.962320e-08	-3.083169e+01	-1.284357e+03
2.840000e-06	-4.364329e-06	-1.987628e-08	-3.156333e+01	-1.300911e+03
2.850000e-06	-4.463993e-06	-2.011495e-08	-3.228412e+01	-1.316631e+03
2.860000e-06	-4.562157e-06	-2.034145e-08	-3.299405e+01	-1.331554e+03
2.870000e-06	-4.658814e-06	-2.055770e-08	-3.369308e+01	-1.345709e+03
2.880000e-06	-4.753756e-06	-2.076324e-08	-3.437971e+01	-1.359132e+03
2.890000e-06	-4.846894e-06	-2.096106e-08	-3.505330e+01	-1.371861e+03
2.900000e-06	-4.938270e-06	-2.115095e-08	-3.571414e+01	-1.383943e+03
2.910000e-06	-5.027949e-06	-2.132885e-08	-3.636271e+01	-1.395427e+03
2.920000e-06	-5.115777e-06	-2.149487e-08	-3.699789e+01	-1.406360e+03
2.930000e-06	-5.201600e-06	-2.165247e-08	-3.761857e+01	-1.416785e+03
2.940000e-06	-5.285547e-06	-2.180190e-08	-3.822569e+01	-1.426730e+03
