# Temperatura_=_42.84
# Concentracion g/m^3_=_28200.0
# C_Vs_to_Am_M_A/Vsm_=_65563218390.804596
# pendiente_HvsI_1/m_=_3716.3
# ordenada_HvsI_A/m_=_1297.0
# frecuencia_Hz_=_302303.8320042633

Tiempo_(s)	Campo_(V.s)	Magnetizacion_(V.s)	Campo_(kA/m)	Magnetizacion_(A/m)
0.000000e+00	-6.856790e-06	-2.477269e-08	-4.951214e+01	-1.621855e+03
1.000000e-08	-6.853925e-06	-2.476769e-08	-4.949146e+01	-1.621495e+03
2.000000e-08	-6.848790e-06	-2.475755e-08	-4.945438e+01	-1.620991e+03
3.000000e-08	-6.841504e-06	-2.474716e-08	-4.940177e+01	-1.620338e+03
4.000000e-08	-6.831868e-06	-2.473487e-08	-4.933219e+01	-1.619526e+03
5.000000e-08	-6.819760e-06	-2.471965e-08	-4.924475e+01	-1.618543e+03
6.000000e-08	-6.805163e-06	-2.470101e-08	-4.913935e+01	-1.617377e+03
7.000000e-08	-6.788161e-06	-2.467669e-08	-4.901658e+01	-1.616023e+03
8.000000e-08	-6.769053e-06	-2.465151e-08	-4.887860e+01	-1.614488e+03
9.000000e-08	-6.747748e-06	-2.467497e-08	-4.872476e+01	-1.612790e+03
1.000000e-07	-6.723818e-06	-2.466022e-08	-4.855197e+01	-1.610959e+03
1.100000e-07	-6.697097e-06	-2.459054e-08	-4.835902e+01	-1.609033e+03
1.200000e-07	-6.667863e-06	-2.454239e-08	-4.814792e+01	-1.607049e+03
1.300000e-07	-6.636520e-06	-2.450372e-08	-4.792160e+01	-1.605034e+03
1.400000e-07	-6.603058e-06	-2.442319e-08	-4.767997e+01	-1.602996e+03
1.500000e-07	-6.567679e-06	-2.440302e-08	-4.742450e+01	-1.600918e+03
1.600000e-07	-6.530493e-06	-2.445699e-08	-4.715599e+01	-1.598760e+03
1.700000e-07	-6.491233e-06	-2.434413e-08	-4.687250e+01	-1.596458e+03
1.800000e-07	-6.449764e-06	-2.431829e-08	-4.657305e+01	-1.593943e+03
1.900000e-07	-6.405800e-06	-2.430018e-08	-4.625559e+01	-1.591147e+03
2.000000e-07	-6.359441e-06	-2.417370e-08	-4.592084e+01	-1.588019e+03
2.100000e-07	-6.310667e-06	-2.414975e-08	-4.556865e+01	-1.584536e+03
2.200000e-07	-6.259174e-06	-2.407247e-08	-4.519682e+01	-1.580703e+03
2.300000e-07	-6.205163e-06	-2.400927e-08	-4.480681e+01	-1.576555e+03
2.400000e-07	-6.148762e-06	-2.397917e-08	-4.439955e+01	-1.572142e+03
2.500000e-07	-6.089970e-06	-2.389544e-08	-4.397502e+01	-1.567520e+03
2.600000e-07	-6.028929e-06	-2.384244e-08	-4.353425e+01	-1.562732e+03
2.700000e-07	-5.965740e-06	-2.376822e-08	-4.307797e+01	-1.557800e+03
2.800000e-07	-5.900391e-06	-2.366768e-08	-4.260609e+01	-1.552719e+03
2.900000e-07	-5.832778e-06	-2.357341e-08	-4.211787e+01	-1.547460e+03
3.000000e-07	-5.762957e-06	-2.349518e-08	-4.161369e+01	-1.541974e+03
3.100000e-07	-5.691084e-06	-2.342558e-08	-4.109471e+01	-1.536210e+03
3.200000e-07	-5.617005e-06	-2.332411e-08	-4.055979e+01	-1.530126e+03
3.300000e-07	-5.540536e-06	-2.324178e-08	-4.000761e+01	-1.523695e+03
3.400000e-07	-5.461768e-06	-2.312107e-08	-3.943884e+01	-1.516917e+03
3.500000e-07	-5.380859e-06	-2.300732e-08	-3.885460e+01	-1.509809e+03
3.600000e-07	-5.298062e-06	-2.291170e-08	-3.825673e+01	-1.502400e+03
3.700000e-07	-5.213533e-06	-2.278692e-08	-3.764636e+01	-1.494720e+03
3.800000e-07	-5.127307e-06	-2.266918e-08	-3.702373e+01	-1.486782e+03
3.900000e-07	-5.039342e-06	-2.253702e-08	-3.638855e+01	-1.478584e+03
4.000000e-07	-4.949510e-06	-2.239870e-08	-3.573988e+01	-1.470096e+03
4.100000e-07	-4.857877e-06	-2.225336e-08	-3.507821e+01	-1.461273e+03
4.200000e-07	-4.764651e-06	-2.212198e-08	-3.440503e+01	-1.452062e+03
4.300000e-07	-4.669864e-06	-2.198312e-08	-3.372059e+01	-1.442413e+03
4.400000e-07	-4.573452e-06	-2.182579e-08	-3.302441e+01	-1.432288e+03
4.500000e-07	-4.475353e-06	-2.166679e-08	-3.231604e+01	-1.421673e+03
4.600000e-07	-4.375544e-06	-2.149891e-08	-3.159533e+01	-1.410570e+03
4.700000e-07	-4.274171e-06	-2.132490e-08	-3.086333e+01	-1.398996e+03
4.800000e-07	-4.171356e-06	-2.113815e-08	-3.012091e+01	-1.386969e+03
4.900000e-07	-4.067050e-06	-2.094737e-08	-2.936773e+01	-1.374495e+03
5.000000e-07	-3.961235e-06	-2.074526e-08	-2.860365e+01	-1.361563e+03
5.100000e-07	-3.853886e-06	-2.053610e-08	-2.782849e+01	-1.348139e+03
5.200000e-07	-3.745115e-06	-2.032099e-08	-2.704308e+01	-1.334166e+03
5.300000e-07	-3.635129e-06	-2.009742e-08	-2.624888e+01	-1.319578e+03
5.400000e-07	-3.523892e-06	-1.986122e-08	-2.544564e+01	-1.304307e+03
5.500000e-07	-3.411236e-06	-1.961216e-08	-2.463217e+01	-1.288295e+03
5.600000e-07	-3.297064e-06	-1.935710e-08	-2.380774e+01	-1.271503e+03
5.700000e-07	-3.181385e-06	-1.908877e-08	-2.297244e+01	-1.253904e+03
5.800000e-07	-3.064407e-06	-1.880703e-08	-2.212775e+01	-1.235484e+03
5.900000e-07	-2.946348e-06	-1.850967e-08	-2.127526e+01	-1.216225e+03
6.000000e-07	-2.827248e-06	-1.820027e-08	-2.041526e+01	-1.196095e+03
6.100000e-07	-2.707063e-06	-1.787587e-08	-1.954741e+01	-1.175036e+03
6.200000e-07	-2.585821e-06	-1.753729e-08	-1.867194e+01	-1.152960e+03
6.300000e-07	-2.463648e-06	-1.718338e-08	-1.778974e+01	-1.129756e+03
6.400000e-07	-2.340527e-06	-1.681007e-08	-1.690070e+01	-1.105291e+03
6.500000e-07	-2.216464e-06	-1.641544e-08	-1.600485e+01	-1.079432e+03
6.600000e-07	-2.091681e-06	-1.599595e-08	-1.510380e+01	-1.052049e+03
6.700000e-07	-1.966304e-06	-1.555237e-08	-1.419847e+01	-1.023025e+03
6.800000e-07	-1.840298e-06	-1.508336e-08	-1.328860e+01	-9.922534e+02
6.900000e-07	-1.713639e-06	-1.458872e-08	-1.237400e+01	-9.596302e+02
7.000000e-07	-1.586399e-06	-1.406279e-08	-1.145521e+01	-9.250399e+02
7.100000e-07	-1.458579e-06	-1.350396e-08	-1.053224e+01	-8.883451e+02
7.200000e-07	-1.330195e-06	-1.290839e-08	-9.605193e+00	-8.493829e+02
7.300000e-07	-1.201415e-06	-1.227345e-08	-8.675290e+00	-8.079749e+02
7.400000e-07	-1.072299e-06	-1.159889e-08	-7.742956e+00	-7.639503e+02
7.500000e-07	-9.428481e-07	-1.088374e-08	-6.808205e+00	-7.171825e+02
7.600000e-07	-8.130485e-07	-1.012842e-08	-5.870936e+00	-6.676302e+02
7.700000e-07	-6.829849e-07	-9.331746e-09	-4.931761e+00	-6.153737e+02
7.800000e-07	-5.527222e-07	-8.495995e-09	-3.991148e+00	-5.606369e+02
7.900000e-07	-4.222308e-07	-7.628622e-09	-3.048883e+00	-5.037840e+02
8.000000e-07	-2.915928e-07	-6.738771e-09	-2.105561e+00	-4.452886e+02
8.100000e-07	-1.608575e-07	-5.831041e-09	-1.161535e+00	-3.856767e+02
8.200000e-07	-2.996517e-08	-4.913852e-09	-2.163753e-01	-3.254515e+02
8.300000e-07	1.009951e-07	-3.992493e-09	7.292746e-01	-2.650151e+02
8.400000e-07	2.319340e-07	-3.071729e-09	1.674770e+00	-2.046028e+02
8.500000e-07	3.627943e-07	-2.151932e-09	2.619698e+00	-1.442449e+02
8.600000e-07	4.935143e-07	-1.231525e-09	3.563613e+00	-8.376772e+01
8.700000e-07	6.240902e-07	-3.055809e-10	4.506488e+00	-2.283503e+01
8.800000e-07	7.544233e-07	6.370856e-10	5.447609e+00	3.897389e+01
8.900000e-07	8.844505e-07	1.600921e-09	6.386522e+00	1.020642e+02
9.000000e-07	1.014201e-06	2.587002e-09	7.323434e+00	1.667216e+02
9.100000e-07	1.143650e-06	3.596627e-09	8.258173e+00	2.330247e+02
9.200000e-07	1.272749e-06	4.629703e-09	9.190386e+00	3.007909e+02
9.300000e-07	1.401447e-06	5.679041e-09	1.011970e+01	3.695665e+02
9.400000e-07	1.529634e-06	6.732843e-09	1.104532e+01	4.386629e+02
9.500000e-07	1.657194e-06	7.776947e-09	1.196642e+01	5.072321e+02
9.600000e-07	1.784064e-06	8.797637e-09	1.288253e+01	5.743669e+02
9.700000e-07	1.910289e-06	9.781980e-09	1.379399e+01	6.392069e+02
9.800000e-07	2.035889e-06	1.071919e-08	1.470094e+01	7.010322e+02
9.900000e-07	2.160812e-06	1.160496e-08	1.560299e+01	7.593289e+02
1.000000e-06	2.285038e-06	1.243310e-08	1.650001e+01	8.138183e+02
1.010000e-06	2.408412e-06	1.320038e-08	1.739088e+01	8.644481e+02
1.020000e-06	2.530745e-06	1.390983e-08	1.827424e+01	9.113535e+02
1.030000e-06	2.652143e-06	1.456844e-08	1.915084e+01	9.547979e+02
1.040000e-06	2.772553e-06	1.517931e-08	2.002030e+01	9.951086e+02
1.050000e-06	2.891784e-06	1.574823e-08	2.088126e+01	1.032619e+03
1.060000e-06	3.009969e-06	1.627948e-08	2.173466e+01	1.067629e+03
1.070000e-06	3.127104e-06	1.677630e-08	2.258048e+01	1.100384e+03
1.080000e-06	3.243061e-06	1.724010e-08	2.341779e+01	1.131071e+03
1.090000e-06	3.357704e-06	1.767366e-08	2.424562e+01	1.159839e+03
1.100000e-06	3.471005e-06	1.808216e-08	2.506375e+01	1.186809e+03
1.110000e-06	3.583019e-06	1.846654e-08	2.587260e+01	1.212101e+03
1.120000e-06	3.693666e-06	1.882783e-08	2.667157e+01	1.235839e+03
1.130000e-06	3.803060e-06	1.916811e-08	2.746149e+01	1.258158e+03
1.140000e-06	3.911302e-06	1.948880e-08	2.824309e+01	1.279196e+03
1.150000e-06	4.018169e-06	1.979224e-08	2.901477e+01	1.299086e+03
1.160000e-06	4.123542e-06	2.007989e-08	2.977565e+01	1.317941e+03
1.170000e-06	4.227418e-06	2.035272e-08	3.052573e+01	1.335850e+03
1.180000e-06	4.329715e-06	2.061219e-08	3.126441e+01	1.352871e+03
1.190000e-06	4.430551e-06	2.085672e-08	3.199253e+01	1.369042e+03
1.200000e-06	4.529817e-06	2.108886e-08	3.270932e+01	1.384384e+03
1.210000e-06	4.627350e-06	2.130897e-08	3.341360e+01	1.398917e+03
1.220000e-06	4.723135e-06	2.151713e-08	3.410525e+01	1.412668e+03
1.230000e-06	4.817218e-06	2.171375e-08	3.478461e+01	1.425678e+03
1.240000e-06	4.909697e-06	2.190067e-08	3.545239e+01	1.438001e+03
1.250000e-06	5.000451e-06	2.207749e-08	3.610772e+01	1.449697e+03
1.260000e-06	5.089366e-06	2.224615e-08	3.674976e+01	1.460831e+03
1.270000e-06	5.176397e-06	2.240813e-08	3.737820e+01	1.471455e+03
1.280000e-06	5.261655e-06	2.256340e-08	3.799384e+01	1.481608e+03
1.290000e-06	5.345104e-06	2.271158e-08	3.859642e+01	1.491314e+03
1.300000e-06	5.426513e-06	2.285389e-08	3.918427e+01	1.500575e+03
1.310000e-06	5.505859e-06	2.298979e-08	3.975722e+01	1.509387e+03
1.320000e-06	5.583192e-06	2.311794e-08	4.031563e+01	1.517740e+03
1.330000e-06	5.658393e-06	2.323908e-08	4.085865e+01	1.525629e+03
1.340000e-06	5.731364e-06	2.335320e-08	4.138557e+01	1.533059e+03
1.350000e-06	5.802191e-06	2.345943e-08	4.189700e+01	1.540045e+03
1.360000e-06	5.871039e-06	2.355894e-08	4.239414e+01	1.546612e+03
1.370000e-06	5.937860e-06	2.365483e-08	4.287665e+01	1.552794e+03
1.380000e-06	6.002469e-06	2.374557e-08	4.334318e+01	1.558625e+03
1.390000e-06	6.064926e-06	2.383110e-08	4.379418e+01	1.564139e+03
1.400000e-06	6.125366e-06	2.390982e-08	4.423061e+01	1.569362e+03
1.410000e-06	6.183749e-06	2.398279e-08	4.465219e+01	1.574314e+03
1.420000e-06	6.239908e-06	2.405250e-08	4.505770e+01	1.579009e+03
1.430000e-06	6.293752e-06	2.411923e-08	4.544651e+01	1.583458e+03
1.440000e-06	6.345098e-06	2.418309e-08	4.581727e+01	1.587666e+03
1.450000e-06	6.393811e-06	2.424386e-08	4.616902e+01	1.591639e+03
1.460000e-06	6.440133e-06	2.430303e-08	4.650351e+01	1.595381e+03
1.470000e-06	6.484309e-06	2.435946e-08	4.682249e+01	1.598896e+03
1.480000e-06	6.526158e-06	2.441019e-08	4.712468e+01	1.602183e+03
1.490000e-06	6.565557e-06	2.445650e-08	4.740918e+01	1.605241e+03
1.500000e-06	6.602764e-06	2.449979e-08	4.767785e+01	1.608065e+03
1.510000e-06	6.637754e-06	2.453831e-08	4.793051e+01	1.610649e+03
1.520000e-06	6.670273e-06	2.457165e-08	4.816532e+01	1.612987e+03
1.530000e-06	6.700420e-06	2.460121e-08	4.838301e+01	1.615076e+03
1.540000e-06	6.728343e-06	2.462898e-08	4.858464e+01	1.616920e+03
1.550000e-06	6.753783e-06	2.465359e-08	4.876834e+01	1.618524e+03
1.560000e-06	6.776662e-06	2.467467e-08	4.893355e+01	1.619901e+03
1.570000e-06	6.797208e-06	2.469210e-08	4.908191e+01	1.621064e+03
1.580000e-06	6.815355e-06	2.470541e-08	4.921295e+01	1.622028e+03
1.590000e-06	6.830938e-06	2.471568e-08	4.932547e+01	1.622808e+03
1.600000e-06	6.843936e-06	2.472272e-08	4.941933e+01	1.623414e+03
1.610000e-06	6.854233e-06	2.472981e-08	4.949368e+01	1.623856e+03
1.620000e-06	6.861864e-06	2.473649e-08	4.954878e+01	1.624139e+03
1.630000e-06	6.867060e-06	2.474110e-08	4.958630e+01	1.624268e+03
1.640000e-06	6.869840e-06	2.474363e-08	4.960638e+01	1.624249e+03
1.650000e-06	6.870190e-06	2.474400e-08	4.960890e+01	1.624085e+03
1.660000e-06	6.868210e-06	2.473562e-08	4.959460e+01	1.623780e+03
1.670000e-06	6.864015e-06	2.472497e-08	4.956432e+01	1.623332e+03
1.680000e-06	6.857534e-06	2.471437e-08	4.951752e+01	1.622739e+03
1.690000e-06	6.848752e-06	2.470081e-08	4.945410e+01	1.621990e+03
1.700000e-06	6.837732e-06	2.468897e-08	4.937453e+01	1.621076e+03
1.710000e-06	6.824318e-06	2.467907e-08	4.927766e+01	1.619982e+03
1.720000e-06	6.808573e-06	2.467491e-08	4.916397e+01	1.618702e+03
1.730000e-06	6.790767e-06	2.465130e-08	4.903540e+01	1.617236e+03
1.740000e-06	6.770745e-06	2.456522e-08	4.889082e+01	1.615599e+03
1.750000e-06	6.747778e-06	2.454058e-08	4.872498e+01	1.613816e+03
1.760000e-06	6.721601e-06	2.454654e-08	4.853595e+01	1.611922e+03
1.770000e-06	6.692665e-06	2.450974e-08	4.832701e+01	1.609957e+03
1.780000e-06	6.661492e-06	2.451809e-08	4.810192e+01	1.607951e+03
1.790000e-06	6.628623e-06	2.452231e-08	4.786457e+01	1.605922e+03
1.800000e-06	6.594402e-06	2.439222e-08	4.761747e+01	1.603863e+03
1.810000e-06	6.558132e-06	2.439402e-08	4.735557e+01	1.601743e+03
1.820000e-06	6.519240e-06	2.439806e-08	4.707473e+01	1.599505e+03
1.830000e-06	6.478199e-06	2.431106e-08	4.677838e+01	1.597082e+03
1.840000e-06	6.435029e-06	2.438902e-08	4.646665e+01	1.594403e+03
1.850000e-06	6.389537e-06	2.428999e-08	4.613816e+01	1.591410e+03
1.860000e-06	6.341658e-06	2.422790e-08	4.579243e+01	1.588067e+03
1.870000e-06	6.291379e-06	2.422792e-08	4.542937e+01	1.584369e+03
1.880000e-06	6.238724e-06	2.407552e-08	4.504915e+01	1.580339e+03
1.890000e-06	6.183445e-06	2.406574e-08	4.464999e+01	1.576023e+03
1.900000e-06	6.125693e-06	2.397061e-08	4.423297e+01	1.571477e+03
1.910000e-06	6.065723e-06	2.387662e-08	4.379993e+01	1.566749e+03
1.920000e-06	6.003374e-06	2.386934e-08	4.334972e+01	1.561873e+03
1.930000e-06	5.938796e-06	2.376503e-08	4.288340e+01	1.556853e+03
1.940000e-06	5.872153e-06	2.372167e-08	4.240219e+01	1.551668e+03
1.950000e-06	5.803315e-06	2.359010e-08	4.190511e+01	1.546277e+03
1.960000e-06	5.732094e-06	2.350341e-08	4.139084e+01	1.540628e+03
1.970000e-06	5.658598e-06	2.340961e-08	4.086013e+01	1.534673e+03
1.980000e-06	5.582979e-06	2.328864e-08	4.031409e+01	1.528380e+03
1.990000e-06	5.505053e-06	2.324232e-08	3.975139e+01	1.521737e+03
2.000000e-06	5.424983e-06	2.311231e-08	3.917322e+01	1.514755e+03
2.010000e-06	5.343080e-06	2.302269e-08	3.858180e+01	1.507460e+03
2.020000e-06	5.259389e-06	2.289262e-08	3.797748e+01	1.499884e+03
2.030000e-06	5.173766e-06	2.276481e-08	3.735921e+01	1.492046e+03
2.040000e-06	5.086113e-06	2.265910e-08	3.672627e+01	1.483952e+03
2.050000e-06	4.996717e-06	2.252803e-08	3.608076e+01	1.475582e+03
2.060000e-06	4.905720e-06	2.240851e-08	3.542367e+01	1.466897e+03
2.070000e-06	4.813068e-06	2.224861e-08	3.475465e+01	1.457844e+03
2.080000e-06	4.718677e-06	2.210821e-08	3.407306e+01	1.448372e+03
2.090000e-06	4.622503e-06	2.194828e-08	3.337860e+01	1.438437e+03
2.100000e-06	4.524783e-06	2.179488e-08	3.267297e+01	1.428015e+03
2.110000e-06	4.425651e-06	2.163544e-08	3.195715e+01	1.417102e+03
2.120000e-06	4.324985e-06	2.146232e-08	3.123025e+01	1.405711e+03
2.130000e-06	4.222590e-06	2.128017e-08	3.049087e+01	1.393859e+03
2.140000e-06	4.118544e-06	2.108323e-08	2.973957e+01	1.381561e+03
2.150000e-06	4.013067e-06	2.089464e-08	2.897793e+01	1.368812e+03
2.160000e-06	3.906283e-06	2.069295e-08	2.820685e+01	1.355586e+03
2.170000e-06	3.798145e-06	2.048991e-08	2.742600e+01	1.341836e+03
2.180000e-06	3.688665e-06	2.027205e-08	2.663545e+01	1.327497e+03
2.190000e-06	3.577772e-06	2.004862e-08	2.583471e+01	1.312502e+03
2.200000e-06	3.465426e-06	1.980710e-08	2.502347e+01	1.296787e+03
2.210000e-06	3.351761e-06	1.955816e-08	2.420271e+01	1.280305e+03
2.220000e-06	3.236651e-06	1.929904e-08	2.337151e+01	1.263025e+03
2.230000e-06	3.120179e-06	1.902563e-08	2.253047e+01	1.244929e+03
2.240000e-06	3.002475e-06	1.873756e-08	2.168055e+01	1.226002e+03
2.250000e-06	2.883512e-06	1.843739e-08	2.082153e+01	1.206219e+03
2.260000e-06	2.763356e-06	1.812559e-08	1.995390e+01	1.185533e+03
2.270000e-06	2.642184e-06	1.779216e-08	1.907893e+01	1.163868e+03
2.280000e-06	2.520164e-06	1.744388e-08	1.819783e+01	1.141122e+03
2.290000e-06	2.397285e-06	1.707735e-08	1.731054e+01	1.117168e+03
2.300000e-06	2.273554e-06	1.669380e-08	1.641709e+01	1.091873e+03
2.310000e-06	2.149024e-06	1.628700e-08	1.551787e+01	1.065103e+03
2.320000e-06	2.023774e-06	1.585723e-08	1.461346e+01	1.036736e+03
2.330000e-06	1.897830e-06	1.539902e-08	1.370403e+01	1.006663e+03
2.340000e-06	1.771180e-06	1.491077e-08	1.278950e+01	9.747799e+02
2.350000e-06	1.643861e-06	1.439195e-08	1.187014e+01	9.409771e+02
2.360000e-06	1.515913e-06	1.384319e-08	1.094625e+01	9.051268e+02
2.370000e-06	1.387443e-06	1.326521e-08	1.001858e+01	8.670759e+02
2.380000e-06	1.258550e-06	1.265164e-08	9.087856e+00	8.266499e+02
2.390000e-06	1.129294e-06	1.199637e-08	8.154508e+00	7.836714e+02
2.400000e-06	9.997162e-07	1.129699e-08	7.218843e+00	7.379916e+02
2.410000e-06	8.698712e-07	1.055611e-08	6.281247e+00	6.895307e+02
2.420000e-06	7.397958e-07	9.775216e-09	5.341986e+00	6.383177e+02
2.430000e-06	6.094772e-07	8.956226e-09	4.400969e+00	5.845190e+02
2.440000e-06	4.789729e-07	8.103924e-09	3.458612e+00	5.284456e+02
2.450000e-06	3.483312e-07	7.223231e-09	2.515262e+00	4.705339e+02
2.460000e-06	2.175150e-07	6.319832e-09	1.570653e+00	4.112972e+02
2.470000e-06	8.652407e-08	5.402119e-09	6.247810e-01	3.512574e+02
2.480000e-06	-4.453086e-08	4.476332e-09	-3.215526e-01	2.908652e+02
2.490000e-06	-1.755484e-07	3.548961e-09	-1.267616e+00	2.304277e+02
2.500000e-06	-3.065065e-07	2.624400e-09	-2.213250e+00	1.700581e+02
2.510000e-06	-4.373104e-07	1.701657e-09	-3.157771e+00	1.096600e+02
2.520000e-06	-5.679316e-07	7.766566e-10	-4.100973e+00	4.895346e+01
2.530000e-06	-6.984436e-07	-1.589092e-10	-5.043386e+00	-1.245998e+01
2.540000e-06	-8.287839e-07	-1.112010e-09	-5.984560e+00	-7.500430e+01
2.550000e-06	-9.588973e-07	-2.086957e-09	-6.924095e+00	-1.390239e+02
2.560000e-06	-1.088731e-06	-3.085812e-09	-7.861606e+00	-2.046873e+02
2.570000e-06	-1.218194e-06	-4.109422e-09	-8.796451e+00	-2.719185e+02
2.580000e-06	-1.347281e-06	-5.154200e-09	-9.728568e+00	-3.403682e+02
2.590000e-06	-1.475963e-06	-6.211293e-09	-1.065777e+01	-4.094333e+02
2.600000e-06	-1.604104e-06	-7.268432e-09	-1.158306e+01	-4.783172e+02
2.610000e-06	-1.731532e-06	-8.308815e-09	-1.250321e+01	-5.461233e+02
2.620000e-06	-1.858224e-06	-9.318311e-09	-1.341804e+01	-6.119606e+02
2.630000e-06	-1.984217e-06	-1.028384e-08	-1.432782e+01	-6.750443e+02
2.640000e-06	-2.109510e-06	-1.119472e-08	-1.523254e+01	-7.347740e+02
2.650000e-06	-2.234034e-06	-1.204757e-08	-1.613172e+01	-7.907776e+02
2.660000e-06	-2.357615e-06	-1.284286e-08	-1.702408e+01	-8.429171e+02
2.670000e-06	-2.480201e-06	-1.358331e-08	-1.790927e+01	-8.912602e+02
2.680000e-06	-2.601879e-06	-1.427379e-08	-1.878789e+01	-9.360277e+02
2.690000e-06	-2.722717e-06	-1.491592e-08	-1.966045e+01	-9.775292e+02
2.700000e-06	-2.842591e-06	-1.551249e-08	-2.052605e+01	-1.016102e+03
2.710000e-06	-2.961258e-06	-1.606648e-08	-2.138292e+01	-1.052062e+03
2.720000e-06	-3.078762e-06	-1.658264e-08	-2.223141e+01	-1.085678e+03
2.730000e-06	-3.195131e-06	-1.706377e-08	-2.307170e+01	-1.117158e+03
2.740000e-06	-3.310145e-06	-1.751237e-08	-2.390220e+01	-1.146665e+03
2.750000e-06	-3.423694e-06	-1.793283e-08	-2.472213e+01	-1.174327e+03
2.760000e-06	-3.535859e-06	-1.832782e-08	-2.553206e+01	-1.200265e+03
2.770000e-06	-3.646686e-06	-1.870164e-08	-2.633233e+01	-1.224598e+03
2.780000e-06	-3.756186e-06	-1.905506e-08	-2.712301e+01	-1.247458e+03
2.790000e-06	-3.864449e-06	-1.938672e-08	-2.790477e+01	-1.268983e+03
2.800000e-06	-3.971464e-06	-1.969736e-08	-2.867752e+01	-1.289310e+03
2.810000e-06	-4.077203e-06	-1.999106e-08	-2.944104e+01	-1.308560e+03
2.820000e-06	-4.181585e-06	-2.027081e-08	-3.019477e+01	-1.326832e+03
2.830000e-06	-4.284354e-06	-2.053665e-08	-3.093686e+01	-1.344197e+03
2.840000e-06	-4.385454e-06	-2.078804e-08	-3.166689e+01	-1.360698e+03
2.850000e-06	-4.484955e-06	-2.102553e-08	-3.238538e+01	-1.376364e+03
2.860000e-06	-4.582942e-06	-2.125037e-08	-3.309293e+01	-1.391212e+03
2.870000e-06	-4.679406e-06	-2.146358e-08	-3.378948e+01	-1.405267e+03
2.880000e-06	-4.774185e-06	-2.166854e-08	-3.447388e+01	-1.418563e+03
2.890000e-06	-4.867193e-06	-2.186545e-08	-3.514548e+01	-1.431149e+03
2.900000e-06	-4.958447e-06	-2.205106e-08	-3.580441e+01	-1.443084e+03
2.910000e-06	-5.048014e-06	-2.222647e-08	-3.645116e+01	-1.454432e+03
2.920000e-06	-5.135757e-06	-2.239298e-08	-3.708475e+01	-1.465251e+03
2.930000e-06	-5.221538e-06	-2.255051e-08	-3.770416e+01	-1.475586e+03
2.940000e-06	-5.305375e-06	-2.269827e-08	-3.830954e+01	-1.485466e+03
