# Temperatura_=_68.0
# Concentracion g/m^3_=_28200.0
# C_Vs_to_Am_M_A/Vsm_=_65563218390.804596
# pendiente_HvsI_1/m_=_3716.3
# ordenada_HvsI_A/m_=_1297.0
# frecuencia_Hz_=_302300.5970669964

Tiempo_(s)	Campo_(V.s)	Magnetizacion_(V.s)	Campo_(kA/m)	Magnetizacion_(A/m)
0.000000e+00	-6.884393e-06	-2.680278e-08	-4.951305e+01	-1.754999e+03
1.000000e-08	-6.881565e-06	-2.679769e-08	-4.949272e+01	-1.754543e+03
2.000000e-08	-6.876424e-06	-2.678735e-08	-4.945574e+01	-1.753920e+03
3.000000e-08	-6.869154e-06	-2.677504e-08	-4.940346e+01	-1.753137e+03
4.000000e-08	-6.859579e-06	-2.676196e-08	-4.933459e+01	-1.752198e+03
5.000000e-08	-6.847490e-06	-2.674544e-08	-4.924764e+01	-1.751095e+03
6.000000e-08	-6.832860e-06	-2.672640e-08	-4.914242e+01	-1.749818e+03
7.000000e-08	-6.815846e-06	-2.670185e-08	-4.902006e+01	-1.748351e+03
8.000000e-08	-6.796806e-06	-2.667456e-08	-4.888312e+01	-1.746688e+03
9.000000e-08	-6.775603e-06	-2.668994e-08	-4.873063e+01	-1.744831e+03
1.000000e-07	-6.751733e-06	-2.667899e-08	-4.855895e+01	-1.742800e+03
1.100000e-07	-6.725058e-06	-2.660620e-08	-4.836710e+01	-1.740627e+03
1.200000e-07	-6.695880e-06	-2.655077e-08	-4.815725e+01	-1.738354e+03
1.300000e-07	-6.664503e-06	-2.651249e-08	-4.793159e+01	-1.736018e+03
1.400000e-07	-6.630966e-06	-2.643279e-08	-4.769038e+01	-1.733642e+03
1.500000e-07	-6.595562e-06	-2.638356e-08	-4.743576e+01	-1.731226e+03
1.600000e-07	-6.558332e-06	-2.643152e-08	-4.716800e+01	-1.728737e+03
1.700000e-07	-6.519014e-06	-2.633580e-08	-4.688522e+01	-1.726117e+03
1.800000e-07	-6.477464e-06	-2.627560e-08	-4.658639e+01	-1.723288e+03
1.900000e-07	-6.433345e-06	-2.626967e-08	-4.626908e+01	-1.720171e+03
2.000000e-07	-6.386752e-06	-2.614080e-08	-4.593398e+01	-1.716699e+03
2.100000e-07	-6.337809e-06	-2.610492e-08	-4.558198e+01	-1.712832e+03
2.200000e-07	-6.286216e-06	-2.604190e-08	-4.521092e+01	-1.708566e+03
2.300000e-07	-6.232070e-06	-2.594939e-08	-4.482150e+01	-1.703931e+03
2.400000e-07	-6.175594e-06	-2.590716e-08	-4.441532e+01	-1.698984e+03
2.500000e-07	-6.116732e-06	-2.581614e-08	-4.399198e+01	-1.693789e+03
2.600000e-07	-6.055555e-06	-2.573972e-08	-4.355199e+01	-1.688402e+03
2.700000e-07	-5.992192e-06	-2.566648e-08	-4.309628e+01	-1.682856e+03
2.800000e-07	-5.926603e-06	-2.557001e-08	-4.262456e+01	-1.677152e+03
2.900000e-07	-5.858795e-06	-2.546635e-08	-4.213688e+01	-1.671258e+03
3.000000e-07	-5.788801e-06	-2.537319e-08	-4.163348e+01	-1.665122e+03
3.100000e-07	-5.716645e-06	-2.529285e-08	-4.111452e+01	-1.658683e+03
3.200000e-07	-5.642224e-06	-2.517690e-08	-4.057928e+01	-1.651888e+03
3.300000e-07	-5.565430e-06	-2.508086e-08	-4.002698e+01	-1.644707e+03
3.400000e-07	-5.486324e-06	-2.495706e-08	-3.945804e+01	-1.637137e+03
3.500000e-07	-5.405099e-06	-2.482425e-08	-3.887386e+01	-1.629203e+03
3.600000e-07	-5.322042e-06	-2.471534e-08	-3.827652e+01	-1.620941e+03
3.700000e-07	-5.237266e-06	-2.458117e-08	-3.766680e+01	-1.612390e+03
3.800000e-07	-5.150793e-06	-2.444959e-08	-3.704488e+01	-1.603574e+03
3.900000e-07	-5.062567e-06	-2.431087e-08	-3.641035e+01	-1.594490e+03
4.000000e-07	-4.972530e-06	-2.416169e-08	-3.576280e+01	-1.585106e+03
4.100000e-07	-4.880737e-06	-2.400095e-08	-3.510262e+01	-1.575370e+03
4.200000e-07	-4.787300e-06	-2.385007e-08	-3.443061e+01	-1.565216e+03
4.300000e-07	-4.692218e-06	-2.369516e-08	-3.374677e+01	-1.554585e+03
4.400000e-07	-4.595427e-06	-2.352098e-08	-3.305064e+01	-1.543438e+03
4.500000e-07	-4.496926e-06	-2.334201e-08	-3.234222e+01	-1.531758e+03
4.600000e-07	-4.396763e-06	-2.315688e-08	-3.162184e+01	-1.519555e+03
4.700000e-07	-4.295024e-06	-2.296509e-08	-3.089012e+01	-1.506857e+03
4.800000e-07	-4.191858e-06	-2.276360e-08	-3.014815e+01	-1.493689e+03
4.900000e-07	-4.087194e-06	-2.255826e-08	-2.939540e+01	-1.480066e+03
5.000000e-07	-3.980919e-06	-2.234396e-08	-2.863106e+01	-1.465972e+03
5.100000e-07	-3.873158e-06	-2.211670e-08	-2.785604e+01	-1.451366e+03
5.200000e-07	-3.764043e-06	-2.187862e-08	-2.707127e+01	-1.436176e+03
5.300000e-07	-3.653635e-06	-2.163293e-08	-2.627721e+01	-1.420319e+03
5.400000e-07	-3.541903e-06	-2.137537e-08	-2.547362e+01	-1.403715e+03
5.500000e-07	-3.428725e-06	-2.110408e-08	-2.465964e+01	-1.386298e+03
5.600000e-07	-3.314042e-06	-2.082636e-08	-2.383483e+01	-1.368030e+03
5.700000e-07	-3.197955e-06	-2.053966e-08	-2.299992e+01	-1.348897e+03
5.800000e-07	-3.080604e-06	-2.023713e-08	-2.215592e+01	-1.328897e+03
5.900000e-07	-2.962112e-06	-1.991815e-08	-2.130373e+01	-1.308028e+03
6.000000e-07	-2.842568e-06	-1.958601e-08	-2.044395e+01	-1.286267e+03
6.100000e-07	-2.721940e-06	-1.923644e-08	-1.957639e+01	-1.263554e+03
6.200000e-07	-2.600247e-06	-1.886733e-08	-1.870117e+01	-1.239792e+03
6.300000e-07	-2.477597e-06	-1.848027e-08	-1.781905e+01	-1.214844e+03
6.400000e-07	-2.354020e-06	-1.807680e-08	-1.693028e+01	-1.188554e+03
6.500000e-07	-2.229541e-06	-1.765161e-08	-1.603502e+01	-1.160760e+03
6.600000e-07	-2.104325e-06	-1.720118e-08	-1.513446e+01	-1.131314e+03
6.700000e-07	-1.978482e-06	-1.672604e-08	-1.422939e+01	-1.100091e+03
6.800000e-07	-1.851973e-06	-1.622470e-08	-1.331952e+01	-1.066987e+03
6.900000e-07	-1.724823e-06	-1.569482e-08	-1.240506e+01	-1.031905e+03
7.000000e-07	-1.597065e-06	-1.513023e-08	-1.148621e+01	-9.947393e+02
7.100000e-07	-1.468730e-06	-1.453013e-08	-1.056321e+01	-9.553536e+02
7.200000e-07	-1.339905e-06	-1.389008e-08	-9.636691e+00	-9.135727e+02
7.300000e-07	-1.210662e-06	-1.320748e-08	-8.707166e+00	-8.691889e+02
7.400000e-07	-1.081020e-06	-1.248128e-08	-7.774772e+00	-8.219884e+02
7.500000e-07	-9.509531e-07	-1.171174e-08	-6.839323e+00	-7.717940e+02
7.600000e-07	-8.205332e-07	-1.090104e-08	-5.901335e+00	-7.185166e+02
7.700000e-07	-6.898663e-07	-1.004525e-08	-4.961569e+00	-6.622027e+02
7.800000e-07	-5.590188e-07	-9.144521e-09	-4.020504e+00	-6.030642e+02
7.900000e-07	-4.280234e-07	-8.205799e-09	-3.078376e+00	-5.414790e+02
8.000000e-07	-2.968983e-07	-7.238669e-09	-2.135314e+00	-4.779575e+02
8.100000e-07	-1.656562e-07	-6.249760e-09	-1.191412e+00	-4.130757e+02
8.200000e-07	-3.425829e-08	-5.247687e-09	-2.463881e-01	-3.473880e+02
8.300000e-07	9.725678e-08	-4.238117e-09	6.994778e-01	-2.813349e+02
8.400000e-07	2.287155e-07	-3.226332e-09	1.644938e+00	-2.151667e+02
8.500000e-07	3.600696e-07	-2.215183e-09	2.589646e+00	-1.489018e+02
8.600000e-07	4.913210e-07	-1.202266e-09	3.533616e+00	-8.233136e+01
8.700000e-07	6.224572e-07	-1.815572e-10	4.476757e+00	-1.507398e+01
8.800000e-07	7.534453e-07	8.570975e-10	5.418833e+00	5.332913e+01
8.900000e-07	8.841706e-07	1.922264e-09	6.359019e+00	1.232944e+02
9.000000e-07	1.014551e-06	3.017054e-09	7.296725e+00	1.950763e+02
9.100000e-07	1.144600e-06	4.139713e-09	8.232043e+00	2.686708e+02
9.200000e-07	1.274271e-06	5.287850e-09	9.164649e+00	3.437638e+02
9.300000e-07	1.403475e-06	6.451204e-09	1.009389e+01	4.197335e+02
9.400000e-07	1.532120e-06	7.614841e-09	1.101912e+01	4.957084e+02
9.500000e-07	1.660125e-06	8.759216e-09	1.193974e+01	5.706680e+02
9.600000e-07	1.787490e-06	9.866150e-09	1.285576e+01	6.435683e+02
9.700000e-07	1.914215e-06	1.092333e-08	1.376717e+01	7.134670e+02
9.800000e-07	2.040267e-06	1.192169e-08	1.467375e+01	7.796265e+02
9.900000e-07	2.165598e-06	1.285763e-08	1.557514e+01	8.415772e+02
1.000000e-06	2.290204e-06	1.372835e-08	1.647131e+01	8.991339e+02
1.010000e-06	2.413976e-06	1.453566e-08	1.736149e+01	9.523678e+02
1.020000e-06	2.536834e-06	1.528390e-08	1.824510e+01	1.001544e+03
1.030000e-06	2.658789e-06	1.597586e-08	1.912220e+01	1.047041e+03
1.040000e-06	2.779744e-06	1.661806e-08	1.999212e+01	1.089272e+03
1.050000e-06	2.899548e-06	1.721648e-08	2.085376e+01	1.128623e+03
1.060000e-06	3.018213e-06	1.777413e-08	2.170721e+01	1.165411e+03
1.070000e-06	3.135837e-06	1.829612e-08	2.255317e+01	1.199872e+03
1.080000e-06	3.252333e-06	1.878269e-08	2.339101e+01	1.232176e+03
1.090000e-06	3.367555e-06	1.923704e-08	2.421970e+01	1.262450e+03
1.100000e-06	3.481409e-06	1.966613e-08	2.503855e+01	1.290809e+03
1.110000e-06	3.593829e-06	2.007107e-08	2.584708e+01	1.317374e+03
1.120000e-06	3.704911e-06	2.045252e-08	2.664599e+01	1.342288e+03
1.130000e-06	3.814788e-06	2.081272e-08	2.743623e+01	1.365714e+03
1.140000e-06	3.923438e-06	2.115213e-08	2.821765e+01	1.387815e+03
1.150000e-06	4.030745e-06	2.147231e-08	2.898941e+01	1.408747e+03
1.160000e-06	4.136623e-06	2.177475e-08	2.975089e+01	1.428633e+03
1.170000e-06	4.240952e-06	2.206177e-08	3.050123e+01	1.447561e+03
1.180000e-06	4.343714e-06	2.233458e-08	3.124031e+01	1.465583e+03
1.190000e-06	4.444953e-06	2.259349e-08	3.196842e+01	1.482721e+03
1.200000e-06	4.544676e-06	2.283900e-08	3.268564e+01	1.498987e+03
1.210000e-06	4.642813e-06	2.307193e-08	3.339145e+01	1.514394e+03
1.220000e-06	4.739168e-06	2.329386e-08	3.408444e+01	1.528971e+03
1.230000e-06	4.833739e-06	2.350389e-08	3.476460e+01	1.542767e+03
1.240000e-06	4.926634e-06	2.370290e-08	3.543271e+01	1.555846e+03
1.250000e-06	5.017848e-06	2.389207e-08	3.608873e+01	1.568284e+03
1.260000e-06	5.107267e-06	2.407215e-08	3.673184e+01	1.580150e+03
1.270000e-06	5.194732e-06	2.424389e-08	3.736089e+01	1.591503e+03
1.280000e-06	5.280278e-06	2.440868e-08	3.797615e+01	1.602378e+03
1.290000e-06	5.364089e-06	2.456629e-08	3.857892e+01	1.612790e+03
1.300000e-06	5.445992e-06	2.471756e-08	3.916797e+01	1.622737e+03
1.310000e-06	5.525744e-06	2.486132e-08	3.974155e+01	1.632208e+03
1.320000e-06	5.603396e-06	2.499933e-08	4.030003e+01	1.641194e+03
1.330000e-06	5.679024e-06	2.513218e-08	4.084395e+01	1.649696e+03
1.340000e-06	5.752430e-06	2.525790e-08	4.137189e+01	1.657725e+03
1.350000e-06	5.823609e-06	2.537600e-08	4.188382e+01	1.665304e+03
1.360000e-06	5.892786e-06	2.548483e-08	4.238134e+01	1.672465e+03
1.370000e-06	5.959898e-06	2.558795e-08	4.286402e+01	1.679238e+03
1.380000e-06	6.024792e-06	2.568631e-08	4.333074e+01	1.685651e+03
1.390000e-06	6.087534e-06	2.577946e-08	4.378199e+01	1.691720e+03
1.400000e-06	6.148290e-06	2.586665e-08	4.421895e+01	1.697460e+03
1.410000e-06	6.206941e-06	2.594716e-08	4.464077e+01	1.702876e+03
1.420000e-06	6.263322e-06	2.602337e-08	4.504626e+01	1.707977e+03
1.430000e-06	6.317432e-06	2.609538e-08	4.543543e+01	1.712774e+03
1.440000e-06	6.369097e-06	2.616414e-08	4.580701e+01	1.717286e+03
1.450000e-06	6.418065e-06	2.623109e-08	4.615919e+01	1.721534e+03
1.460000e-06	6.464558e-06	2.629398e-08	4.649357e+01	1.725543e+03
1.470000e-06	6.508947e-06	2.635140e-08	4.681282e+01	1.729332e+03
1.480000e-06	6.551065e-06	2.640393e-08	4.711573e+01	1.732911e+03
1.490000e-06	6.590707e-06	2.645452e-08	4.740084e+01	1.736278e+03
1.500000e-06	6.628107e-06	2.650187e-08	4.766983e+01	1.739420e+03
1.510000e-06	6.663291e-06	2.654426e-08	4.792287e+01	1.742317e+03
1.520000e-06	6.695962e-06	2.658293e-08	4.815784e+01	1.744947e+03
1.530000e-06	6.726201e-06	2.661788e-08	4.837533e+01	1.747294e+03
1.540000e-06	6.754230e-06	2.665025e-08	4.857692e+01	1.749353e+03
1.550000e-06	6.779776e-06	2.667914e-08	4.876064e+01	1.751131e+03
1.560000e-06	6.802738e-06	2.670387e-08	4.892579e+01	1.752648e+03
1.570000e-06	6.823402e-06	2.672403e-08	4.907440e+01	1.753929e+03
1.580000e-06	6.841710e-06	2.673901e-08	4.920607e+01	1.755001e+03
1.590000e-06	6.857469e-06	2.674940e-08	4.931941e+01	1.755885e+03
1.600000e-06	6.870638e-06	2.675679e-08	4.941413e+01	1.756593e+03
1.610000e-06	6.881118e-06	2.676367e-08	4.948950e+01	1.757128e+03
1.620000e-06	6.888894e-06	2.677004e-08	4.954543e+01	1.757485e+03
1.630000e-06	6.894214e-06	2.677626e-08	4.958369e+01	1.757658e+03
1.640000e-06	6.897219e-06	2.678135e-08	4.960530e+01	1.757641e+03
1.650000e-06	6.897720e-06	2.678179e-08	4.960890e+01	1.757436e+03
1.660000e-06	6.895788e-06	2.677265e-08	4.959501e+01	1.757049e+03
1.670000e-06	6.891703e-06	2.675821e-08	4.956563e+01	1.756489e+03
1.680000e-06	6.885283e-06	2.674450e-08	4.951946e+01	1.755768e+03
1.690000e-06	6.876516e-06	2.672993e-08	4.945640e+01	1.754890e+03
1.700000e-06	6.865549e-06	2.671599e-08	4.937753e+01	1.753852e+03
1.710000e-06	6.852172e-06	2.670322e-08	4.928132e+01	1.752645e+03
1.720000e-06	6.836404e-06	2.669381e-08	4.916791e+01	1.751254e+03
1.730000e-06	6.818555e-06	2.666958e-08	4.903954e+01	1.749668e+03
1.740000e-06	6.798521e-06	2.658295e-08	4.889545e+01	1.747885e+03
1.750000e-06	6.775549e-06	2.654503e-08	4.873024e+01	1.745919e+03
1.760000e-06	6.749318e-06	2.655411e-08	4.854158e+01	1.743797e+03
1.770000e-06	6.720279e-06	2.651589e-08	4.833273e+01	1.741558e+03
1.780000e-06	6.688971e-06	2.649909e-08	4.810756e+01	1.739242e+03
1.790000e-06	6.655919e-06	2.651891e-08	4.786985e+01	1.736880e+03
1.800000e-06	6.621521e-06	2.640732e-08	4.762246e+01	1.734482e+03
1.810000e-06	6.585216e-06	2.636970e-08	4.736135e+01	1.732026e+03
1.820000e-06	6.546318e-06	2.640618e-08	4.708159e+01	1.729466e+03
1.830000e-06	6.505154e-06	2.630197e-08	4.678554e+01	1.726729e+03
1.840000e-06	6.461830e-06	2.633661e-08	4.647395e+01	1.723734e+03
1.850000e-06	6.416193e-06	2.626896e-08	4.614573e+01	1.720407e+03
1.860000e-06	6.368240e-06	2.615923e-08	4.580085e+01	1.716697e+03
1.870000e-06	6.317864e-06	2.616805e-08	4.543853e+01	1.712585e+03
1.880000e-06	6.265081e-06	2.603398e-08	4.505892e+01	1.708090e+03
1.890000e-06	6.209686e-06	2.599946e-08	4.466051e+01	1.703258e+03
1.900000e-06	6.151781e-06	2.592772e-08	4.424405e+01	1.698152e+03
1.910000e-06	6.091654e-06	2.580328e-08	4.381161e+01	1.692834e+03
1.920000e-06	6.029129e-06	2.577117e-08	4.336194e+01	1.687349e+03
1.930000e-06	5.964372e-06	2.565849e-08	4.289620e+01	1.681708e+03
1.940000e-06	5.897560e-06	2.560325e-08	4.241568e+01	1.675894e+03
1.950000e-06	5.828548e-06	2.548639e-08	4.191934e+01	1.669860e+03
1.960000e-06	5.757132e-06	2.537650e-08	4.140571e+01	1.663547e+03
1.970000e-06	5.683386e-06	2.528697e-08	4.087532e+01	1.656896e+03
1.980000e-06	5.607506e-06	2.514017e-08	4.032959e+01	1.649868e+03
1.990000e-06	5.529340e-06	2.506579e-08	3.976742e+01	1.642449e+03
2.000000e-06	5.449080e-06	2.493632e-08	3.919018e+01	1.634654e+03
2.010000e-06	5.366988e-06	2.482957e-08	3.859977e+01	1.626515e+03
2.020000e-06	5.283058e-06	2.470079e-08	3.799614e+01	1.618074e+03
2.030000e-06	5.197149e-06	2.454935e-08	3.737827e+01	1.609360e+03
2.040000e-06	5.109259e-06	2.442851e-08	3.674616e+01	1.600383e+03
2.050000e-06	5.019609e-06	2.428192e-08	3.610139e+01	1.591122e+03
2.060000e-06	4.928298e-06	2.414375e-08	3.544468e+01	1.581531e+03
2.070000e-06	4.835339e-06	2.397417e-08	3.477611e+01	1.571548e+03
2.080000e-06	4.740563e-06	2.381841e-08	3.409447e+01	1.561111e+03
2.090000e-06	4.644019e-06	2.365030e-08	3.340012e+01	1.550169e+03
2.100000e-06	4.545956e-06	2.347743e-08	3.269485e+01	1.538698e+03
2.110000e-06	4.446457e-06	2.330335e-08	3.197924e+01	1.526698e+03
2.120000e-06	4.345367e-06	2.311524e-08	3.125220e+01	1.514191e+03
2.130000e-06	4.242574e-06	2.291816e-08	3.051290e+01	1.501204e+03
2.140000e-06	4.138231e-06	2.270250e-08	2.976246e+01	1.487759e+03
2.150000e-06	4.032416e-06	2.249303e-08	2.900143e+01	1.473854e+03
2.160000e-06	3.925265e-06	2.227374e-08	2.823079e+01	1.459455e+03
2.170000e-06	3.816781e-06	2.205187e-08	2.745056e+01	1.444504e+03
2.180000e-06	3.706854e-06	2.181477e-08	2.665996e+01	1.428919e+03
2.190000e-06	3.595481e-06	2.156932e-08	2.585896e+01	1.412617e+03
2.200000e-06	3.482699e-06	2.131017e-08	2.504782e+01	1.395525e+03
2.210000e-06	3.368486e-06	2.103839e-08	2.422640e+01	1.377594e+03
2.220000e-06	3.252871e-06	2.075508e-08	2.339488e+01	1.358801e+03
2.230000e-06	3.135927e-06	2.045582e-08	2.255382e+01	1.339141e+03
2.240000e-06	3.017659e-06	2.014249e-08	2.170322e+01	1.318614e+03
2.250000e-06	2.898220e-06	1.981548e-08	2.084421e+01	1.297208e+03
2.260000e-06	2.777705e-06	1.947870e-08	1.997745e+01	1.274878e+03
2.270000e-06	2.656162e-06	1.912390e-08	1.910331e+01	1.251542e+03
2.280000e-06	2.533679e-06	1.875198e-08	1.822240e+01	1.227078e+03
2.290000e-06	2.410337e-06	1.836026e-08	1.733532e+01	1.201334e+03
2.300000e-06	2.286214e-06	1.794754e-08	1.644262e+01	1.174149e+03
2.310000e-06	2.161238e-06	1.750784e-08	1.554378e+01	1.145368e+03
2.320000e-06	2.035400e-06	1.704338e-08	1.463874e+01	1.114856e+03
2.330000e-06	1.908849e-06	1.655211e-08	1.372858e+01	1.082502e+03
2.340000e-06	1.781676e-06	1.603043e-08	1.281394e+01	1.048208e+03
2.350000e-06	1.653896e-06	1.547607e-08	1.189494e+01	1.011875e+03
2.360000e-06	1.525492e-06	1.488713e-08	1.097145e+01	9.733802e+02
2.370000e-06	1.396554e-06	1.426408e-08	1.004412e+01	9.325632e+02
2.380000e-06	1.267204e-06	1.360275e-08	9.113826e+00	8.892276e+02
2.390000e-06	1.137518e-06	1.290060e-08	8.181109e+00	8.431575e+02
2.400000e-06	1.007482e-06	1.215275e-08	7.245886e+00	7.941556e+02
2.410000e-06	8.770802e-07	1.135849e-08	6.308024e+00	7.420919e+02
2.420000e-06	7.464003e-07	1.051895e-08	5.368165e+00	6.869547e+02
2.430000e-06	6.155308e-07	9.635105e-09	4.426942e+00	6.288892e+02
2.440000e-06	4.845098e-07	8.713343e-09	3.484629e+00	5.682102e+02
2.450000e-06	3.533376e-07	7.758862e-09	2.541230e+00	5.053821e+02
2.460000e-06	2.220620e-07	6.778711e-09	1.597086e+00	4.409648e+02
2.470000e-06	9.070439e-08	5.779949e-09	6.523526e-01	3.755326e+02
2.480000e-06	-4.075453e-08	4.769280e-09	-2.931096e-01	3.095809e+02
2.490000e-06	-1.722117e-07	3.752959e-09	-1.238559e+00	2.434421e+02
2.500000e-06	-3.035677e-07	2.735578e-09	-2.183281e+00	1.772278e+02
2.510000e-06	-4.347801e-07	1.718140e-09	-3.126970e+00	1.108147e+02
2.520000e-06	-5.658848e-07	6.955559e-10	-4.069884e+00	4.387973e+01
2.530000e-06	-6.969337e-07	-3.387047e-10	-5.012398e+00	-2.401887e+01
2.540000e-06	-8.278352e-07	-1.391629e-09	-5.953851e+00	-9.332905e+01
2.550000e-06	-9.584658e-07	-2.468669e-09	-6.893355e+00	-1.643821e+02
2.560000e-06	-1.088798e-06	-3.574181e-09	-7.830716e+00	-2.372846e+02
2.570000e-06	-1.218794e-06	-4.710272e-09	-8.765653e+00	-3.118471e+02
2.580000e-06	-1.348362e-06	-5.868676e-09	-9.697516e+00	-3.875648e+02
2.590000e-06	-1.477457e-06	-7.035030e-09	-1.062598e+01	-4.636542e+02
2.600000e-06	-1.606046e-06	-8.193744e-09	-1.155080e+01	-5.391391e+02
2.610000e-06	-1.734027e-06	-9.326059e-09	-1.247125e+01	-6.129694e+02
2.620000e-06	-1.861337e-06	-1.041528e-08	-1.338687e+01	-6.841489e+02
2.630000e-06	-1.987944e-06	-1.144901e-08	-1.429744e+01	-7.518495e+02
2.640000e-06	-2.113812e-06	-1.241980e-08	-1.520269e+01	-8.154917e+02
2.650000e-06	-2.238837e-06	-1.332519e-08	-1.610188e+01	-8.747796e+02
2.660000e-06	-2.362922e-06	-1.416551e-08	-1.699431e+01	-9.296896e+02
2.670000e-06	-2.486048e-06	-1.494368e-08	-1.787983e+01	-9.804194e+02
2.680000e-06	-2.608233e-06	-1.566827e-08	-1.875860e+01	-1.027313e+03
2.690000e-06	-2.729507e-06	-1.634284e-08	-1.963081e+01	-1.070779e+03
2.700000e-06	-2.849733e-06	-1.696730e-08	-2.049548e+01	-1.111220e+03
2.710000e-06	-2.968853e-06	-1.754593e-08	-2.135221e+01	-1.148982e+03
2.720000e-06	-3.086840e-06	-1.808721e-08	-2.220078e+01	-1.184334e+03
2.730000e-06	-3.203578e-06	-1.859538e-08	-2.304037e+01	-1.217469e+03
2.740000e-06	-3.319007e-06	-1.906976e-08	-2.387054e+01	-1.248528e+03
2.750000e-06	-3.433042e-06	-1.951148e-08	-2.469069e+01	-1.277625e+03
2.760000e-06	-3.545676e-06	-1.992341e-08	-2.550076e+01	-1.304879e+03
2.770000e-06	-3.656944e-06	-2.031226e-08	-2.630101e+01	-1.330425e+03
2.780000e-06	-3.766839e-06	-2.068197e-08	-2.709138e+01	-1.354415e+03
2.790000e-06	-3.875454e-06	-2.103270e-08	-2.787255e+01	-1.377018e+03
2.800000e-06	-3.982869e-06	-2.136235e-08	-2.864508e+01	-1.398393e+03
2.810000e-06	-4.089051e-06	-2.167165e-08	-2.940875e+01	-1.418677e+03
2.820000e-06	-4.193816e-06	-2.196489e-08	-3.016223e+01	-1.437974e+03
2.830000e-06	-4.297009e-06	-2.224478e-08	-3.090440e+01	-1.456349e+03
2.840000e-06	-4.398603e-06	-2.251198e-08	-3.163507e+01	-1.473833e+03
2.850000e-06	-4.498572e-06	-2.276599e-08	-3.235406e+01	-1.490441e+03
2.860000e-06	-4.597039e-06	-2.300635e-08	-3.306223e+01	-1.506183e+03
2.870000e-06	-4.693969e-06	-2.323175e-08	-3.375937e+01	-1.521082e+03
2.880000e-06	-4.789195e-06	-2.344610e-08	-3.444424e+01	-1.535178e+03
2.890000e-06	-4.882626e-06	-2.365315e-08	-3.511620e+01	-1.548530e+03
2.900000e-06	-4.974292e-06	-2.385188e-08	-3.577547e+01	-1.561212e+03
2.910000e-06	-5.064250e-06	-2.404150e-08	-3.642245e+01	-1.573295e+03
2.920000e-06	-5.152404e-06	-2.422013e-08	-3.705646e+01	-1.584845e+03
2.930000e-06	-5.238586e-06	-2.438905e-08	-3.767629e+01	-1.595905e+03
2.940000e-06	-5.322795e-06	-2.454874e-08	-3.828193e+01	-1.606499e+03
