# Temperatura_=_82.98
# Concentracion g/m^3_=_28200.0
# C_Vs_to_Am_M_A/Vsm_=_65563218390.804596
# pendiente_HvsI_1/m_=_3716.3
# ordenada_HvsI_A/m_=_1297.0
# frecuencia_Hz_=_302300.33758532844

Tiempo_(s)	Campo_(V.s)	Magnetizacion_(V.s)	Campo_(kA/m)	Magnetizacion_(A/m)
0.000000e+00	-6.864565e-06	-2.810381e-08	-4.951973e+01	-1.840429e+03
1.000000e-08	-6.861364e-06	-2.809756e-08	-4.949664e+01	-1.839873e+03
2.000000e-08	-6.855854e-06	-2.808550e-08	-4.945689e+01	-1.839149e+03
3.000000e-08	-6.848226e-06	-2.807384e-08	-4.940186e+01	-1.838269e+03
4.000000e-08	-6.838354e-06	-2.805988e-08	-4.933065e+01	-1.837233e+03
5.000000e-08	-6.825991e-06	-2.804199e-08	-4.924146e+01	-1.836023e+03
6.000000e-08	-6.811077e-06	-2.801781e-08	-4.913388e+01	-1.834615e+03
7.000000e-08	-6.793801e-06	-2.798301e-08	-4.900925e+01	-1.832978e+03
8.000000e-08	-6.774457e-06	-2.795303e-08	-4.886971e+01	-1.831094e+03
9.000000e-08	-6.752835e-06	-2.797891e-08	-4.871373e+01	-1.828961e+03
1.000000e-07	-6.728570e-06	-2.794925e-08	-4.853868e+01	-1.826604e+03
1.100000e-07	-6.701533e-06	-2.786455e-08	-4.834365e+01	-1.824071e+03
1.200000e-07	-6.671960e-06	-2.781762e-08	-4.813031e+01	-1.821426e+03
1.300000e-07	-6.640312e-06	-2.777640e-08	-4.790201e+01	-1.818733e+03
1.400000e-07	-6.606613e-06	-2.768063e-08	-4.765891e+01	-1.816036e+03
1.500000e-07	-6.571041e-06	-2.765655e-08	-4.740230e+01	-1.813348e+03
1.600000e-07	-6.533595e-06	-2.770072e-08	-4.713217e+01	-1.810638e+03
1.700000e-07	-6.494024e-06	-2.755396e-08	-4.684671e+01	-1.807837e+03
1.800000e-07	-6.452271e-06	-2.752902e-08	-4.654551e+01	-1.804843e+03
1.900000e-07	-6.407991e-06	-2.749747e-08	-4.622609e+01	-1.801551e+03
2.000000e-07	-6.361283e-06	-2.735894e-08	-4.588915e+01	-1.797865e+03
2.100000e-07	-6.312189e-06	-2.735300e-08	-4.553499e+01	-1.793727e+03
2.200000e-07	-6.260378e-06	-2.726310e-08	-4.516123e+01	-1.789121e+03
2.300000e-07	-6.206034e-06	-2.717468e-08	-4.476921e+01	-1.784081e+03
2.400000e-07	-6.149388e-06	-2.711168e-08	-4.436057e+01	-1.778674e+03
2.500000e-07	-6.090378e-06	-2.701194e-08	-4.393488e+01	-1.772982e+03
2.600000e-07	-6.029033e-06	-2.693828e-08	-4.349235e+01	-1.767080e+03
2.700000e-07	-5.965495e-06	-2.683903e-08	-4.303400e+01	-1.761015e+03
2.800000e-07	-5.899762e-06	-2.674959e-08	-4.255981e+01	-1.754796e+03
2.900000e-07	-5.831770e-06	-2.664319e-08	-4.206933e+01	-1.748390e+03
3.000000e-07	-5.761556e-06	-2.653061e-08	-4.156282e+01	-1.741738e+03
3.100000e-07	-5.689204e-06	-2.644105e-08	-4.104089e+01	-1.734765e+03
3.200000e-07	-5.614615e-06	-2.632032e-08	-4.050281e+01	-1.727410e+03
3.300000e-07	-5.537713e-06	-2.621288e-08	-3.994806e+01	-1.719635e+03
3.400000e-07	-5.458557e-06	-2.607035e-08	-3.937704e+01	-1.711437e+03
3.500000e-07	-5.377242e-06	-2.594202e-08	-3.879045e+01	-1.702842e+03
3.600000e-07	-5.294109e-06	-2.581634e-08	-3.819074e+01	-1.693897e+03
3.700000e-07	-5.209334e-06	-2.566803e-08	-3.757919e+01	-1.684648e+03
3.800000e-07	-5.122836e-06	-2.553771e-08	-3.695521e+01	-1.675124e+03
3.900000e-07	-5.034626e-06	-2.538189e-08	-3.631888e+01	-1.665323e+03
4.000000e-07	-4.944559e-06	-2.522072e-08	-3.566916e+01	-1.655211e+03
4.100000e-07	-4.852663e-06	-2.505082e-08	-3.500623e+01	-1.644726e+03
4.200000e-07	-4.759190e-06	-2.489032e-08	-3.433194e+01	-1.633794e+03
4.300000e-07	-4.664118e-06	-2.471596e-08	-3.364611e+01	-1.622348e+03
4.400000e-07	-4.567409e-06	-2.452737e-08	-3.294846e+01	-1.610346e+03
4.500000e-07	-4.468924e-06	-2.434018e-08	-3.223801e+01	-1.597775e+03
4.600000e-07	-4.368725e-06	-2.414088e-08	-3.151519e+01	-1.584653e+03
4.700000e-07	-4.267044e-06	-2.393619e-08	-3.078168e+01	-1.571016e+03
4.800000e-07	-4.163890e-06	-2.372015e-08	-3.003755e+01	-1.556902e+03
4.900000e-07	-4.059382e-06	-2.350038e-08	-2.928365e+01	-1.542328e+03
5.000000e-07	-3.953317e-06	-2.326628e-08	-2.851851e+01	-1.527284e+03
5.100000e-07	-3.845620e-06	-2.302539e-08	-2.774161e+01	-1.511718e+03
5.200000e-07	-3.736612e-06	-2.277520e-08	-2.695524e+01	-1.495551e+03
5.300000e-07	-3.626289e-06	-2.251497e-08	-2.615939e+01	-1.478688e+03
5.400000e-07	-3.514628e-06	-2.224439e-08	-2.535389e+01	-1.461036e+03
5.500000e-07	-3.401751e-06	-2.195986e-08	-2.453961e+01	-1.442524e+03
5.600000e-07	-3.287435e-06	-2.166550e-08	-2.371496e+01	-1.423111e+03
5.700000e-07	-3.171520e-06	-2.135633e-08	-2.287877e+01	-1.402786e+03
5.800000e-07	-3.054280e-06	-2.103541e-08	-2.203302e+01	-1.381554e+03
5.900000e-07	-2.935930e-06	-2.069700e-08	-2.117927e+01	-1.359420e+03
6.000000e-07	-2.816504e-06	-2.034334e-08	-2.031775e+01	-1.336363e+03
6.100000e-07	-2.696087e-06	-1.997347e-08	-1.944908e+01	-1.312324e+03
6.200000e-07	-2.574798e-06	-1.958582e-08	-1.857413e+01	-1.287196e+03
6.300000e-07	-2.452444e-06	-1.917850e-08	-1.769149e+01	-1.260833e+03
6.400000e-07	-2.328964e-06	-1.875201e-08	-1.680072e+01	-1.233067e+03
6.500000e-07	-2.204626e-06	-1.830534e-08	-1.590377e+01	-1.203726e+03
6.600000e-07	-2.079636e-06	-1.783225e-08	-1.500212e+01	-1.172656e+03
6.700000e-07	-1.954061e-06	-1.733115e-08	-1.409624e+01	-1.139729e+03
6.800000e-07	-1.827863e-06	-1.680037e-08	-1.318588e+01	-1.104842e+03
6.900000e-07	-1.700996e-06	-1.624067e-08	-1.227068e+01	-1.067902e+03
7.000000e-07	-1.573507e-06	-1.564673e-08	-1.135099e+01	-1.028801e+03
7.100000e-07	-1.445423e-06	-1.501458e-08	-1.042702e+01	-9.873993e+02
7.200000e-07	-1.316825e-06	-1.434259e-08	-9.499338e+00	-9.435088e+02
7.300000e-07	-1.187885e-06	-1.362806e-08	-8.569185e+00	-8.969066e+02
7.400000e-07	-1.058647e-06	-1.286714e-08	-7.636891e+00	-8.473615e+02
7.500000e-07	-9.290279e-07	-1.206069e-08	-6.701839e+00	-7.946830e+02
7.600000e-07	-7.990670e-07	-1.120998e-08	-5.764325e+00	-7.387765e+02
7.700000e-07	-6.688741e-07	-1.031256e-08	-4.825137e+00	-6.796935e+02
7.800000e-07	-5.384392e-07	-9.369482e-09	-3.884203e+00	-6.176611e+02
7.900000e-07	-4.077760e-07	-8.387141e-09	-2.941622e+00	-5.530788e+02
8.000000e-07	-2.769100e-07	-7.373361e-09	-1.997579e+00	-4.864774e+02
8.100000e-07	-1.458990e-07	-6.336118e-09	-1.052489e+00	-4.184454e+02
8.200000e-07	-1.479017e-08	-5.286544e-09	-1.066936e-01	-3.495340e+02
8.300000e-07	1.164035e-07	-4.228778e-09	8.397138e-01	-2.801617e+02
8.400000e-07	2.475678e-07	-3.166072e-09	1.785909e+00	-2.105403e+02
8.500000e-07	3.786175e-07	-2.100902e-09	2.731278e+00	-1.406404e+02
8.600000e-07	5.095326e-07	-1.030001e-09	3.675676e+00	-7.020847e+01
8.700000e-07	6.402294e-07	5.500890e-11	4.618499e+00	1.164490e+00
8.800000e-07	7.706685e-07	1.163655e-09	5.559463e+00	7.393364e+01
8.900000e-07	9.008540e-07	2.299155e-09	6.498597e+00	1.484719e+02
9.000000e-07	1.030779e-06	3.464550e-09	7.435855e+00	2.249480e+02
9.100000e-07	1.160382e-06	4.657948e-09	8.370787e+00	3.032366e+02
9.200000e-07	1.289579e-06	5.873744e-09	9.302786e+00	3.828805e+02
9.300000e-07	1.418320e-06	7.099716e-09	1.023150e+01	4.631122e+02
9.400000e-07	1.546525e-06	8.317557e-09	1.115635e+01	5.429329e+02
9.500000e-07	1.674110e-06	9.511113e-09	1.207672e+01	6.212315e+02
9.600000e-07	1.801046e-06	1.066278e-08	1.299242e+01	6.969225e+02
9.700000e-07	1.927321e-06	1.175741e-08	1.390334e+01	7.690744e+02
9.800000e-07	2.052955e-06	1.278573e-08	1.480965e+01	8.370071e+02
9.900000e-07	2.177969e-06	1.374449e-08	1.571148e+01	9.003422e+02
1.000000e-06	2.302217e-06	1.463119e-08	1.660777e+01	9.590017e+02
1.010000e-06	2.425551e-06	1.545124e-08	1.749749e+01	1.013162e+03
1.020000e-06	2.547940e-06	1.621206e-08	1.838037e+01	1.063174e+03
1.030000e-06	2.669335e-06	1.691602e-08	1.925610e+01	1.109478e+03
1.040000e-06	2.789660e-06	1.756922e-08	2.012411e+01	1.152517e+03
1.050000e-06	2.908932e-06	1.817994e-08	2.098451e+01	1.192680e+03
1.060000e-06	3.027161e-06	1.875126e-08	2.183739e+01	1.230272e+03
1.070000e-06	3.144268e-06	1.928652e-08	2.268218e+01	1.265510e+03
1.080000e-06	3.260184e-06	1.978634e-08	2.351838e+01	1.298551e+03
1.090000e-06	3.374824e-06	2.025286e-08	2.434537e+01	1.329512e+03
1.100000e-06	3.488107e-06	2.069082e-08	2.516257e+01	1.358513e+03
1.110000e-06	3.600003e-06	2.110316e-08	2.596977e+01	1.385689e+03
1.120000e-06	3.710595e-06	2.149204e-08	2.676756e+01	1.411200e+03
1.130000e-06	3.819976e-06	2.186010e-08	2.755661e+01	1.435222e+03
1.140000e-06	3.928122e-06	2.220751e-08	2.833676e+01	1.457928e+03
1.150000e-06	4.034955e-06	2.253629e-08	2.910744e+01	1.479473e+03
1.160000e-06	4.140298e-06	2.284928e-08	2.986736e+01	1.499971e+03
1.170000e-06	4.244024e-06	2.314718e-08	3.061562e+01	1.519501e+03
1.180000e-06	4.346240e-06	2.343120e-08	3.135299e+01	1.538100e+03
1.190000e-06	4.447000e-06	2.370048e-08	3.207986e+01	1.555785e+03
1.200000e-06	4.546217e-06	2.395331e-08	3.279558e+01	1.572567e+03
1.210000e-06	4.643735e-06	2.418995e-08	3.349907e+01	1.588466e+03
1.220000e-06	4.739449e-06	2.441529e-08	3.418953e+01	1.603522e+03
1.230000e-06	4.833479e-06	2.463120e-08	3.486785e+01	1.617796e+03
1.240000e-06	4.925896e-06	2.483879e-08	3.553452e+01	1.631360e+03
1.250000e-06	5.016612e-06	2.503774e-08	3.618893e+01	1.644290e+03
1.260000e-06	5.105423e-06	2.522921e-08	3.682960e+01	1.656653e+03
1.270000e-06	5.192266e-06	2.541027e-08	3.745607e+01	1.668493e+03
1.280000e-06	5.277353e-06	2.558026e-08	3.806987e+01	1.679836e+03
1.290000e-06	5.360648e-06	2.574240e-08	3.867075e+01	1.690688e+03
1.300000e-06	5.441893e-06	2.589784e-08	3.925683e+01	1.701042e+03
1.310000e-06	5.521070e-06	2.604635e-08	3.982800e+01	1.710895e+03
1.320000e-06	5.598256e-06	2.618898e-08	4.038480e+01	1.720251e+03
1.330000e-06	5.673276e-06	2.632610e-08	4.092599e+01	1.729126e+03
1.340000e-06	5.745986e-06	2.645661e-08	4.145050e+01	1.737550e+03
1.350000e-06	5.816525e-06	2.658107e-08	4.195936e+01	1.745556e+03
1.360000e-06	5.885083e-06	2.670084e-08	4.245392e+01	1.753176e+03
1.370000e-06	5.951601e-06	2.681615e-08	4.293377e+01	1.760432e+03
1.380000e-06	6.015943e-06	2.692489e-08	4.339792e+01	1.767331e+03
1.390000e-06	6.078184e-06	2.702458e-08	4.384692e+01	1.773868e+03
1.400000e-06	6.138456e-06	2.711542e-08	4.428171e+01	1.780033e+03
1.410000e-06	6.196613e-06	2.719993e-08	4.470124e+01	1.785815e+03
1.420000e-06	6.252501e-06	2.727948e-08	4.510441e+01	1.791216e+03
1.430000e-06	6.306125e-06	2.735463e-08	4.549124e+01	1.796252e+03
1.440000e-06	6.357230e-06	2.742632e-08	4.585991e+01	1.800956e+03
1.450000e-06	6.405681e-06	2.749651e-08	4.620942e+01	1.805370e+03
1.460000e-06	6.451772e-06	2.756412e-08	4.654191e+01	1.809541e+03
1.470000e-06	6.495692e-06	2.762680e-08	4.685875e+01	1.813504e+03
1.480000e-06	6.537210e-06	2.768346e-08	4.715825e+01	1.817277e+03
1.490000e-06	6.576341e-06	2.773538e-08	4.744053e+01	1.820858e+03
1.500000e-06	6.613366e-06	2.778373e-08	4.770762e+01	1.824224e+03
1.510000e-06	6.648134e-06	2.782868e-08	4.795843e+01	1.827342e+03
1.520000e-06	6.680387e-06	2.787077e-08	4.819110e+01	1.830176e+03
1.530000e-06	6.710275e-06	2.790956e-08	4.840671e+01	1.832696e+03
1.540000e-06	6.737912e-06	2.794453e-08	4.860608e+01	1.834893e+03
1.550000e-06	6.763038e-06	2.797467e-08	4.878733e+01	1.836775e+03
1.560000e-06	6.785599e-06	2.800121e-08	4.895008e+01	1.838365e+03
1.570000e-06	6.805868e-06	2.802399e-08	4.909630e+01	1.839697e+03
1.580000e-06	6.823796e-06	2.804057e-08	4.922563e+01	1.840804e+03
1.590000e-06	6.839118e-06	2.805204e-08	4.933616e+01	1.841710e+03
1.600000e-06	6.851837e-06	2.806034e-08	4.942791e+01	1.842427e+03
1.610000e-06	6.861894e-06	2.806765e-08	4.950046e+01	1.842954e+03
1.620000e-06	6.869288e-06	2.807347e-08	4.955380e+01	1.843284e+03
1.630000e-06	6.874280e-06	2.807702e-08	4.958981e+01	1.843407e+03
1.640000e-06	6.876865e-06	2.807861e-08	4.960846e+01	1.843319e+03
1.650000e-06	6.876926e-06	2.807832e-08	4.960890e+01	1.843025e+03
1.660000e-06	6.874706e-06	2.806836e-08	4.959289e+01	1.842539e+03
1.670000e-06	6.870311e-06	2.805467e-08	4.956118e+01	1.841879e+03
1.680000e-06	6.863524e-06	2.804073e-08	4.951222e+01	1.841059e+03
1.690000e-06	6.854433e-06	2.802530e-08	4.944664e+01	1.840084e+03
1.700000e-06	6.843169e-06	2.801013e-08	4.936538e+01	1.838945e+03
1.710000e-06	6.829462e-06	2.799485e-08	4.926650e+01	1.837618e+03
1.720000e-06	6.813393e-06	2.798508e-08	4.915058e+01	1.836074e+03
1.730000e-06	6.795316e-06	2.795034e-08	4.902018e+01	1.834288e+03
1.740000e-06	6.774969e-06	2.785465e-08	4.887340e+01	1.832250e+03
1.750000e-06	6.751616e-06	2.783189e-08	4.870494e+01	1.829976e+03
1.760000e-06	6.725074e-06	2.783125e-08	4.851346e+01	1.827504e+03
1.770000e-06	6.695848e-06	2.778150e-08	4.830264e+01	1.824895e+03
1.780000e-06	6.664421e-06	2.778137e-08	4.807593e+01	1.822213e+03
1.790000e-06	6.631322e-06	2.776573e-08	4.783716e+01	1.819514e+03
1.800000e-06	6.596848e-06	2.761454e-08	4.758847e+01	1.816823e+03
1.810000e-06	6.560203e-06	2.763224e-08	4.732412e+01	1.814128e+03
1.820000e-06	6.520990e-06	2.763184e-08	4.704124e+01	1.811373e+03
1.830000e-06	6.479641e-06	2.754495e-08	4.674295e+01	1.808467e+03
1.840000e-06	6.436087e-06	2.762705e-08	4.642877e+01	1.805304e+03
1.850000e-06	6.390173e-06	2.749496e-08	4.609755e+01	1.801781e+03
1.860000e-06	6.341893e-06	2.742251e-08	4.574927e+01	1.797825e+03
1.870000e-06	6.291232e-06	2.740415e-08	4.538381e+01	1.793401e+03
1.880000e-06	6.238173e-06	2.726673e-08	4.500105e+01	1.788525e+03
1.890000e-06	6.182537e-06	2.726385e-08	4.459971e+01	1.783252e+03
1.900000e-06	6.124475e-06	2.713380e-08	4.418085e+01	1.777661e+03
1.910000e-06	6.064211e-06	2.704400e-08	4.374612e+01	1.771833e+03
1.920000e-06	6.001572e-06	2.699334e-08	4.329425e+01	1.765829e+03
1.930000e-06	5.936729e-06	2.685159e-08	4.282649e+01	1.759671e+03
1.940000e-06	5.869814e-06	2.681025e-08	4.234378e+01	1.753345e+03
1.950000e-06	5.800641e-06	2.665482e-08	4.184477e+01	1.746797e+03
1.960000e-06	5.729066e-06	2.656508e-08	4.132844e+01	1.739958e+03
1.970000e-06	5.655304e-06	2.645706e-08	4.079634e+01	1.732759e+03
1.980000e-06	5.579440e-06	2.631782e-08	4.024907e+01	1.725151e+03
1.990000e-06	5.501143e-06	2.623641e-08	3.968425e+01	1.717117e+03
2.000000e-06	5.420747e-06	2.608077e-08	3.910429e+01	1.708672e+03
2.010000e-06	5.338597e-06	2.597609e-08	3.851167e+01	1.699858e+03
2.020000e-06	5.254666e-06	2.580631e-08	3.790621e+01	1.690723e+03
2.030000e-06	5.168788e-06	2.566114e-08	3.728670e+01	1.681305e+03
2.040000e-06	5.080857e-06	2.553101e-08	3.665238e+01	1.671615e+03
2.050000e-06	4.991167e-06	2.537441e-08	3.600538e+01	1.661631e+03
2.060000e-06	4.899884e-06	2.522571e-08	3.534687e+01	1.651300e+03
2.070000e-06	4.806978e-06	2.503986e-08	3.467667e+01	1.640552e+03
2.080000e-06	4.712230e-06	2.488284e-08	3.399317e+01	1.629314e+03
2.090000e-06	4.615757e-06	2.469275e-08	3.329723e+01	1.617534e+03
2.100000e-06	4.517780e-06	2.451290e-08	3.259045e+01	1.605185e+03
2.110000e-06	4.418311e-06	2.432099e-08	3.187289e+01	1.592276e+03
2.120000e-06	4.317363e-06	2.411619e-08	3.114468e+01	1.578836e+03
2.130000e-06	4.214701e-06	2.390134e-08	3.040409e+01	1.564904e+03
2.140000e-06	4.110384e-06	2.367478e-08	2.965156e+01	1.550510e+03
2.150000e-06	4.004680e-06	2.345525e-08	2.888904e+01	1.535654e+03
2.160000e-06	3.897663e-06	2.321877e-08	2.811704e+01	1.520301e+03
2.170000e-06	3.789327e-06	2.298436e-08	2.733552e+01	1.504381e+03
2.180000e-06	3.679601e-06	2.272886e-08	2.654397e+01	1.487802e+03
2.190000e-06	3.568421e-06	2.246414e-08	2.574194e+01	1.470470e+03
2.200000e-06	3.455821e-06	2.218311e-08	2.492967e+01	1.452301e+03
2.210000e-06	3.341842e-06	2.189713e-08	2.410744e+01	1.433245e+03
2.220000e-06	3.226471e-06	2.159620e-08	2.327518e+01	1.413277e+03
2.230000e-06	3.109798e-06	2.128038e-08	2.243352e+01	1.392400e+03
2.240000e-06	2.991837e-06	2.095017e-08	2.158257e+01	1.370621e+03
2.250000e-06	2.872548e-06	2.060511e-08	2.072204e+01	1.347931e+03
2.260000e-06	2.752133e-06	2.024523e-08	1.985339e+01	1.324287e+03
2.270000e-06	2.630780e-06	1.986666e-08	1.897797e+01	1.299601e+03
2.280000e-06	2.508586e-06	1.947502e-08	1.809648e+01	1.273742e+03
2.290000e-06	2.385573e-06	1.906040e-08	1.720909e+01	1.246548e+03
2.300000e-06	2.261659e-06	1.862390e-08	1.631520e+01	1.217845e+03
2.310000e-06	2.136928e-06	1.815916e-08	1.541541e+01	1.187471e+03
2.320000e-06	2.011551e-06	1.767003e-08	1.451096e+01	1.155286e+03
2.330000e-06	1.885501e-06	1.715093e-08	1.360166e+01	1.121179e+03
2.340000e-06	1.758630e-06	1.660085e-08	1.268644e+01	1.085057e+03
2.350000e-06	1.631017e-06	1.601859e-08	1.176586e+01	1.046819e+03
2.360000e-06	1.502828e-06	1.540076e-08	1.084113e+01	1.006341e+03
2.370000e-06	1.374178e-06	1.474689e-08	9.913072e+00	9.634522e+02
2.380000e-06	1.245174e-06	1.405400e-08	8.982458e+00	9.179428e+02
2.390000e-06	1.115814e-06	1.331577e-08	8.049282e+00	8.695795e+02
2.400000e-06	9.861311e-07	1.252647e-08	7.113771e+00	8.181494e+02
2.410000e-06	8.561098e-07	1.169176e-08	6.175821e+00	7.635134e+02
2.420000e-06	7.258227e-07	1.081248e-08	5.235953e+00	7.056607e+02
2.430000e-06	5.954047e-07	9.886889e-09	4.295142e+00	6.447479e+02
2.440000e-06	4.647873e-07	8.917958e-09	3.352892e+00	5.811094e+02
2.450000e-06	3.339971e-07	7.913620e-09	2.409395e+00	5.152318e+02
2.460000e-06	2.030821e-07	6.883530e-09	1.464998e+00	4.476913e+02
2.470000e-06	7.201934e-08	5.833955e-09	5.195345e-01	3.790656e+02
2.480000e-06	-5.907779e-08	4.773010e-09	-4.261765e-01	3.098359e+02
2.490000e-06	-1.901292e-07	3.707310e-09	-1.371558e+00	2.403019e+02
2.500000e-06	-3.210912e-07	2.636708e-09	-2.316293e+00	1.705297e+02
2.510000e-06	-4.519439e-07	1.560774e-09	-3.260242e+00	1.003485e+02
2.520000e-06	-5.827189e-07	4.777273e-10	-4.203629e+00	2.939920e+01
2.530000e-06	-7.133768e-07	-6.208360e-10	-5.146171e+00	-4.277002e+01
2.540000e-06	-8.438071e-07	-1.742660e-09	-6.087072e+00	-1.165799e+02
2.550000e-06	-9.739619e-07	-2.893905e-09	-7.025985e+00	-1.922924e+02
2.560000e-06	-1.103810e-06	-4.074034e-09	-7.962684e+00	-2.699055e+02
2.570000e-06	-1.233291e-06	-5.280936e-09	-8.896735e+00	-3.490930e+02
2.580000e-06	-1.362402e-06	-6.506306e-09	-9.828124e+00	-4.292029e+02
2.590000e-06	-1.491093e-06	-7.734554e-09	-1.075647e+01	-5.093148e+02
2.600000e-06	-1.619254e-06	-8.948127e-09	-1.168101e+01	-5.883459e+02
2.610000e-06	-1.746739e-06	-1.012653e-08	-1.260066e+01	-6.651840e+02
2.620000e-06	-1.873495e-06	-1.125423e-08	-1.351505e+01	-7.388235e+02
2.630000e-06	-1.999576e-06	-1.231838e-08	-1.442458e+01	-8.084766e+02
2.640000e-06	-2.124937e-06	-1.331117e-08	-1.532891e+01	-8.736437e+02
2.650000e-06	-2.249469e-06	-1.423272e-08	-1.622726e+01	-9.341322e+02
2.660000e-06	-2.373072e-06	-1.508732e-08	-1.711891e+01	-9.900262e+02
2.670000e-06	-2.495741e-06	-1.588128e-08	-1.800382e+01	-1.041619e+03
2.680000e-06	-2.617500e-06	-1.661974e-08	-1.888217e+01	-1.089326e+03
2.690000e-06	-2.738324e-06	-1.730441e-08	-1.975378e+01	-1.133598e+03
2.700000e-06	-2.858101e-06	-1.794033e-08	-2.061782e+01	-1.174850e+03
2.710000e-06	-2.976752e-06	-1.853171e-08	-2.147375e+01	-1.213421e+03
2.720000e-06	-3.094299e-06	-1.908490e-08	-2.232171e+01	-1.249564e+03
2.730000e-06	-3.210595e-06	-1.960499e-08	-2.316065e+01	-1.283453e+03
2.740000e-06	-3.325506e-06	-2.008947e-08	-2.398960e+01	-1.315218e+03
2.750000e-06	-3.439013e-06	-2.053956e-08	-2.480841e+01	-1.344975e+03
2.760000e-06	-3.551188e-06	-2.096224e-08	-2.561763e+01	-1.372850e+03
2.770000e-06	-3.661985e-06	-2.136282e-08	-2.641690e+01	-1.398996e+03
2.780000e-06	-3.771447e-06	-2.174351e-08	-2.720654e+01	-1.423582e+03
2.790000e-06	-3.879731e-06	-2.210389e-08	-2.798767e+01	-1.446786e+03
2.800000e-06	-3.986764e-06	-2.244201e-08	-2.875979e+01	-1.468771e+03
2.810000e-06	-4.092520e-06	-2.275935e-08	-2.952270e+01	-1.489669e+03
2.820000e-06	-4.196826e-06	-2.305948e-08	-3.027514e+01	-1.509574e+03
2.830000e-06	-4.299523e-06	-2.334670e-08	-3.101598e+01	-1.528536e+03
2.840000e-06	-4.400592e-06	-2.362432e-08	-3.174508e+01	-1.546579e+03
2.850000e-06	-4.500079e-06	-2.388963e-08	-3.246276e+01	-1.563715e+03
2.860000e-06	-4.598061e-06	-2.413796e-08	-3.316958e+01	-1.579958e+03
2.870000e-06	-4.694448e-06	-2.437034e-08	-3.386490e+01	-1.595340e+03
2.880000e-06	-4.789122e-06	-2.459092e-08	-3.454786e+01	-1.609913e+03
2.890000e-06	-4.882039e-06	-2.480351e-08	-3.521815e+01	-1.623747e+03
2.900000e-06	-4.973219e-06	-2.500799e-08	-3.587590e+01	-1.636918e+03
2.910000e-06	-5.062673e-06	-2.520338e-08	-3.652121e+01	-1.649497e+03
2.920000e-06	-5.150278e-06	-2.539170e-08	-3.715317e+01	-1.661540e+03
2.930000e-06	-5.235908e-06	-2.557063e-08	-3.777089e+01	-1.673077e+03
2.940000e-06	-5.319609e-06	-2.573782e-08	-3.837469e+01	-1.684122e+03
