# Temperatura_=_44.35
# Concentracion g/m^3_=_28200.0
# C_Vs_to_Am_M_A/Vsm_=_65563218390.804596
# pendiente_HvsI_1/m_=_3716.3
# ordenada_HvsI_A/m_=_1297.0
# frecuencia_Hz_=_302302.57800006913

Tiempo_(s)	Campo_(V.s)	Magnetizacion_(V.s)	Campo_(kA/m)	Magnetizacion_(A/m)
0.000000e+00	-6.864295e-06	-2.482138e-08	-4.951626e+01	-1.624949e+03
1.000000e-08	-6.861359e-06	-2.481727e-08	-4.949507e+01	-1.624562e+03
2.000000e-08	-6.856100e-06	-2.480833e-08	-4.945714e+01	-1.624017e+03
3.000000e-08	-6.848666e-06	-2.479777e-08	-4.940351e+01	-1.623316e+03
4.000000e-08	-6.838893e-06	-2.478430e-08	-4.933301e+01	-1.622455e+03
5.000000e-08	-6.826641e-06	-2.476832e-08	-4.924464e+01	-1.621428e+03
6.000000e-08	-6.811870e-06	-2.474901e-08	-4.913808e+01	-1.620227e+03
7.000000e-08	-6.794749e-06	-2.472371e-08	-4.901458e+01	-1.618851e+03
8.000000e-08	-6.775582e-06	-2.470118e-08	-4.887632e+01	-1.617304e+03
9.000000e-08	-6.754192e-06	-2.472392e-08	-4.872201e+01	-1.615601e+03
1.000000e-07	-6.730143e-06	-2.470394e-08	-4.854854e+01	-1.613770e+03
1.100000e-07	-6.703297e-06	-2.463666e-08	-4.835488e+01	-1.611844e+03
1.200000e-07	-6.673955e-06	-2.459539e-08	-4.814322e+01	-1.609859e+03
1.300000e-07	-6.642456e-06	-2.455524e-08	-4.791600e+01	-1.607842e+03
1.400000e-07	-6.608886e-06	-2.446366e-08	-4.767384e+01	-1.605800e+03
1.500000e-07	-6.573470e-06	-2.444946e-08	-4.741836e+01	-1.603718e+03
1.600000e-07	-6.536193e-06	-2.451252e-08	-4.714946e+01	-1.601557e+03
1.700000e-07	-6.496791e-06	-2.437519e-08	-4.686523e+01	-1.599253e+03
1.800000e-07	-6.455106e-06	-2.435327e-08	-4.656453e+01	-1.596736e+03
1.900000e-07	-6.410940e-06	-2.434821e-08	-4.624594e+01	-1.593936e+03
2.000000e-07	-6.364384e-06	-2.421206e-08	-4.591010e+01	-1.590801e+03
2.100000e-07	-6.315413e-06	-2.419950e-08	-4.555684e+01	-1.587304e+03
2.200000e-07	-6.263738e-06	-2.413813e-08	-4.518408e+01	-1.583452e+03
2.300000e-07	-6.209542e-06	-2.406238e-08	-4.479313e+01	-1.579279e+03
2.400000e-07	-6.153015e-06	-2.400442e-08	-4.438537e+01	-1.574837e+03
2.500000e-07	-6.094135e-06	-2.392804e-08	-4.396063e+01	-1.570183e+03
2.600000e-07	-6.033001e-06	-2.386802e-08	-4.351964e+01	-1.565364e+03
2.700000e-07	-5.969622e-06	-2.378921e-08	-4.306244e+01	-1.560402e+03
2.800000e-07	-5.904075e-06	-2.371491e-08	-4.258961e+01	-1.555292e+03
2.900000e-07	-5.836379e-06	-2.362353e-08	-4.210128e+01	-1.550001e+03
3.000000e-07	-5.766483e-06	-2.353318e-08	-4.159708e+01	-1.544479e+03
3.100000e-07	-5.694388e-06	-2.346228e-08	-4.107702e+01	-1.538672e+03
3.200000e-07	-5.620077e-06	-2.335763e-08	-4.054097e+01	-1.532534e+03
3.300000e-07	-5.543439e-06	-2.326274e-08	-3.998813e+01	-1.526040e+03
3.400000e-07	-5.464473e-06	-2.314755e-08	-3.941851e+01	-1.519190e+03
3.500000e-07	-5.383407e-06	-2.303934e-08	-3.883373e+01	-1.512005e+03
3.600000e-07	-5.300484e-06	-2.293736e-08	-3.823555e+01	-1.504519e+03
3.700000e-07	-5.215837e-06	-2.281675e-08	-3.762494e+01	-1.496766e+03
3.800000e-07	-5.129478e-06	-2.270242e-08	-3.700199e+01	-1.488764e+03
3.900000e-07	-5.041324e-06	-2.256658e-08	-3.636608e+01	-1.480511e+03
4.000000e-07	-4.951372e-06	-2.242593e-08	-3.571720e+01	-1.471977e+03
4.100000e-07	-4.859690e-06	-2.228100e-08	-3.505584e+01	-1.463117e+03
4.200000e-07	-4.766348e-06	-2.215093e-08	-3.438251e+01	-1.453871e+03
4.300000e-07	-4.671423e-06	-2.201174e-08	-3.369776e+01	-1.444188e+03
4.400000e-07	-4.574788e-06	-2.185260e-08	-3.300068e+01	-1.434027e+03
4.500000e-07	-4.476443e-06	-2.169038e-08	-3.229125e+01	-1.423372e+03
4.600000e-07	-4.376416e-06	-2.151918e-08	-3.156970e+01	-1.412229e+03
4.700000e-07	-4.274828e-06	-2.134190e-08	-3.083688e+01	-1.400615e+03
4.800000e-07	-4.171834e-06	-2.115856e-08	-3.009392e+01	-1.388552e+03
4.900000e-07	-4.067351e-06	-2.097491e-08	-2.934023e+01	-1.376049e+03
5.000000e-07	-3.961389e-06	-2.077436e-08	-2.857586e+01	-1.363094e+03
5.100000e-07	-3.853930e-06	-2.056174e-08	-2.780070e+01	-1.349652e+03
5.200000e-07	-3.745055e-06	-2.034259e-08	-2.701532e+01	-1.335663e+03
5.300000e-07	-3.634904e-06	-2.011668e-08	-2.622073e+01	-1.321055e+03
5.400000e-07	-3.523442e-06	-1.988122e-08	-2.541669e+01	-1.305755e+03
5.500000e-07	-3.410484e-06	-1.963313e-08	-2.460186e+01	-1.289702e+03
5.600000e-07	-3.296092e-06	-1.937779e-08	-2.377668e+01	-1.272854e+03
5.700000e-07	-3.180382e-06	-1.910967e-08	-2.294199e+01	-1.255186e+03
5.800000e-07	-3.063380e-06	-1.882736e-08	-2.209799e+01	-1.236687e+03
5.900000e-07	-2.945224e-06	-1.853051e-08	-2.124565e+01	-1.217343e+03
6.000000e-07	-2.825972e-06	-1.822359e-08	-2.038542e+01	-1.197126e+03
6.100000e-07	-2.705575e-06	-1.790032e-08	-1.951693e+01	-1.175981e+03
6.200000e-07	-2.584065e-06	-1.755786e-08	-1.864040e+01	-1.153824e+03
6.300000e-07	-2.461726e-06	-1.719746e-08	-1.775790e+01	-1.130540e+03
6.400000e-07	-2.338551e-06	-1.681879e-08	-1.686936e+01	-1.105995e+03
6.500000e-07	-2.214400e-06	-1.642168e-08	-1.597379e+01	-1.080049e+03
6.600000e-07	-2.089437e-06	-1.600298e-08	-1.507235e+01	-1.052569e+03
6.700000e-07	-1.963843e-06	-1.556071e-08	-1.416637e+01	-1.023435e+03
6.800000e-07	-1.837654e-06	-1.509195e-08	-1.325610e+01	-9.925398e+02
6.900000e-07	-1.710887e-06	-1.459560e-08	-1.234165e+01	-9.597788e+02
7.000000e-07	-1.583486e-06	-1.406763e-08	-1.142263e+01	-9.250382e+02
7.100000e-07	-1.455451e-06	-1.350543e-08	-1.049904e+01	-8.881826e+02
7.200000e-07	-1.326880e-06	-1.290543e-08	-9.571580e+00	-8.490509e+02
7.300000e-07	-1.197849e-06	-1.226717e-08	-8.640799e+00	-8.074653e+02
7.400000e-07	-1.068449e-06	-1.158992e-08	-7.707358e+00	-7.632551e+02
7.500000e-07	-9.387146e-07	-1.087253e-08	-6.771508e+00	-7.162933e+02
7.600000e-07	-8.087064e-07	-1.011427e-08	-5.833682e+00	-6.665383e+02
7.700000e-07	-6.784801e-07	-9.314075e-09	-4.894282e+00	-6.140722e+02
7.800000e-07	-5.480677e-07	-8.476113e-09	-3.953539e+00	-5.591215e+02
7.900000e-07	-4.174944e-07	-7.607103e-09	-3.011636e+00	-5.020553e+02
8.000000e-07	-2.868202e-07	-6.715139e-09	-2.069005e+00	-4.433526e+02
8.100000e-07	-1.560539e-07	-5.804105e-09	-1.125710e+00	-3.835436e+02
8.200000e-07	-2.511624e-08	-4.882200e-09	-1.811784e-01	-3.231338e+02
8.300000e-07	1.058629e-07	-3.957006e-09	7.636526e-01	-2.625235e+02
8.400000e-07	2.367785e-07	-3.032089e-09	1.708025e+00	-2.019421e+02
8.500000e-07	3.676294e-07	-2.108596e-09	2.651930e+00	-1.414106e+02
8.600000e-07	4.983896e-07	-1.185290e-09	3.595181e+00	-8.074406e+01
8.700000e-07	6.290191e-07	-2.560158e-10	4.537490e+00	-1.959645e+01
8.800000e-07	7.594554e-07	6.895381e-10	5.478405e+00	4.245877e+01
8.900000e-07	8.896939e-07	1.656055e-09	6.417893e+00	1.058258e+02
9.000000e-07	1.019730e-06	2.647214e-09	7.355921e+00	1.707813e+02
9.100000e-07	1.149465e-06	3.663515e-09	8.291779e+00	2.373871e+02
9.200000e-07	1.278799e-06	4.702035e-09	9.224740e+00	3.054380e+02
9.300000e-07	1.407667e-06	5.754661e-09	1.015434e+01	3.744556e+02
9.400000e-07	1.535942e-06	6.810139e-09	1.107967e+01	4.437287e+02
9.500000e-07	1.663553e-06	7.855973e-09	1.200020e+01	5.123928e+02
9.600000e-07	1.790500e-06	8.877924e-09	1.291594e+01	5.795338e+02
9.700000e-07	1.916799e-06	9.862056e-09	1.382701e+01	6.442948e+02
9.800000e-07	2.042487e-06	1.079639e-08	1.473368e+01	7.059696e+02
9.900000e-07	2.167538e-06	1.167636e-08	1.563575e+01	7.640652e+02
1.000000e-06	2.291821e-06	1.249783e-08	1.653227e+01	8.183272e+02
1.010000e-06	2.415213e-06	1.326072e-08	1.742237e+01	8.687271e+02
1.020000e-06	2.537673e-06	1.396924e-08	1.830575e+01	9.154191e+02
1.030000e-06	2.659206e-06	1.462606e-08	1.918244e+01	9.586786e+02
1.040000e-06	2.779700e-06	1.523498e-08	2.005163e+01	9.988371e+02
1.050000e-06	2.899035e-06	1.580113e-08	2.091247e+01	1.036226e+03
1.060000e-06	3.017321e-06	1.633036e-08	2.176574e+01	1.071137e+03
1.070000e-06	3.134542e-06	1.682589e-08	2.261132e+01	1.103807e+03
1.080000e-06	3.250572e-06	1.728879e-08	2.344831e+01	1.134417e+03
1.090000e-06	3.365375e-06	1.772250e-08	2.427646e+01	1.163108e+03
1.100000e-06	3.478843e-06	1.812957e-08	2.509497e+01	1.190001e+03
1.110000e-06	3.590834e-06	1.851145e-08	2.590282e+01	1.215216e+03
1.120000e-06	3.701481e-06	1.887139e-08	2.670099e+01	1.238881e+03
1.130000e-06	3.810961e-06	1.921232e-08	2.749074e+01	1.261133e+03
1.140000e-06	3.919204e-06	1.953466e-08	2.827156e+01	1.282112e+03
1.150000e-06	4.026141e-06	1.983921e-08	2.904296e+01	1.301951e+03
1.160000e-06	4.131623e-06	2.012599e-08	2.980386e+01	1.320760e+03
1.170000e-06	4.235492e-06	2.039651e-08	3.055313e+01	1.338625e+03
1.180000e-06	4.337840e-06	2.065298e-08	3.129143e+01	1.355603e+03
1.190000e-06	4.438733e-06	2.089602e-08	3.201923e+01	1.371728e+03
1.200000e-06	4.538103e-06	2.112865e-08	3.273604e+01	1.387025e+03
1.210000e-06	4.635829e-06	2.135009e-08	3.344100e+01	1.401517e+03
1.220000e-06	4.731727e-06	2.155923e-08	3.413277e+01	1.415238e+03
1.230000e-06	4.825876e-06	2.175706e-08	3.481192e+01	1.428231e+03
1.240000e-06	4.918392e-06	2.194330e-08	3.547930e+01	1.440555e+03
1.250000e-06	5.009162e-06	2.211975e-08	3.613408e+01	1.452273e+03
1.260000e-06	5.098029e-06	2.228873e-08	3.677512e+01	1.463444e+03
1.270000e-06	5.185011e-06	2.244976e-08	3.740258e+01	1.474117e+03
1.280000e-06	5.270257e-06	2.260440e-08	3.801751e+01	1.484322e+03
1.290000e-06	5.353752e-06	2.275257e-08	3.861981e+01	1.494075e+03
1.300000e-06	5.435270e-06	2.289549e-08	3.920785e+01	1.503374e+03
1.310000e-06	5.514645e-06	2.303270e-08	3.978042e+01	1.512210e+03
1.320000e-06	5.591983e-06	2.316270e-08	4.033831e+01	1.520576e+03
1.330000e-06	5.667212e-06	2.328529e-08	4.088098e+01	1.528469e+03
1.340000e-06	5.740152e-06	2.340098e-08	4.140714e+01	1.535900e+03
1.350000e-06	5.810962e-06	2.350938e-08	4.191793e+01	1.542889e+03
1.360000e-06	5.879814e-06	2.360869e-08	4.241461e+01	1.549467e+03
1.370000e-06	5.946549e-06	2.370180e-08	4.289600e+01	1.555667e+03
1.380000e-06	6.011041e-06	2.379106e-08	4.336123e+01	1.561524e+03
1.390000e-06	6.073473e-06	2.387645e-08	4.381158e+01	1.567067e+03
1.400000e-06	6.133976e-06	2.395678e-08	4.424803e+01	1.572317e+03
1.410000e-06	6.192339e-06	2.403220e-08	4.466904e+01	1.577291e+03
1.420000e-06	6.248391e-06	2.410431e-08	4.507337e+01	1.582001e+03
1.430000e-06	6.302171e-06	2.417287e-08	4.546132e+01	1.586455e+03
1.440000e-06	6.353400e-06	2.423710e-08	4.583086e+01	1.590664e+03
1.450000e-06	6.401970e-06	2.429898e-08	4.618123e+01	1.594637e+03
1.460000e-06	6.448172e-06	2.435854e-08	4.651451e+01	1.598382e+03
1.470000e-06	6.492300e-06	2.441307e-08	4.683283e+01	1.601904e+03
1.480000e-06	6.534169e-06	2.446206e-08	4.713486e+01	1.605206e+03
1.490000e-06	6.573567e-06	2.450801e-08	4.741906e+01	1.608282e+03
1.500000e-06	6.610749e-06	2.455238e-08	4.768727e+01	1.611125e+03
1.510000e-06	6.645698e-06	2.459293e-08	4.793938e+01	1.613722e+03
1.520000e-06	6.678151e-06	2.462811e-08	4.817349e+01	1.616064e+03
1.530000e-06	6.708176e-06	2.465903e-08	4.839007e+01	1.618147e+03
1.540000e-06	6.735967e-06	2.468669e-08	4.859055e+01	1.619972e+03
1.550000e-06	6.761278e-06	2.471026e-08	4.877313e+01	1.621551e+03
1.560000e-06	6.783998e-06	2.473128e-08	4.893703e+01	1.622902e+03
1.570000e-06	6.804466e-06	2.474900e-08	4.908467e+01	1.624044e+03
1.580000e-06	6.822595e-06	2.476210e-08	4.921545e+01	1.625000e+03
1.590000e-06	6.838117e-06	2.477141e-08	4.932742e+01	1.625786e+03
1.600000e-06	6.851047e-06	2.477879e-08	4.942069e+01	1.626413e+03
1.610000e-06	6.861304e-06	2.478711e-08	4.949468e+01	1.626885e+03
1.620000e-06	6.868872e-06	2.479475e-08	4.954927e+01	1.627201e+03
1.630000e-06	6.874007e-06	2.480058e-08	4.958632e+01	1.627358e+03
1.640000e-06	6.876817e-06	2.480309e-08	4.960659e+01	1.627355e+03
1.650000e-06	6.877138e-06	2.480253e-08	4.960890e+01	1.627189e+03
1.660000e-06	6.875107e-06	2.479350e-08	4.959425e+01	1.626864e+03
1.670000e-06	6.870890e-06	2.478220e-08	4.956383e+01	1.626381e+03
1.680000e-06	6.864295e-06	2.477070e-08	4.951626e+01	1.625741e+03
1.690000e-06	6.855373e-06	2.475670e-08	4.945190e+01	1.624943e+03
1.700000e-06	6.844267e-06	2.474330e-08	4.937178e+01	1.623982e+03
1.710000e-06	6.830787e-06	2.473212e-08	4.927454e+01	1.622850e+03
1.720000e-06	6.814938e-06	2.472556e-08	4.916021e+01	1.621542e+03
1.730000e-06	6.797003e-06	2.469491e-08	4.903084e+01	1.620061e+03
1.740000e-06	6.776836e-06	2.461378e-08	4.888536e+01	1.618416e+03
1.750000e-06	6.753644e-06	2.459441e-08	4.871807e+01	1.616631e+03
1.760000e-06	6.727218e-06	2.459591e-08	4.852744e+01	1.614738e+03
1.770000e-06	6.698150e-06	2.455458e-08	4.831775e+01	1.612772e+03
1.780000e-06	6.666888e-06	2.456923e-08	4.809224e+01	1.610765e+03
1.790000e-06	6.633901e-06	2.457641e-08	4.785429e+01	1.608733e+03
1.800000e-06	6.599513e-06	2.443591e-08	4.760622e+01	1.606670e+03
1.810000e-06	6.563093e-06	2.444795e-08	4.734350e+01	1.604546e+03
1.820000e-06	6.524153e-06	2.445051e-08	4.706260e+01	1.602306e+03
1.830000e-06	6.483060e-06	2.436236e-08	4.676618e+01	1.599881e+03
1.840000e-06	6.439763e-06	2.442882e-08	4.645385e+01	1.597200e+03
1.850000e-06	6.394155e-06	2.432093e-08	4.612485e+01	1.594200e+03
1.860000e-06	6.346194e-06	2.426021e-08	4.577888e+01	1.590846e+03
1.870000e-06	6.295728e-06	2.424270e-08	4.541484e+01	1.587131e+03
1.880000e-06	6.242887e-06	2.412833e-08	4.503367e+01	1.583078e+03
1.890000e-06	6.187512e-06	2.412568e-08	4.463422e+01	1.578735e+03
1.900000e-06	6.129673e-06	2.401024e-08	4.421699e+01	1.574157e+03
1.910000e-06	6.069590e-06	2.393066e-08	4.378357e+01	1.569398e+03
1.920000e-06	6.007154e-06	2.390002e-08	4.333319e+01	1.564491e+03
1.930000e-06	5.942512e-06	2.378831e-08	4.286689e+01	1.559441e+03
1.940000e-06	5.875740e-06	2.375123e-08	4.238521e+01	1.554226e+03
1.950000e-06	5.806709e-06	2.362687e-08	4.188726e+01	1.548802e+03
1.960000e-06	5.735331e-06	2.354291e-08	4.137236e+01	1.543113e+03
1.970000e-06	5.661696e-06	2.345009e-08	4.084119e+01	1.537109e+03
1.980000e-06	5.585863e-06	2.333723e-08	4.029416e+01	1.530755e+03
1.990000e-06	5.507685e-06	2.326989e-08	3.973022e+01	1.524043e+03
2.000000e-06	5.427441e-06	2.314639e-08	3.915137e+01	1.516986e+03
2.010000e-06	5.345427e-06	2.305295e-08	3.855976e+01	1.509614e+03
2.020000e-06	5.261603e-06	2.291599e-08	3.795508e+01	1.501962e+03
2.030000e-06	5.175783e-06	2.279234e-08	3.733601e+01	1.494057e+03
2.040000e-06	5.087954e-06	2.268507e-08	3.670244e+01	1.485904e+03
2.050000e-06	4.998429e-06	2.255948e-08	3.605665e+01	1.477485e+03
2.060000e-06	4.907336e-06	2.242898e-08	3.539954e+01	1.468759e+03
2.070000e-06	4.814604e-06	2.227069e-08	3.473061e+01	1.459672e+03
2.080000e-06	4.720097e-06	2.213043e-08	3.404887e+01	1.450165e+03
2.090000e-06	4.623786e-06	2.197498e-08	3.335413e+01	1.440195e+03
2.100000e-06	4.525921e-06	2.182272e-08	3.264817e+01	1.429734e+03
2.110000e-06	4.426593e-06	2.166413e-08	3.193166e+01	1.418781e+03
2.120000e-06	4.325669e-06	2.149191e-08	3.120363e+01	1.407349e+03
2.130000e-06	4.223186e-06	2.130190e-08	3.046436e+01	1.395460e+03
2.140000e-06	4.119109e-06	2.110487e-08	2.971359e+01	1.383129e+03
2.150000e-06	4.013456e-06	2.091481e-08	2.895145e+01	1.370355e+03
2.160000e-06	3.906495e-06	2.071604e-08	2.817988e+01	1.357110e+03
2.170000e-06	3.798169e-06	2.051397e-08	2.739846e+01	1.343344e+03
2.180000e-06	3.688458e-06	2.029733e-08	2.660705e+01	1.328987e+03
2.190000e-06	3.577393e-06	2.007130e-08	2.580587e+01	1.313967e+03
2.200000e-06	3.464901e-06	1.983081e-08	2.499440e+01	1.298216e+03
2.210000e-06	3.351020e-06	1.958222e-08	2.417291e+01	1.281684e+03
2.220000e-06	3.235698e-06	1.931869e-08	2.334102e+01	1.264339e+03
2.230000e-06	3.118967e-06	1.904035e-08	2.249897e+01	1.246168e+03
2.240000e-06	3.001046e-06	1.874912e-08	2.164834e+01	1.227157e+03
2.250000e-06	2.882050e-06	1.844832e-08	2.078994e+01	1.207288e+03
2.260000e-06	2.761862e-06	1.813486e-08	1.992296e+01	1.186516e+03
2.270000e-06	2.640565e-06	1.780327e-08	1.904797e+01	1.164769e+03
2.280000e-06	2.518407e-06	1.745654e-08	1.816677e+01	1.141942e+03
2.290000e-06	2.395446e-06	1.709030e-08	1.727978e+01	1.117908e+03
2.300000e-06	2.271554e-06	1.670292e-08	1.638608e+01	1.092529e+03
2.310000e-06	2.146704e-06	1.629335e-08	1.548546e+01	1.065666e+03
2.320000e-06	2.021059e-06	1.586316e-08	1.457910e+01	1.037195e+03
2.330000e-06	1.894834e-06	1.540415e-08	1.366857e+01	1.007004e+03
2.340000e-06	1.768125e-06	1.491333e-08	1.275454e+01	9.749885e+02
2.350000e-06	1.640793e-06	1.439241e-08	1.183602e+01	9.410400e+02
2.360000e-06	1.512793e-06	1.384116e-08	1.091268e+01	9.050327e+02
2.370000e-06	1.384244e-06	1.325863e-08	9.985380e+00	8.668156e+02
2.380000e-06	1.255230e-06	1.264205e-08	9.054726e+00	8.262152e+02
2.390000e-06	1.125816e-06	1.198521e-08	8.121186e+00	7.830543e+02
2.400000e-06	9.961129e-07	1.128426e-08	7.185556e+00	7.371837e+02
2.410000e-06	8.661401e-07	1.054210e-08	6.247985e+00	6.885235e+02
2.420000e-06	7.358953e-07	9.758989e-09	5.308452e+00	6.371034e+02
2.430000e-06	6.054468e-07	8.936892e-09	4.367449e+00	5.830919e+02
2.440000e-06	4.748511e-07	8.080218e-09	3.425384e+00	5.268045e+02
2.450000e-06	3.441249e-07	7.193337e-09	2.482378e+00	4.686823e+02
2.460000e-06	2.133063e-07	6.285198e-09	1.538705e+00	4.092442e+02
2.470000e-06	8.238966e-08	5.364174e-09	5.943258e-01	3.490148e+02
2.480000e-06	-4.866600e-08	4.437345e-09	-3.510569e-01	2.884449e+02
2.490000e-06	-1.797278e-07	3.509123e-09	-1.296484e+00	2.278374e+02
2.500000e-06	-3.107116e-07	2.582297e-09	-2.241348e+00	1.672972e+02
2.510000e-06	-4.416083e-07	1.656267e-09	-3.185584e+00	1.067172e+02
2.520000e-06	-5.723506e-07	7.273990e-10	-4.128707e+00	4.580682e+01
2.530000e-06	-7.029495e-07	-2.113017e-10	-5.070794e+00	-1.584030e+01
2.540000e-06	-8.334432e-07	-1.168505e-09	-6.012123e+00	-7.865002e+01
2.550000e-06	-9.637445e-07	-2.148913e-09	-6.952064e+00	-1.429610e+02
2.560000e-06	-1.093729e-06	-3.152995e-09	-7.889716e+00	-2.089278e+02
2.570000e-06	-1.223352e-06	-4.181220e-09	-8.824764e+00	-2.764536e+02
2.580000e-06	-1.352583e-06	-5.229860e-09	-9.756990e+00	-3.451651e+02
2.590000e-06	-1.481385e-06	-6.289550e-09	-1.068612e+01	-4.144348e+02
2.600000e-06	-1.609642e-06	-7.348016e-09	-1.161131e+01	-4.834472e+02
2.610000e-06	-1.737178e-06	-8.387976e-09	-1.253130e+01	-5.512946e+02
2.620000e-06	-1.863979e-06	-9.396256e-09	-1.344599e+01	-6.170852e+02
2.630000e-06	-1.990149e-06	-1.036049e-08	-1.435613e+01	-6.800443e+02
2.640000e-06	-2.115710e-06	-1.126957e-08	-1.526188e+01	-7.395900e+02
2.650000e-06	-2.240381e-06	-1.212083e-08	-1.616120e+01	-7.953736e+02
2.660000e-06	-2.363966e-06	-1.291420e-08	-1.705270e+01	-8.472816e+02
2.670000e-06	-2.486638e-06	-1.365211e-08	-1.793761e+01	-8.954030e+02
2.680000e-06	-2.608499e-06	-1.434071e-08	-1.881666e+01	-9.399734e+02
2.690000e-06	-2.729432e-06	-1.498079e-08	-1.968902e+01	-9.813099e+02
2.700000e-06	-2.849276e-06	-1.557389e-08	-2.055353e+01	-1.019750e+03
2.710000e-06	-2.968039e-06	-1.612571e-08	-2.141024e+01	-1.055603e+03
2.720000e-06	-3.085724e-06	-1.664096e-08	-2.225917e+01	-1.089130e+03
2.730000e-06	-3.202079e-06	-1.712061e-08	-2.309851e+01	-1.120531e+03
2.740000e-06	-3.317053e-06	-1.756761e-08	-2.392788e+01	-1.149960e+03
2.750000e-06	-3.430684e-06	-1.798677e-08	-2.474757e+01	-1.177546e+03
2.760000e-06	-3.542946e-06	-1.838108e-08	-2.555739e+01	-1.203406e+03
2.770000e-06	-3.653791e-06	-1.875295e-08	-2.635697e+01	-1.227664e+03
2.780000e-06	-3.763305e-06	-1.910444e-08	-2.714696e+01	-1.250454e+03
2.790000e-06	-3.871673e-06	-1.943536e-08	-2.792869e+01	-1.271918e+03
2.800000e-06	-3.978874e-06	-1.974458e-08	-2.870199e+01	-1.292190e+03
2.810000e-06	-4.084788e-06	-2.003655e-08	-2.946601e+01	-1.311393e+03
2.820000e-06	-4.189217e-06	-2.031522e-08	-3.021932e+01	-1.329621e+03
2.830000e-06	-4.292088e-06	-2.058023e-08	-3.096139e+01	-1.346942e+03
2.840000e-06	-4.393323e-06	-2.083043e-08	-3.169166e+01	-1.363399e+03
2.850000e-06	-4.492944e-06	-2.106700e-08	-3.241029e+01	-1.379019e+03
2.860000e-06	-4.591026e-06	-2.129263e-08	-3.311781e+01	-1.393825e+03
2.870000e-06	-4.687544e-06	-2.150818e-08	-3.381405e+01	-1.407844e+03
2.880000e-06	-4.782400e-06	-2.171182e-08	-3.449830e+01	-1.421117e+03
2.890000e-06	-4.875424e-06	-2.190507e-08	-3.516934e+01	-1.433697e+03
2.900000e-06	-4.966688e-06	-2.209003e-08	-3.582768e+01	-1.445646e+03
2.910000e-06	-5.056213e-06	-2.226590e-08	-3.647348e+01	-1.457026e+03
2.920000e-06	-5.143830e-06	-2.243389e-08	-3.710551e+01	-1.467889e+03
2.930000e-06	-5.229508e-06	-2.259397e-08	-3.772356e+01	-1.478276e+03
2.940000e-06	-5.313318e-06	-2.274430e-08	-3.832813e+01	-1.488207e+03
