# Temperatura_=_80.28
# Concentracion g/m^3_=_28200.0
# C_Vs_to_Am_M_A/Vsm_=_65563218390.804596
# pendiente_HvsI_1/m_=_3716.3
# ordenada_HvsI_A/m_=_1297.0
# frecuencia_Hz_=_302297.4223321277

Tiempo_(s)	Campo_(V.s)	Magnetizacion_(V.s)	Campo_(kA/m)	Magnetizacion_(A/m)
0.000000e+00	-6.854729e-06	-2.782290e-08	-4.951535e+01	-1.821969e+03
1.000000e-08	-6.851792e-06	-2.781664e-08	-4.949414e+01	-1.821480e+03
2.000000e-08	-6.846613e-06	-2.780488e-08	-4.945672e+01	-1.820813e+03
3.000000e-08	-6.839306e-06	-2.779304e-08	-4.940394e+01	-1.819974e+03
4.000000e-08	-6.829660e-06	-2.777949e-08	-4.933426e+01	-1.818959e+03
5.000000e-08	-6.817509e-06	-2.776221e-08	-4.924649e+01	-1.817760e+03
6.000000e-08	-6.802828e-06	-2.774230e-08	-4.914044e+01	-1.816361e+03
7.000000e-08	-6.785780e-06	-2.771442e-08	-4.901730e+01	-1.814748e+03
8.000000e-08	-6.766720e-06	-2.767808e-08	-4.887962e+01	-1.812918e+03
9.000000e-08	-6.745490e-06	-2.769592e-08	-4.872626e+01	-1.810880e+03
1.000000e-07	-6.721620e-06	-2.768533e-08	-4.855383e+01	-1.808663e+03
1.100000e-07	-6.694967e-06	-2.760399e-08	-4.836131e+01	-1.806311e+03
1.200000e-07	-6.665743e-06	-2.754484e-08	-4.815021e+01	-1.803876e+03
1.300000e-07	-6.634336e-06	-2.750513e-08	-4.792333e+01	-1.801400e+03
1.400000e-07	-6.600871e-06	-2.741971e-08	-4.768160e+01	-1.798910e+03
1.500000e-07	-6.565539e-06	-2.737533e-08	-4.742638e+01	-1.796397e+03
1.600000e-07	-6.528409e-06	-2.744195e-08	-4.715817e+01	-1.793820e+03
1.700000e-07	-6.489197e-06	-2.732591e-08	-4.687492e+01	-1.791106e+03
1.800000e-07	-6.447716e-06	-2.726514e-08	-4.657528e+01	-1.788163e+03
1.900000e-07	-6.403782e-06	-2.725712e-08	-4.625792e+01	-1.784896e+03
2.000000e-07	-6.357482e-06	-2.709209e-08	-4.592347e+01	-1.781230e+03
2.100000e-07	-6.308753e-06	-2.705618e-08	-4.557148e+01	-1.777123e+03
2.200000e-07	-6.257289e-06	-2.700394e-08	-4.519973e+01	-1.772575e+03
2.300000e-07	-6.203270e-06	-2.691702e-08	-4.480952e+01	-1.767622e+03
2.400000e-07	-6.146923e-06	-2.687604e-08	-4.440250e+01	-1.762333e+03
2.500000e-07	-6.088227e-06	-2.678097e-08	-4.397850e+01	-1.756781e+03
2.600000e-07	-6.027275e-06	-2.669682e-08	-4.353821e+01	-1.751030e+03
2.700000e-07	-5.964135e-06	-2.660355e-08	-4.308212e+01	-1.745117e+03
2.800000e-07	-5.898791e-06	-2.650600e-08	-4.261011e+01	-1.739042e+03
2.900000e-07	-5.831233e-06	-2.640514e-08	-4.212209e+01	-1.732769e+03
3.000000e-07	-5.761503e-06	-2.630015e-08	-4.161840e+01	-1.726239e+03
3.100000e-07	-5.689611e-06	-2.621775e-08	-4.109909e+01	-1.719384e+03
3.200000e-07	-5.615416e-06	-2.608579e-08	-4.056314e+01	-1.712150e+03
3.300000e-07	-5.538872e-06	-2.597395e-08	-4.001022e+01	-1.704506e+03
3.400000e-07	-5.460038e-06	-2.584902e-08	-3.944076e+01	-1.696454e+03
3.500000e-07	-5.379115e-06	-2.571672e-08	-3.885621e+01	-1.688022e+03
3.600000e-07	-5.296402e-06	-2.560049e-08	-3.825873e+01	-1.679253e+03
3.700000e-07	-5.212015e-06	-2.545833e-08	-3.764915e+01	-1.670191e+03
3.800000e-07	-5.125976e-06	-2.531989e-08	-3.702765e+01	-1.660859e+03
3.900000e-07	-5.038179e-06	-2.516292e-08	-3.639344e+01	-1.651255e+03
4.000000e-07	-4.948458e-06	-2.500455e-08	-3.574534e+01	-1.641342e+03
4.100000e-07	-4.856933e-06	-2.483974e-08	-3.508421e+01	-1.631061e+03
4.200000e-07	-4.763795e-06	-2.468203e-08	-3.441143e+01	-1.620344e+03
4.300000e-07	-4.669021e-06	-2.451829e-08	-3.372682e+01	-1.609127e+03
4.400000e-07	-4.572568e-06	-2.433531e-08	-3.303009e+01	-1.597372e+03
4.500000e-07	-4.474412e-06	-2.414958e-08	-3.232106e+01	-1.585064e+03
4.600000e-07	-4.374589e-06	-2.395508e-08	-3.159998e+01	-1.572220e+03
4.700000e-07	-4.273215e-06	-2.375399e-08	-3.086771e+01	-1.558869e+03
4.800000e-07	-4.170433e-06	-2.354065e-08	-3.012525e+01	-1.545041e+03
4.900000e-07	-4.066240e-06	-2.332157e-08	-2.937262e+01	-1.530750e+03
5.000000e-07	-3.960470e-06	-2.309289e-08	-2.860858e+01	-1.515978e+03
5.100000e-07	-3.853119e-06	-2.285702e-08	-2.783312e+01	-1.500676e+03
5.200000e-07	-3.744384e-06	-2.261181e-08	-2.704767e+01	-1.484767e+03
5.300000e-07	-3.634391e-06	-2.235565e-08	-2.625314e+01	-1.468162e+03
5.400000e-07	-3.523092e-06	-2.208986e-08	-2.544917e+01	-1.450776e+03
5.500000e-07	-3.410434e-06	-2.181109e-08	-2.463538e+01	-1.432544e+03
5.600000e-07	-3.296332e-06	-2.152066e-08	-2.381116e+01	-1.413431e+03
5.700000e-07	-3.180707e-06	-2.121511e-08	-2.297594e+01	-1.393428e+03
5.800000e-07	-3.063786e-06	-2.089435e-08	-2.213136e+01	-1.372541e+03
5.900000e-07	-2.945803e-06	-2.055766e-08	-2.127910e+01	-1.350769e+03
6.000000e-07	-2.826770e-06	-2.021026e-08	-2.041926e+01	-1.328089e+03
6.100000e-07	-2.706675e-06	-1.984803e-08	-1.955175e+01	-1.304440e+03
6.200000e-07	-2.585501e-06	-1.946935e-08	-1.867645e+01	-1.279712e+03
6.300000e-07	-2.463350e-06	-1.907239e-08	-1.779409e+01	-1.253763e+03
6.400000e-07	-2.340272e-06	-1.865437e-08	-1.690503e+01	-1.226425e+03
6.500000e-07	-2.216272e-06	-1.821127e-08	-1.600931e+01	-1.197532e+03
6.600000e-07	-2.091516e-06	-1.774205e-08	-1.510813e+01	-1.166935e+03
6.700000e-07	-1.966133e-06	-1.724830e-08	-1.420243e+01	-1.134510e+03
6.800000e-07	-1.840117e-06	-1.672726e-08	-1.329215e+01	-1.100161e+03
6.900000e-07	-1.713491e-06	-1.617740e-08	-1.237745e+01	-1.063796e+03
7.000000e-07	-1.586322e-06	-1.559230e-08	-1.145885e+01	-1.025313e+03
7.100000e-07	-1.458622e-06	-1.497012e-08	-1.053641e+01	-9.845719e+02
7.200000e-07	-1.330434e-06	-1.430913e-08	-9.610434e+00	-9.413898e+02
7.300000e-07	-1.201811e-06	-1.360709e-08	-8.681322e+00	-8.955439e+02
7.400000e-07	-1.072768e-06	-1.285929e-08	-7.749175e+00	-8.468016e+02
7.500000e-07	-9.433199e-07	-1.206563e-08	-6.814101e+00	-7.949671e+02
7.600000e-07	-8.135236e-07	-1.122586e-08	-5.876514e+00	-7.399362e+02
7.700000e-07	-6.834233e-07	-1.033885e-08	-4.936730e+00	-6.817476e+02
7.800000e-07	-5.530601e-07	-9.407787e-09	-3.995047e+00	-6.206134e+02
7.900000e-07	-4.225518e-07	-8.439480e-09	-3.052317e+00	-5.569190e+02
8.000000e-07	-2.919435e-07	-7.440368e-09	-2.108863e+00	-4.911865e+02
8.100000e-07	-1.612148e-07	-6.416539e-09	-1.164540e+00	-4.240039e+02
8.200000e-07	-3.034992e-08	-5.378481e-09	-2.192336e-01	-3.559328e+02
8.300000e-07	1.005564e-07	-4.333157e-09	7.263727e-01	-2.874130e+02
8.400000e-07	2.314058e-07	-3.285396e-09	1.671567e+00	-2.186853e+02
8.500000e-07	3.621911e-07	-2.235253e-09	2.616299e+00	-1.497520e+02
8.600000e-07	4.928598e-07	-1.179310e-09	3.560188e+00	-8.038619e+01
8.700000e-07	6.234328e-07	-1.127364e-10	4.503386e+00	-1.019281e+01
8.800000e-07	7.538470e-07	9.736894e-10	5.445437e+00	6.128860e+01
8.900000e-07	8.839245e-07	2.087639e-09	6.385057e+00	1.344588e+02
9.000000e-07	1.013673e-06	3.233157e-09	7.322296e+00	2.095362e+02
9.100000e-07	1.143094e-06	4.408534e-09	8.257177e+00	2.864615e+02
9.200000e-07	1.272079e-06	5.606032e-09	9.188906e+00	3.648508e+02
9.300000e-07	1.400595e-06	6.815602e-09	1.011724e+01	4.440064e+02
9.400000e-07	1.528637e-06	8.021225e-09	1.104216e+01	5.229840e+02
9.500000e-07	1.656156e-06	9.205973e-09	1.196329e+01	6.007035e+02
9.600000e-07	1.782993e-06	1.035210e-08	1.287950e+01	6.760818e+02
9.700000e-07	1.909132e-06	1.144306e-08	1.379068e+01	7.481620e+02
9.800000e-07	2.034686e-06	1.247171e-08	1.469762e+01	8.162163e+02
9.900000e-07	2.159601e-06	1.343429e-08	1.559995e+01	8.798054e+02
1.000000e-06	2.283819e-06	1.432850e-08	1.649724e+01	9.387884e+02
1.010000e-06	2.407194e-06	1.515495e-08	1.738844e+01	9.932857e+02
1.020000e-06	2.529510e-06	1.592111e-08	1.827199e+01	1.043610e+03
1.030000e-06	2.650799e-06	1.662941e-08	1.914813e+01	1.090177e+03
1.040000e-06	2.771120e-06	1.728467e-08	2.001727e+01	1.133430e+03
1.050000e-06	2.890331e-06	1.789575e-08	2.087840e+01	1.173765e+03
1.060000e-06	3.008459e-06	1.846628e-08	2.173170e+01	1.211504e+03
1.070000e-06	3.125520e-06	1.900323e-08	2.257729e+01	1.246881e+03
1.080000e-06	3.241371e-06	1.950632e-08	2.341415e+01	1.280060e+03
1.090000e-06	3.355909e-06	1.997725e-08	2.424152e+01	1.311161e+03
1.100000e-06	3.469137e-06	2.041895e-08	2.505942e+01	1.340296e+03
1.110000e-06	3.581011e-06	2.083382e-08	2.586755e+01	1.367591e+03
1.120000e-06	3.691556e-06	2.122426e-08	2.666607e+01	1.393192e+03
1.130000e-06	3.800922e-06	2.159244e-08	2.745608e+01	1.417269e+03
1.140000e-06	3.909103e-06	2.193887e-08	2.823753e+01	1.439996e+03
1.150000e-06	4.015941e-06	2.226694e-08	2.900928e+01	1.461532e+03
1.160000e-06	4.121291e-06	2.257928e-08	2.977027e+01	1.482008e+03
1.170000e-06	4.225103e-06	2.287746e-08	3.052016e+01	1.501515e+03
1.180000e-06	4.327396e-06	2.316130e-08	3.125908e+01	1.520106e+03
1.190000e-06	4.428249e-06	2.342971e-08	3.198760e+01	1.537805e+03
1.200000e-06	4.527527e-06	2.368324e-08	3.270473e+01	1.554622e+03
1.210000e-06	4.625052e-06	2.392188e-08	3.340921e+01	1.570570e+03
1.220000e-06	4.720837e-06	2.414965e-08	3.410112e+01	1.585678e+03
1.230000e-06	4.814927e-06	2.436701e-08	3.478078e+01	1.599991e+03
1.240000e-06	4.907416e-06	2.457427e-08	3.544887e+01	1.613574e+03
1.250000e-06	4.998186e-06	2.477106e-08	3.610455e+01	1.626496e+03
1.260000e-06	5.087045e-06	2.495822e-08	3.674643e+01	1.638826e+03
1.270000e-06	5.173986e-06	2.513711e-08	3.737445e+01	1.650618e+03
1.280000e-06	5.259142e-06	2.530773e-08	3.798958e+01	1.661908e+03
1.290000e-06	5.342535e-06	2.546948e-08	3.859197e+01	1.672713e+03
1.300000e-06	5.423998e-06	2.562493e-08	3.918042e+01	1.683036e+03
1.310000e-06	5.503398e-06	2.577529e-08	3.975397e+01	1.692874e+03
1.320000e-06	5.580727e-06	2.592056e-08	4.031256e+01	1.702225e+03
1.330000e-06	5.655948e-06	2.605775e-08	4.085592e+01	1.711096e+03
1.340000e-06	5.728951e-06	2.618636e-08	4.138326e+01	1.719504e+03
1.350000e-06	5.799834e-06	2.630943e-08	4.189528e+01	1.727474e+03
1.360000e-06	5.868715e-06	2.642587e-08	4.239285e+01	1.735031e+03
1.370000e-06	5.935462e-06	2.653709e-08	4.287499e+01	1.742198e+03
1.380000e-06	5.999967e-06	2.664351e-08	4.334096e+01	1.748992e+03
1.390000e-06	6.062404e-06	2.674343e-08	4.379196e+01	1.755422e+03
1.400000e-06	6.122888e-06	2.683554e-08	4.422887e+01	1.761489e+03
1.410000e-06	6.181246e-06	2.692060e-08	4.465043e+01	1.767197e+03
1.420000e-06	6.237362e-06	2.700059e-08	4.505578e+01	1.772552e+03
1.430000e-06	6.291241e-06	2.707587e-08	4.544498e+01	1.777572e+03
1.440000e-06	6.342613e-06	2.714728e-08	4.581607e+01	1.782281e+03
1.450000e-06	6.391344e-06	2.721565e-08	4.616807e+01	1.786713e+03
1.460000e-06	6.437653e-06	2.728054e-08	4.650259e+01	1.790900e+03
1.470000e-06	6.481757e-06	2.734118e-08	4.682118e+01	1.794869e+03
1.480000e-06	6.523532e-06	2.739789e-08	4.712294e+01	1.798631e+03
1.490000e-06	6.562900e-06	2.745254e-08	4.740732e+01	1.802185e+03
1.500000e-06	6.600086e-06	2.750458e-08	4.767593e+01	1.805514e+03
1.510000e-06	6.635072e-06	2.755132e-08	4.792865e+01	1.808590e+03
1.520000e-06	6.667633e-06	2.759298e-08	4.816386e+01	1.811387e+03
1.530000e-06	6.697790e-06	2.762950e-08	4.838170e+01	1.813884e+03
1.540000e-06	6.725686e-06	2.766214e-08	4.858321e+01	1.816071e+03
1.550000e-06	6.751102e-06	2.769120e-08	4.876680e+01	1.817955e+03
1.560000e-06	6.773914e-06	2.771672e-08	4.893159e+01	1.819557e+03
1.570000e-06	6.794424e-06	2.773821e-08	4.907974e+01	1.820905e+03
1.580000e-06	6.812599e-06	2.775500e-08	4.921102e+01	1.822028e+03
1.590000e-06	6.828189e-06	2.776696e-08	4.932364e+01	1.822949e+03
1.600000e-06	6.841272e-06	2.777429e-08	4.941815e+01	1.823683e+03
1.610000e-06	6.851682e-06	2.778111e-08	4.949334e+01	1.824232e+03
1.620000e-06	6.859313e-06	2.778786e-08	4.954847e+01	1.824594e+03
1.630000e-06	6.864521e-06	2.779452e-08	4.958609e+01	1.824762e+03
1.640000e-06	6.867348e-06	2.779928e-08	4.960651e+01	1.824733e+03
1.650000e-06	6.867679e-06	2.780046e-08	4.960890e+01	1.824506e+03
1.660000e-06	6.865684e-06	2.779079e-08	4.959448e+01	1.824089e+03
1.670000e-06	6.861564e-06	2.777497e-08	4.956472e+01	1.823491e+03
1.680000e-06	6.855103e-06	2.775945e-08	4.951805e+01	1.822718e+03
1.690000e-06	6.846279e-06	2.774362e-08	4.945431e+01	1.821773e+03
1.700000e-06	6.835255e-06	2.772935e-08	4.937468e+01	1.820647e+03
1.710000e-06	6.821821e-06	2.771508e-08	4.927764e+01	1.819328e+03
1.720000e-06	6.806017e-06	2.770610e-08	4.916348e+01	1.817800e+03
1.730000e-06	6.788152e-06	2.768430e-08	4.903443e+01	1.816055e+03
1.740000e-06	6.768185e-06	2.758577e-08	4.889020e+01	1.814095e+03
1.750000e-06	6.745314e-06	2.754598e-08	4.872499e+01	1.811944e+03
1.760000e-06	6.719148e-06	2.755577e-08	4.853598e+01	1.809639e+03
1.770000e-06	6.690232e-06	2.751687e-08	4.832710e+01	1.807230e+03
1.780000e-06	6.659077e-06	2.750545e-08	4.810205e+01	1.804765e+03
1.790000e-06	6.626223e-06	2.752100e-08	4.786473e+01	1.802279e+03
1.800000e-06	6.591999e-06	2.737477e-08	4.761751e+01	1.799778e+03
1.810000e-06	6.555721e-06	2.734470e-08	4.735546e+01	1.797233e+03
1.820000e-06	6.516880e-06	2.738139e-08	4.707489e+01	1.794583e+03
1.830000e-06	6.475907e-06	2.727033e-08	4.677892e+01	1.791741e+03
1.840000e-06	6.432806e-06	2.735855e-08	4.646758e+01	1.788611e+03
1.850000e-06	6.387346e-06	2.728537e-08	4.613919e+01	1.785109e+03
1.860000e-06	6.339490e-06	2.716699e-08	4.579351e+01	1.781177e+03
1.870000e-06	6.289207e-06	2.717000e-08	4.543028e+01	1.776799e+03
1.880000e-06	6.236582e-06	2.700264e-08	4.505015e+01	1.771998e+03
1.890000e-06	6.181356e-06	2.697224e-08	4.465122e+01	1.766832e+03
1.900000e-06	6.123595e-06	2.688575e-08	4.423398e+01	1.761374e+03
1.910000e-06	6.063675e-06	2.677453e-08	4.380115e+01	1.755694e+03
1.920000e-06	6.001398e-06	2.676188e-08	4.335129e+01	1.749843e+03
1.930000e-06	5.936844e-06	2.661510e-08	4.288498e+01	1.743834e+03
1.940000e-06	5.870191e-06	2.655704e-08	4.240351e+01	1.737644e+03
1.950000e-06	5.801349e-06	2.641315e-08	4.190623e+01	1.731222e+03
1.960000e-06	5.730191e-06	2.630171e-08	4.139222e+01	1.724502e+03
1.970000e-06	5.656749e-06	2.622220e-08	4.086171e+01	1.717422e+03
1.980000e-06	5.581175e-06	2.606712e-08	4.031579e+01	1.709940e+03
1.990000e-06	5.503300e-06	2.600120e-08	3.975326e+01	1.702046e+03
2.000000e-06	5.423325e-06	2.585064e-08	3.917556e+01	1.693758e+03
2.010000e-06	5.341492e-06	2.573270e-08	3.858444e+01	1.685115e+03
2.020000e-06	5.257781e-06	2.558872e-08	3.797975e+01	1.676164e+03
2.030000e-06	5.172149e-06	2.543616e-08	3.736118e+01	1.666936e+03
2.040000e-06	5.084520e-06	2.531820e-08	3.672819e+01	1.657441e+03
2.050000e-06	4.995168e-06	2.515557e-08	3.608275e+01	1.647655e+03
2.060000e-06	4.904248e-06	2.501270e-08	3.542599e+01	1.637526e+03
2.070000e-06	4.811692e-06	2.482755e-08	3.475741e+01	1.626988e+03
2.080000e-06	4.717327e-06	2.466438e-08	3.407576e+01	1.615974e+03
2.090000e-06	4.621171e-06	2.448351e-08	3.338117e+01	1.604433e+03
2.100000e-06	4.523483e-06	2.430307e-08	3.267553e+01	1.592341e+03
2.110000e-06	4.424392e-06	2.412454e-08	3.195973e+01	1.579704e+03
2.120000e-06	4.323808e-06	2.392502e-08	3.123317e+01	1.566548e+03
2.130000e-06	4.221565e-06	2.371828e-08	3.049461e+01	1.552904e+03
2.140000e-06	4.117683e-06	2.349021e-08	2.974421e+01	1.538795e+03
2.150000e-06	4.012261e-06	2.327238e-08	2.898269e+01	1.524216e+03
2.160000e-06	3.905478e-06	2.303982e-08	2.821134e+01	1.509130e+03
2.170000e-06	3.797417e-06	2.280660e-08	2.743076e+01	1.493469e+03
2.180000e-06	3.688021e-06	2.255517e-08	2.664054e+01	1.477148e+03
2.190000e-06	3.577184e-06	2.229727e-08	2.583991e+01	1.460077e+03
2.200000e-06	3.464892e-06	2.202578e-08	2.502876e+01	1.442182e+03
2.210000e-06	3.351151e-06	2.174194e-08	2.420714e+01	1.423418e+03
2.220000e-06	3.236059e-06	2.144726e-08	2.337578e+01	1.403764e+03
2.230000e-06	3.119684e-06	2.113762e-08	2.253514e+01	1.383223e+03
2.240000e-06	3.001978e-06	2.081439e-08	2.168488e+01	1.361799e+03
2.250000e-06	2.883072e-06	2.047288e-08	2.082596e+01	1.339481e+03
2.260000e-06	2.763050e-06	2.011885e-08	1.995898e+01	1.316222e+03
2.270000e-06	2.641964e-06	1.974551e-08	1.908431e+01	1.291933e+03
2.280000e-06	2.519946e-06	1.935756e-08	1.820291e+01	1.266482e+03
2.290000e-06	2.397072e-06	1.894920e-08	1.731533e+01	1.239710e+03
2.300000e-06	2.273410e-06	1.852112e-08	1.642205e+01	1.211447e+03
2.310000e-06	2.149037e-06	1.806495e-08	1.552364e+01	1.181535e+03
2.320000e-06	2.023917e-06	1.758241e-08	1.461983e+01	1.149841e+03
2.330000e-06	1.898030e-06	1.707020e-08	1.371048e+01	1.116258e+03
2.340000e-06	1.771414e-06	1.652727e-08	1.279586e+01	1.080695e+03
2.350000e-06	1.644138e-06	1.595470e-08	1.187648e+01	1.043058e+03
2.360000e-06	1.516256e-06	1.534908e-08	1.095272e+01	1.003223e+03
2.370000e-06	1.387830e-06	1.470744e-08	1.002503e+01	9.610243e+02
2.380000e-06	1.258976e-06	1.402354e-08	9.094253e+00	9.162525e+02
2.390000e-06	1.129769e-06	1.329639e-08	8.160919e+00	8.686742e+02
2.400000e-06	1.000234e-06	1.252074e-08	7.225225e+00	8.180728e+02
2.410000e-06	8.703704e-07	1.169851e-08	6.287148e+00	7.643015e+02
2.420000e-06	7.402816e-07	1.083204e-08	5.347447e+00	7.073377e+02
2.430000e-06	6.100147e-07	9.921315e-09	4.406461e+00	6.473235e+02
2.440000e-06	4.795250e-07	8.969095e-09	3.463864e+00	5.845784e+02
2.450000e-06	3.489193e-07	7.979822e-09	2.520430e+00	5.195779e+02
2.460000e-06	2.181743e-07	6.962827e-09	1.575989e+00	4.528939e+02
2.470000e-06	8.723855e-08	5.926049e-09	6.301705e-01	3.851103e+02
2.480000e-06	-4.375047e-08	4.876956e-09	-3.160329e-01	3.167252e+02
2.490000e-06	-1.746478e-07	3.821618e-09	-1.261574e+00	2.480649e+02
2.500000e-06	-3.054791e-07	2.763321e-09	-2.206638e+00	1.792272e+02
2.510000e-06	-4.363073e-07	1.703514e-09	-3.151680e+00	1.100706e+02
2.520000e-06	-5.670439e-07	6.379739e-10	-4.096059e+00	4.025585e+01
2.530000e-06	-6.975706e-07	-4.420045e-10	-5.038924e+00	-3.066599e+01
2.540000e-06	-8.278807e-07	-1.543305e-09	-5.980222e+00	-1.031345e+02
2.550000e-06	-9.579639e-07	-2.670910e-09	-6.919883e+00	-1.774531e+02
2.560000e-06	-1.087788e-06	-3.827602e-09	-7.857669e+00	-2.536802e+02
2.570000e-06	-1.217274e-06	-5.013083e-09	-8.793015e+00	-3.315616e+02
2.580000e-06	-1.346290e-06	-6.220367e-09	-9.724966e+00	-4.105177e+02
2.590000e-06	-1.474870e-06	-7.435383e-09	-1.065377e+01	-4.896898e+02
2.600000e-06	-1.602983e-06	-8.639512e-09	-1.157920e+01	-5.680360e+02
2.610000e-06	-1.730440e-06	-9.812895e-09	-1.249989e+01	-6.444582e+02
2.620000e-06	-1.857191e-06	-1.093829e-08	-1.341548e+01	-7.179358e+02
2.630000e-06	-1.983192e-06	-1.200186e-08	-1.432565e+01	-7.876412e+02
2.640000e-06	-2.108343e-06	-1.299783e-08	-1.522968e+01	-8.530179e+02
2.650000e-06	-2.232705e-06	-1.392547e-08	-1.612802e+01	-9.138097e+02
2.660000e-06	-2.356220e-06	-1.478514e-08	-1.702023e+01	-9.700412e+02
2.670000e-06	-2.478760e-06	-1.558114e-08	-1.790540e+01	-1.021959e+03
2.680000e-06	-2.600431e-06	-1.632089e-08	-1.878429e+01	-1.069950e+03
2.690000e-06	-2.721270e-06	-1.700897e-08	-1.965718e+01	-1.114454e+03
2.700000e-06	-2.841050e-06	-1.764953e-08	-2.052241e+01	-1.155893e+03
2.710000e-06	-2.959635e-06	-1.824607e-08	-2.137901e+01	-1.194620e+03
2.720000e-06	-3.077022e-06	-1.880319e-08	-2.222697e+01	-1.230903e+03
2.730000e-06	-3.193183e-06	-1.932437e-08	-2.306606e+01	-1.264929e+03
2.740000e-06	-3.308074e-06	-1.980922e-08	-2.389598e+01	-1.296833e+03
2.750000e-06	-3.421592e-06	-2.026113e-08	-2.471598e+01	-1.326728e+03
2.760000e-06	-3.533739e-06	-2.068541e-08	-2.552608e+01	-1.354729e+03
2.770000e-06	-3.644485e-06	-2.108533e-08	-2.632605e+01	-1.380977e+03
2.780000e-06	-3.753913e-06	-2.146520e-08	-2.711651e+01	-1.405633e+03
2.790000e-06	-3.862164e-06	-2.182545e-08	-2.789846e+01	-1.428870e+03
2.800000e-06	-3.969135e-06	-2.216466e-08	-2.867117e+01	-1.450857e+03
2.810000e-06	-4.074811e-06	-2.248454e-08	-2.943453e+01	-1.471737e+03
2.820000e-06	-4.179093e-06	-2.278677e-08	-3.018781e+01	-1.491617e+03
2.830000e-06	-4.281722e-06	-2.307460e-08	-3.092915e+01	-1.510564e+03
2.840000e-06	-4.382753e-06	-2.335034e-08	-3.165895e+01	-1.528612e+03
2.850000e-06	-4.482324e-06	-2.361242e-08	-3.237821e+01	-1.545774e+03
2.860000e-06	-4.580404e-06	-2.386005e-08	-3.308670e+01	-1.562062e+03
2.870000e-06	-4.676909e-06	-2.409365e-08	-3.378380e+01	-1.577496e+03
2.880000e-06	-4.771663e-06	-2.431604e-08	-3.446826e+01	-1.592115e+03
2.890000e-06	-4.864658e-06	-2.453126e-08	-3.514001e+01	-1.605977e+03
2.900000e-06	-4.955898e-06	-2.473856e-08	-3.579908e+01	-1.619150e+03
2.910000e-06	-5.045418e-06	-2.493615e-08	-3.644573e+01	-1.631706e+03
2.920000e-06	-5.133056e-06	-2.512402e-08	-3.707879e+01	-1.643704e+03
2.930000e-06	-5.218695e-06	-2.530044e-08	-3.769741e+01	-1.655189e+03
2.940000e-06	-5.302513e-06	-2.546581e-08	-3.830287e+01	-1.666185e+03
