# Temperatura_=_68.19
# Concentracion g/m^3_=_28200.0
# C_Vs_to_Am_M_A/Vsm_=_65563218390.804596
# pendiente_HvsI_1/m_=_3716.3
# ordenada_HvsI_A/m_=_1297.0
# frecuencia_Hz_=_302304.27415473276

Tiempo_(s)	Campo_(V.s)	Magnetizacion_(V.s)	Campo_(kA/m)	Magnetizacion_(A/m)
0.000000e+00	-6.886939e-06	-2.593963e-08	-4.952121e+01	-1.698692e+03
1.000000e-08	-6.884718e-06	-2.593318e-08	-4.950524e+01	-1.698299e+03
2.000000e-08	-6.880116e-06	-2.592510e-08	-4.947215e+01	-1.697748e+03
3.000000e-08	-6.873380e-06	-2.591395e-08	-4.942372e+01	-1.697044e+03
4.000000e-08	-6.864390e-06	-2.590455e-08	-4.935907e+01	-1.696190e+03
5.000000e-08	-6.852919e-06	-2.589068e-08	-4.927659e+01	-1.695178e+03
6.000000e-08	-6.838819e-06	-2.587373e-08	-4.917520e+01	-1.693997e+03
7.000000e-08	-6.822239e-06	-2.584834e-08	-4.905598e+01	-1.692630e+03
8.000000e-08	-6.803616e-06	-2.581284e-08	-4.892207e+01	-1.691071e+03
9.000000e-08	-6.782863e-06	-2.582007e-08	-4.877285e+01	-1.689319e+03
1.000000e-07	-6.759577e-06	-2.584389e-08	-4.860541e+01	-1.687393e+03
1.100000e-07	-6.733495e-06	-2.576695e-08	-4.841786e+01	-1.685323e+03
1.200000e-07	-6.704773e-06	-2.569003e-08	-4.821133e+01	-1.683152e+03
1.300000e-07	-6.673840e-06	-2.566748e-08	-4.798891e+01	-1.680920e+03
1.400000e-07	-6.640725e-06	-2.560376e-08	-4.775079e+01	-1.678654e+03
1.500000e-07	-6.605635e-06	-2.551503e-08	-4.749847e+01	-1.676362e+03
1.600000e-07	-6.568805e-06	-2.558901e-08	-4.723364e+01	-1.674019e+03
1.700000e-07	-6.529947e-06	-2.555511e-08	-4.695423e+01	-1.671574e+03
1.800000e-07	-6.488847e-06	-2.540680e-08	-4.665870e+01	-1.668953e+03
1.900000e-07	-6.445281e-06	-2.545236e-08	-4.634543e+01	-1.666078e+03
2.000000e-07	-6.399232e-06	-2.533551e-08	-4.601431e+01	-1.662876e+03
2.100000e-07	-6.350816e-06	-2.525362e-08	-4.566617e+01	-1.659300e+03
2.200000e-07	-6.299762e-06	-2.525137e-08	-4.529906e+01	-1.655337e+03
2.300000e-07	-6.246141e-06	-2.513432e-08	-4.491350e+01	-1.651006e+03
2.400000e-07	-6.190231e-06	-2.509394e-08	-4.451147e+01	-1.646355e+03
2.500000e-07	-6.131893e-06	-2.502016e-08	-4.409198e+01	-1.641448e+03
2.600000e-07	-6.071196e-06	-2.494235e-08	-4.365553e+01	-1.636343e+03
2.700000e-07	-6.008346e-06	-2.486926e-08	-4.320361e+01	-1.631079e+03
2.800000e-07	-5.943261e-06	-2.477587e-08	-4.273561e+01	-1.625668e+03
2.900000e-07	-5.875932e-06	-2.469726e-08	-4.225147e+01	-1.620087e+03
3.000000e-07	-5.806366e-06	-2.458784e-08	-4.175125e+01	-1.614292e+03
3.100000e-07	-5.734626e-06	-2.451295e-08	-4.123539e+01	-1.608224e+03
3.200000e-07	-5.660661e-06	-2.441481e-08	-4.070354e+01	-1.601828e+03
3.300000e-07	-5.584345e-06	-2.431034e-08	-4.015478e+01	-1.595067e+03
3.400000e-07	-5.505741e-06	-2.420506e-08	-3.958957e+01	-1.587931e+03
3.500000e-07	-5.424967e-06	-2.406707e-08	-3.900876e+01	-1.580433e+03
3.600000e-07	-5.342303e-06	-2.396532e-08	-3.841435e+01	-1.572606e+03
3.700000e-07	-5.257889e-06	-2.384300e-08	-3.780737e+01	-1.564489e+03
3.800000e-07	-5.171758e-06	-2.371482e-08	-3.718803e+01	-1.556106e+03
3.900000e-07	-5.083965e-06	-2.358468e-08	-3.655675e+01	-1.547465e+03
4.000000e-07	-4.994340e-06	-2.344032e-08	-3.591230e+01	-1.538543e+03
4.100000e-07	-4.902863e-06	-2.329233e-08	-3.525452e+01	-1.529294e+03
4.200000e-07	-4.809744e-06	-2.314203e-08	-3.458494e+01	-1.519659e+03
4.300000e-07	-4.715061e-06	-2.300023e-08	-3.390411e+01	-1.509578e+03
4.400000e-07	-4.618656e-06	-2.283741e-08	-3.321090e+01	-1.499005e+03
4.500000e-07	-4.520464e-06	-2.266751e-08	-3.250484e+01	-1.487918e+03
4.600000e-07	-4.420594e-06	-2.249356e-08	-3.178672e+01	-1.476320e+03
4.700000e-07	-4.319135e-06	-2.230730e-08	-3.105717e+01	-1.464232e+03
4.800000e-07	-4.216264e-06	-2.211628e-08	-3.031746e+01	-1.451680e+03
4.900000e-07	-4.111951e-06	-2.191970e-08	-2.956739e+01	-1.438682e+03
5.000000e-07	-4.006051e-06	-2.171537e-08	-2.880590e+01	-1.425233e+03
5.100000e-07	-3.898587e-06	-2.149576e-08	-2.803317e+01	-1.411299e+03
5.200000e-07	-3.789707e-06	-2.126955e-08	-2.725026e+01	-1.396819e+03
5.300000e-07	-3.679579e-06	-2.103555e-08	-2.645838e+01	-1.381713e+03
5.400000e-07	-3.568191e-06	-2.079152e-08	-2.565743e+01	-1.365900e+03
5.500000e-07	-3.455373e-06	-2.053659e-08	-2.484620e+01	-1.349308e+03
5.600000e-07	-3.341000e-06	-2.027114e-08	-2.402379e+01	-1.331889e+03
5.700000e-07	-3.225112e-06	-1.999514e-08	-2.319049e+01	-1.313619e+03
5.800000e-07	-3.107919e-06	-1.970171e-08	-2.234779e+01	-1.294492e+03
5.900000e-07	-2.989652e-06	-1.939374e-08	-2.149739e+01	-1.274503e+03
6.000000e-07	-2.870383e-06	-1.907336e-08	-2.063977e+01	-1.253637e+03
6.100000e-07	-2.750053e-06	-1.873975e-08	-1.977453e+01	-1.231848e+03
6.200000e-07	-2.628659e-06	-1.838781e-08	-1.890163e+01	-1.209055e+03
6.300000e-07	-2.506201e-06	-1.801912e-08	-1.802108e+01	-1.185140e+03
6.400000e-07	-2.382717e-06	-1.763386e-08	-1.713316e+01	-1.159956e+03
6.500000e-07	-2.258360e-06	-1.722589e-08	-1.623896e+01	-1.133351e+03
6.600000e-07	-2.133240e-06	-1.679577e-08	-1.533927e+01	-1.105175e+03
6.700000e-07	-2.007479e-06	-1.634095e-08	-1.443498e+01	-1.075299e+03
6.800000e-07	-1.881142e-06	-1.585998e-08	-1.352654e+01	-1.043612e+03
6.900000e-07	-1.754200e-06	-1.535039e-08	-1.261375e+01	-1.010016e+03
7.000000e-07	-1.626537e-06	-1.480976e-08	-1.169578e+01	-9.744088e+02
7.100000e-07	-1.498214e-06	-1.423444e-08	-1.077306e+01	-9.366656e+02
7.200000e-07	-1.369455e-06	-1.362190e-08	-9.847198e+00	-8.966294e+02
7.300000e-07	-1.240289e-06	-1.297137e-08	-8.918422e+00	-8.541121e+02
7.400000e-07	-1.110709e-06	-1.227822e-08	-7.986664e+00	-8.089144e+02
7.500000e-07	-9.807429e-07	-1.154097e-08	-7.052129e+00	-7.608617e+02
7.600000e-07	-8.504390e-07	-1.076029e-08	-6.115165e+00	-7.098512e+02
7.700000e-07	-7.198175e-07	-9.940037e-09	-5.175918e+00	-6.558986e+02
7.800000e-07	-5.889439e-07	-9.078679e-09	-4.234859e+00	-5.991709e+02
7.900000e-07	-4.578734e-07	-8.179738e-09	-3.292384e+00	-5.399961e+02
8.000000e-07	-3.266311e-07	-7.249121e-09	-2.348673e+00	-4.788390e+02
8.100000e-07	-1.952704e-07	-6.295310e-09	-1.404111e+00	-4.162471e+02
8.200000e-07	-6.381381e-08	-5.327836e-09	-4.588595e-01	-3.527709e+02
8.300000e-07	6.770581e-08	-4.353144e-09	4.868453e-01	-2.888761e+02
8.400000e-07	1.992752e-07	-3.377661e-09	1.432908e+00	-2.248639e+02
8.500000e-07	3.307967e-07	-2.401416e-09	2.378627e+00	-1.608203e+02
8.600000e-07	4.622203e-07	-1.425124e-09	3.323640e+00	-9.660645e+01
8.700000e-07	5.935096e-07	-4.426858e-10	4.267689e+00	-3.189583e+01
8.800000e-07	7.245547e-07	5.557272e-10	5.209982e+00	3.374510e+01
8.900000e-07	8.553458e-07	1.576192e-09	6.150448e+00	1.007478e+02
9.000000e-07	9.858125e-07	2.621207e-09	7.088582e+00	1.694248e+02
9.100000e-07	1.115905e-06	3.693324e-09	8.024026e+00	2.398678e+02
9.200000e-07	1.245608e-06	4.793115e-09	8.956670e+00	3.118824e+02
9.300000e-07	1.374895e-06	5.911531e-09	9.886317e+00	3.849725e+02
9.400000e-07	1.503709e-06	7.035541e-09	1.081257e+01	4.583779e+02
9.500000e-07	1.631951e-06	8.148306e-09	1.173471e+01	5.311586e+02
9.600000e-07	1.759537e-06	9.231852e-09	1.265212e+01	6.023081e+02
9.700000e-07	1.886430e-06	1.027117e-08	1.356456e+01	6.708757e+02
9.800000e-07	2.012612e-06	1.125719e-08	1.447189e+01	7.360742e+02
9.900000e-07	2.138101e-06	1.218378e-08	1.537423e+01	7.973550e+02
1.000000e-06	2.262932e-06	1.304724e-08	1.627183e+01	8.544408e+02
1.010000e-06	2.386976e-06	1.384899e-08	1.716379e+01	9.073130e+02
1.020000e-06	2.510087e-06	1.459348e-08	1.804903e+01	9.561636e+02
1.030000e-06	2.632267e-06	1.528156e-08	1.892758e+01	1.001323e+03
1.040000e-06	2.753480e-06	1.591796e-08	1.979917e+01	1.043185e+03
1.050000e-06	2.873557e-06	1.650883e-08	2.066259e+01	1.082134e+03
1.060000e-06	2.992509e-06	1.705796e-08	2.151793e+01	1.118506e+03
1.070000e-06	3.110403e-06	1.757136e-08	2.236566e+01	1.152561e+03
1.080000e-06	3.227176e-06	1.805145e-08	2.320533e+01	1.184489e+03
1.090000e-06	3.342718e-06	1.850297e-08	2.403615e+01	1.214427e+03
1.100000e-06	3.456892e-06	1.892983e-08	2.485712e+01	1.242489e+03
1.110000e-06	3.569638e-06	1.933096e-08	2.566783e+01	1.268788e+03
1.120000e-06	3.680990e-06	1.970650e-08	2.646852e+01	1.293449e+03
1.130000e-06	3.791066e-06	2.006052e-08	2.726003e+01	1.316618e+03
1.140000e-06	3.899990e-06	2.039429e-08	2.804326e+01	1.338449e+03
1.150000e-06	4.007697e-06	2.070981e-08	2.881774e+01	1.359091e+03
1.160000e-06	4.113980e-06	2.100851e-08	2.958198e+01	1.378671e+03
1.170000e-06	4.218671e-06	2.129199e-08	3.033477e+01	1.397287e+03
1.180000e-06	4.321761e-06	2.156027e-08	3.107605e+01	1.415002e+03
1.190000e-06	4.423399e-06	2.181429e-08	3.180688e+01	1.431848e+03
1.200000e-06	4.523568e-06	2.205551e-08	3.252716e+01	1.447842e+03
1.210000e-06	4.622099e-06	2.228455e-08	3.323566e+01	1.462999e+03
1.220000e-06	4.718835e-06	2.250254e-08	3.393125e+01	1.477342e+03
1.230000e-06	4.813733e-06	2.271026e-08	3.461362e+01	1.490911e+03
1.240000e-06	4.906955e-06	2.290672e-08	3.528394e+01	1.503764e+03
1.250000e-06	4.998541e-06	2.309130e-08	3.594250e+01	1.515968e+03
1.260000e-06	5.088313e-06	2.326688e-08	3.658801e+01	1.527592e+03
1.270000e-06	5.176166e-06	2.343470e-08	3.721973e+01	1.538694e+03
1.280000e-06	5.262181e-06	2.359571e-08	3.783823e+01	1.549317e+03
1.290000e-06	5.346447e-06	2.374962e-08	3.844416e+01	1.559481e+03
1.300000e-06	5.428779e-06	2.389777e-08	3.903617e+01	1.569191e+03
1.310000e-06	5.509029e-06	2.403973e-08	3.961322e+01	1.578440e+03
1.320000e-06	5.587233e-06	2.417466e-08	4.017555e+01	1.587220e+03
1.330000e-06	5.663433e-06	2.430194e-08	4.072347e+01	1.595527e+03
1.340000e-06	5.737441e-06	2.442240e-08	4.125563e+01	1.603370e+03
1.350000e-06	5.809121e-06	2.453679e-08	4.177105e+01	1.610768e+03
1.360000e-06	5.878697e-06	2.464655e-08	4.227135e+01	1.617750e+03
1.370000e-06	5.946335e-06	2.475145e-08	4.275771e+01	1.624347e+03
1.380000e-06	6.011823e-06	2.484970e-08	4.322860e+01	1.630589e+03
1.390000e-06	6.075088e-06	2.494067e-08	4.368352e+01	1.636499e+03
1.400000e-06	6.136308e-06	2.502339e-08	4.412373e+01	1.642096e+03
1.410000e-06	6.195396e-06	2.509949e-08	4.454861e+01	1.647389e+03
1.420000e-06	6.252197e-06	2.517231e-08	4.495704e+01	1.652387e+03
1.430000e-06	6.306732e-06	2.524406e-08	4.534918e+01	1.657100e+03
1.440000e-06	6.358917e-06	2.531384e-08	4.572442e+01	1.661541e+03
1.450000e-06	6.408458e-06	2.537980e-08	4.608065e+01	1.665725e+03
1.460000e-06	6.455483e-06	2.544261e-08	4.641879e+01	1.669670e+03
1.470000e-06	6.500362e-06	2.550242e-08	4.674150e+01	1.673390e+03
1.480000e-06	6.543048e-06	2.555630e-08	4.704843e+01	1.676895e+03
1.490000e-06	6.583308e-06	2.560436e-08	4.733793e+01	1.680183e+03
1.500000e-06	6.621186e-06	2.564881e-08	4.761029e+01	1.683245e+03
1.510000e-06	6.656843e-06	2.569131e-08	4.786669e+01	1.686065e+03
1.520000e-06	6.690151e-06	2.573083e-08	4.810619e+01	1.688626e+03
1.530000e-06	6.720979e-06	2.576506e-08	4.832786e+01	1.690915e+03
1.540000e-06	6.749514e-06	2.579641e-08	4.853305e+01	1.692929e+03
1.550000e-06	6.775633e-06	2.582566e-08	4.872086e+01	1.694673e+03
1.560000e-06	6.799160e-06	2.585041e-08	4.889003e+01	1.696165e+03
1.570000e-06	6.820297e-06	2.587002e-08	4.904202e+01	1.697428e+03
1.580000e-06	6.839156e-06	2.588453e-08	4.917762e+01	1.698486e+03
1.590000e-06	6.855489e-06	2.589548e-08	4.929507e+01	1.699361e+03
1.600000e-06	6.869186e-06	2.590313e-08	4.939356e+01	1.700065e+03
1.610000e-06	6.880272e-06	2.590958e-08	4.947328e+01	1.700602e+03
1.620000e-06	6.888665e-06	2.591670e-08	4.953363e+01	1.700971e+03
1.630000e-06	6.894544e-06	2.592382e-08	4.957590e+01	1.701167e+03
1.640000e-06	6.898088e-06	2.592867e-08	4.960138e+01	1.701186e+03
1.650000e-06	6.899134e-06	2.593026e-08	4.960890e+01	1.701028e+03
1.660000e-06	6.897709e-06	2.592559e-08	4.959865e+01	1.700700e+03
1.670000e-06	6.894162e-06	2.591118e-08	4.957315e+01	1.700210e+03
1.680000e-06	6.888337e-06	2.590063e-08	4.953126e+01	1.699565e+03
1.690000e-06	6.880072e-06	2.588765e-08	4.947184e+01	1.698770e+03
1.700000e-06	6.869564e-06	2.587308e-08	4.939628e+01	1.697821e+03
1.710000e-06	6.856732e-06	2.586058e-08	4.930401e+01	1.696707e+03
1.720000e-06	6.841445e-06	2.585259e-08	4.919409e+01	1.695415e+03
1.730000e-06	6.824024e-06	2.584838e-08	4.906882e+01	1.693932e+03
1.740000e-06	6.804577e-06	2.576091e-08	4.892898e+01	1.692254e+03
1.750000e-06	6.782374e-06	2.568279e-08	4.876933e+01	1.690393e+03
1.760000e-06	6.756894e-06	2.571531e-08	4.858611e+01	1.688375e+03
1.770000e-06	6.728476e-06	2.570104e-08	4.838177e+01	1.686238e+03
1.780000e-06	6.697700e-06	2.565493e-08	4.816047e+01	1.684025e+03
1.790000e-06	6.665102e-06	2.571245e-08	4.792607e+01	1.681770e+03
1.800000e-06	6.631107e-06	2.562017e-08	4.768163e+01	1.679489e+03
1.810000e-06	6.595337e-06	2.548180e-08	4.742442e+01	1.677170e+03
1.820000e-06	6.556977e-06	2.558289e-08	4.714859e+01	1.674773e+03
1.830000e-06	6.516273e-06	2.546775e-08	4.685590e+01	1.672230e+03
1.840000e-06	6.473452e-06	2.546646e-08	4.654800e+01	1.669464e+03
1.850000e-06	6.428274e-06	2.550862e-08	4.622314e+01	1.666397e+03
1.860000e-06	6.380781e-06	2.530710e-08	4.588163e+01	1.662972e+03
1.870000e-06	6.330893e-06	2.534978e-08	4.552291e+01	1.659160e+03
1.880000e-06	6.278645e-06	2.523713e-08	4.514722e+01	1.654968e+03
1.890000e-06	6.223817e-06	2.515786e-08	4.475297e+01	1.650436e+03
1.900000e-06	6.166375e-06	2.515761e-08	4.433993e+01	1.645622e+03
1.910000e-06	6.106734e-06	2.498850e-08	4.391107e+01	1.640588e+03
1.920000e-06	6.044752e-06	2.498965e-08	4.346539e+01	1.635383e+03
1.930000e-06	5.980473e-06	2.486824e-08	4.300318e+01	1.630030e+03
1.940000e-06	5.914107e-06	2.478869e-08	4.252597e+01	1.624520e+03
1.950000e-06	5.845550e-06	2.472597e-08	4.203300e+01	1.618816e+03
1.960000e-06	5.774673e-06	2.457307e-08	4.152335e+01	1.612862e+03
1.970000e-06	5.701418e-06	2.454042e-08	4.099661e+01	1.606600e+03
1.980000e-06	5.626050e-06	2.437970e-08	4.045467e+01	1.599985e+03
1.990000e-06	5.548418e-06	2.430962e-08	3.989644e+01	1.592995e+03
2.000000e-06	5.468558e-06	2.420214e-08	3.932220e+01	1.585636e+03
2.010000e-06	5.386833e-06	2.407160e-08	3.873455e+01	1.577934e+03
2.020000e-06	5.303336e-06	2.397953e-08	3.813416e+01	1.569926e+03
2.030000e-06	5.217952e-06	2.381059e-08	3.752020e+01	1.561645e+03
2.040000e-06	5.130451e-06	2.371461e-08	3.689102e+01	1.553107e+03
2.050000e-06	5.041142e-06	2.356618e-08	3.624883e+01	1.544299e+03
2.060000e-06	4.950243e-06	2.344114e-08	3.559521e+01	1.535185e+03
2.070000e-06	4.857703e-06	2.328350e-08	3.492980e+01	1.525708e+03
2.080000e-06	4.763369e-06	2.312411e-08	3.425148e+01	1.515808e+03
2.090000e-06	4.667193e-06	2.297401e-08	3.355991e+01	1.505432e+03
2.100000e-06	4.569389e-06	2.279637e-08	3.285664e+01	1.494548e+03
2.110000e-06	4.470171e-06	2.264131e-08	3.214320e+01	1.483149e+03
2.120000e-06	4.369537e-06	2.245652e-08	3.141959e+01	1.471250e+03
2.130000e-06	4.267134e-06	2.227504e-08	3.068325e+01	1.458877e+03
2.140000e-06	4.163026e-06	2.206666e-08	2.993465e+01	1.446053e+03
2.150000e-06	4.057459e-06	2.186777e-08	2.917556e+01	1.432784e+03
2.160000e-06	3.950600e-06	2.165973e-08	2.840718e+01	1.419046e+03
2.170000e-06	3.842439e-06	2.144777e-08	2.762943e+01	1.404788e+03
2.180000e-06	3.732832e-06	2.122664e-08	2.684130e+01	1.389938e+03
2.190000e-06	3.621744e-06	2.098767e-08	2.604250e+01	1.374411e+03
2.200000e-06	3.509227e-06	2.074053e-08	2.523344e+01	1.358132e+03
2.210000e-06	3.395362e-06	2.047795e-08	2.441468e+01	1.341043e+03
2.220000e-06	3.280139e-06	2.021112e-08	2.358616e+01	1.323108e+03
2.230000e-06	3.163540e-06	1.992630e-08	2.274774e+01	1.304317e+03
2.240000e-06	3.045565e-06	1.963295e-08	2.189944e+01	1.284667e+03
2.250000e-06	2.926325e-06	1.931986e-08	2.104203e+01	1.264149e+03
2.260000e-06	2.805983e-06	1.899478e-08	2.017670e+01	1.242730e+03
2.270000e-06	2.684638e-06	1.865022e-08	1.930415e+01	1.220344e+03
2.280000e-06	2.562330e-06	1.829185e-08	1.842469e+01	1.196885e+03
2.290000e-06	2.439136e-06	1.791646e-08	1.753884e+01	1.172218e+03
2.300000e-06	2.315077e-06	1.752119e-08	1.664679e+01	1.146189e+03
2.310000e-06	2.190221e-06	1.710303e-08	1.574900e+01	1.118647e+03
2.320000e-06	2.064612e-06	1.665871e-08	1.484580e+01	1.089453e+03
2.330000e-06	1.938291e-06	1.618779e-08	1.393747e+01	1.058489e+03
2.340000e-06	1.811250e-06	1.568548e-08	1.302397e+01	1.025654e+03
2.350000e-06	1.683494e-06	1.515581e-08	1.210533e+01	9.908497e+02
2.360000e-06	1.555146e-06	1.459298e-08	1.118243e+01	9.539620e+02
2.370000e-06	1.426309e-06	1.399721e-08	1.025602e+01	9.148472e+02
2.380000e-06	1.297077e-06	1.336312e-08	9.326757e+00	8.733282e+02
2.390000e-06	1.167497e-06	1.268819e-08	8.395004e+00	8.292064e+02
2.400000e-06	1.037527e-06	1.197098e-08	7.460443e+00	7.822923e+02
2.410000e-06	9.072188e-07	1.120931e-08	6.523446e+00	7.324491e+02
2.420000e-06	7.766287e-07	1.040541e-08	5.584425e+00	6.796409e+02
2.430000e-06	6.458002e-07	9.559935e-09	4.643690e+00	6.239728e+02
2.440000e-06	5.148297e-07	8.675723e-09	3.701934e+00	5.657103e+02
2.450000e-06	3.837176e-07	7.756142e-09	2.759160e+00	5.052693e+02
2.460000e-06	2.524719e-07	6.807871e-09	1.815424e+00	4.431733e+02
2.470000e-06	1.210803e-07	5.840084e-09	8.706396e-01	3.799821e+02
2.480000e-06	-1.041742e-08	4.860633e-09	-7.490751e-02	3.162048e+02
2.490000e-06	-1.418827e-07	3.878947e-09	-1.020222e+00	2.522155e+02
2.500000e-06	-2.733055e-07	2.896131e-09	-1.965230e+00	1.881884e+02
2.510000e-06	-4.046866e-07	1.912150e-09	-2.909939e+00	1.240711e+02
2.520000e-06	-5.359568e-07	9.264692e-10	-3.853850e+00	5.960327e+01
2.530000e-06	-6.670683e-07	-6.780692e-11	-4.796620e+00	-5.618297e+00
2.540000e-06	-7.979331e-07	-1.078149e-09	-5.737616e+00	-7.203997e+01
2.550000e-06	-9.285527e-07	-2.111616e-09	-6.676850e+00	-1.400344e+02
2.560000e-06	-1.058927e-06	-3.171458e-09	-7.614322e+00	-2.097904e+02
2.570000e-06	-1.188969e-06	-4.258804e-09	-8.549396e+00	-2.812306e+02
2.580000e-06	-1.318620e-06	-5.372647e-09	-9.481671e+00	-3.539760e+02
2.590000e-06	-1.447848e-06	-6.500687e-09	-1.041089e+01	-4.273623e+02
2.600000e-06	-1.576619e-06	-7.623309e-09	-1.133684e+01	-5.005078e+02
2.610000e-06	-1.704837e-06	-8.723113e-09	-1.225880e+01	-5.724176e+02
2.620000e-06	-1.832367e-06	-9.786760e-09	-1.317582e+01	-6.421048e+02
2.630000e-06	-1.959154e-06	-1.080249e-08	-1.408749e+01	-7.087070e+02
2.640000e-06	-2.085199e-06	-1.175977e-08	-1.499383e+01	-7.715756e+02
2.650000e-06	-2.210434e-06	-1.265619e-08	-1.589434e+01	-8.303255e+02
2.660000e-06	-2.334737e-06	-1.349190e-08	-1.678815e+01	-8.848407e+02
2.670000e-06	-2.458072e-06	-1.426584e-08	-1.767501e+01	-9.352381e+02
2.680000e-06	-2.580477e-06	-1.498467e-08	-1.855517e+01	-9.818030e+02
2.690000e-06	-2.701986e-06	-1.565197e-08	-1.942890e+01	-1.024913e+03
2.700000e-06	-2.822527e-06	-1.626997e-08	-2.029566e+01	-1.064963e+03
2.710000e-06	-2.941939e-06	-1.684357e-08	-2.115431e+01	-1.102313e+03
2.720000e-06	-3.060257e-06	-1.737937e-08	-2.200508e+01	-1.137252e+03
2.730000e-06	-3.177418e-06	-1.788102e-08	-2.284754e+01	-1.169997e+03
2.740000e-06	-3.293224e-06	-1.834952e-08	-2.368025e+01	-1.200703e+03
2.750000e-06	-3.407641e-06	-1.878833e-08	-2.450298e+01	-1.229490e+03
2.760000e-06	-3.520714e-06	-1.919762e-08	-2.531604e+01	-1.256467e+03
2.770000e-06	-3.632372e-06	-1.958307e-08	-2.611893e+01	-1.281755e+03
2.780000e-06	-3.742584e-06	-1.994932e-08	-2.691142e+01	-1.305493e+03
2.790000e-06	-3.851556e-06	-2.029504e-08	-2.769499e+01	-1.327832e+03
2.800000e-06	-3.959410e-06	-2.061791e-08	-2.847053e+01	-1.348924e+03
2.810000e-06	-4.066026e-06	-2.092230e-08	-2.923716e+01	-1.368908e+03
2.820000e-06	-4.171260e-06	-2.121378e-08	-2.999386e+01	-1.387894e+03
2.830000e-06	-4.274920e-06	-2.149090e-08	-3.073923e+01	-1.405958e+03
2.840000e-06	-4.376903e-06	-2.175382e-08	-3.147255e+01	-1.423142e+03
2.850000e-06	-4.477268e-06	-2.200198e-08	-3.219424e+01	-1.439470e+03
2.860000e-06	-4.576092e-06	-2.223556e-08	-3.290484e+01	-1.454954e+03
2.870000e-06	-4.673426e-06	-2.245670e-08	-3.360473e+01	-1.469614e+03
2.880000e-06	-4.769138e-06	-2.266810e-08	-3.429296e+01	-1.483481e+03
2.890000e-06	-4.863073e-06	-2.287222e-08	-3.496841e+01	-1.496608e+03
2.900000e-06	-4.955202e-06	-2.306695e-08	-3.563087e+01	-1.509059e+03
2.910000e-06	-5.045601e-06	-2.325150e-08	-3.628089e+01	-1.520903e+03
2.920000e-06	-5.134204e-06	-2.342615e-08	-3.691800e+01	-1.532205e+03
2.930000e-06	-5.220845e-06	-2.359145e-08	-3.754100e+01	-1.543012e+03
2.940000e-06	-5.305515e-06	-2.374696e-08	-3.814983e+01	-1.553356e+03
