# Temperatura_=_68.0
# Concentracion g/m^3_=_28200.0
# C_Vs_to_Am_M_A/Vsm_=_65563218390.804596
# pendiente_HvsI_1/m_=_3716.3
# ordenada_HvsI_A/m_=_1297.0
# frecuencia_Hz_=_302300.5712580045

Tiempo_(s)	Campo_(V.s)	Magnetizacion_(V.s)	Campo_(kA/m)	Magnetizacion_(A/m)
0.000000e+00	-6.877258e-06	-2.679997e-08	-4.951932e+01	-1.754877e+03
1.000000e-08	-6.874552e-06	-2.679534e-08	-4.949984e+01	-1.754424e+03
2.000000e-08	-6.869512e-06	-2.678453e-08	-4.946355e+01	-1.753800e+03
3.000000e-08	-6.862323e-06	-2.677035e-08	-4.941178e+01	-1.753010e+03
4.000000e-08	-6.852864e-06	-2.675763e-08	-4.934367e+01	-1.752055e+03
5.000000e-08	-6.840913e-06	-2.674323e-08	-4.925762e+01	-1.750931e+03
6.000000e-08	-6.826353e-06	-2.672459e-08	-4.915278e+01	-1.749626e+03
7.000000e-08	-6.809360e-06	-2.669846e-08	-4.903042e+01	-1.748133e+03
8.000000e-08	-6.790312e-06	-2.666697e-08	-4.889327e+01	-1.746445e+03
9.000000e-08	-6.769124e-06	-2.667409e-08	-4.874071e+01	-1.744569e+03
1.000000e-07	-6.745355e-06	-2.666702e-08	-4.856956e+01	-1.742524e+03
1.100000e-07	-6.718809e-06	-2.659278e-08	-4.837841e+01	-1.740341e+03
1.200000e-07	-6.689692e-06	-2.653267e-08	-4.816876e+01	-1.738059e+03
1.300000e-07	-6.658346e-06	-2.650110e-08	-4.794306e+01	-1.735710e+03
1.400000e-07	-6.624894e-06	-2.643403e-08	-4.770219e+01	-1.733315e+03
1.500000e-07	-6.589546e-06	-2.637455e-08	-4.744766e+01	-1.730871e+03
1.600000e-07	-6.552388e-06	-2.641931e-08	-4.718012e+01	-1.728346e+03
1.700000e-07	-6.513166e-06	-2.633737e-08	-4.689769e+01	-1.725686e+03
1.800000e-07	-6.471684e-06	-2.624236e-08	-4.659901e+01	-1.722818e+03
1.900000e-07	-6.427725e-06	-2.624877e-08	-4.628248e+01	-1.719668e+03
2.000000e-07	-6.381282e-06	-2.613436e-08	-4.594807e+01	-1.716176e+03
2.100000e-07	-6.332446e-06	-2.608922e-08	-4.559643e+01	-1.712306e+03
2.200000e-07	-6.280960e-06	-2.605950e-08	-4.522571e+01	-1.708054e+03
2.300000e-07	-6.226925e-06	-2.596035e-08	-4.483663e+01	-1.703449e+03
2.400000e-07	-6.170567e-06	-2.589271e-08	-4.443083e+01	-1.698539e+03
2.500000e-07	-6.111836e-06	-2.580351e-08	-4.400794e+01	-1.693384e+03
2.600000e-07	-6.050810e-06	-2.573268e-08	-4.356853e+01	-1.688032e+03
2.700000e-07	-5.987551e-06	-2.565346e-08	-4.311303e+01	-1.682512e+03
2.800000e-07	-5.922070e-06	-2.556247e-08	-4.264154e+01	-1.676820e+03
2.900000e-07	-5.854402e-06	-2.547132e-08	-4.215430e+01	-1.670927e+03
3.000000e-07	-5.784603e-06	-2.535688e-08	-4.165171e+01	-1.664783e+03
3.100000e-07	-5.712671e-06	-2.526268e-08	-4.113378e+01	-1.658334e+03
3.200000e-07	-5.638452e-06	-2.515569e-08	-4.059937e+01	-1.651534e+03
3.300000e-07	-5.561782e-06	-2.506112e-08	-4.004731e+01	-1.644358e+03
3.400000e-07	-5.482787e-06	-2.494968e-08	-3.947851e+01	-1.636808e+03
3.500000e-07	-5.401715e-06	-2.481976e-08	-3.889475e+01	-1.628907e+03
3.600000e-07	-5.318843e-06	-2.470382e-08	-3.829804e+01	-1.620692e+03
3.700000e-07	-5.234250e-06	-2.456824e-08	-3.768893e+01	-1.612194e+03
3.800000e-07	-5.147926e-06	-2.443723e-08	-3.706736e+01	-1.603431e+03
3.900000e-07	-5.059798e-06	-2.430171e-08	-3.643280e+01	-1.594394e+03
4.000000e-07	-4.969851e-06	-2.415789e-08	-3.578514e+01	-1.585046e+03
4.100000e-07	-4.878172e-06	-2.400172e-08	-3.512501e+01	-1.575330e+03
4.200000e-07	-4.784806e-06	-2.384442e-08	-3.445274e+01	-1.565184e+03
4.300000e-07	-4.689871e-06	-2.368557e-08	-3.376916e+01	-1.554550e+03
4.400000e-07	-4.593265e-06	-2.350960e-08	-3.307355e+01	-1.543392e+03
4.500000e-07	-4.494933e-06	-2.332904e-08	-3.236552e+01	-1.531702e+03
4.600000e-07	-4.394945e-06	-2.314653e-08	-3.164556e+01	-1.519495e+03
4.700000e-07	-4.293389e-06	-2.295651e-08	-3.091431e+01	-1.506802e+03
4.800000e-07	-4.190355e-06	-2.275792e-08	-3.017242e+01	-1.493652e+03
4.900000e-07	-4.085827e-06	-2.255413e-08	-2.941978e+01	-1.480060e+03
5.000000e-07	-3.979754e-06	-2.234035e-08	-2.865600e+01	-1.466009e+03
5.100000e-07	-3.872140e-06	-2.211384e-08	-2.788113e+01	-1.451452e+03
5.200000e-07	-3.763154e-06	-2.187720e-08	-2.709638e+01	-1.436314e+03
5.300000e-07	-3.652927e-06	-2.163267e-08	-2.630270e+01	-1.420507e+03
5.400000e-07	-3.541340e-06	-2.137642e-08	-2.549923e+01	-1.403945e+03
5.500000e-07	-3.428350e-06	-2.110611e-08	-2.468565e+01	-1.386562e+03
5.600000e-07	-3.313965e-06	-2.082552e-08	-2.386203e+01	-1.368317e+03
5.700000e-07	-3.198088e-06	-2.053628e-08	-2.302766e+01	-1.349197e+03
5.800000e-07	-3.080841e-06	-2.023439e-08	-2.218343e+01	-1.329202e+03
5.900000e-07	-2.962469e-06	-1.991710e-08	-2.133110e+01	-1.308335e+03
6.000000e-07	-2.843069e-06	-1.958656e-08	-2.047137e+01	-1.286576e+03
6.100000e-07	-2.722620e-06	-1.923831e-08	-1.960408e+01	-1.263870e+03
6.200000e-07	-2.601214e-06	-1.886909e-08	-1.872990e+01	-1.240122e+03
6.300000e-07	-2.478780e-06	-1.848105e-08	-1.784832e+01	-1.215197e+03
6.400000e-07	-2.355286e-06	-1.807635e-08	-1.695911e+01	-1.188940e+03
6.500000e-07	-2.230932e-06	-1.765181e-08	-1.606370e+01	-1.161187e+03
6.600000e-07	-2.105813e-06	-1.720455e-08	-1.516279e+01	-1.131788e+03
6.700000e-07	-1.980080e-06	-1.673154e-08	-1.425746e+01	-1.100617e+03
6.800000e-07	-1.853828e-06	-1.622957e-08	-1.334839e+01	-1.067565e+03
6.900000e-07	-1.726962e-06	-1.569794e-08	-1.243489e+01	-1.032538e+03
7.000000e-07	-1.599364e-06	-1.513290e-08	-1.151614e+01	-9.954279e+02
7.100000e-07	-1.471121e-06	-1.453349e-08	-1.059272e+01	-9.561022e+02
7.200000e-07	-1.342390e-06	-1.389662e-08	-9.665807e+00	-9.143890e+02
7.300000e-07	-1.213273e-06	-1.321821e-08	-8.736108e+00	-8.700845e+02
7.400000e-07	-1.083874e-06	-1.249394e-08	-7.804372e+00	-8.229777e+02
7.500000e-07	-9.541374e-07	-1.172348e-08	-6.870214e+00	-7.728925e+02
7.600000e-07	-8.240114e-07	-1.091127e-08	-5.933249e+00	-7.197378e+02
7.700000e-07	-6.936072e-07	-1.005829e-08	-4.994281e+00	-6.635553e+02
7.800000e-07	-5.630108e-07	-9.163122e-09	-4.053929e+00	-6.045496e+02
7.900000e-07	-4.322096e-07	-8.229345e-09	-3.112101e+00	-5.430901e+02
8.000000e-07	-3.011965e-07	-7.263967e-09	-2.168749e+00	-4.796785e+02
8.100000e-07	-1.700063e-07	-6.275124e-09	-1.224121e+00	-4.148850e+02
8.200000e-07	-3.867158e-08	-5.273527e-09	-2.784526e-01	-3.492613e+02
8.300000e-07	9.278454e-08	-4.265085e-09	6.680900e-01	-2.832500e+02
8.400000e-07	2.242203e-07	-3.253476e-09	1.614486e+00	-2.171075e+02
8.500000e-07	3.555077e-07	-2.241661e-09	2.559814e+00	-1.508619e+02
8.600000e-07	4.866013e-07	-1.229268e-09	3.503746e+00	-8.431526e+01
8.700000e-07	6.175289e-07	-2.096418e-10	4.446483e+00	-1.709578e+01
8.800000e-07	7.483306e-07	8.279703e-10	5.388314e+00	5.124889e+01
8.900000e-07	8.788489e-07	1.890609e-09	6.328103e+00	1.211340e+02
9.000000e-07	1.009048e-06	2.981242e-09	7.265591e+00	1.928186e+02
9.100000e-07	1.138911e-06	4.101447e-09	8.200665e+00	2.663086e+02
9.200000e-07	1.268355e-06	5.249231e-09	9.132721e+00	3.413035e+02
9.300000e-07	1.397389e-06	6.411361e-09	1.006182e+01	4.171962e+02
9.400000e-07	1.525952e-06	7.572482e-09	1.098753e+01	4.931279e+02
9.500000e-07	1.653878e-06	8.716771e-09	1.190866e+01	5.680869e+02
9.600000e-07	1.781090e-06	9.826185e-09	1.282464e+01	6.410321e+02
9.700000e-07	1.907665e-06	1.088495e-08	1.373604e+01	7.110175e+02
9.800000e-07	2.033618e-06	1.188377e-08	1.464296e+01	7.772963e+02
9.900000e-07	2.158853e-06	1.282038e-08	1.554470e+01	8.393858e+02
1.000000e-06	2.283342e-06	1.369238e-08	1.644108e+01	8.970869e+02
1.010000e-06	2.407060e-06	1.450233e-08	1.733191e+01	9.504579e+02
1.020000e-06	2.529839e-06	1.525345e-08	1.821597e+01	9.997546e+02
1.030000e-06	2.651604e-06	1.594737e-08	1.909273e+01	1.045352e+03
1.040000e-06	2.772359e-06	1.659027e-08	1.996222e+01	1.087664e+03
1.050000e-06	2.892016e-06	1.718785e-08	2.082380e+01	1.127081e+03
1.060000e-06	3.010608e-06	1.774469e-08	2.167772e+01	1.163926e+03
1.070000e-06	3.128179e-06	1.826687e-08	2.252428e+01	1.198444e+03
1.080000e-06	3.244628e-06	1.875510e-08	2.336277e+01	1.230811e+03
1.090000e-06	3.359785e-06	1.921167e-08	2.419195e+01	1.261157e+03
1.100000e-06	3.473526e-06	1.964140e-08	2.501094e+01	1.289594e+03
1.110000e-06	3.585810e-06	2.004578e-08	2.581943e+01	1.316242e+03
1.120000e-06	3.696754e-06	2.042688e-08	2.661828e+01	1.341238e+03
1.130000e-06	3.806502e-06	2.078662e-08	2.740851e+01	1.364737e+03
1.140000e-06	3.915034e-06	2.112627e-08	2.818999e+01	1.386899e+03
1.150000e-06	4.022337e-06	2.144646e-08	2.896262e+01	1.407877e+03
1.160000e-06	4.128224e-06	2.174837e-08	2.972505e+01	1.427794e+03
1.170000e-06	4.232434e-06	2.203549e-08	3.047541e+01	1.446742e+03
1.180000e-06	4.335028e-06	2.230916e-08	3.121413e+01	1.464775e+03
1.190000e-06	4.436183e-06	2.257029e-08	3.194250e+01	1.481924e+03
1.200000e-06	4.535829e-06	2.281798e-08	3.265999e+01	1.498205e+03
1.210000e-06	4.633810e-06	2.305139e-08	3.336549e+01	1.513636e+03
1.220000e-06	4.730022e-06	2.327298e-08	3.405826e+01	1.528246e+03
1.230000e-06	4.824511e-06	2.348261e-08	3.473863e+01	1.542086e+03
1.240000e-06	4.917371e-06	2.368093e-08	3.540726e+01	1.555218e+03
1.250000e-06	5.008534e-06	2.387071e-08	3.606367e+01	1.567713e+03
1.260000e-06	5.097835e-06	2.405232e-08	3.670668e+01	1.579639e+03
1.270000e-06	5.185222e-06	2.422456e-08	3.733591e+01	1.591048e+03
1.280000e-06	5.270771e-06	2.438901e-08	3.795190e+01	1.601974e+03
1.290000e-06	5.354550e-06	2.454650e-08	3.855514e+01	1.612431e+03
1.300000e-06	5.436418e-06	2.469854e-08	3.914463e+01	1.622416e+03
1.310000e-06	5.516173e-06	2.484423e-08	3.971890e+01	1.631920e+03
1.320000e-06	5.593852e-06	2.498330e-08	4.027823e+01	1.640937e+03
1.330000e-06	5.669462e-06	2.511669e-08	4.082265e+01	1.649468e+03
1.340000e-06	5.742839e-06	2.524194e-08	4.135100e+01	1.657529e+03
1.350000e-06	5.814028e-06	2.535889e-08	4.186359e+01	1.665144e+03
1.360000e-06	5.883196e-06	2.546945e-08	4.236163e+01	1.672346e+03
1.370000e-06	5.950368e-06	2.557390e-08	4.284530e+01	1.679164e+03
1.380000e-06	6.015367e-06	2.567215e-08	4.331332e+01	1.685625e+03
1.390000e-06	6.078155e-06	2.576628e-08	4.376542e+01	1.691743e+03
1.400000e-06	6.138905e-06	2.585497e-08	4.420285e+01	1.697528e+03
1.410000e-06	6.197523e-06	2.593729e-08	4.462492e+01	1.702982e+03
1.420000e-06	6.253874e-06	2.601446e-08	4.503068e+01	1.708111e+03
1.430000e-06	6.307932e-06	2.608705e-08	4.541992e+01	1.712924e+03
1.440000e-06	6.359558e-06	2.615655e-08	4.579165e+01	1.717438e+03
1.450000e-06	6.408557e-06	2.622283e-08	4.614446e+01	1.721678e+03
1.460000e-06	6.455110e-06	2.628479e-08	4.647967e+01	1.725670e+03
1.470000e-06	6.499553e-06	2.634424e-08	4.679968e+01	1.729439e+03
1.480000e-06	6.541744e-06	2.640073e-08	4.710347e+01	1.732998e+03
1.490000e-06	6.581450e-06	2.645291e-08	4.738937e+01	1.736350e+03
1.500000e-06	6.618858e-06	2.650009e-08	4.765872e+01	1.739484e+03
1.510000e-06	6.654047e-06	2.654325e-08	4.791210e+01	1.742380e+03
1.520000e-06	6.686778e-06	2.658362e-08	4.814778e+01	1.745015e+03
1.530000e-06	6.717091e-06	2.661863e-08	4.836605e+01	1.747370e+03
1.540000e-06	6.745183e-06	2.664937e-08	4.856832e+01	1.749435e+03
1.550000e-06	6.770855e-06	2.667714e-08	4.875317e+01	1.751213e+03
1.560000e-06	6.793910e-06	2.670099e-08	4.891918e+01	1.752721e+03
1.570000e-06	6.814609e-06	2.672009e-08	4.906822e+01	1.753982e+03
1.580000e-06	6.833021e-06	2.673517e-08	4.920080e+01	1.755026e+03
1.590000e-06	6.848870e-06	2.674743e-08	4.931491e+01	1.755875e+03
1.600000e-06	6.862147e-06	2.675649e-08	4.941051e+01	1.756547e+03
1.610000e-06	6.872745e-06	2.676371e-08	4.948682e+01	1.757050e+03
1.620000e-06	6.880645e-06	2.677119e-08	4.954371e+01	1.757383e+03
1.630000e-06	6.886114e-06	2.677691e-08	4.958309e+01	1.757540e+03
1.640000e-06	6.889162e-06	2.677868e-08	4.960503e+01	1.757517e+03
1.650000e-06	6.889699e-06	2.677698e-08	4.960890e+01	1.757312e+03
1.660000e-06	6.887855e-06	2.676881e-08	4.959563e+01	1.756928e+03
1.670000e-06	6.883871e-06	2.675566e-08	4.956694e+01	1.756370e+03
1.680000e-06	6.877590e-06	2.674392e-08	4.952171e+01	1.755644e+03
1.690000e-06	6.868946e-06	2.673018e-08	4.945947e+01	1.754754e+03
1.700000e-06	6.858080e-06	2.671568e-08	4.938123e+01	1.753697e+03
1.710000e-06	6.844835e-06	2.670082e-08	4.928586e+01	1.752464e+03
1.720000e-06	6.829193e-06	2.668786e-08	4.917323e+01	1.751045e+03
1.730000e-06	6.811419e-06	2.666829e-08	4.904525e+01	1.749433e+03
1.740000e-06	6.791480e-06	2.658796e-08	4.890168e+01	1.747629e+03
1.750000e-06	6.768684e-06	2.654160e-08	4.873754e+01	1.745647e+03
1.760000e-06	6.742624e-06	2.655320e-08	4.854989e+01	1.743514e+03
1.770000e-06	6.713736e-06	2.652184e-08	4.834189e+01	1.741266e+03
1.780000e-06	6.682603e-06	2.648894e-08	4.811772e+01	1.738940e+03
1.790000e-06	6.649722e-06	2.650817e-08	4.788096e+01	1.736562e+03
1.800000e-06	6.615448e-06	2.640634e-08	4.763418e+01	1.734138e+03
1.810000e-06	6.579229e-06	2.634454e-08	4.737338e+01	1.731650e+03
1.820000e-06	6.540403e-06	2.641096e-08	4.709382e+01	1.729050e+03
1.830000e-06	6.499328e-06	2.631893e-08	4.679806e+01	1.726273e+03
1.840000e-06	6.456114e-06	2.632577e-08	4.648690e+01	1.723242e+03
1.850000e-06	6.410582e-06	2.627700e-08	4.615904e+01	1.719890e+03
1.860000e-06	6.362742e-06	2.613585e-08	4.581457e+01	1.716170e+03
1.870000e-06	6.312491e-06	2.613782e-08	4.545275e+01	1.712066e+03
1.880000e-06	6.259847e-06	2.602308e-08	4.507369e+01	1.707594e+03
1.890000e-06	6.204618e-06	2.598450e-08	4.467601e+01	1.702797e+03
1.900000e-06	6.146891e-06	2.593401e-08	4.426035e+01	1.697731e+03
1.910000e-06	6.086905e-06	2.580625e-08	4.382843e+01	1.692452e+03
1.920000e-06	6.024509e-06	2.577072e-08	4.337915e+01	1.686995e+03
1.930000e-06	5.959890e-06	2.564631e-08	4.291386e+01	1.681372e+03
1.940000e-06	5.893159e-06	2.558655e-08	4.243337e+01	1.675563e+03
1.950000e-06	5.824195e-06	2.549595e-08	4.193680e+01	1.669524e+03
1.960000e-06	5.752921e-06	2.537551e-08	4.142359e+01	1.663201e+03
1.970000e-06	5.679397e-06	2.529456e-08	4.089419e+01	1.656542e+03
1.980000e-06	5.603748e-06	2.514484e-08	4.034948e+01	1.649515e+03
1.990000e-06	5.525738e-06	2.506156e-08	3.978777e+01	1.642110e+03
2.000000e-06	5.445529e-06	2.493840e-08	3.921023e+01	1.634343e+03
2.010000e-06	5.363516e-06	2.482841e-08	3.861970e+01	1.626246e+03
2.020000e-06	5.279704e-06	2.471260e-08	3.801622e+01	1.617856e+03
2.030000e-06	5.193926e-06	2.455311e-08	3.739858e+01	1.609196e+03
2.040000e-06	5.106132e-06	2.442189e-08	3.676643e+01	1.600269e+03
2.050000e-06	5.016610e-06	2.426831e-08	3.612183e+01	1.591049e+03
2.060000e-06	4.925504e-06	2.413601e-08	3.546583e+01	1.581485e+03
2.070000e-06	4.832713e-06	2.397854e-08	3.479769e+01	1.571515e+03
2.080000e-06	4.738156e-06	2.382645e-08	3.411683e+01	1.561078e+03
2.090000e-06	4.641877e-06	2.366516e-08	3.342358e+01	1.550128e+03
2.100000e-06	4.544014e-06	2.348850e-08	3.271892e+01	1.538645e+03
2.110000e-06	4.444694e-06	2.331322e-08	3.200377e+01	1.526638e+03
2.120000e-06	4.343854e-06	2.312058e-08	3.127768e+01	1.514132e+03
2.130000e-06	4.241342e-06	2.292181e-08	3.053955e+01	1.501158e+03
2.140000e-06	4.137186e-06	2.270660e-08	2.978958e+01	1.487740e+03
2.150000e-06	4.031510e-06	2.249654e-08	2.902867e+01	1.473873e+03
2.160000e-06	3.924537e-06	2.227791e-08	2.825841e+01	1.459522e+03
2.170000e-06	3.816255e-06	2.205659e-08	2.747873e+01	1.444621e+03
2.180000e-06	3.706576e-06	2.182515e-08	2.668900e+01	1.429088e+03
2.190000e-06	3.595424e-06	2.158333e-08	2.588866e+01	1.412831e+03
2.200000e-06	3.482820e-06	2.132553e-08	2.507785e+01	1.395777e+03
2.210000e-06	3.368899e-06	2.105140e-08	2.425757e+01	1.377873e+03
2.220000e-06	3.253604e-06	2.076753e-08	2.342740e+01	1.359097e+03
2.230000e-06	3.136867e-06	2.046817e-08	2.258684e+01	1.339445e+03
2.240000e-06	3.018833e-06	2.015315e-08	2.173694e+01	1.318921e+03
2.250000e-06	2.899562e-06	1.982410e-08	2.087814e+01	1.297516e+03
2.260000e-06	2.779118e-06	1.948720e-08	2.001089e+01	1.275191e+03
2.270000e-06	2.657694e-06	1.913448e-08	1.913658e+01	1.251865e+03
2.280000e-06	2.535389e-06	1.876615e-08	1.825593e+01	1.227420e+03
2.290000e-06	2.412269e-06	1.837709e-08	1.736941e+01	1.201706e+03
2.300000e-06	2.288260e-06	1.796405e-08	1.647649e+01	1.174559e+03
2.310000e-06	2.163353e-06	1.752330e-08	1.557711e+01	1.145823e+03
2.320000e-06	2.037731e-06	1.705684e-08	1.467257e+01	1.115361e+03
2.330000e-06	1.911488e-06	1.656495e-08	1.376356e+01	1.083060e+03
2.340000e-06	1.784564e-06	1.604395e-08	1.284966e+01	1.048820e+03
2.350000e-06	1.656946e-06	1.549247e-08	1.193075e+01	1.012542e+03
2.360000e-06	1.528661e-06	1.490705e-08	1.100704e+01	9.741043e+02
2.370000e-06	1.399854e-06	1.428595e-08	1.007957e+01	9.333516e+02
2.380000e-06	1.270661e-06	1.362512e-08	9.149324e+00	8.900902e+02
2.390000e-06	1.141137e-06	1.292452e-08	8.216693e+00	8.441079e+02
2.400000e-06	1.011277e-06	1.217998e-08	7.281647e+00	7.952092e+02
2.410000e-06	8.810871e-07	1.138548e-08	6.344219e+00	7.432632e+02
2.420000e-06	7.506519e-07	1.054520e-08	5.405028e+00	6.882549e+02
2.430000e-06	6.200291e-07	9.661563e-09	4.464486e+00	6.303227e+02
2.440000e-06	4.892242e-07	8.739965e-09	3.522632e+00	5.697731e+02
2.450000e-06	3.581965e-07	7.786435e-09	2.579174e+00	5.070620e+02
2.460000e-06	2.270112e-07	6.808047e-09	1.634582e+00	4.427422e+02
2.470000e-06	9.579656e-08	5.812880e-09	6.897779e-01	3.773835e+02
2.480000e-06	-3.545165e-08	4.804473e-09	-2.552677e-01	3.114818e+02
2.490000e-06	-1.667281e-07	3.789972e-09	-1.200516e+00	2.453740e+02
2.500000e-06	-2.979372e-07	2.773809e-09	-2.145280e+00	1.791803e+02
2.510000e-06	-4.290491e-07	1.755804e-09	-3.089345e+00	1.127879e+02
2.520000e-06	-5.600665e-07	7.312703e-10	-4.032728e+00	4.588430e+01
2.530000e-06	-6.909237e-07	-3.051285e-10	-4.974959e+00	-2.196438e+01
2.540000e-06	-8.215886e-07	-1.359132e-09	-5.915804e+00	-9.120270e+01
2.550000e-06	-9.520291e-07	-2.436572e-09	-6.855033e+00	-1.621643e+02
2.560000e-06	-1.082151e-06	-3.540376e-09	-7.791969e+00	-2.349637e+02
2.570000e-06	-1.211906e-06	-4.672903e-09	-8.726266e+00	-3.094238e+02
2.580000e-06	-1.341281e-06	-5.828170e-09	-9.657823e+00	-3.850544e+02
2.590000e-06	-1.470276e-06	-6.992936e-09	-1.058664e+01	-4.610860e+02
2.600000e-06	-1.598817e-06	-8.152688e-09	-1.151219e+01	-5.365529e+02
2.610000e-06	-1.726791e-06	-9.287495e-09	-1.243367e+01	-6.104104e+02
2.620000e-06	-1.854073e-06	-1.037954e-08	-1.335015e+01	-6.816610e+02
2.630000e-06	-1.980587e-06	-1.141678e-08	-1.426111e+01	-7.494694e+02
2.640000e-06	-2.106317e-06	-1.238867e-08	-1.516642e+01	-8.132444e+02
2.650000e-06	-2.231248e-06	-1.329328e-08	-1.606598e+01	-8.726762e+02
2.660000e-06	-2.355262e-06	-1.413436e-08	-1.695894e+01	-9.277275e+02
2.670000e-06	-2.478291e-06	-1.491468e-08	-1.784480e+01	-9.785852e+02
2.680000e-06	-2.600401e-06	-1.564052e-08	-1.872405e+01	-1.025587e+03
2.690000e-06	-2.721551e-06	-1.631560e-08	-1.959638e+01	-1.069141e+03
2.700000e-06	-2.841691e-06	-1.694230e-08	-2.046144e+01	-1.109653e+03
2.710000e-06	-2.960781e-06	-1.752381e-08	-2.131894e+01	-1.147475e+03
2.720000e-06	-3.078789e-06	-1.806611e-08	-2.216865e+01	-1.182884e+03
2.730000e-06	-3.195584e-06	-1.857446e-08	-2.300962e+01	-1.216079e+03
2.740000e-06	-3.311038e-06	-1.904931e-08	-2.384095e+01	-1.247205e+03
2.750000e-06	-3.425116e-06	-1.949302e-08	-2.466236e+01	-1.276379e+03
2.760000e-06	-3.537775e-06	-1.990793e-08	-2.547355e+01	-1.303715e+03
2.770000e-06	-3.648965e-06	-2.029867e-08	-2.627418e+01	-1.329343e+03
2.780000e-06	-3.758756e-06	-2.067018e-08	-2.706472e+01	-1.353411e+03
2.790000e-06	-3.867353e-06	-2.102196e-08	-2.784667e+01	-1.376080e+03
2.800000e-06	-3.974765e-06	-2.135222e-08	-2.862008e+01	-1.397507e+03
2.810000e-06	-4.080890e-06	-2.166278e-08	-2.938423e+01	-1.417828e+03
2.820000e-06	-4.185630e-06	-2.195775e-08	-3.013840e+01	-1.437148e+03
2.830000e-06	-4.288829e-06	-2.223998e-08	-3.088148e+01	-1.455537e+03
2.840000e-06	-4.390351e-06	-2.250764e-08	-3.161248e+01	-1.473032e+03
2.850000e-06	-4.490201e-06	-2.275938e-08	-3.233145e+01	-1.489652e+03
2.860000e-06	-4.588536e-06	-2.299709e-08	-3.303950e+01	-1.505414e+03
2.870000e-06	-4.685424e-06	-2.322223e-08	-3.373714e+01	-1.520343e+03
2.880000e-06	-4.780708e-06	-2.343726e-08	-3.442323e+01	-1.534479e+03
2.890000e-06	-4.874178e-06	-2.364524e-08	-3.509625e+01	-1.547881e+03
2.900000e-06	-4.965838e-06	-2.384575e-08	-3.575625e+01	-1.560618e+03
2.910000e-06	-5.055753e-06	-2.403762e-08	-3.640368e+01	-1.572760e+03
2.920000e-06	-5.143851e-06	-2.421783e-08	-3.703802e+01	-1.584368e+03
2.930000e-06	-5.229978e-06	-2.438791e-08	-3.765817e+01	-1.595482e+03
2.940000e-06	-5.314127e-06	-2.454969e-08	-3.826408e+01	-1.606123e+03
