# Temperatura_=_74.14
# Concentracion g/m^3_=_41000.0
# C_Vs_to_Am_M_A/Vsm_=_65563218390.804596
# pendiente_HvsI_1/m_=_3716.3
# ordenada_HvsI_A/m_=_1297.0
# frecuencia_Hz_=_301634.99287005706

Tiempo_(s)	Campo_(V.s)	Magnetizacion_(V.s)	Campo_(kA/m)	Magnetizacion_(A/m)
0.000000e+00	-5.324029e-06	-2.398179e-08	-3.833923e+01	-1.567883e+03
1.000000e-08	-5.321922e-06	-2.397687e-08	-3.832405e+01	-1.567713e+03
2.000000e-08	-5.317885e-06	-2.396897e-08	-3.829498e+01	-1.567618e+03
3.000000e-08	-5.312256e-06	-2.395906e-08	-3.825445e+01	-1.567505e+03
4.000000e-08	-5.305119e-06	-2.394925e-08	-3.820305e+01	-1.567249e+03
5.000000e-08	-5.296209e-06	-2.393829e-08	-3.813889e+01	-1.566730e+03
6.000000e-08	-5.285235e-06	-2.392456e-08	-3.805987e+01	-1.565875e+03
7.000000e-08	-5.272346e-06	-2.390951e-08	-3.796705e+01	-1.564673e+03
8.000000e-08	-5.257549e-06	-2.389545e-08	-3.786049e+01	-1.563183e+03
9.000000e-08	-5.240482e-06	-2.388359e-08	-3.773759e+01	-1.561519e+03
1.000000e-07	-5.221199e-06	-2.386717e-08	-3.759873e+01	-1.559811e+03
1.100000e-07	-5.200016e-06	-2.383366e-08	-3.744619e+01	-1.558172e+03
1.200000e-07	-5.177164e-06	-2.379598e-08	-3.728163e+01	-1.556664e+03
1.300000e-07	-5.152982e-06	-2.376473e-08	-3.710749e+01	-1.555282e+03
1.400000e-07	-5.127305e-06	-2.372254e-08	-3.692259e+01	-1.553957e+03
1.500000e-07	-5.099848e-06	-2.371073e-08	-3.672486e+01	-1.552580e+03
1.600000e-07	-5.070818e-06	-2.370591e-08	-3.651581e+01	-1.551033e+03
1.700000e-07	-5.040309e-06	-2.365577e-08	-3.629612e+01	-1.549226e+03
1.800000e-07	-5.007883e-06	-2.363815e-08	-3.606261e+01	-1.547116e+03
1.900000e-07	-4.973363e-06	-2.359619e-08	-3.581402e+01	-1.544722e+03
2.000000e-07	-4.937277e-06	-2.350791e-08	-3.555416e+01	-1.542110e+03
2.100000e-07	-4.899613e-06	-2.348960e-08	-3.528294e+01	-1.539370e+03
2.200000e-07	-4.860187e-06	-2.347474e-08	-3.499902e+01	-1.536581e+03
2.300000e-07	-4.818950e-06	-2.342184e-08	-3.470207e+01	-1.533789e+03
2.400000e-07	-4.775745e-06	-2.337907e-08	-3.439094e+01	-1.530986e+03
2.500000e-07	-4.730739e-06	-2.330061e-08	-3.406685e+01	-1.528117e+03
2.600000e-07	-4.683996e-06	-2.322245e-08	-3.373025e+01	-1.525096e+03
2.700000e-07	-4.635323e-06	-2.321528e-08	-3.337974e+01	-1.521833e+03
2.800000e-07	-4.584584e-06	-2.319438e-08	-3.301436e+01	-1.518267e+03
2.900000e-07	-4.531857e-06	-2.309617e-08	-3.263467e+01	-1.514382e+03
3.000000e-07	-4.477444e-06	-2.299586e-08	-3.224282e+01	-1.510215e+03
3.100000e-07	-4.421438e-06	-2.294545e-08	-3.183952e+01	-1.505841e+03
3.200000e-07	-4.363595e-06	-2.289742e-08	-3.142298e+01	-1.501353e+03
3.300000e-07	-4.304043e-06	-2.283642e-08	-3.099414e+01	-1.496828e+03
3.400000e-07	-4.243082e-06	-2.277425e-08	-3.055515e+01	-1.492299e+03
3.500000e-07	-4.180725e-06	-2.269108e-08	-3.010611e+01	-1.487751e+03
3.600000e-07	-4.116983e-06	-2.260030e-08	-2.964709e+01	-1.483117e+03
3.700000e-07	-4.051712e-06	-2.251764e-08	-2.917706e+01	-1.478305e+03
3.800000e-07	-3.984779e-06	-2.244835e-08	-2.869506e+01	-1.473222e+03
3.900000e-07	-3.916340e-06	-2.238586e-08	-2.820222e+01	-1.467808e+03
4.000000e-07	-3.846610e-06	-2.229478e-08	-2.770008e+01	-1.462056e+03
4.100000e-07	-3.775725e-06	-2.218523e-08	-2.718963e+01	-1.456011e+03
4.200000e-07	-3.703638e-06	-2.208634e-08	-2.667052e+01	-1.449758e+03
4.300000e-07	-3.630109e-06	-2.199592e-08	-2.614103e+01	-1.443394e+03
4.400000e-07	-3.554935e-06	-2.190659e-08	-2.559968e+01	-1.436994e+03
4.500000e-07	-3.478291e-06	-2.181508e-08	-2.504776e+01	-1.430584e+03
4.600000e-07	-3.400400e-06	-2.170829e-08	-2.448685e+01	-1.424129e+03
4.700000e-07	-3.321203e-06	-2.159162e-08	-2.391654e+01	-1.417540e+03
4.800000e-07	-3.240666e-06	-2.148126e-08	-2.333658e+01	-1.410701e+03
4.900000e-07	-3.158859e-06	-2.137069e-08	-2.274747e+01	-1.403500e+03
5.000000e-07	-3.075915e-06	-2.125264e-08	-2.215018e+01	-1.395864e+03
5.100000e-07	-2.992059e-06	-2.113362e-08	-2.154632e+01	-1.387783e+03
5.200000e-07	-2.907411e-06	-2.101198e-08	-2.093676e+01	-1.379312e+03
5.300000e-07	-2.821851e-06	-2.087994e-08	-2.032062e+01	-1.370550e+03
5.400000e-07	-2.735318e-06	-2.074404e-08	-1.969749e+01	-1.361610e+03
5.500000e-07	-2.647939e-06	-2.061070e-08	-1.906825e+01	-1.352578e+03
5.600000e-07	-2.559623e-06	-2.047300e-08	-1.843228e+01	-1.343477e+03
5.700000e-07	-2.470158e-06	-2.032219e-08	-1.778802e+01	-1.334259e+03
5.800000e-07	-2.379583e-06	-2.016390e-08	-1.713578e+01	-1.324807e+03
5.900000e-07	-2.288068e-06	-2.000672e-08	-1.647677e+01	-1.314970e+03
6.000000e-07	-2.195762e-06	-1.984772e-08	-1.581205e+01	-1.304604e+03
6.100000e-07	-2.102755e-06	-1.967952e-08	-1.514229e+01	-1.293614e+03
6.200000e-07	-2.008998e-06	-1.950375e-08	-1.446713e+01	-1.281980e+03
6.300000e-07	-1.914518e-06	-1.932149e-08	-1.378677e+01	-1.269765e+03
6.400000e-07	-1.819450e-06	-1.913266e-08	-1.310217e+01	-1.257089e+03
6.500000e-07	-1.723838e-06	-1.893951e-08	-1.241365e+01	-1.244086e+03
6.600000e-07	-1.627560e-06	-1.874057e-08	-1.172033e+01	-1.230857e+03
6.700000e-07	-1.530537e-06	-1.853244e-08	-1.102166e+01	-1.217422e+03
6.800000e-07	-1.432899e-06	-1.831324e-08	-1.031855e+01	-1.203705e+03
6.900000e-07	-1.334740e-06	-1.808551e-08	-9.611688e+00	-1.189540e+03
7.000000e-07	-1.236049e-06	-1.785121e-08	-8.900996e+00	-1.174713e+03
7.100000e-07	-1.136867e-06	-1.761065e-08	-8.186770e+00	-1.159018e+03
7.200000e-07	-1.037311e-06	-1.736033e-08	-7.469849e+00	-1.142310e+03
7.300000e-07	-9.374669e-07	-1.709691e-08	-6.750857e+00	-1.124544e+03
7.400000e-07	-8.373419e-07	-1.681860e-08	-6.029840e+00	-1.105779e+03
7.500000e-07	-7.369507e-07	-1.652798e-08	-5.306906e+00	-1.086150e+03
7.600000e-07	-6.363535e-07	-1.622512e-08	-4.582489e+00	-1.065797e+03
7.700000e-07	-5.355767e-07	-1.590620e-08	-3.856778e+00	-1.044801e+03
7.800000e-07	-4.346654e-07	-1.557031e-08	-3.130099e+00	-1.023113e+03
7.900000e-07	-3.336254e-07	-1.521288e-08	-2.402493e+00	-1.000523e+03
8.000000e-07	-2.324209e-07	-1.483046e-08	-1.673702e+00	-9.766795e+02
8.100000e-07	-1.310547e-07	-1.442509e-08	-9.437472e-01	-9.511436e+02
8.200000e-07	-2.961753e-08	-1.399852e-08	-2.132808e-01	-9.234779e+02
8.300000e-07	7.175594e-08	-1.354585e-08	5.167266e-01	-8.933371e+02
8.400000e-07	1.730734e-07	-1.305873e-08	1.246330e+00	-8.605272e+02
8.500000e-07	2.743773e-07	-1.253227e-08	1.975837e+00	-8.250098e+02
8.600000e-07	3.756454e-07	-1.196326e-08	2.705086e+00	-7.868361e+02
8.700000e-07	4.768729e-07	-1.134792e-08	3.434042e+00	-7.460197e+02
8.800000e-07	5.779443e-07	-1.067907e-08	4.161874e+00	-7.023755e+02
8.900000e-07	6.787656e-07	-9.946715e-09	4.887905e+00	-6.553676e+02
9.000000e-07	7.793650e-07	-9.139016e-09	5.612338e+00	-6.040175e+02
9.100000e-07	8.797590e-07	-8.241407e-09	6.335293e+00	-5.469127e+02
9.200000e-07	9.798931e-07	-7.238685e-09	7.056375e+00	-4.823385e+02
9.300000e-07	1.079732e-06	-6.111698e-09	7.775335e+00	-4.085282e+02
9.400000e-07	1.179250e-06	-4.837305e-09	8.491976e+00	-3.239948e+02
9.500000e-07	1.278345e-06	-3.394366e-09	9.205579e+00	-2.278851e+02
9.600000e-07	1.376848e-06	-1.773077e-09	9.914917e+00	-1.202828e+02
9.700000e-07	1.474705e-06	1.954371e-11	1.061960e+01	-2.392100e+00
9.800000e-07	1.571904e-06	1.955254e-09	1.131955e+01	1.234484e+02
9.900000e-07	1.668408e-06	3.978559e-09	1.201449e+01	2.539379e+02
1.000000e-06	1.764239e-06	6.012530e-09	1.270458e+01	3.851524e+02
1.010000e-06	1.859414e-06	7.976824e-09	1.338995e+01	5.129939e+02
1.020000e-06	1.953940e-06	9.805430e-09	1.407065e+01	6.336742e+02
1.030000e-06	2.047826e-06	1.145564e-08	1.474674e+01	7.441443e+02
1.040000e-06	2.141073e-06	1.290803e-08	1.541823e+01	8.423979e+02
1.050000e-06	2.233620e-06	1.416446e-08	1.608467e+01	9.275999e+02
1.060000e-06	2.325466e-06	1.524099e-08	1.674607e+01	1.000028e+03
1.070000e-06	2.416568e-06	1.616057e-08	1.740211e+01	1.060856e+03
1.080000e-06	2.506722e-06	1.694517e-08	1.805133e+01	1.111827e+03
1.090000e-06	2.595743e-06	1.761458e-08	1.869238e+01	1.154894e+03
1.100000e-06	2.683716e-06	1.819035e-08	1.932589e+01	1.191902e+03
1.110000e-06	2.770747e-06	1.868984e-08	1.995261e+01	1.224356e+03
1.120000e-06	2.856889e-06	1.912470e-08	2.057294e+01	1.253315e+03
1.130000e-06	2.942167e-06	1.950668e-08	2.118704e+01	1.279400e+03
1.140000e-06	3.026552e-06	1.984589e-08	2.179471e+01	1.302902e+03
1.150000e-06	3.110008e-06	2.014840e-08	2.239569e+01	1.323933e+03
1.160000e-06	3.192324e-06	2.041915e-08	2.298846e+01	1.342575e+03
1.170000e-06	3.273323e-06	2.066627e-08	2.357175e+01	1.358994e+03
1.180000e-06	3.353201e-06	2.089251e-08	2.414697e+01	1.373482e+03
1.190000e-06	3.431984e-06	2.110102e-08	2.471429e+01	1.386439e+03
1.200000e-06	3.509502e-06	2.129356e-08	2.527251e+01	1.398307e+03
1.210000e-06	3.585755e-06	2.147103e-08	2.582163e+01	1.409479e+03
1.220000e-06	3.660632e-06	2.163616e-08	2.636083e+01	1.420225e+03
1.230000e-06	3.733941e-06	2.179040e-08	2.688874e+01	1.430655e+03
1.240000e-06	3.805739e-06	2.193494e-08	2.740577e+01	1.440721e+03
1.250000e-06	3.876176e-06	2.207021e-08	2.791299e+01	1.450269e+03
1.260000e-06	3.945306e-06	2.219678e-08	2.841081e+01	1.459116e+03
1.270000e-06	4.013170e-06	2.231296e-08	2.889951e+01	1.467124e+03
1.280000e-06	4.079597e-06	2.242055e-08	2.937786e+01	1.474257e+03
1.290000e-06	4.144335e-06	2.252321e-08	2.984405e+01	1.480601e+03
1.300000e-06	4.207462e-06	2.261996e-08	3.029864e+01	1.486344e+03
1.310000e-06	4.269184e-06	2.270970e-08	3.074311e+01	1.491726e+03
1.320000e-06	4.329569e-06	2.279458e-08	3.117796e+01	1.496972e+03
1.330000e-06	4.388591e-06	2.287401e-08	3.160298e+01	1.502235e+03
1.340000e-06	4.445880e-06	2.294859e-08	3.201553e+01	1.507561e+03
1.350000e-06	4.501363e-06	2.302016e-08	3.241507e+01	1.512889e+03
1.360000e-06	4.555229e-06	2.309027e-08	3.280297e+01	1.518080e+03
1.370000e-06	4.607396e-06	2.315725e-08	3.317864e+01	1.522970e+03
1.380000e-06	4.657631e-06	2.322052e-08	3.354039e+01	1.527424e+03
1.390000e-06	4.705887e-06	2.328123e-08	3.388789e+01	1.531381e+03
1.400000e-06	4.752436e-06	2.334018e-08	3.422309e+01	1.534872e+03
1.410000e-06	4.797454e-06	2.339774e-08	3.454727e+01	1.538008e+03
1.420000e-06	4.840883e-06	2.345053e-08	3.486001e+01	1.540941e+03
1.430000e-06	4.882470e-06	2.349670e-08	3.515949e+01	1.543822e+03
1.440000e-06	4.922237e-06	2.353872e-08	3.544585e+01	1.546748e+03
1.450000e-06	4.960371e-06	2.357877e-08	3.572047e+01	1.549739e+03
1.460000e-06	4.996904e-06	2.361755e-08	3.598355e+01	1.552735e+03
1.470000e-06	5.031796e-06	2.365485e-08	3.623481e+01	1.555616e+03
1.480000e-06	5.064800e-06	2.369014e-08	3.647248e+01	1.558245e+03
1.490000e-06	5.095952e-06	2.372258e-08	3.669680e+01	1.560510e+03
1.500000e-06	5.125437e-06	2.375227e-08	3.690913e+01	1.562364e+03
1.510000e-06	5.153225e-06	2.377863e-08	3.710924e+01	1.563835e+03
1.520000e-06	5.179079e-06	2.380173e-08	3.729542e+01	1.565021e+03
1.530000e-06	5.202912e-06	2.382138e-08	3.746705e+01	1.566059e+03
1.540000e-06	5.224936e-06	2.383832e-08	3.762564e+01	1.567081e+03
1.550000e-06	5.245242e-06	2.385513e-08	3.777187e+01	1.568177e+03
1.560000e-06	5.263778e-06	2.387260e-08	3.790535e+01	1.569367e+03
1.570000e-06	5.280340e-06	2.388837e-08	3.802461e+01	1.570600e+03
1.580000e-06	5.294849e-06	2.390001e-08	3.812910e+01	1.571768e+03
1.590000e-06	5.307383e-06	2.390984e-08	3.821936e+01	1.572746e+03
1.600000e-06	5.317798e-06	2.391910e-08	3.829435e+01	1.573429e+03
1.610000e-06	5.326097e-06	2.392673e-08	3.835412e+01	1.573769e+03
1.620000e-06	5.332493e-06	2.393301e-08	3.840018e+01	1.573784e+03
1.630000e-06	5.337122e-06	2.393682e-08	3.843352e+01	1.573559e+03
1.640000e-06	5.339944e-06	2.393738e-08	3.845384e+01	1.573216e+03
1.650000e-06	5.340800e-06	2.393587e-08	3.846000e+01	1.572877e+03
1.660000e-06	5.339778e-06	2.393388e-08	3.845264e+01	1.572624e+03
1.670000e-06	5.337043e-06	2.393185e-08	3.843294e+01	1.572478e+03
1.680000e-06	5.332682e-06	2.392894e-08	3.840154e+01	1.572388e+03
1.690000e-06	5.326524e-06	2.392323e-08	3.835719e+01	1.572251e+03
1.700000e-06	5.318561e-06	2.391391e-08	3.829985e+01	1.571938e+03
1.710000e-06	5.309007e-06	2.390387e-08	3.823105e+01	1.571339e+03
1.720000e-06	5.297824e-06	2.389170e-08	3.815052e+01	1.570394e+03
1.730000e-06	5.284785e-06	2.387226e-08	3.805663e+01	1.569112e+03
1.740000e-06	5.269653e-06	2.384599e-08	3.794766e+01	1.567566e+03
1.750000e-06	5.252298e-06	2.381370e-08	3.782268e+01	1.565878e+03
1.760000e-06	5.232488e-06	2.380270e-08	3.768003e+01	1.564177e+03
1.770000e-06	5.210243e-06	2.379661e-08	3.751984e+01	1.562567e+03
1.780000e-06	5.186337e-06	2.377734e-08	3.734768e+01	1.561093e+03
1.790000e-06	5.161588e-06	2.376344e-08	3.716946e+01	1.559732e+03
1.800000e-06	5.135706e-06	2.370462e-08	3.698308e+01	1.558405e+03
1.810000e-06	5.107943e-06	2.367073e-08	3.678315e+01	1.556995e+03
1.820000e-06	5.078244e-06	2.368568e-08	3.656929e+01	1.555390e+03
1.830000e-06	5.046767e-06	2.364239e-08	3.634262e+01	1.553507e+03
1.840000e-06	5.013431e-06	2.362970e-08	3.610256e+01	1.551322e+03
1.850000e-06	4.978447e-06	2.364615e-08	3.585064e+01	1.548865e+03
1.860000e-06	4.941725e-06	2.358872e-08	3.558619e+01	1.546212e+03
1.870000e-06	4.903036e-06	2.354088e-08	3.530759e+01	1.543452e+03
1.880000e-06	4.862691e-06	2.348659e-08	3.501706e+01	1.540659e+03
1.890000e-06	4.820641e-06	2.341958e-08	3.471425e+01	1.537866e+03
1.900000e-06	4.776823e-06	2.343597e-08	3.439871e+01	1.535053e+03
1.910000e-06	4.731246e-06	2.340514e-08	3.407050e+01	1.532154e+03
1.920000e-06	4.683773e-06	2.328714e-08	3.372864e+01	1.529079e+03
1.930000e-06	4.634681e-06	2.322858e-08	3.337512e+01	1.525744e+03
1.940000e-06	4.583926e-06	2.323115e-08	3.300962e+01	1.522097e+03
1.950000e-06	4.531141e-06	2.319707e-08	3.262951e+01	1.518135e+03
1.960000e-06	4.476435e-06	2.310985e-08	3.223556e+01	1.513907e+03
1.970000e-06	4.420029e-06	2.304941e-08	3.182937e+01	1.509496e+03
1.980000e-06	4.362041e-06	2.298330e-08	3.141179e+01	1.504992e+03
1.990000e-06	4.302622e-06	2.288676e-08	3.098391e+01	1.500464e+03
2.000000e-06	4.241750e-06	2.282497e-08	3.054556e+01	1.495933e+03
2.010000e-06	4.179245e-06	2.277471e-08	3.009544e+01	1.491371e+03
2.020000e-06	4.115043e-06	2.271070e-08	2.963312e+01	1.486701e+03
2.030000e-06	4.049362e-06	2.261552e-08	2.916013e+01	1.481827e+03
2.040000e-06	3.982346e-06	2.250957e-08	2.867754e+01	1.476665e+03
2.050000e-06	3.913935e-06	2.244562e-08	2.818490e+01	1.471164e+03
2.060000e-06	3.843991e-06	2.237669e-08	2.768122e+01	1.465332e+03
2.070000e-06	3.772588e-06	2.228622e-08	2.716704e+01	1.459225e+03
2.080000e-06	3.699890e-06	2.219601e-08	2.664353e+01	1.452935e+03
2.090000e-06	3.625844e-06	2.209636e-08	2.611032e+01	1.446556e+03
2.100000e-06	3.550490e-06	2.199708e-08	2.556768e+01	1.440152e+03
2.110000e-06	3.473654e-06	2.190038e-08	2.501437e+01	1.433736e+03
2.120000e-06	3.395293e-06	2.180089e-08	2.445007e+01	1.427257e+03
2.130000e-06	3.315738e-06	2.169461e-08	2.387719e+01	1.420616e+03
2.140000e-06	3.235037e-06	2.159083e-08	2.329605e+01	1.413695e+03
2.150000e-06	3.153223e-06	2.148352e-08	2.270689e+01	1.406389e+03
2.160000e-06	3.070392e-06	2.135675e-08	2.211041e+01	1.398639e+03
2.170000e-06	2.986524e-06	2.122930e-08	2.150646e+01	1.390453e+03
2.180000e-06	2.901564e-06	2.111147e-08	2.089465e+01	1.381897e+03
2.190000e-06	2.815400e-06	2.099066e-08	2.027417e+01	1.373080e+03
2.200000e-06	2.728022e-06	2.085608e-08	1.964495e+01	1.364111e+03
2.210000e-06	2.639645e-06	2.071655e-08	1.900853e+01	1.355061e+03
2.220000e-06	2.550446e-06	2.057995e-08	1.836619e+01	1.345938e+03
2.230000e-06	2.460437e-06	2.043585e-08	1.771802e+01	1.336673e+03
2.240000e-06	2.369673e-06	2.028256e-08	1.706441e+01	1.327139e+03
2.250000e-06	2.278206e-06	2.012811e-08	1.640574e+01	1.317181e+03
2.260000e-06	2.185935e-06	1.997298e-08	1.574129e+01	1.306665e+03
2.270000e-06	2.092712e-06	1.980383e-08	1.506997e+01	1.295511e+03
2.280000e-06	1.998625e-06	1.962447e-08	1.439243e+01	1.283722e+03
2.290000e-06	1.903749e-06	1.944589e-08	1.370922e+01	1.271379e+03
2.300000e-06	1.808101e-06	1.926277e-08	1.302044e+01	1.258608e+03
2.310000e-06	1.711852e-06	1.907102e-08	1.232733e+01	1.245541e+03
2.320000e-06	1.615136e-06	1.886864e-08	1.163086e+01	1.232262e+03
2.330000e-06	1.517900e-06	1.866051e-08	1.093065e+01	1.218766e+03
2.340000e-06	1.420123e-06	1.844637e-08	1.022654e+01	1.204954e+03
2.350000e-06	1.321910e-06	1.821975e-08	9.519300e+00	1.190644e+03
2.360000e-06	1.223293e-06	1.797926e-08	8.809141e+00	1.175618e+03
2.370000e-06	1.124349e-06	1.773008e-08	8.096623e+00	1.159679e+03
2.380000e-06	1.025162e-06	1.747493e-08	7.382363e+00	1.142705e+03
2.390000e-06	9.257153e-07	1.721125e-08	6.666232e+00	1.124679e+03
2.400000e-06	8.259725e-07	1.693294e-08	5.947967e+00	1.105684e+03
2.410000e-06	7.259252e-07	1.663892e-08	5.227509e+00	1.085860e+03
2.420000e-06	6.255794e-07	1.633150e-08	4.504903e+00	1.065343e+03
2.430000e-06	5.250509e-07	1.600742e-08	3.780980e+00	1.044184e+03
2.440000e-06	4.243602e-07	1.566630e-08	3.055889e+00	1.022295e+03
2.450000e-06	3.234326e-07	1.530890e-08	2.329092e+00	9.994284e+02
2.460000e-06	2.223656e-07	1.493206e-08	1.601292e+00	9.752039e+02
2.470000e-06	1.212168e-07	1.452746e-08	8.729023e-01	9.491736e+02
2.480000e-06	1.997881e-08	1.409043e-08	1.438708e-01	9.209155e+02
2.490000e-06	-8.132014e-08	1.362454e-08	-5.856000e-01	8.901183e+02
2.500000e-06	-1.825500e-07	1.312791e-08	-1.314574e+00	8.566292e+02
2.510000e-06	-2.836496e-07	1.259484e-08	-2.042608e+00	8.204410e+02
2.520000e-06	-3.846683e-07	1.201882e-08	-2.770061e+00	7.816095e+02
2.530000e-06	-4.855553e-07	1.139277e-08	-3.496566e+00	7.401142e+02
2.540000e-06	-5.863074e-07	1.071139e-08	-4.222099e+00	6.956949e+02
2.550000e-06	-6.868549e-07	9.963757e-09	-4.946158e+00	6.477104e+02
2.560000e-06	-7.871191e-07	9.138621e-09	-5.668177e+00	5.950683e+02
2.570000e-06	-8.870953e-07	8.224248e-09	-6.388122e+00	5.362633e+02
2.580000e-06	-9.867397e-07	7.202681e-09	-7.105679e+00	4.695401e+02
2.590000e-06	-1.086011e-06	6.052925e-09	-7.820544e+00	3.931688e+02
2.600000e-06	-1.184967e-06	4.750384e-09	-8.533145e+00	3.057884e+02
2.610000e-06	-1.283608e-06	3.275585e-09	-9.243480e+00	2.067551e+02
2.620000e-06	-1.381789e-06	1.623097e-09	-9.950497e+00	9.642156e+01
2.630000e-06	-1.479448e-06	-1.978566e-10	-1.065375e+01	-2.371855e+01
2.640000e-06	-1.576534e-06	-2.154026e-09	-1.135289e+01	-1.510628e+02
2.650000e-06	-1.673044e-06	-4.186567e-09	-1.204787e+01	-2.821172e+02
2.660000e-06	-1.769115e-06	-6.220634e-09	-1.273969e+01	-4.128694e+02
2.670000e-06	-1.864765e-06	-8.178891e-09	-1.342848e+01	-5.392543e+02
2.680000e-06	-1.959733e-06	-9.995073e-09	-1.411237e+01	-6.576318e+02
2.690000e-06	-2.053745e-06	-1.162747e-08	-1.478936e+01	-7.651917e+02
2.700000e-06	-2.146756e-06	-1.305950e-08	-1.545915e+01	-8.602156e+02
2.710000e-06	-2.238920e-06	-1.429592e-08	-1.612284e+01	-9.421592e+02
2.720000e-06	-2.330351e-06	-1.535732e-08	-1.678125e+01	-1.011550e+03
2.730000e-06	-2.421022e-06	-1.626567e-08	-1.743419e+01	-1.069737e+03
2.740000e-06	-2.510856e-06	-1.704011e-08	-1.808109e+01	-1.118548e+03
2.750000e-06	-2.599781e-06	-1.770194e-08	-1.872146e+01	-1.159938e+03
2.760000e-06	-2.687854e-06	-1.827172e-08	-1.935569e+01	-1.195684e+03
2.770000e-06	-2.775141e-06	-1.876392e-08	-1.998425e+01	-1.227184e+03
2.780000e-06	-2.861403e-06	-1.919192e-08	-2.060544e+01	-1.255382e+03
2.790000e-06	-2.946448e-06	-1.956936e-08	-2.121787e+01	-1.280805e+03
2.800000e-06	-3.030341e-06	-1.990500e-08	-2.182199e+01	-1.303683e+03
2.810000e-06	-3.113203e-06	-2.020505e-08	-2.241870e+01	-1.324108e+03
2.820000e-06	-3.195061e-06	-2.047495e-08	-2.300817e+01	-1.342175e+03
2.830000e-06	-3.275863e-06	-2.072044e-08	-2.359004e+01	-1.358080e+03
2.840000e-06	-3.355597e-06	-2.094696e-08	-2.416422e+01	-1.372145e+03
2.850000e-06	-3.434114e-06	-2.115637e-08	-2.472963e+01	-1.384790e+03
2.860000e-06	-3.511144e-06	-2.134923e-08	-2.528434e+01	-1.396451e+03
2.870000e-06	-3.586658e-06	-2.152654e-08	-2.582813e+01	-1.407498e+03
2.880000e-06	-3.660855e-06	-2.169035e-08	-2.636243e+01	-1.418162e+03
2.890000e-06	-3.733774e-06	-2.184259e-08	-2.688753e+01	-1.428512e+03
2.900000e-06	-3.805409e-06	-2.198475e-08	-2.740339e+01	-1.438466e+03
2.910000e-06	-3.875618e-06	-2.211771e-08	-2.790898e+01	-1.447856e+03
2.920000e-06	-3.944248e-06	-2.224140e-08	-2.840320e+01	-1.456504e+03
2.930000e-06	-4.011459e-06	-2.235713e-08	-2.888719e+01	-1.464292e+03
2.940000e-06	-4.077330e-06	-2.246658e-08	-2.936154e+01	-1.471216e+03
