# Temperatura_=_49.36
# Concentracion g/m^3_=_41000.0
# C_Vs_to_Am_M_A/Vsm_=_65563218390.804596
# pendiente_HvsI_1/m_=_3716.3
# ordenada_HvsI_A/m_=_1297.0
# frecuencia_Hz_=_301641.50216501503

Tiempo_(s)	Campo_(V.s)	Magnetizacion_(V.s)	Campo_(kA/m)	Magnetizacion_(A/m)
0.000000e+00	-5.340564e-06	-2.453945e-08	-3.833737e+01	-1.604496e+03
1.000000e-08	-5.338619e-06	-2.453643e-08	-3.832341e+01	-1.604161e+03
2.000000e-08	-5.334775e-06	-2.453040e-08	-3.829581e+01	-1.603909e+03
3.000000e-08	-5.329218e-06	-2.452298e-08	-3.825592e+01	-1.603719e+03
4.000000e-08	-5.322046e-06	-2.451488e-08	-3.820443e+01	-1.603514e+03
5.000000e-08	-5.313270e-06	-2.450368e-08	-3.814143e+01	-1.603181e+03
6.000000e-08	-5.302552e-06	-2.449010e-08	-3.806449e+01	-1.602609e+03
7.000000e-08	-5.289811e-06	-2.447442e-08	-3.797303e+01	-1.601725e+03
8.000000e-08	-5.275073e-06	-2.446276e-08	-3.786724e+01	-1.600521e+03
9.000000e-08	-5.258035e-06	-2.446503e-08	-3.774493e+01	-1.599055e+03
1.000000e-07	-5.238792e-06	-2.445622e-08	-3.760679e+01	-1.597435e+03
1.100000e-07	-5.217690e-06	-2.442179e-08	-3.745531e+01	-1.595792e+03
1.200000e-07	-5.194921e-06	-2.438593e-08	-3.729187e+01	-1.594237e+03
1.300000e-07	-5.170733e-06	-2.432536e-08	-3.711823e+01	-1.592829e+03
1.400000e-07	-5.145000e-06	-2.426483e-08	-3.693351e+01	-1.591553e+03
1.500000e-07	-5.117492e-06	-2.428477e-08	-3.673604e+01	-1.590327e+03
1.600000e-07	-5.088430e-06	-2.427573e-08	-3.652742e+01	-1.589021e+03
1.700000e-07	-5.057948e-06	-2.424629e-08	-3.630860e+01	-1.587495e+03
1.800000e-07	-5.025594e-06	-2.426224e-08	-3.607635e+01	-1.585637e+03
1.900000e-07	-4.991110e-06	-2.416727e-08	-3.582880e+01	-1.583398e+03
2.000000e-07	-4.955036e-06	-2.405512e-08	-3.556984e+01	-1.580800e+03
2.100000e-07	-4.917433e-06	-2.403944e-08	-3.529991e+01	-1.577931e+03
2.200000e-07	-4.878103e-06	-2.400477e-08	-3.501758e+01	-1.574915e+03
2.300000e-07	-4.836914e-06	-2.398681e-08	-3.472190e+01	-1.571875e+03
2.400000e-07	-4.793659e-06	-2.396978e-08	-3.441140e+01	-1.568896e+03
2.500000e-07	-4.748599e-06	-2.388368e-08	-3.408793e+01	-1.566001e+03
2.600000e-07	-4.701836e-06	-2.380729e-08	-3.375224e+01	-1.563144e+03
2.700000e-07	-4.653144e-06	-2.378244e-08	-3.340270e+01	-1.560228e+03
2.800000e-07	-4.602341e-06	-2.377938e-08	-3.303802e+01	-1.557133e+03
2.900000e-07	-4.549518e-06	-2.370593e-08	-3.265882e+01	-1.553750e+03
3.000000e-07	-4.494998e-06	-2.358922e-08	-3.226745e+01	-1.550022e+03
3.100000e-07	-4.438933e-06	-2.353555e-08	-3.186498e+01	-1.545950e+03
3.200000e-07	-4.381109e-06	-2.351210e-08	-3.144989e+01	-1.541597e+03
3.300000e-07	-4.321540e-06	-2.345171e-08	-3.102227e+01	-1.537062e+03
3.400000e-07	-4.260497e-06	-2.336874e-08	-3.058408e+01	-1.532451e+03
3.500000e-07	-4.198021e-06	-2.329569e-08	-3.013560e+01	-1.527840e+03
3.600000e-07	-4.134171e-06	-2.321543e-08	-2.967724e+01	-1.523252e+03
3.700000e-07	-4.068832e-06	-2.312850e-08	-2.920821e+01	-1.518650e+03
3.800000e-07	-4.001881e-06	-2.307831e-08	-2.872760e+01	-1.513948e+03
3.900000e-07	-3.933392e-06	-2.302613e-08	-2.823594e+01	-1.509041e+03
4.000000e-07	-3.863561e-06	-2.292476e-08	-2.773466e+01	-1.503834e+03
4.100000e-07	-3.792557e-06	-2.281000e-08	-2.722496e+01	-1.498277e+03
4.200000e-07	-3.720348e-06	-2.271274e-08	-2.670661e+01	-1.492375e+03
4.300000e-07	-3.646634e-06	-2.263457e-08	-2.617745e+01	-1.486190e+03
4.400000e-07	-3.571259e-06	-2.255879e-08	-2.563637e+01	-1.479815e+03
4.500000e-07	-3.494481e-06	-2.247730e-08	-2.508522e+01	-1.473345e+03
4.600000e-07	-3.416430e-06	-2.236644e-08	-2.452492e+01	-1.466842e+03
4.700000e-07	-3.337031e-06	-2.223671e-08	-2.395496e+01	-1.460312e+03
4.800000e-07	-3.256234e-06	-2.212310e-08	-2.337496e+01	-1.453702e+03
4.900000e-07	-3.174189e-06	-2.202347e-08	-2.278599e+01	-1.446909e+03
5.000000e-07	-3.091119e-06	-2.192193e-08	-2.218967e+01	-1.439815e+03
5.100000e-07	-3.007181e-06	-2.180943e-08	-2.158712e+01	-1.432318e+03
5.200000e-07	-2.922429e-06	-2.168979e-08	-2.097872e+01	-1.424366e+03
5.300000e-07	-2.836771e-06	-2.155786e-08	-2.036383e+01	-1.415971e+03
5.400000e-07	-2.750153e-06	-2.141802e-08	-1.974204e+01	-1.407203e+03
5.500000e-07	-2.662651e-06	-2.128706e-08	-1.911390e+01	-1.398164e+03
5.600000e-07	-2.574174e-06	-2.116142e-08	-1.847877e+01	-1.388954e+03
5.700000e-07	-2.484496e-06	-2.102203e-08	-1.783501e+01	-1.379634e+03
5.800000e-07	-2.393696e-06	-2.086444e-08	-1.718320e+01	-1.370196e+03
5.900000e-07	-2.302003e-06	-2.070237e-08	-1.652498e+01	-1.360564e+03
6.000000e-07	-2.209496e-06	-2.053992e-08	-1.586092e+01	-1.350608e+03
6.100000e-07	-2.116256e-06	-2.037494e-08	-1.519159e+01	-1.340178e+03
6.200000e-07	-2.022259e-06	-2.020845e-08	-1.451684e+01	-1.329153e+03
6.300000e-07	-1.927532e-06	-2.003537e-08	-1.383683e+01	-1.317470e+03
6.400000e-07	-1.832224e-06	-1.985141e-08	-1.315266e+01	-1.305145e+03
6.500000e-07	-1.736323e-06	-1.965913e-08	-1.246424e+01	-1.292265e+03
6.600000e-07	-1.639707e-06	-1.945983e-08	-1.177067e+01	-1.278953e+03
6.700000e-07	-1.542405e-06	-1.925434e-08	-1.107219e+01	-1.265327e+03
6.800000e-07	-1.444439e-06	-1.904235e-08	-1.036894e+01	-1.251449e+03
6.900000e-07	-1.345835e-06	-1.882214e-08	-9.661106e+00	-1.237291e+03
7.000000e-07	-1.246760e-06	-1.859245e-08	-8.949895e+00	-1.222736e+03
7.100000e-07	-1.147277e-06	-1.835365e-08	-8.235758e+00	-1.207595e+03
7.200000e-07	-1.047427e-06	-1.810656e-08	-7.518981e+00	-1.191655e+03
7.300000e-07	-9.472597e-07	-1.784790e-08	-6.799926e+00	-1.174735e+03
7.400000e-07	-8.468427e-07	-1.757552e-08	-6.079081e+00	-1.156737e+03
7.500000e-07	-7.461640e-07	-1.729399e-08	-5.356356e+00	-1.137663e+03
7.600000e-07	-6.452640e-07	-1.700179e-08	-4.632043e+00	-1.117605e+03
7.700000e-07	-5.442354e-07	-1.669317e-08	-3.906807e+00	-1.096701e+03
7.800000e-07	-4.430524e-07	-1.636596e-08	-3.180462e+00	-1.075067e+03
7.900000e-07	-3.417127e-07	-1.601918e-08	-2.452992e+00	-1.052728e+03
8.000000e-07	-2.401708e-07	-1.565143e-08	-1.724072e+00	-1.029566e+03
8.100000e-07	-1.385350e-07	-1.526425e-08	-9.944766e-01	-1.005319e+03
8.200000e-07	-3.693359e-08	-1.486068e-08	-2.651287e-01	-9.796074e+02
8.300000e-07	6.469221e-08	-1.443625e-08	4.643946e-01	-9.520101e+02
8.400000e-07	1.663636e-07	-1.398152e-08	1.194245e+00	-9.221518e+02
8.500000e-07	2.680022e-07	-1.349164e-08	1.923860e+00	-8.897783e+02
8.600000e-07	3.695346e-07	-1.296811e-08	2.652713e+00	-8.547899e+02
8.700000e-07	4.709630e-07	-1.240911e-08	3.380819e+00	-8.172129e+02
8.800000e-07	5.723047e-07	-1.181179e-08	4.108303e+00	-7.771059e+02
8.900000e-07	6.735119e-07	-1.116802e-08	4.834821e+00	-7.344175e+02
9.000000e-07	7.744865e-07	-1.046574e-08	5.559670e+00	-6.888306e+02
9.100000e-07	8.752144e-07	-9.695119e-09	6.282747e+00	-6.396386e+02
9.200000e-07	9.756502e-07	-8.845011e-09	7.003728e+00	-5.856986e+02
9.300000e-07	1.075760e-06	-7.905439e-09	7.722366e+00	-5.254932e+02
9.400000e-07	1.175533e-06	-6.857938e-09	8.438592e+00	-4.573117e+02
9.500000e-07	1.274931e-06	-5.678626e-09	9.152125e+00	-3.795291e+02
9.600000e-07	1.373918e-06	-4.347508e-09	9.862705e+00	-2.909386e+02
9.700000e-07	1.472345e-06	-2.847091e-09	1.056926e+01	-1.910733e+02
9.800000e-07	1.569984e-06	-1.170556e-09	1.127016e+01	-8.044710e+01
9.900000e-07	1.666846e-06	6.660409e-10	1.196549e+01	3.934081e+01
1.000000e-06	1.763016e-06	2.619845e-09	1.265585e+01	1.656734e+02
1.010000e-06	1.858523e-06	4.626801e-09	1.334145e+01	2.951523e+02
1.020000e-06	1.953466e-06	6.612680e-09	1.402300e+01	4.239692e+02
1.030000e-06	2.047737e-06	8.508421e-09	1.469973e+01	5.483480e+02
1.040000e-06	2.141218e-06	1.026267e-08	1.537079e+01	6.649794e+02
1.050000e-06	2.233980e-06	1.184728e-08	1.603668e+01	7.713719e+02
1.060000e-06	2.326086e-06	1.325091e-08	1.669786e+01	8.660611e+02
1.070000e-06	2.417478e-06	1.447893e-08	1.735393e+01	9.486485e+02
1.080000e-06	2.507973e-06	1.554680e-08	1.800354e+01	1.019677e+03
1.090000e-06	2.597334e-06	1.647165e-08	1.864502e+01	1.080379e+03
1.100000e-06	2.685581e-06	1.727378e-08	1.927850e+01	1.132368e+03
1.110000e-06	2.772958e-06	1.797162e-08	1.990575e+01	1.177315e+03
1.120000e-06	2.859468e-06	1.858007e-08	2.052676e+01	1.216705e+03
1.130000e-06	2.944991e-06	1.911134e-08	2.114069e+01	1.251683e+03
1.140000e-06	3.029527e-06	1.957640e-08	2.174753e+01	1.283009e+03
1.150000e-06	3.113194e-06	1.998571e-08	2.234814e+01	1.311117e+03
1.160000e-06	3.195914e-06	2.035016e-08	2.294194e+01	1.336232e+03
1.170000e-06	3.277347e-06	2.067711e-08	2.352651e+01	1.358507e+03
1.180000e-06	3.357530e-06	2.097109e-08	2.410211e+01	1.378136e+03
1.190000e-06	3.436532e-06	2.123697e-08	2.466923e+01	1.395414e+03
1.200000e-06	3.514311e-06	2.147829e-08	2.522756e+01	1.410744e+03
1.210000e-06	3.590894e-06	2.169753e-08	2.577732e+01	1.424585e+03
1.220000e-06	3.666226e-06	2.190004e-08	2.631809e+01	1.437377e+03
1.230000e-06	3.740029e-06	2.208838e-08	2.684789e+01	1.449458e+03
1.240000e-06	3.812187e-06	2.226373e-08	2.736588e+01	1.461022e+03
1.250000e-06	3.882944e-06	2.242851e-08	2.787381e+01	1.472101e+03
1.260000e-06	3.952336e-06	2.258138e-08	2.837194e+01	1.482603e+03
1.270000e-06	4.020419e-06	2.272067e-08	2.886067e+01	1.492374e+03
1.280000e-06	4.087112e-06	2.284781e-08	2.933943e+01	1.501272e+03
1.290000e-06	4.152136e-06	2.296650e-08	2.980621e+01	1.509234e+03
1.300000e-06	4.215592e-06	2.307829e-08	3.026173e+01	1.516303e+03
1.310000e-06	4.277654e-06	2.318260e-08	3.070724e+01	1.522630e+03
1.320000e-06	4.338339e-06	2.327996e-08	3.114287e+01	1.528434e+03
1.330000e-06	4.397656e-06	2.336911e-08	3.156868e+01	1.533947e+03
1.340000e-06	4.455304e-06	2.345048e-08	3.198251e+01	1.539350e+03
1.350000e-06	4.511132e-06	2.352822e-08	3.238327e+01	1.544739e+03
1.360000e-06	4.565311e-06	2.360381e-08	3.277219e+01	1.550104e+03
1.370000e-06	4.617838e-06	2.367647e-08	3.314926e+01	1.555347e+03
1.380000e-06	4.668450e-06	2.374529e-08	3.351258e+01	1.560329e+03
1.390000e-06	4.717037e-06	2.381122e-08	3.386136e+01	1.564914e+03
1.400000e-06	4.763880e-06	2.387465e-08	3.419763e+01	1.569020e+03
1.410000e-06	4.809156e-06	2.393475e-08	3.452264e+01	1.572647e+03
1.420000e-06	4.852887e-06	2.399091e-08	3.483656e+01	1.575872e+03
1.430000e-06	4.894844e-06	2.404170e-08	3.513776e+01	1.578826e+03
1.440000e-06	4.934951e-06	2.408743e-08	3.542566e+01	1.581652e+03
1.450000e-06	4.973396e-06	2.413046e-08	3.570164e+01	1.584463e+03
1.460000e-06	5.010217e-06	2.417147e-08	3.596596e+01	1.587307e+03
1.470000e-06	5.045330e-06	2.420954e-08	3.621802e+01	1.590155e+03
1.480000e-06	5.078486e-06	2.424439e-08	3.645604e+01	1.592917e+03
1.490000e-06	5.109797e-06	2.427575e-08	3.668080e+01	1.595473e+03
1.500000e-06	5.139494e-06	2.430451e-08	3.689398e+01	1.597711e+03
1.510000e-06	5.167552e-06	2.433153e-08	3.709539e+01	1.599568e+03
1.520000e-06	5.193704e-06	2.435608e-08	3.728313e+01	1.601050e+03
1.530000e-06	5.217766e-06	2.437893e-08	3.745586e+01	1.602229e+03
1.540000e-06	5.239962e-06	2.440058e-08	3.761519e+01	1.603222e+03
1.550000e-06	5.260444e-06	2.442127e-08	3.776222e+01	1.604155e+03
1.560000e-06	5.279139e-06	2.443963e-08	3.789642e+01	1.605125e+03
1.570000e-06	5.295841e-06	2.445353e-08	3.801632e+01	1.606171e+03
1.580000e-06	5.310521e-06	2.446449e-08	3.812170e+01	1.607265e+03
1.590000e-06	5.323250e-06	2.447553e-08	3.821308e+01	1.608321e+03
1.600000e-06	5.333839e-06	2.448685e-08	3.828909e+01	1.609229e+03
1.610000e-06	5.342273e-06	2.449630e-08	3.834963e+01	1.609886e+03
1.620000e-06	5.348800e-06	2.450377e-08	3.839649e+01	1.610232e+03
1.630000e-06	5.353589e-06	2.450925e-08	3.843087e+01	1.610269e+03
1.640000e-06	5.356633e-06	2.451214e-08	3.845272e+01	1.610063e+03
1.650000e-06	5.357648e-06	2.451300e-08	3.846000e+01	1.609716e+03
1.660000e-06	5.356704e-06	2.451169e-08	3.845323e+01	1.609343e+03
1.670000e-06	5.354134e-06	2.450955e-08	3.843478e+01	1.609025e+03
1.680000e-06	5.349998e-06	2.450726e-08	3.840509e+01	1.608792e+03
1.690000e-06	5.344019e-06	2.450009e-08	3.836217e+01	1.608607e+03
1.700000e-06	5.336133e-06	2.448985e-08	3.830555e+01	1.608380e+03
1.710000e-06	5.326605e-06	2.448085e-08	3.823716e+01	1.607995e+03
1.720000e-06	5.315453e-06	2.447297e-08	3.815710e+01	1.607348e+03
1.730000e-06	5.302466e-06	2.445619e-08	3.806388e+01	1.606382e+03
1.740000e-06	5.287496e-06	2.442158e-08	3.795642e+01	1.605103e+03
1.750000e-06	5.270349e-06	2.438739e-08	3.783333e+01	1.603585e+03
1.760000e-06	5.250645e-06	2.438558e-08	3.769188e+01	1.601946e+03
1.770000e-06	5.228396e-06	2.437990e-08	3.753216e+01	1.600315e+03
1.780000e-06	5.204445e-06	2.438862e-08	3.736023e+01	1.598793e+03
1.790000e-06	5.179703e-06	2.438476e-08	3.718262e+01	1.597421e+03
1.800000e-06	5.153896e-06	2.430853e-08	3.699736e+01	1.596167e+03
1.810000e-06	5.126118e-06	2.428830e-08	3.679796e+01	1.594933e+03
1.820000e-06	5.096374e-06	2.425970e-08	3.658444e+01	1.593584e+03
1.830000e-06	5.064903e-06	2.419006e-08	3.635853e+01	1.591982e+03
1.840000e-06	5.031557e-06	2.422519e-08	3.611915e+01	1.590029e+03
1.850000e-06	4.996531e-06	2.423442e-08	3.586772e+01	1.587694e+03
1.860000e-06	4.959831e-06	2.419231e-08	3.560427e+01	1.585018e+03
1.870000e-06	4.921185e-06	2.418322e-08	3.532685e+01	1.582098e+03
1.880000e-06	4.880857e-06	2.406538e-08	3.503735e+01	1.579064e+03
1.890000e-06	4.838801e-06	2.397396e-08	3.473545e+01	1.576032e+03
1.900000e-06	4.794987e-06	2.399265e-08	3.442093e+01	1.573073e+03
1.910000e-06	4.749530e-06	2.397118e-08	3.409461e+01	1.570194e+03
1.920000e-06	4.702123e-06	2.390559e-08	3.375430e+01	1.567332e+03
1.930000e-06	4.652992e-06	2.380877e-08	3.340162e+01	1.564381e+03
1.940000e-06	4.602138e-06	2.380037e-08	3.303656e+01	1.561221e+03
1.950000e-06	4.549251e-06	2.380733e-08	3.265690e+01	1.557755e+03
1.960000e-06	4.494450e-06	2.369488e-08	3.226352e+01	1.553937e+03
1.970000e-06	4.437890e-06	2.361443e-08	3.185750e+01	1.549785e+03
1.980000e-06	4.379800e-06	2.356567e-08	3.144050e+01	1.545375e+03
1.990000e-06	4.320331e-06	2.349889e-08	3.101360e+01	1.540811e+03
2.000000e-06	4.259336e-06	2.343140e-08	3.057575e+01	1.536194e+03
2.010000e-06	4.196633e-06	2.337307e-08	3.012563e+01	1.531587e+03
2.020000e-06	4.132221e-06	2.332842e-08	2.966325e+01	1.527001e+03
2.030000e-06	4.066401e-06	2.320808e-08	2.919075e+01	1.522382e+03
2.040000e-06	3.999306e-06	2.310667e-08	2.870911e+01	1.517637e+03
2.050000e-06	3.930795e-06	2.306467e-08	2.821731e+01	1.512661e+03
2.060000e-06	3.860684e-06	2.300361e-08	2.771401e+01	1.507368e+03
2.070000e-06	3.789103e-06	2.292716e-08	2.720017e+01	1.501721e+03
2.080000e-06	3.716317e-06	2.282114e-08	2.667767e+01	1.495740e+03
2.090000e-06	3.642262e-06	2.271843e-08	2.614606e+01	1.489496e+03
2.100000e-06	3.566900e-06	2.261359e-08	2.560508e+01	1.483088e+03
2.110000e-06	3.490026e-06	2.252604e-08	2.505324e+01	1.476605e+03
2.120000e-06	3.411509e-06	2.245441e-08	2.448960e+01	1.470096e+03
2.130000e-06	3.331719e-06	2.235301e-08	2.391682e+01	1.463552e+03
2.140000e-06	3.250847e-06	2.224924e-08	2.333628e+01	1.456906e+03
2.150000e-06	3.168894e-06	2.213676e-08	2.274798e+01	1.450048e+03
2.160000e-06	3.085883e-06	2.201479e-08	2.215208e+01	1.442860e+03
2.170000e-06	3.001867e-06	2.188429e-08	2.154898e+01	1.435251e+03
2.180000e-06	2.916700e-06	2.176614e-08	2.093760e+01	1.427183e+03
2.190000e-06	2.830222e-06	2.166252e-08	2.031682e+01	1.418685e+03
2.200000e-06	2.742648e-06	2.153326e-08	1.968816e+01	1.409838e+03
2.210000e-06	2.654108e-06	2.138674e-08	1.905258e+01	1.400747e+03
2.220000e-06	2.564675e-06	2.124279e-08	1.841058e+01	1.391505e+03
2.230000e-06	2.474397e-06	2.110907e-08	1.776252e+01	1.382158e+03
2.240000e-06	2.383345e-06	2.097100e-08	1.710890e+01	1.372680e+03
2.250000e-06	2.291630e-06	2.082611e-08	1.645052e+01	1.362979e+03
2.260000e-06	2.199123e-06	2.067463e-08	1.578646e+01	1.352917e+03
2.270000e-06	2.105632e-06	2.050406e-08	1.511533e+01	1.342347e+03
2.280000e-06	2.011146e-06	2.032079e-08	1.443706e+01	1.331159e+03
2.290000e-06	1.915893e-06	2.013661e-08	1.375328e+01	1.319310e+03
2.300000e-06	1.820070e-06	1.995963e-08	1.306541e+01	1.306835e+03
2.310000e-06	1.723654e-06	1.978170e-08	1.237329e+01	1.293833e+03
2.320000e-06	1.626694e-06	1.958639e-08	1.167726e+01	1.280432e+03
2.330000e-06	1.529229e-06	1.937667e-08	1.097761e+01	1.266739e+03
2.340000e-06	1.431196e-06	1.916328e-08	1.027388e+01	1.252796e+03
2.350000e-06	1.332664e-06	1.894331e-08	9.566561e+00	1.238553e+03
2.360000e-06	1.233749e-06	1.870946e-08	8.856493e+00	1.223869e+03
2.370000e-06	1.134552e-06	1.846291e-08	8.144405e+00	1.208547e+03
2.380000e-06	1.035159e-06	1.821095e-08	7.430917e+00	1.192375e+03
2.390000e-06	9.355390e-07	1.795229e-08	6.715789e+00	1.175190e+03
2.400000e-06	8.356573e-07	1.767600e-08	5.998786e+00	1.156917e+03
2.410000e-06	7.355132e-07	1.738623e-08	5.279899e+00	1.137584e+03
2.420000e-06	6.350406e-07	1.708755e-08	4.558654e+00	1.117301e+03
2.430000e-06	5.342310e-07	1.677448e-08	3.834990e+00	1.096205e+03
2.440000e-06	4.331753e-07	1.644594e-08	3.109559e+00	1.074396e+03
2.450000e-06	3.319188e-07	1.610501e-08	2.382687e+00	1.051867e+03
2.460000e-06	2.304918e-07	1.574763e-08	1.654591e+00	1.028463e+03
2.470000e-06	1.289029e-07	1.536014e-08	9.253327e-01	1.003887e+03
2.480000e-06	2.715139e-08	1.494268e-08	1.949069e-01	9.777421e+02
2.490000e-06	-7.462428e-08	1.450402e-08	-5.356922e-01	9.496099e+02
2.500000e-06	-1.762988e-07	1.404409e-08	-1.265565e+00	9.191395e+02
2.510000e-06	-2.778471e-07	1.355778e-08	-1.994532e+00	8.861146e+02
2.520000e-06	-3.792957e-07	1.303424e-08	-2.722783e+00	8.504721e+02
2.530000e-06	-4.806366e-07	1.246578e-08	-3.450261e+00	8.122575e+02
2.540000e-06	-5.817474e-07	1.185115e-08	-4.176088e+00	7.715166e+02
2.550000e-06	-6.825678e-07	1.118687e-08	-4.899829e+00	7.281457e+02
2.560000e-06	-7.830237e-07	1.046769e-08	-5.620954e+00	6.817396e+02
2.570000e-06	-8.830699e-07	9.683220e-09	-6.339139e+00	6.314832e+02
2.580000e-06	-9.828636e-07	8.819836e-09	-7.055510e+00	5.761294e+02
2.590000e-06	-1.082402e-06	7.862737e-09	-7.770048e+00	5.140913e+02
2.600000e-06	-1.181620e-06	6.793287e-09	-8.482291e+00	4.436502e+02
2.610000e-06	-1.280521e-06	5.590096e-09	-9.192251e+00	3.632538e+02
2.620000e-06	-1.378999e-06	4.232141e-09	-9.899174e+00	2.718522e+02
2.630000e-06	-1.476940e-06	2.703309e-09	-1.060225e+01	1.692054e+02
2.640000e-06	-1.574413e-06	1.000672e-09	-1.130196e+01	5.609540e+01
2.650000e-06	-1.671413e-06	-8.585847e-10	-1.199828e+01	-6.561096e+01
2.660000e-06	-1.767794e-06	-2.831275e-09	-1.269015e+01	-1.930730e+02
2.670000e-06	-1.863581e-06	-4.849542e-09	-1.337776e+01	-3.227512e+02
2.680000e-06	-1.958840e-06	-6.835714e-09	-1.406158e+01	-4.508025e+02
2.690000e-06	-2.053413e-06	-8.720102e-09	-1.474048e+01	-5.735290e+02
2.700000e-06	-2.146985e-06	-1.045489e-08	-1.541218e+01	-6.877976e+02
2.710000e-06	-2.239466e-06	-1.201614e-08	-1.607606e+01	-7.913605e+02
2.720000e-06	-2.331091e-06	-1.340064e-08	-1.673379e+01	-8.830227e+02
2.730000e-06	-2.422000e-06	-1.461531e-08	-1.738638e+01	-9.626386e+02
2.740000e-06	-2.512095e-06	-1.567269e-08	-1.803314e+01	-1.030951e+03
2.750000e-06	-2.601316e-06	-1.658899e-08	-1.867361e+01	-1.089317e+03
2.760000e-06	-2.689666e-06	-1.738117e-08	-1.930783e+01	-1.139393e+03
2.770000e-06	-2.777234e-06	-1.806870e-08	-1.993644e+01	-1.182825e+03
2.780000e-06	-2.863961e-06	-1.866839e-08	-2.055902e+01	-1.221021e+03
2.790000e-06	-2.949486e-06	-1.919382e-08	-2.117296e+01	-1.255030e+03
2.800000e-06	-3.033715e-06	-1.965504e-08	-2.177760e+01	-1.285523e+03
2.810000e-06	-3.116912e-06	-2.006076e-08	-2.237482e+01	-1.312868e+03
2.820000e-06	-3.199134e-06	-2.041934e-08	-2.296506e+01	-1.337260e+03
2.830000e-06	-3.280277e-06	-2.074017e-08	-2.354755e+01	-1.358853e+03
2.840000e-06	-3.360341e-06	-2.103092e-08	-2.412229e+01	-1.377862e+03
2.850000e-06	-3.439269e-06	-2.129471e-08	-2.468887e+01	-1.394613e+03
2.860000e-06	-3.516738e-06	-2.153605e-08	-2.524499e+01	-1.409529e+03
2.870000e-06	-3.592609e-06	-2.176006e-08	-2.578963e+01	-1.423071e+03
2.880000e-06	-3.667051e-06	-2.196657e-08	-2.632402e+01	-1.435659e+03
2.890000e-06	-3.740167e-06	-2.215333e-08	-2.684888e+01	-1.447601e+03
2.900000e-06	-3.812063e-06	-2.232249e-08	-2.736499e+01	-1.459047e+03
2.910000e-06	-3.882621e-06	-2.247890e-08	-2.787148e+01	-1.469995e+03
2.920000e-06	-3.951572e-06	-2.262538e-08	-2.836646e+01	-1.480331e+03
2.930000e-06	-4.019068e-06	-2.276223e-08	-2.885098e+01	-1.489896e+03
2.940000e-06	-4.085258e-06	-2.289136e-08	-2.932612e+01	-1.498563e+03
