# Temperatura_=_62.01
# Concentracion g/m^3_=_41000.0
# C_Vs_to_Am_M_A/Vsm_=_65563218390.804596
# pendiente_HvsI_1/m_=_3716.3
# ordenada_HvsI_A/m_=_1297.0
# frecuencia_Hz_=_301637.32795560686

Tiempo_(s)	Campo_(V.s)	Magnetizacion_(V.s)	Campo_(kA/m)	Magnetizacion_(A/m)
0.000000e+00	-5.314716e-06	-2.180863e-08	-3.834309e+01	-1.425948e+03
1.000000e-08	-5.312701e-06	-2.180502e-08	-3.832856e+01	-1.425783e+03
2.000000e-08	-5.308842e-06	-2.179930e-08	-3.830072e+01	-1.425681e+03
3.000000e-08	-5.303356e-06	-2.179231e-08	-3.826114e+01	-1.425573e+03
4.000000e-08	-5.296269e-06	-2.178429e-08	-3.821001e+01	-1.425363e+03
5.000000e-08	-5.287487e-06	-2.177318e-08	-3.814665e+01	-1.424949e+03
6.000000e-08	-5.276743e-06	-2.176002e-08	-3.806914e+01	-1.424260e+03
7.000000e-08	-5.264028e-06	-2.174307e-08	-3.797741e+01	-1.423276e+03
8.000000e-08	-5.249364e-06	-2.173300e-08	-3.787161e+01	-1.422031e+03
9.000000e-08	-5.232451e-06	-2.174247e-08	-3.774959e+01	-1.420610e+03
1.000000e-07	-5.213346e-06	-2.173220e-08	-3.761176e+01	-1.419117e+03
1.100000e-07	-5.192337e-06	-2.169234e-08	-3.746018e+01	-1.417647e+03
1.200000e-07	-5.169612e-06	-2.165400e-08	-3.729624e+01	-1.416261e+03
1.300000e-07	-5.145475e-06	-2.159095e-08	-3.712210e+01	-1.414968e+03
1.400000e-07	-5.119887e-06	-2.156666e-08	-3.693750e+01	-1.413724e+03
1.500000e-07	-5.092569e-06	-2.159613e-08	-3.674041e+01	-1.412448e+03
1.600000e-07	-5.063680e-06	-2.154646e-08	-3.653199e+01	-1.411049e+03
1.700000e-07	-5.033389e-06	-2.152134e-08	-3.631345e+01	-1.409452e+03
1.800000e-07	-5.001234e-06	-2.153078e-08	-3.608147e+01	-1.407618e+03
1.900000e-07	-4.966942e-06	-2.144043e-08	-3.583407e+01	-1.405555e+03
2.000000e-07	-4.931009e-06	-2.138819e-08	-3.557483e+01	-1.403309e+03
2.100000e-07	-4.893533e-06	-2.138139e-08	-3.530446e+01	-1.400949e+03
2.200000e-07	-4.854290e-06	-2.133336e-08	-3.502134e+01	-1.398536e+03
2.300000e-07	-4.813232e-06	-2.131290e-08	-3.472513e+01	-1.396106e+03
2.400000e-07	-4.770203e-06	-2.126938e-08	-3.441470e+01	-1.393653e+03
2.500000e-07	-4.725359e-06	-2.119775e-08	-3.409117e+01	-1.391133e+03
2.600000e-07	-4.678774e-06	-2.116303e-08	-3.375508e+01	-1.388475e+03
2.700000e-07	-4.630326e-06	-2.112775e-08	-3.340555e+01	-1.385606e+03
2.800000e-07	-4.579799e-06	-2.109834e-08	-3.304102e+01	-1.382473e+03
2.900000e-07	-4.527253e-06	-2.103842e-08	-3.266193e+01	-1.379064e+03
3.000000e-07	-4.473059e-06	-2.094299e-08	-3.227095e+01	-1.375407e+03
3.100000e-07	-4.417288e-06	-2.089380e-08	-3.186859e+01	-1.371565e+03
3.200000e-07	-4.359711e-06	-2.086660e-08	-3.145320e+01	-1.367617e+03
3.300000e-07	-4.300349e-06	-2.080509e-08	-3.102493e+01	-1.363628e+03
3.400000e-07	-4.239558e-06	-2.073537e-08	-3.058635e+01	-1.359628e+03
3.500000e-07	-4.177421e-06	-2.067551e-08	-3.013806e+01	-1.355604e+03
3.600000e-07	-4.113929e-06	-2.059611e-08	-2.968000e+01	-1.351500e+03
3.700000e-07	-4.048978e-06	-2.051611e-08	-2.921141e+01	-1.347235e+03
3.800000e-07	-3.982369e-06	-2.046571e-08	-2.873086e+01	-1.342726e+03
3.900000e-07	-3.914189e-06	-2.040048e-08	-2.823897e+01	-1.337920e+03
4.000000e-07	-3.844678e-06	-2.031050e-08	-2.773748e+01	-1.332804e+03
4.100000e-07	-3.774005e-06	-2.022218e-08	-2.722761e+01	-1.327415e+03
4.200000e-07	-3.702173e-06	-2.013628e-08	-2.670938e+01	-1.321827e+03
4.300000e-07	-3.628934e-06	-2.005385e-08	-2.618100e+01	-1.316127e+03
4.400000e-07	-3.553977e-06	-1.997444e-08	-2.564022e+01	-1.310383e+03
4.500000e-07	-3.477507e-06	-1.989485e-08	-2.508852e+01	-1.304624e+03
4.600000e-07	-3.399799e-06	-1.979930e-08	-2.452790e+01	-1.298825e+03
4.700000e-07	-3.320781e-06	-1.969365e-08	-2.395782e+01	-1.292913e+03
4.800000e-07	-3.240431e-06	-1.959377e-08	-2.337813e+01	-1.286784e+03
4.900000e-07	-3.158790e-06	-1.949460e-08	-2.278914e+01	-1.280335e+03
5.000000e-07	-3.076073e-06	-1.938992e-08	-2.219237e+01	-1.273497e+03
5.100000e-07	-2.992454e-06	-1.927971e-08	-2.158910e+01	-1.266251e+03
5.200000e-07	-2.908031e-06	-1.916889e-08	-2.098003e+01	-1.258636e+03
5.300000e-07	-2.822717e-06	-1.905061e-08	-2.036453e+01	-1.250736e+03
5.400000e-07	-2.736437e-06	-1.892756e-08	-1.974207e+01	-1.242651e+03
5.500000e-07	-2.649277e-06	-1.881024e-08	-1.911325e+01	-1.234461e+03
5.600000e-07	-2.561196e-06	-1.868783e-08	-1.847778e+01	-1.226195e+03
5.700000e-07	-2.472109e-06	-1.855226e-08	-1.783506e+01	-1.217821e+03
5.800000e-07	-2.381910e-06	-1.840918e-08	-1.718432e+01	-1.209240e+03
5.900000e-07	-2.290677e-06	-1.826443e-08	-1.652612e+01	-1.200322e+03
6.000000e-07	-2.198639e-06	-1.811603e-08	-1.586211e+01	-1.190932e+03
6.100000e-07	-2.105903e-06	-1.796262e-08	-1.519306e+01	-1.180973e+03
6.200000e-07	-2.012362e-06	-1.780510e-08	-1.451821e+01	-1.170416e+03
6.300000e-07	-1.918080e-06	-1.763985e-08	-1.383801e+01	-1.159301e+03
6.400000e-07	-1.823245e-06	-1.746649e-08	-1.315383e+01	-1.147726e+03
6.500000e-07	-1.727798e-06	-1.728765e-08	-1.246523e+01	-1.135813e+03
6.600000e-07	-1.631662e-06	-1.710452e-08	-1.177165e+01	-1.123656e+03
6.700000e-07	-1.534932e-06	-1.691479e-08	-1.107379e+01	-1.111293e+03
6.800000e-07	-1.437627e-06	-1.671488e-08	-1.037178e+01	-1.098674e+03
6.900000e-07	-1.339629e-06	-1.650547e-08	-9.664774e+00	-1.085668e+03
7.000000e-07	-1.241028e-06	-1.628911e-08	-8.953416e+00	-1.072093e+03
7.100000e-07	-1.141936e-06	-1.606637e-08	-8.238512e+00	-1.057763e+03
7.200000e-07	-1.042431e-06	-1.583601e-08	-7.520633e+00	-1.042535e+03
7.300000e-07	-9.426820e-07	-1.559526e-08	-6.800992e+00	-1.026348e+03
7.400000e-07	-8.427335e-07	-1.534049e-08	-6.079913e+00	-1.009233e+03
7.500000e-07	-7.425565e-07	-1.507431e-08	-5.357184e+00	-9.912903e+02
7.600000e-07	-6.421970e-07	-1.479783e-08	-4.633140e+00	-9.726438e+02
7.700000e-07	-5.416852e-07	-1.450672e-08	-3.907996e+00	-9.533735e+02
7.800000e-07	-4.410316e-07	-1.419862e-08	-3.181829e+00	-9.334605e+02
7.900000e-07	-3.402479e-07	-1.387142e-08	-2.454724e+00	-9.127527e+02
8.000000e-07	-2.393269e-07	-1.352356e-08	-1.726628e+00	-8.909694e+02
8.100000e-07	-1.382739e-07	-1.315612e-08	-9.975787e-01	-8.677453e+02
8.200000e-07	-3.708141e-08	-1.276878e-08	-2.675244e-01	-8.427018e+02
8.300000e-07	6.413929e-08	-1.235868e-08	4.627338e-01	-8.155260e+02
8.400000e-07	1.653348e-07	-1.191962e-08	1.192810e+00	-7.860280e+02
8.500000e-07	2.665094e-07	-1.144696e-08	1.922736e+00	-7.541542e+02
8.600000e-07	3.675672e-07	-1.093726e-08	2.651819e+00	-7.199409e+02
8.700000e-07	4.684696e-07	-1.038653e-08	3.379780e+00	-6.834129e+02
8.800000e-07	5.692480e-07	-9.790613e-09	4.106848e+00	-6.444471e+02
8.900000e-07	6.699035e-07	-9.141631e-09	4.833028e+00	-6.026371e+02
9.000000e-07	7.703333e-07	-8.429484e-09	5.557580e+00	-5.572006e+02
9.100000e-07	8.705250e-07	-7.641005e-09	6.280415e+00	-5.069690e+02
9.200000e-07	9.705405e-07	-6.762521e-09	7.001978e+00	-4.504806e+02
9.300000e-07	1.070322e-06	-5.779728e-09	7.721856e+00	-3.861786e+02
9.400000e-07	1.169803e-06	-4.671114e-09	8.439559e+00	-3.126885e+02
9.500000e-07	1.268893e-06	-3.415760e-09	9.154443e+00	-2.291245e+02
9.600000e-07	1.367436e-06	-2.002927e-09	9.865384e+00	-1.353659e+02
9.700000e-07	1.465231e-06	-4.359905e-10	1.057093e+01	-3.224054e+01
9.800000e-07	1.562206e-06	1.263960e-09	1.127056e+01	7.843059e+01
9.900000e-07	1.658476e-06	3.053409e-09	1.196510e+01	1.939490e+02
1.000000e-06	1.754176e-06	4.867940e-09	1.265553e+01	3.110031e+02
1.010000e-06	1.849328e-06	6.638149e-09	1.334200e+01	4.260405e+02
1.020000e-06	1.943823e-06	8.303365e-09	1.402374e+01	5.356828e+02
1.030000e-06	2.037595e-06	9.821475e-09	1.470026e+01	6.371104e+02
1.040000e-06	2.130636e-06	1.117305e-08	1.537150e+01	7.283502e+02
1.050000e-06	2.222980e-06	1.235740e-08	1.603772e+01	8.084204e+02
1.060000e-06	2.314740e-06	1.338343e-08	1.669972e+01	8.773151e+02
1.070000e-06	2.405850e-06	1.426673e-08	1.735704e+01	9.358444e+02
1.080000e-06	2.495951e-06	1.502652e-08	1.800707e+01	9.853739e+02
1.090000e-06	2.584837e-06	1.568142e-08	1.864834e+01	1.027521e+03
1.100000e-06	2.672679e-06	1.624832e-08	1.928208e+01	1.063871e+03
1.110000e-06	2.759639e-06	1.673987e-08	1.990945e+01	1.095764e+03
1.120000e-06	2.845730e-06	1.716668e-08	2.053056e+01	1.124181e+03
1.130000e-06	2.930941e-06	1.754205e-08	2.114532e+01	1.149732e+03
1.140000e-06	3.015224e-06	1.787602e-08	2.175337e+01	1.172734e+03
1.150000e-06	3.098578e-06	1.817428e-08	2.235473e+01	1.193329e+03
1.160000e-06	3.180801e-06	1.844305e-08	2.294793e+01	1.211615e+03
1.170000e-06	3.261756e-06	1.868758e-08	2.353199e+01	1.227748e+03
1.180000e-06	3.341556e-06	1.890940e-08	2.410770e+01	1.241984e+03
1.190000e-06	3.420192e-06	1.911057e-08	2.467503e+01	1.254681e+03
1.200000e-06	3.497641e-06	1.929435e-08	2.523378e+01	1.266236e+03
1.210000e-06	3.573922e-06	1.946411e-08	2.578411e+01	1.277017e+03
1.220000e-06	3.648820e-06	1.962298e-08	2.632446e+01	1.287295e+03
1.230000e-06	3.722045e-06	1.977299e-08	2.685275e+01	1.297200e+03
1.240000e-06	3.793765e-06	1.991255e-08	2.737017e+01	1.306724e+03
1.250000e-06	3.864193e-06	2.004195e-08	2.787827e+01	1.315757e+03
1.260000e-06	3.933278e-06	2.016251e-08	2.837669e+01	1.324147e+03
1.270000e-06	4.001075e-06	2.027295e-08	2.886581e+01	1.331772e+03
1.280000e-06	4.067441e-06	2.037433e-08	2.934461e+01	1.338589e+03
1.290000e-06	4.132101e-06	2.046908e-08	2.981110e+01	1.344661e+03
1.300000e-06	4.195214e-06	2.055942e-08	3.026643e+01	1.350141e+03
1.310000e-06	4.256965e-06	2.064428e-08	3.071193e+01	1.355239e+03
1.320000e-06	4.317383e-06	2.072404e-08	3.114782e+01	1.360159e+03
1.330000e-06	4.376430e-06	2.079926e-08	3.157381e+01	1.365053e+03
1.340000e-06	4.433759e-06	2.087092e-08	3.198742e+01	1.369982e+03
1.350000e-06	4.489330e-06	2.093996e-08	3.238833e+01	1.374912e+03
1.360000e-06	4.543331e-06	2.100655e-08	3.277793e+01	1.379733e+03
1.370000e-06	4.595593e-06	2.106988e-08	3.315497e+01	1.384302e+03
1.380000e-06	4.645871e-06	2.112955e-08	3.351770e+01	1.388493e+03
1.390000e-06	4.694169e-06	2.118484e-08	3.386614e+01	1.392236e+03
1.400000e-06	4.740750e-06	2.123653e-08	3.420220e+01	1.395540e+03
1.410000e-06	4.785810e-06	2.128696e-08	3.452729e+01	1.398485e+03
1.420000e-06	4.829352e-06	2.133499e-08	3.484143e+01	1.401202e+03
1.430000e-06	4.871066e-06	2.137939e-08	3.514237e+01	1.403823e+03
1.440000e-06	4.910893e-06	2.141980e-08	3.542971e+01	1.406449e+03
1.450000e-06	4.949078e-06	2.145768e-08	3.570519e+01	1.409116e+03
1.460000e-06	4.985720e-06	2.149390e-08	3.596954e+01	1.411789e+03
1.470000e-06	5.020711e-06	2.152713e-08	3.622199e+01	1.414378e+03
1.480000e-06	5.053746e-06	2.155703e-08	3.646032e+01	1.416769e+03
1.490000e-06	5.084925e-06	2.158407e-08	3.668526e+01	1.418859e+03
1.500000e-06	5.114452e-06	2.160923e-08	3.689828e+01	1.420594e+03
1.510000e-06	5.142311e-06	2.163283e-08	3.709927e+01	1.421984e+03
1.520000e-06	5.168244e-06	2.165490e-08	3.728637e+01	1.423100e+03
1.530000e-06	5.192146e-06	2.167488e-08	3.745881e+01	1.424053e+03
1.540000e-06	5.214240e-06	2.169227e-08	3.761820e+01	1.424959e+03
1.550000e-06	5.234645e-06	2.170806e-08	3.776542e+01	1.425907e+03
1.560000e-06	5.253254e-06	2.172255e-08	3.789967e+01	1.426931e+03
1.570000e-06	5.269813e-06	2.173548e-08	3.801914e+01	1.428002e+03
1.580000e-06	5.284332e-06	2.174677e-08	3.812389e+01	1.429040e+03
1.590000e-06	5.296904e-06	2.175682e-08	3.821459e+01	1.429944e+03
1.600000e-06	5.307385e-06	2.176665e-08	3.829020e+01	1.430619e+03
1.610000e-06	5.315780e-06	2.177606e-08	3.835077e+01	1.431009e+03
1.620000e-06	5.322292e-06	2.178320e-08	3.839775e+01	1.431118e+03
1.630000e-06	5.327035e-06	2.178678e-08	3.843197e+01	1.431003e+03
1.640000e-06	5.329986e-06	2.178740e-08	3.845326e+01	1.430757e+03
1.650000e-06	5.330921e-06	2.178742e-08	3.846000e+01	1.430483e+03
1.660000e-06	5.329949e-06	2.178648e-08	3.845299e+01	1.430258e+03
1.670000e-06	5.327367e-06	2.178474e-08	3.843436e+01	1.430112e+03
1.680000e-06	5.323211e-06	2.178247e-08	3.840438e+01	1.430015e+03
1.690000e-06	5.317227e-06	2.177729e-08	3.836121e+01	1.429891e+03
1.700000e-06	5.309379e-06	2.176986e-08	3.830459e+01	1.429638e+03
1.710000e-06	5.299970e-06	2.176149e-08	3.823671e+01	1.429160e+03
1.720000e-06	5.288993e-06	2.175419e-08	3.815751e+01	1.428396e+03
1.730000e-06	5.276241e-06	2.174176e-08	3.806551e+01	1.427340e+03
1.740000e-06	5.261416e-06	2.169875e-08	3.795856e+01	1.426042e+03
1.750000e-06	5.244273e-06	2.166157e-08	3.783488e+01	1.424592e+03
1.760000e-06	5.224651e-06	2.166410e-08	3.769332e+01	1.423096e+03
1.770000e-06	5.202530e-06	2.166771e-08	3.753372e+01	1.421643e+03
1.780000e-06	5.178670e-06	2.168803e-08	3.736159e+01	1.420281e+03
1.790000e-06	5.154021e-06	2.164624e-08	3.718376e+01	1.419005e+03
1.800000e-06	5.128283e-06	2.156533e-08	3.699807e+01	1.417760e+03
1.810000e-06	5.100576e-06	2.158125e-08	3.679817e+01	1.416461e+03
1.820000e-06	5.070982e-06	2.154113e-08	3.658467e+01	1.415018e+03
1.830000e-06	5.039751e-06	2.148181e-08	3.635936e+01	1.413363e+03
1.840000e-06	5.006613e-06	2.152943e-08	3.612028e+01	1.411468e+03
1.850000e-06	4.971833e-06	2.149964e-08	3.586936e+01	1.409353e+03
1.860000e-06	4.935391e-06	2.145305e-08	3.560645e+01	1.407072e+03
1.870000e-06	4.896885e-06	2.145282e-08	3.532865e+01	1.404693e+03
1.880000e-06	4.856678e-06	2.136762e-08	3.503857e+01	1.402273e+03
1.890000e-06	4.814796e-06	2.133068e-08	3.473641e+01	1.399838e+03
1.900000e-06	4.771175e-06	2.131788e-08	3.442171e+01	1.397374e+03
1.910000e-06	4.725907e-06	2.125930e-08	3.409512e+01	1.394825e+03
1.920000e-06	4.678737e-06	2.122327e-08	3.375482e+01	1.392121e+03
1.930000e-06	4.629846e-06	2.113964e-08	3.340209e+01	1.389189e+03
1.940000e-06	4.579249e-06	2.111671e-08	3.303706e+01	1.385986e+03
1.950000e-06	4.526659e-06	2.111452e-08	3.265764e+01	1.382509e+03
1.960000e-06	4.472158e-06	2.101887e-08	3.226445e+01	1.378799e+03
1.970000e-06	4.415913e-06	2.096654e-08	3.185867e+01	1.374923e+03
1.980000e-06	4.358078e-06	2.090846e-08	3.144142e+01	1.370959e+03
1.990000e-06	4.298812e-06	2.083434e-08	3.101384e+01	1.366964e+03
2.000000e-06	4.238176e-06	2.078364e-08	3.057638e+01	1.362961e+03
2.010000e-06	4.175965e-06	2.072497e-08	3.012756e+01	1.358923e+03
2.020000e-06	4.112015e-06	2.067483e-08	2.966619e+01	1.354786e+03
2.030000e-06	4.046532e-06	2.058071e-08	2.919376e+01	1.350466e+03
2.040000e-06	3.979716e-06	2.050388e-08	2.871171e+01	1.345886e+03
2.050000e-06	3.911607e-06	2.045090e-08	2.822034e+01	1.341001e+03
2.060000e-06	3.842016e-06	2.037205e-08	2.771828e+01	1.335811e+03
2.070000e-06	3.770814e-06	2.030401e-08	2.720459e+01	1.330364e+03
2.080000e-06	3.698294e-06	2.021550e-08	2.668139e+01	1.324739e+03
2.090000e-06	3.624564e-06	2.012589e-08	2.614947e+01	1.319022e+03
2.100000e-06	3.549516e-06	2.003634e-08	2.560803e+01	1.313273e+03
2.110000e-06	3.472988e-06	1.994924e-08	2.505592e+01	1.307507e+03
2.120000e-06	3.394936e-06	1.986854e-08	2.449281e+01	1.301688e+03
2.130000e-06	3.315564e-06	1.976557e-08	2.392019e+01	1.295731e+03
2.140000e-06	3.235003e-06	1.967242e-08	2.333898e+01	1.289530e+03
2.150000e-06	3.153399e-06	1.957482e-08	2.275024e+01	1.282989e+03
2.160000e-06	3.070785e-06	1.946541e-08	2.215422e+01	1.276047e+03
2.170000e-06	2.987171e-06	1.935277e-08	2.155099e+01	1.268702e+03
2.180000e-06	2.902512e-06	1.924636e-08	2.094022e+01	1.261007e+03
2.190000e-06	2.816619e-06	1.914052e-08	2.032054e+01	1.253051e+03
2.200000e-06	2.729489e-06	1.901235e-08	1.969194e+01	1.244933e+03
2.210000e-06	2.641365e-06	1.888400e-08	1.905616e+01	1.236722e+03
2.220000e-06	2.552377e-06	1.875787e-08	1.841416e+01	1.228435e+03
2.230000e-06	2.462502e-06	1.862878e-08	1.776576e+01	1.220019e+03
2.240000e-06	2.371880e-06	1.849376e-08	1.711196e+01	1.211367e+03
2.250000e-06	2.280537e-06	1.835599e-08	1.645296e+01	1.202341e+03
2.260000e-06	2.188403e-06	1.821431e-08	1.578826e+01	1.192815e+03
2.270000e-06	2.095450e-06	1.805779e-08	1.511765e+01	1.182706e+03
2.280000e-06	2.001612e-06	1.789616e-08	1.444066e+01	1.172002e+03
2.290000e-06	1.906925e-06	1.773151e-08	1.375754e+01	1.160761e+03
2.300000e-06	1.811455e-06	1.756294e-08	1.306877e+01	1.149090e+03
2.310000e-06	1.715355e-06	1.738810e-08	1.237545e+01	1.137107e+03
2.320000e-06	1.618829e-06	1.720452e-08	1.167906e+01	1.124899e+03
2.330000e-06	1.521885e-06	1.701503e-08	1.097966e+01	1.112479e+03
2.340000e-06	1.424366e-06	1.681850e-08	1.027611e+01	1.099777e+03
2.350000e-06	1.326275e-06	1.661098e-08	9.568426e+00	1.086646e+03
2.360000e-06	1.227748e-06	1.639191e-08	8.857608e+00	1.072899e+03
2.370000e-06	1.128909e-06	1.616450e-08	8.144528e+00	1.058354e+03
2.380000e-06	1.029830e-06	1.593103e-08	7.429723e+00	1.042887e+03
2.390000e-06	9.304986e-07	1.569068e-08	6.713095e+00	1.026461e+03
2.400000e-06	8.308899e-07	1.543634e-08	5.994467e+00	1.009127e+03
2.410000e-06	7.310489e-07	1.516905e-08	5.274163e+00	9.909973e+02
2.420000e-06	6.309771e-07	1.488817e-08	4.552193e+00	9.721896e+02
2.430000e-06	5.307038e-07	1.459105e-08	3.828770e+00	9.527646e+02
2.440000e-06	4.302963e-07	1.428000e-08	3.104379e+00	9.326719e+02
2.450000e-06	3.297102e-07	1.395400e-08	2.378699e+00	9.117251e+02
2.460000e-06	2.289606e-07	1.360853e-08	1.651840e+00	8.896172e+02
2.470000e-06	1.281399e-07	1.323729e-08	9.244672e-01	8.659717e+02
2.480000e-06	2.727101e-08	1.284080e-08	1.967471e-01	8.404197e+02
2.490000e-06	-7.365283e-08	1.242139e-08	-5.313693e-01	8.126749e+02
2.500000e-06	-1.745833e-07	1.197508e-08	-1.259533e+00	7.825826e+02
2.510000e-06	-2.754344e-07	1.149737e-08	-1.987125e+00	7.501181e+02
2.520000e-06	-3.761701e-07	1.098254e-08	-2.713884e+00	7.153264e+02
2.530000e-06	-4.768072e-07	1.042406e-08	-3.439932e+00	6.782088e+02
2.540000e-06	-5.773058e-07	9.816405e-09	-4.164981e+00	6.385829e+02
2.550000e-06	-6.775993e-07	9.152790e-09	-4.888550e+00	5.959546e+02
2.560000e-06	-7.776601e-07	8.424162e-09	-5.610440e+00	5.494421e+02
2.570000e-06	-8.774548e-07	7.618569e-09	-6.330410e+00	4.977905e+02
2.580000e-06	-9.770085e-07	6.722906e-09	-7.048641e+00	4.394919e+02
2.590000e-06	-1.076321e-06	5.719373e-09	-7.765134e+00	3.730073e+02
2.600000e-06	-1.175286e-06	4.587306e-09	-8.479119e+00	2.970554e+02
2.610000e-06	-1.273783e-06	3.307577e-09	-9.189726e+00	2.109185e+02
2.620000e-06	-1.371797e-06	1.868826e-09	-9.896845e+00	1.147006e+02
2.630000e-06	-1.469345e-06	2.753263e-10	-1.060061e+01	9.479934e+00
2.640000e-06	-1.566376e-06	-1.444912e-09	-1.130064e+01	-1.026862e+02
2.650000e-06	-1.662879e-06	-3.244393e-09	-1.199686e+01	-2.189160e+02
2.660000e-06	-1.758909e-06	-5.061927e-09	-1.268968e+01	-3.358000e+02
2.670000e-06	-1.854474e-06	-6.827312e-09	-1.337913e+01	-4.497903e+02
2.680000e-06	-1.949344e-06	-8.481700e-09	-1.406357e+01	-5.576148e+02
2.690000e-06	-2.043185e-06	-9.985372e-09	-1.474059e+01	-6.566436e+02
2.700000e-06	-2.135955e-06	-1.131966e-08	-1.540988e+01	-7.451441e+02
2.710000e-06	-2.227951e-06	-1.248671e-08	-1.607358e+01	-8.223862e+02
2.720000e-06	-2.319273e-06	-1.349849e-08	-1.673243e+01	-8.885875e+02
2.730000e-06	-2.409823e-06	-1.437101e-08	-1.738570e+01	-9.447245e+02
2.740000e-06	-2.499547e-06	-1.512117e-08	-1.803302e+01	-9.922541e+02
2.750000e-06	-2.588348e-06	-1.576509e-08	-1.867368e+01	-1.032811e+03
2.760000e-06	-2.676365e-06	-1.632002e-08	-1.930867e+01	-1.067934e+03
2.770000e-06	-2.763662e-06	-1.680128e-08	-1.993848e+01	-1.098882e+03
2.780000e-06	-2.849857e-06	-1.722273e-08	-2.056033e+01	-1.126539e+03
2.790000e-06	-2.934749e-06	-1.759648e-08	-2.117279e+01	-1.151433e+03
2.800000e-06	-3.018579e-06	-1.792900e-08	-2.177758e+01	-1.173825e+03
2.810000e-06	-3.101491e-06	-1.822596e-08	-2.237575e+01	-1.193833e+03
2.820000e-06	-3.183367e-06	-1.849165e-08	-2.296645e+01	-1.211564e+03
2.830000e-06	-3.264141e-06	-1.873133e-08	-2.354919e+01	-1.227194e+03
2.840000e-06	-3.343900e-06	-1.894952e-08	-2.412461e+01	-1.241010e+03
2.850000e-06	-3.422410e-06	-1.914889e-08	-2.469102e+01	-1.253385e+03
2.860000e-06	-3.499378e-06	-1.933211e-08	-2.524631e+01	-1.264715e+03
2.870000e-06	-3.574923e-06	-1.950188e-08	-2.579134e+01	-1.275351e+03
2.880000e-06	-3.649122e-06	-1.966061e-08	-2.632664e+01	-1.285530e+03
2.890000e-06	-3.721942e-06	-1.980948e-08	-2.685200e+01	-1.295346e+03
2.900000e-06	-3.793503e-06	-1.994714e-08	-2.736828e+01	-1.304761e+03
2.910000e-06	-3.863666e-06	-2.007401e-08	-2.787447e+01	-1.313648e+03
2.920000e-06	-3.932242e-06	-2.019150e-08	-2.836922e+01	-1.321856e+03
2.930000e-06	-3.999456e-06	-2.030027e-08	-2.885413e+01	-1.329280e+03
2.940000e-06	-4.065326e-06	-2.040148e-08	-2.932935e+01	-1.335902e+03
