# Temperatura_=_68.58
# Concentracion g/m^3_=_41000.0
# C_Vs_to_Am_M_A/Vsm_=_65563218390.804596
# pendiente_HvsI_1/m_=_3716.3
# ordenada_HvsI_A/m_=_1297.0
# frecuencia_Hz_=_301626.0286047904

Tiempo_(s)	Campo_(V.s)	Magnetizacion_(V.s)	Campo_(kA/m)	Magnetizacion_(A/m)
0.000000e+00	-5.297521e-06	-2.265456e-08	-3.834049e+01	-1.480617e+03
1.000000e-08	-5.295111e-06	-2.264681e-08	-3.832305e+01	-1.480450e+03
2.000000e-08	-5.290937e-06	-2.263721e-08	-3.829284e+01	-1.480334e+03
3.000000e-08	-5.285178e-06	-2.262777e-08	-3.825116e+01	-1.480183e+03
4.000000e-08	-5.277845e-06	-2.261670e-08	-3.819809e+01	-1.479886e+03
5.000000e-08	-5.268786e-06	-2.260519e-08	-3.813252e+01	-1.479341e+03
6.000000e-08	-5.257670e-06	-2.259254e-08	-3.805207e+01	-1.478488e+03
7.000000e-08	-5.244584e-06	-2.257604e-08	-3.795736e+01	-1.477328e+03
8.000000e-08	-5.229464e-06	-2.257723e-08	-3.784793e+01	-1.475921e+03
9.000000e-08	-5.212046e-06	-2.257414e-08	-3.772187e+01	-1.474371e+03
1.000000e-07	-5.192555e-06	-2.253883e-08	-3.758081e+01	-1.472796e+03
1.100000e-07	-5.171211e-06	-2.251341e-08	-3.742633e+01	-1.471292e+03
1.200000e-07	-5.148217e-06	-2.246744e-08	-3.725991e+01	-1.469909e+03
1.300000e-07	-5.123893e-06	-2.240439e-08	-3.708387e+01	-1.468636e+03
1.400000e-07	-5.098044e-06	-2.244093e-08	-3.689679e+01	-1.467406e+03
1.500000e-07	-5.070412e-06	-2.239801e-08	-3.669680e+01	-1.466119e+03
1.600000e-07	-5.041273e-06	-2.234331e-08	-3.648591e+01	-1.464670e+03
1.700000e-07	-5.010599e-06	-2.240007e-08	-3.626391e+01	-1.462983e+03
1.800000e-07	-4.977958e-06	-2.231661e-08	-3.602768e+01	-1.461027e+03
1.900000e-07	-4.943394e-06	-2.223982e-08	-3.577752e+01	-1.458823e+03
2.000000e-07	-4.907286e-06	-2.223976e-08	-3.551619e+01	-1.456434e+03
2.100000e-07	-4.869545e-06	-2.214623e-08	-3.524304e+01	-1.453937e+03
2.200000e-07	-4.830077e-06	-2.211414e-08	-3.495739e+01	-1.451399e+03
2.300000e-07	-4.788781e-06	-2.211562e-08	-3.465851e+01	-1.448854e+03
2.400000e-07	-4.745499e-06	-2.204238e-08	-3.434527e+01	-1.446284e+03
2.500000e-07	-4.700442e-06	-2.200431e-08	-3.401917e+01	-1.443633e+03
2.600000e-07	-4.653628e-06	-2.194981e-08	-3.368035e+01	-1.440818e+03
2.700000e-07	-4.604929e-06	-2.191351e-08	-3.332790e+01	-1.437757e+03
2.800000e-07	-4.554188e-06	-2.189383e-08	-3.296066e+01	-1.434399e+03
2.900000e-07	-4.501447e-06	-2.182398e-08	-3.257895e+01	-1.430734e+03
3.000000e-07	-4.447001e-06	-2.173237e-08	-3.218491e+01	-1.426803e+03
3.100000e-07	-4.390952e-06	-2.166731e-08	-3.177925e+01	-1.422682e+03
3.200000e-07	-4.333153e-06	-2.163298e-08	-3.136094e+01	-1.418457e+03
3.300000e-07	-4.273705e-06	-2.156255e-08	-3.093068e+01	-1.414199e+03
3.400000e-07	-4.212850e-06	-2.148583e-08	-3.049025e+01	-1.409940e+03
3.500000e-07	-4.150586e-06	-2.142916e-08	-3.003962e+01	-1.405664e+03
3.600000e-07	-4.086928e-06	-2.134779e-08	-2.957889e+01	-1.401309e+03
3.700000e-07	-4.021799e-06	-2.127346e-08	-2.910753e+01	-1.396791e+03
3.800000e-07	-3.955059e-06	-2.121118e-08	-2.862450e+01	-1.392027e+03
3.900000e-07	-3.886779e-06	-2.113490e-08	-2.813033e+01	-1.386965e+03
4.000000e-07	-3.817161e-06	-2.105013e-08	-2.762648e+01	-1.381597e+03
4.100000e-07	-3.746331e-06	-2.095237e-08	-2.711385e+01	-1.375963e+03
4.200000e-07	-3.674345e-06	-2.086508e-08	-2.659285e+01	-1.370137e+03
4.300000e-07	-3.600962e-06	-2.077911e-08	-2.606175e+01	-1.364199e+03
4.400000e-07	-3.525945e-06	-2.070299e-08	-2.551882e+01	-1.358209e+03
4.500000e-07	-3.449491e-06	-2.061871e-08	-2.496549e+01	-1.352183e+03
4.600000e-07	-3.371762e-06	-2.051251e-08	-2.440292e+01	-1.346086e+03
4.700000e-07	-3.292714e-06	-2.040409e-08	-2.383082e+01	-1.339835e+03
4.800000e-07	-3.212347e-06	-2.029465e-08	-2.324917e+01	-1.333327e+03
4.900000e-07	-3.130763e-06	-2.018966e-08	-2.265871e+01	-1.326470e+03
5.000000e-07	-3.048099e-06	-2.007677e-08	-2.206044e+01	-1.319208e+03
5.100000e-07	-2.964503e-06	-1.996321e-08	-2.145541e+01	-1.311542e+03
5.200000e-07	-2.880131e-06	-1.984877e-08	-2.084478e+01	-1.303528e+03
5.300000e-07	-2.794925e-06	-1.972536e-08	-2.022810e+01	-1.295261e+03
5.400000e-07	-2.708744e-06	-1.959703e-08	-1.960437e+01	-1.286838e+03
5.500000e-07	-2.621617e-06	-1.947234e-08	-1.897379e+01	-1.278329e+03
5.600000e-07	-2.533534e-06	-1.934268e-08	-1.833630e+01	-1.269745e+03
5.700000e-07	-2.444456e-06	-1.920003e-08	-1.769161e+01	-1.261027e+03
5.800000e-07	-2.354307e-06	-1.905239e-08	-1.703916e+01	-1.252063e+03
5.900000e-07	-2.263108e-06	-1.890107e-08	-1.637911e+01	-1.242710e+03
6.000000e-07	-2.171097e-06	-1.874438e-08	-1.571319e+01	-1.232836e+03
6.100000e-07	-2.078422e-06	-1.858244e-08	-1.504245e+01	-1.222360e+03
6.200000e-07	-1.985013e-06	-1.841775e-08	-1.436641e+01	-1.211271e+03
6.300000e-07	-1.890891e-06	-1.824562e-08	-1.368521e+01	-1.199630e+03
6.400000e-07	-1.796129e-06	-1.806694e-08	-1.299938e+01	-1.187552e+03
6.500000e-07	-1.700742e-06	-1.788244e-08	-1.230902e+01	-1.175157e+03
6.600000e-07	-1.604796e-06	-1.769082e-08	-1.161462e+01	-1.162532e+03
6.700000e-07	-1.508335e-06	-1.749167e-08	-1.091648e+01	-1.149689e+03
6.800000e-07	-1.411303e-06	-1.728252e-08	-1.021422e+01	-1.136550e+03
6.900000e-07	-1.313667e-06	-1.706661e-08	-9.507588e+00	-1.122963e+03
7.000000e-07	-1.215406e-06	-1.684352e-08	-8.796431e+00	-1.108732e+03
7.100000e-07	-1.116561e-06	-1.661153e-08	-8.081042e+00	-1.093670e+03
7.200000e-07	-1.017301e-06	-1.636950e-08	-7.362656e+00	-1.077651e+03
7.300000e-07	-9.177458e-07	-1.611580e-08	-6.642130e+00	-1.060640e+03
7.400000e-07	-8.179387e-07	-1.584878e-08	-5.919783e+00	-1.042690e+03
7.500000e-07	-7.179231e-07	-1.557235e-08	-5.195925e+00	-1.023918e+03
7.600000e-07	-6.177354e-07	-1.528350e-08	-4.470823e+00	-1.004441e+03
7.700000e-07	-5.174162e-07	-1.497654e-08	-3.744769e+00	-9.843157e+02
7.800000e-07	-4.169622e-07	-1.465180e-08	-3.017739e+00	-9.634799e+02
7.900000e-07	-3.164057e-07	-1.430638e-08	-2.289967e+00	-9.417309e+02
8.000000e-07	-2.157781e-07	-1.393908e-08	-1.561681e+00	-9.187406e+02
8.100000e-07	-1.150600e-07	-1.355064e-08	-8.327402e-01	-8.941114e+02
8.200000e-07	-1.427553e-08	-1.314270e-08	-1.033183e-01	-8.674542e+02
8.300000e-07	8.657933e-08	-1.270817e-08	6.266127e-01	-8.384660e+02
8.400000e-07	1.874471e-07	-1.224019e-08	1.356637e+00	-8.069776e+02
8.500000e-07	2.882497e-07	-1.173381e-08	2.086190e+00	-7.729491e+02
8.600000e-07	3.889944e-07	-1.118481e-08	2.815324e+00	-7.364044e+02
8.700000e-07	4.896519e-07	-1.059147e-08	3.543826e+00	-6.973133e+02
8.800000e-07	5.901511e-07	-9.946247e-09	4.271183e+00	-6.554475e+02
8.900000e-07	6.904151e-07	-9.241512e-09	4.996838e+00	-6.102512e+02
9.000000e-07	7.904972e-07	-8.465428e-09	5.721176e+00	-5.607706e+02
9.100000e-07	8.904522e-07	-7.605635e-09	6.444594e+00	-5.056768e+02
9.200000e-07	9.901969e-07	-6.645053e-09	7.166491e+00	-4.433997e+02
9.300000e-07	1.089663e-06	-5.563621e-09	7.886370e+00	-3.723649e+02
9.400000e-07	1.188719e-06	-4.340796e-09	8.603280e+00	-2.912983e+02
9.500000e-07	1.287212e-06	-2.959419e-09	9.316123e+00	-1.995416e+02
9.600000e-07	1.385012e-06	-1.414865e-09	1.002394e+01	-9.731495e+01
9.700000e-07	1.482014e-06	2.855307e-10	1.072599e+01	1.413616e+01
9.800000e-07	1.578343e-06	2.110561e-09	1.142316e+01	1.325487e+02
9.900000e-07	1.674172e-06	4.006575e-09	1.211672e+01	2.548180e+02
1.000000e-06	1.769456e-06	5.901207e-09	1.280633e+01	3.773184e+02
1.010000e-06	1.864094e-06	7.723821e-09	1.349127e+01	4.963170e+02
1.020000e-06	1.958080e-06	9.418799e-09	1.417149e+01	6.084076e+02
1.030000e-06	2.051439e-06	1.094842e-08	1.484717e+01	7.108895e+02
1.040000e-06	2.144129e-06	1.229860e-08	1.551801e+01	8.020255e+02
1.050000e-06	2.236175e-06	1.347032e-08	1.618418e+01	8.811407e+02
1.060000e-06	2.327636e-06	1.447635e-08	1.684613e+01	9.485534e+02
1.070000e-06	2.418202e-06	1.533608e-08	1.750159e+01	1.005368e+03
1.080000e-06	2.507512e-06	1.607023e-08	1.814797e+01	1.053176e+03
1.090000e-06	2.595749e-06	1.670015e-08	1.878658e+01	1.093738e+03
1.100000e-06	2.683163e-06	1.724364e-08	1.941923e+01	1.128697e+03
1.110000e-06	2.769700e-06	1.771426e-08	2.004553e+01	1.159390e+03
1.120000e-06	2.855331e-06	1.812356e-08	2.066528e+01	1.186752e+03
1.130000e-06	2.940021e-06	1.848473e-08	2.127823e+01	1.211341e+03
1.140000e-06	3.023845e-06	1.880565e-08	2.188490e+01	1.233433e+03
1.150000e-06	3.106767e-06	1.909167e-08	2.248504e+01	1.253158e+03
1.160000e-06	3.188450e-06	1.934891e-08	2.307622e+01	1.270628e+03
1.170000e-06	3.268878e-06	1.958381e-08	2.365831e+01	1.286029e+03
1.180000e-06	3.348182e-06	1.979819e-08	2.423227e+01	1.299656e+03
1.190000e-06	3.426343e-06	1.999347e-08	2.479795e+01	1.311887e+03
1.200000e-06	3.503304e-06	2.017234e-08	2.535495e+01	1.323121e+03
1.210000e-06	3.579031e-06	2.033803e-08	2.590302e+01	1.333705e+03
1.220000e-06	3.653312e-06	2.049339e-08	2.644063e+01	1.343866e+03
1.230000e-06	3.725954e-06	2.064000e-08	2.696637e+01	1.353683e+03
1.240000e-06	3.797159e-06	2.077819e-08	2.748171e+01	1.363104e+03
1.250000e-06	3.867068e-06	2.090641e-08	2.798767e+01	1.371990e+03
1.260000e-06	3.935690e-06	2.102419e-08	2.848432e+01	1.380185e+03
1.270000e-06	4.003053e-06	2.113154e-08	2.897186e+01	1.387584e+03
1.280000e-06	4.068787e-06	2.123163e-08	2.944761e+01	1.394180e+03
1.290000e-06	4.132823e-06	2.132636e-08	2.991106e+01	1.400070e+03
1.300000e-06	4.195485e-06	2.141607e-08	3.036457e+01	1.405439e+03
1.310000e-06	4.256803e-06	2.150008e-08	3.080836e+01	1.410507e+03
1.320000e-06	4.316795e-06	2.157984e-08	3.124255e+01	1.415471e+03
1.330000e-06	4.375251e-06	2.165476e-08	3.166562e+01	1.420455e+03
1.340000e-06	4.431894e-06	2.172602e-08	3.207557e+01	1.425484e+03
1.350000e-06	4.486858e-06	2.179621e-08	3.247337e+01	1.430487e+03
1.360000e-06	4.540246e-06	2.186423e-08	3.285976e+01	1.435327e+03
1.370000e-06	4.591858e-06	2.192638e-08	3.323330e+01	1.439855e+03
1.380000e-06	4.641441e-06	2.198295e-08	3.359215e+01	1.443954e+03
1.390000e-06	4.689160e-06	2.203742e-08	3.393751e+01	1.447581e+03
1.400000e-06	4.735299e-06	2.209010e-08	3.427144e+01	1.450777e+03
1.410000e-06	4.779947e-06	2.214155e-08	3.459458e+01	1.453653e+03
1.420000e-06	4.822986e-06	2.219042e-08	3.490607e+01	1.456354e+03
1.430000e-06	4.864124e-06	2.223497e-08	3.520381e+01	1.459016e+03
1.440000e-06	4.903469e-06	2.227384e-08	3.548856e+01	1.461722e+03
1.450000e-06	4.941208e-06	2.230935e-08	3.576169e+01	1.464484e+03
1.460000e-06	4.977423e-06	2.234507e-08	3.602380e+01	1.467237e+03
1.470000e-06	5.011894e-06	2.237939e-08	3.627329e+01	1.469868e+03
1.480000e-06	5.044404e-06	2.241042e-08	3.650857e+01	1.472251e+03
1.490000e-06	5.075158e-06	2.243809e-08	3.673115e+01	1.474287e+03
1.500000e-06	5.104256e-06	2.246402e-08	3.694175e+01	1.475940e+03
1.510000e-06	5.131642e-06	2.248755e-08	3.713995e+01	1.477244e+03
1.520000e-06	5.157073e-06	2.250828e-08	3.732401e+01	1.478293e+03
1.530000e-06	5.180498e-06	2.252715e-08	3.749355e+01	1.479215e+03
1.540000e-06	5.202135e-06	2.254442e-08	3.765014e+01	1.480131e+03
1.550000e-06	5.222088e-06	2.256023e-08	3.779455e+01	1.481120e+03
1.560000e-06	5.240173e-06	2.257417e-08	3.792544e+01	1.482197e+03
1.570000e-06	5.256182e-06	2.258639e-08	3.804130e+01	1.483309e+03
1.580000e-06	5.270289e-06	2.259726e-08	3.814340e+01	1.484359e+03
1.590000e-06	5.282497e-06	2.260747e-08	3.823176e+01	1.485233e+03
1.600000e-06	5.292551e-06	2.261694e-08	3.830452e+01	1.485839e+03
1.610000e-06	5.300536e-06	2.262438e-08	3.836231e+01	1.486134e+03
1.620000e-06	5.306671e-06	2.262864e-08	3.840671e+01	1.486141e+03
1.630000e-06	5.311056e-06	2.263017e-08	3.843845e+01	1.485937e+03
1.640000e-06	5.313531e-06	2.263135e-08	3.845636e+01	1.485630e+03
1.650000e-06	5.314034e-06	2.263173e-08	3.846000e+01	1.485325e+03
1.660000e-06	5.312764e-06	2.262954e-08	3.845081e+01	1.485092e+03
1.670000e-06	5.309830e-06	2.262835e-08	3.842957e+01	1.484943e+03
1.680000e-06	5.305236e-06	2.262480e-08	3.839632e+01	1.484827e+03
1.690000e-06	5.298810e-06	2.261761e-08	3.834982e+01	1.484649e+03
1.700000e-06	5.290632e-06	2.260861e-08	3.829063e+01	1.484298e+03
1.710000e-06	5.280879e-06	2.260012e-08	3.822005e+01	1.483679e+03
1.720000e-06	5.269444e-06	2.259428e-08	3.813728e+01	1.482747e+03
1.730000e-06	5.256162e-06	2.256542e-08	3.804116e+01	1.481516e+03
1.740000e-06	5.240884e-06	2.251941e-08	3.793058e+01	1.480062e+03
1.750000e-06	5.223301e-06	2.251334e-08	3.780333e+01	1.478494e+03
1.760000e-06	5.203185e-06	2.249837e-08	3.765774e+01	1.476928e+03
1.770000e-06	5.180759e-06	2.251130e-08	3.749543e+01	1.475451e+03
1.780000e-06	5.156832e-06	2.251649e-08	3.732226e+01	1.474099e+03
1.790000e-06	5.132132e-06	2.242096e-08	3.714350e+01	1.472844e+03
1.800000e-06	5.106153e-06	2.243365e-08	3.695547e+01	1.471609e+03
1.810000e-06	5.078197e-06	2.240352e-08	3.675315e+01	1.470290e+03
1.820000e-06	5.048461e-06	2.230436e-08	3.653794e+01	1.468787e+03
1.830000e-06	5.016925e-06	2.235523e-08	3.630969e+01	1.467033e+03
1.840000e-06	4.983483e-06	2.232257e-08	3.606766e+01	1.465010e+03
1.850000e-06	4.948458e-06	2.226688e-08	3.581417e+01	1.462752e+03
1.860000e-06	4.911620e-06	2.232866e-08	3.554756e+01	1.460327e+03
1.870000e-06	4.872771e-06	2.224551e-08	3.526639e+01	1.457814e+03
1.880000e-06	4.832246e-06	2.216789e-08	3.497309e+01	1.455273e+03
1.890000e-06	4.790009e-06	2.214621e-08	3.466740e+01	1.452724e+03
1.900000e-06	4.746125e-06	2.207874e-08	3.434980e+01	1.450140e+03
1.910000e-06	4.700527e-06	2.210196e-08	3.401978e+01	1.447455e+03
1.920000e-06	4.653098e-06	2.200316e-08	3.367652e+01	1.444585e+03
1.930000e-06	4.604073e-06	2.190548e-08	3.332170e+01	1.441452e+03
1.940000e-06	4.553222e-06	2.193396e-08	3.295367e+01	1.438016e+03
1.950000e-06	4.500434e-06	2.187848e-08	3.257162e+01	1.434278e+03
1.960000e-06	4.445826e-06	2.182066e-08	3.217640e+01	1.430291e+03
1.970000e-06	4.389440e-06	2.174035e-08	3.176831e+01	1.426135e+03
1.980000e-06	4.331512e-06	2.167567e-08	3.134905e+01	1.421896e+03
1.990000e-06	4.272170e-06	2.162992e-08	3.091958e+01	1.417636e+03
2.000000e-06	4.211365e-06	2.152399e-08	3.047950e+01	1.413376e+03
2.010000e-06	4.148926e-06	2.148819e-08	3.002760e+01	1.409086e+03
2.020000e-06	4.084823e-06	2.141919e-08	2.956366e+01	1.404698e+03
2.030000e-06	4.019311e-06	2.133220e-08	2.908952e+01	1.400124e+03
2.040000e-06	3.952447e-06	2.126622e-08	2.860560e+01	1.395289e+03
2.050000e-06	3.884184e-06	2.118276e-08	2.811155e+01	1.390148e+03
2.060000e-06	3.814455e-06	2.113423e-08	2.760689e+01	1.384708e+03
2.070000e-06	3.743215e-06	2.104132e-08	2.709129e+01	1.379018e+03
2.080000e-06	3.670646e-06	2.094612e-08	2.656608e+01	1.373155e+03
2.090000e-06	3.596820e-06	2.084556e-08	2.603177e+01	1.367199e+03
2.100000e-06	3.521658e-06	2.074516e-08	2.548779e+01	1.361200e+03
2.110000e-06	3.445062e-06	2.066918e-08	2.493343e+01	1.355161e+03
2.120000e-06	3.366983e-06	2.056801e-08	2.436834e+01	1.349034e+03
2.130000e-06	3.287564e-06	2.047843e-08	2.379355e+01	1.342728e+03
2.140000e-06	3.207008e-06	2.038057e-08	2.321053e+01	1.336140e+03
2.150000e-06	3.125410e-06	2.027862e-08	2.261997e+01	1.329184e+03
2.160000e-06	3.042782e-06	2.016136e-08	2.202196e+01	1.321818e+03
2.170000e-06	2.959143e-06	2.003599e-08	2.141662e+01	1.314057e+03
2.180000e-06	2.874486e-06	1.992667e-08	2.080392e+01	1.305969e+03
2.190000e-06	2.788699e-06	1.980553e-08	2.018304e+01	1.297654e+03
2.200000e-06	2.701688e-06	1.967492e-08	1.955330e+01	1.289205e+03
2.210000e-06	2.613636e-06	1.954046e-08	1.891604e+01	1.280677e+03
2.220000e-06	2.524730e-06	1.941403e-08	1.827258e+01	1.272067e+03
2.230000e-06	2.434977e-06	1.928144e-08	1.762300e+01	1.263300e+03
2.240000e-06	2.344462e-06	1.914174e-08	1.696790e+01	1.254251e+03
2.250000e-06	2.253208e-06	1.900204e-08	1.630746e+01	1.244778e+03
2.260000e-06	2.161175e-06	1.885137e-08	1.564137e+01	1.234758e+03
2.270000e-06	2.068368e-06	1.868477e-08	1.496969e+01	1.224126e+03
2.280000e-06	1.974703e-06	1.851006e-08	1.429180e+01	1.212890e+03
2.290000e-06	1.880122e-06	1.833586e-08	1.360727e+01	1.201127e+03
2.300000e-06	1.784765e-06	1.816138e-08	1.291713e+01	1.188958e+03
2.310000e-06	1.688864e-06	1.798201e-08	1.222305e+01	1.176500e+03
2.320000e-06	1.592511e-06	1.779204e-08	1.152570e+01	1.163821e+03
2.330000e-06	1.495687e-06	1.759301e-08	1.082495e+01	1.150914e+03
2.340000e-06	1.398389e-06	1.738451e-08	1.012075e+01	1.137680e+03
2.350000e-06	1.300620e-06	1.716536e-08	9.413158e+00	1.123950e+03
2.360000e-06	1.202413e-06	1.693665e-08	8.702393e+00	1.109526e+03
2.370000e-06	1.103859e-06	1.670006e-08	7.989113e+00	1.094233e+03
2.380000e-06	1.005023e-06	1.645610e-08	7.273793e+00	1.077965e+03
2.390000e-06	9.058711e-07	1.620189e-08	6.556188e+00	1.060710e+03
2.400000e-06	8.064301e-07	1.593260e-08	5.836490e+00	1.042542e+03
2.410000e-06	7.067409e-07	1.565118e-08	5.114995e+00	1.023583e+03
2.420000e-06	6.068169e-07	1.535699e-08	4.391801e+00	1.003942e+03
2.430000e-06	5.067431e-07	1.504680e-08	3.667523e+00	9.836494e+02
2.440000e-06	4.065595e-07	1.472130e-08	2.942450e+00	9.626091e+02
2.450000e-06	3.062526e-07	1.437875e-08	2.216485e+00	9.405837e+02
2.460000e-06	2.058236e-07	1.401585e-08	1.489636e+00	9.172214e+02
2.470000e-06	1.053295e-07	1.362497e-08	7.623159e-01	8.921187e+02
2.480000e-06	4.792812e-09	1.320484e-08	3.468769e-02	8.649018e+02
2.490000e-06	-9.577615e-08	1.275821e-08	-6.931741e-01	8.352981e+02
2.500000e-06	-1.962881e-07	1.228306e-08	-1.420623e+00	8.031736e+02
2.510000e-06	-2.966965e-07	1.177308e-08	-2.147323e+00	7.685129e+02
2.520000e-06	-3.970285e-07	1.122110e-08	-2.873470e+00	7.313390e+02
2.530000e-06	-4.973318e-07	1.062108e-08	-3.599409e+00	6.915858e+02
2.540000e-06	-5.975577e-07	9.966379e-09	-4.324788e+00	6.489536e+02
2.550000e-06	-6.975672e-07	9.247885e-09	-5.048601e+00	6.027909e+02
2.560000e-06	-7.972989e-07	8.455163e-09	-5.770403e+00	5.520435e+02
2.570000e-06	-8.967695e-07	7.575730e-09	-6.490315e+00	4.953053e+02
2.580000e-06	-9.960340e-07	6.592520e-09	-7.208736e+00	4.309794e+02
2.590000e-06	-1.095017e-06	5.486445e-09	-7.925118e+00	3.575366e+02
2.600000e-06	-1.193539e-06	4.237370e-09	-8.638170e+00	2.738279e+02
2.610000e-06	-1.291593e-06	2.829682e-09	-9.347829e+00	1.793938e+02
2.620000e-06	-1.389194e-06	1.257729e-09	-1.005421e+01	7.470231e+01
2.630000e-06	-1.486310e-06	-4.653947e-10	-1.075708e+01	-3.873915e+01
2.640000e-06	-1.582946e-06	-2.304761e-09	-1.145648e+01	-1.584344e+02
2.650000e-06	-1.679101e-06	-4.205302e-09	-1.215239e+01	-2.811138e+02
2.660000e-06	-1.774802e-06	-6.098446e-09	-1.284502e+01	-4.030839e+02
2.670000e-06	-1.869941e-06	-7.916592e-09	-1.353359e+01	-5.206537e+02
2.680000e-06	-1.964187e-06	-9.600968e-09	-1.421568e+01	-6.305616e+02
2.690000e-06	-2.057368e-06	-1.111493e-08	-1.489008e+01	-7.303295e+02
2.700000e-06	-2.149665e-06	-1.244605e-08	-1.555807e+01	-8.184832e+02
2.710000e-06	-2.241247e-06	-1.359898e-08	-1.622089e+01	-8.946084e+02
2.720000e-06	-2.332093e-06	-1.458933e-08	-1.687838e+01	-9.592442e+02
2.730000e-06	-2.422124e-06	-1.543757e-08	-1.752998e+01	-1.013647e+03
2.740000e-06	-2.511278e-06	-1.616289e-08	-1.817523e+01	-1.059479e+03
2.750000e-06	-2.599596e-06	-1.678448e-08	-1.881442e+01	-1.098496e+03
2.760000e-06	-2.687234e-06	-1.731893e-08	-1.944869e+01	-1.132280e+03
2.770000e-06	-2.774005e-06	-1.777874e-08	-2.007669e+01	-1.162068e+03
2.780000e-06	-2.859562e-06	-1.818102e-08	-2.069591e+01	-1.188699e+03
2.790000e-06	-2.943948e-06	-1.853783e-08	-2.130665e+01	-1.212647e+03
2.800000e-06	-3.027323e-06	-1.885571e-08	-2.191007e+01	-1.234138e+03
2.810000e-06	-3.109731e-06	-1.913912e-08	-2.250649e+01	-1.253288e+03
2.820000e-06	-3.191152e-06	-1.939187e-08	-2.309577e+01	-1.270220e+03
2.830000e-06	-3.271509e-06	-1.962291e-08	-2.367735e+01	-1.285146e+03
2.840000e-06	-3.350724e-06	-1.983656e-08	-2.425066e+01	-1.298387e+03
2.850000e-06	-3.428526e-06	-2.003269e-08	-2.481375e+01	-1.310333e+03
2.860000e-06	-3.504837e-06	-2.021218e-08	-2.536605e+01	-1.321377e+03
2.870000e-06	-3.579806e-06	-2.037826e-08	-2.590863e+01	-1.331840e+03
2.880000e-06	-3.653407e-06	-2.053289e-08	-2.644131e+01	-1.341914e+03
2.890000e-06	-3.725739e-06	-2.067613e-08	-2.696482e+01	-1.351642e+03
2.900000e-06	-3.796825e-06	-2.080857e-08	-2.747929e+01	-1.360945e+03
2.910000e-06	-3.866354e-06	-2.093220e-08	-2.798251e+01	-1.369672e+03
2.920000e-06	-3.934368e-06	-2.104788e-08	-2.847475e+01	-1.377676e+03
2.930000e-06	-4.001117e-06	-2.115555e-08	-2.895784e+01	-1.384871e+03
2.940000e-06	-4.066487e-06	-2.125695e-08	-2.943096e+01	-1.391278e+03
