# Temperatura_=_59.2
# Concentracion g/m^3_=_41000.0
# C_Vs_to_Am_M_A/Vsm_=_65563218390.804596
# pendiente_HvsI_1/m_=_3716.3
# ordenada_HvsI_A/m_=_1297.0
# frecuencia_Hz_=_301637.1246230876

Tiempo_(s)	Campo_(V.s)	Magnetizacion_(V.s)	Campo_(kA/m)	Magnetizacion_(A/m)
0.000000e+00	-5.325944e-06	-2.405540e-08	-3.834051e+01	-1.573105e+03
1.000000e-08	-5.323939e-06	-2.405451e-08	-3.832607e+01	-1.572861e+03
2.000000e-08	-5.320030e-06	-2.404853e-08	-3.829793e+01	-1.572714e+03
3.000000e-08	-5.314532e-06	-2.404185e-08	-3.825835e+01	-1.572607e+03
4.000000e-08	-5.307410e-06	-2.403477e-08	-3.820708e+01	-1.572431e+03
5.000000e-08	-5.298599e-06	-2.402289e-08	-3.814365e+01	-1.572063e+03
6.000000e-08	-5.287831e-06	-2.400776e-08	-3.806614e+01	-1.571399e+03
7.000000e-08	-5.275129e-06	-2.398661e-08	-3.797470e+01	-1.570392e+03
8.000000e-08	-5.260475e-06	-2.397042e-08	-3.786921e+01	-1.569066e+03
9.000000e-08	-5.243480e-06	-2.400299e-08	-3.774686e+01	-1.567511e+03
1.000000e-07	-5.224269e-06	-2.399324e-08	-3.760856e+01	-1.565859e+03
1.100000e-07	-5.203180e-06	-2.393395e-08	-3.745675e+01	-1.564245e+03
1.200000e-07	-5.180365e-06	-2.390511e-08	-3.729251e+01	-1.562770e+03
1.300000e-07	-5.156216e-06	-2.381553e-08	-3.711867e+01	-1.561467e+03
1.400000e-07	-5.130623e-06	-2.377765e-08	-3.693442e+01	-1.560297e+03
1.500000e-07	-5.103216e-06	-2.386912e-08	-3.673712e+01	-1.559154e+03
1.600000e-07	-5.074219e-06	-2.377795e-08	-3.652838e+01	-1.557904e+03
1.700000e-07	-5.043843e-06	-2.376874e-08	-3.630971e+01	-1.556414e+03
1.800000e-07	-5.011652e-06	-2.383288e-08	-3.607797e+01	-1.554597e+03
1.900000e-07	-4.977306e-06	-2.364614e-08	-3.583073e+01	-1.552429e+03
2.000000e-07	-4.941334e-06	-2.359353e-08	-3.557177e+01	-1.549954e+03
2.100000e-07	-4.903770e-06	-2.359998e-08	-3.530135e+01	-1.547268e+03
2.200000e-07	-4.864475e-06	-2.350796e-08	-3.501847e+01	-1.544482e+03
2.300000e-07	-4.823397e-06	-2.353056e-08	-3.472276e+01	-1.541692e+03
2.400000e-07	-4.780300e-06	-2.350173e-08	-3.441251e+01	-1.538944e+03
2.500000e-07	-4.735383e-06	-2.341168e-08	-3.408917e+01	-1.536223e+03
2.600000e-07	-4.688725e-06	-2.338536e-08	-3.375328e+01	-1.533457e+03
2.700000e-07	-4.640141e-06	-2.331424e-08	-3.340353e+01	-1.530541e+03
2.800000e-07	-4.589476e-06	-2.329594e-08	-3.303881e+01	-1.527374e+03
2.900000e-07	-4.536855e-06	-2.325097e-08	-3.265999e+01	-1.523884e+03
3.000000e-07	-4.482548e-06	-2.314766e-08	-3.226905e+01	-1.520057e+03
3.100000e-07	-4.426668e-06	-2.308652e-08	-3.186678e+01	-1.515935e+03
3.200000e-07	-4.368931e-06	-2.304443e-08	-3.145114e+01	-1.511608e+03
3.300000e-07	-4.309482e-06	-2.299034e-08	-3.102318e+01	-1.507178e+03
3.400000e-07	-4.248628e-06	-2.290853e-08	-3.058510e+01	-1.502730e+03
3.500000e-07	-4.186292e-06	-2.285305e-08	-3.013636e+01	-1.498303e+03
3.600000e-07	-4.122643e-06	-2.277306e-08	-2.967816e+01	-1.493878e+03
3.700000e-07	-4.057525e-06	-2.267890e-08	-2.920938e+01	-1.489383e+03
3.800000e-07	-3.990718e-06	-2.262607e-08	-2.872845e+01	-1.484716e+03
3.900000e-07	-3.922379e-06	-2.255009e-08	-2.823649e+01	-1.479778e+03
4.000000e-07	-3.852738e-06	-2.246138e-08	-2.773516e+01	-1.474503e+03
4.100000e-07	-3.781938e-06	-2.237475e-08	-2.722549e+01	-1.468880e+03
4.200000e-07	-3.710026e-06	-2.228229e-08	-2.670780e+01	-1.462954e+03
4.300000e-07	-3.636690e-06	-2.219818e-08	-2.617987e+01	-1.456812e+03
4.400000e-07	-3.561634e-06	-2.211354e-08	-2.563956e+01	-1.450552e+03
4.500000e-07	-3.485047e-06	-2.203137e-08	-2.508822e+01	-1.444249e+03
4.600000e-07	-3.407170e-06	-2.192607e-08	-2.452760e+01	-1.437929e+03
4.700000e-07	-3.327936e-06	-2.180713e-08	-2.395720e+01	-1.431553e+03
4.800000e-07	-3.247375e-06	-2.169829e-08	-2.337727e+01	-1.425033e+03
4.900000e-07	-3.165677e-06	-2.158977e-08	-2.278914e+01	-1.418248e+03
5.000000e-07	-3.082894e-06	-2.148275e-08	-2.219319e+01	-1.411088e+03
5.100000e-07	-2.999181e-06	-2.136506e-08	-2.159056e+01	-1.403483e+03
5.200000e-07	-2.914638e-06	-2.124699e-08	-2.098195e+01	-1.395427e+03
5.300000e-07	-2.829170e-06	-2.112203e-08	-2.036668e+01	-1.386976e+03
5.400000e-07	-2.742723e-06	-2.099047e-08	-1.974437e+01	-1.378233e+03
5.500000e-07	-2.655417e-06	-2.086576e-08	-1.911587e+01	-1.369306e+03
5.600000e-07	-2.567212e-06	-2.073292e-08	-1.848089e+01	-1.360278e+03
5.700000e-07	-2.477822e-06	-2.058641e-08	-1.783739e+01	-1.351164e+03
5.800000e-07	-2.387226e-06	-2.042581e-08	-1.718521e+01	-1.341910e+03
5.900000e-07	-2.295715e-06	-2.026518e-08	-1.652643e+01	-1.332393e+03
6.000000e-07	-2.203475e-06	-2.010468e-08	-1.586242e+01	-1.322461e+03
6.100000e-07	-2.110516e-06	-1.994325e-08	-1.519322e+01	-1.311970e+03
6.200000e-07	-2.016774e-06	-1.977844e-08	-1.451839e+01	-1.300830e+03
6.300000e-07	-1.922311e-06	-1.960373e-08	-1.383837e+01	-1.289030e+03
6.400000e-07	-1.827251e-06	-1.942035e-08	-1.315404e+01	-1.276639e+03
6.500000e-07	-1.731607e-06	-1.922923e-08	-1.246552e+01	-1.263780e+03
6.600000e-07	-1.635359e-06	-1.903289e-08	-1.177265e+01	-1.250586e+03
6.700000e-07	-1.538431e-06	-1.882847e-08	-1.107488e+01	-1.237153e+03
6.800000e-07	-1.440798e-06	-1.861657e-08	-1.037205e+01	-1.223492e+03
6.900000e-07	-1.342559e-06	-1.839442e-08	-9.664840e+00	-1.209519e+03
7.000000e-07	-1.243774e-06	-1.816435e-08	-8.953702e+00	-1.195061e+03
7.100000e-07	-1.144532e-06	-1.792762e-08	-8.239275e+00	-1.179903e+03
7.200000e-07	-1.044976e-06	-1.768146e-08	-7.522592e+00	-1.163838e+03
7.300000e-07	-9.451325e-07	-1.742403e-08	-6.803837e+00	-1.146728e+03
7.400000e-07	-8.449940e-07	-1.715279e-08	-6.082958e+00	-1.128535e+03
7.500000e-07	-7.446274e-07	-1.687024e-08	-5.360438e+00	-1.109324e+03
7.600000e-07	-6.440530e-07	-1.657496e-08	-4.636421e+00	-1.089228e+03
7.700000e-07	-5.432472e-07	-1.626228e-08	-3.910738e+00	-1.068384e+03
7.800000e-07	-4.423120e-07	-1.593148e-08	-3.184124e+00	-1.046862e+03
7.900000e-07	-3.412900e-07	-1.558199e-08	-2.456885e+00	-1.024601e+03
8.000000e-07	-2.401078e-07	-1.521056e-08	-1.728492e+00	-1.001386e+03
8.100000e-07	-1.387749e-07	-1.481943e-08	-9.990154e-01	-9.768657e+02
8.200000e-07	-3.736072e-08	-1.441173e-08	-2.689530e-01	-9.506133e+02
8.300000e-07	6.405184e-08	-1.398053e-08	4.610976e-01	-9.222155e+02
8.400000e-07	1.654358e-07	-1.351600e-08	1.190942e+00	-8.913598e+02
8.500000e-07	2.668014e-07	-1.301495e-08	1.920655e+00	-8.578885e+02
8.600000e-07	3.681378e-07	-1.247652e-08	2.650157e+00	-8.217960e+02
8.700000e-07	4.693550e-07	-1.189903e-08	3.378801e+00	-7.831563e+02
8.800000e-07	5.704065e-07	-1.127849e-08	4.106253e+00	-7.419930e+02
8.900000e-07	6.712876e-07	-1.060639e-08	4.832477e+00	-6.981178e+02
9.000000e-07	7.719785e-07	-9.871596e-09	5.557333e+00	-6.509846e+02
9.100000e-07	8.724605e-07	-9.063515e-09	6.280685e+00	-5.996054e+02
9.200000e-07	9.726892e-07	-8.170664e-09	7.002213e+00	-5.425686e+02
9.300000e-07	1.072635e-06	-7.177504e-09	7.721702e+00	-4.781783e+02
9.400000e-07	1.172217e-06	-6.059535e-09	8.438580e+00	-4.047071e+02
9.500000e-07	1.271357e-06	-4.792637e-09	9.152266e+00	-3.207243e+02
9.600000e-07	1.369959e-06	-3.359308e-09	9.862087e+00	-2.254380e+02
9.700000e-07	1.467912e-06	-1.751432e-09	1.056723e+01	-1.189826e+02
9.800000e-07	1.565193e-06	2.386203e-11	1.126754e+01	-2.582982e+00
9.900000e-07	1.661806e-06	1.936526e-09	1.196304e+01	1.214469e+02
1.000000e-06	1.757757e-06	3.928669e-09	1.265378e+01	2.498860e+02
1.010000e-06	1.853027e-06	5.925231e-09	1.333960e+01	3.789442e+02
1.020000e-06	1.947674e-06	7.851276e-09	1.402095e+01	5.046992e+02
1.030000e-06	2.041692e-06	9.646700e-09	1.469777e+01	6.235580e+02
1.040000e-06	2.134964e-06	1.127278e-08	1.536922e+01	7.326579e+02
1.050000e-06	2.227531e-06	1.271422e-08	1.603559e+01	8.301405e+02
1.060000e-06	2.319446e-06	1.397481e-08	1.669727e+01	9.152556e+02
1.070000e-06	2.410616e-06	1.506712e-08	1.735359e+01	9.882894e+02
1.080000e-06	2.500794e-06	1.600993e-08	1.800276e+01	1.050345e+03
1.090000e-06	2.589885e-06	1.682058e-08	1.864411e+01	1.103029e+03
1.100000e-06	2.677994e-06	1.751906e-08	1.927839e+01	1.148120e+03
1.110000e-06	2.765184e-06	1.812529e-08	1.990605e+01	1.187272e+03
1.120000e-06	2.851434e-06	1.865447e-08	2.052695e+01	1.221817e+03
1.130000e-06	2.936725e-06	1.911577e-08	2.114095e+01	1.252682e+03
1.140000e-06	3.021154e-06	1.952036e-08	2.174874e+01	1.280411e+03
1.150000e-06	3.104729e-06	1.988032e-08	2.235038e+01	1.305273e+03
1.160000e-06	3.187223e-06	2.020265e-08	2.294424e+01	1.327405e+03
1.170000e-06	3.268404e-06	2.049095e-08	2.352865e+01	1.346946e+03
1.180000e-06	3.348339e-06	2.074938e-08	2.410408e+01	1.364124e+03
1.190000e-06	3.427150e-06	2.098643e-08	2.467143e+01	1.379289e+03
1.200000e-06	3.504808e-06	2.120364e-08	2.523048e+01	1.392876e+03
1.210000e-06	3.581215e-06	2.140314e-08	2.578052e+01	1.405337e+03
1.220000e-06	3.656226e-06	2.158808e-08	2.632051e+01	1.417055e+03
1.230000e-06	3.729669e-06	2.176155e-08	2.684921e+01	1.428277e+03
1.240000e-06	3.801591e-06	2.192169e-08	2.736697e+01	1.439089e+03
1.250000e-06	3.872146e-06	2.206828e-08	2.787488e+01	1.449428e+03
1.260000e-06	3.941364e-06	2.220393e-08	2.837316e+01	1.459143e+03
1.270000e-06	4.009310e-06	2.233086e-08	2.886229e+01	1.468067e+03
1.280000e-06	4.075790e-06	2.244939e-08	2.934088e+01	1.476092e+03
1.290000e-06	4.140576e-06	2.256069e-08	2.980726e+01	1.483216e+03
1.300000e-06	4.203816e-06	2.266453e-08	3.026251e+01	1.489551e+03
1.310000e-06	4.265687e-06	2.276059e-08	3.070790e+01	1.495303e+03
1.320000e-06	4.326209e-06	2.285019e-08	3.114359e+01	1.500710e+03
1.330000e-06	4.385334e-06	2.293269e-08	3.156922e+01	1.505985e+03
1.340000e-06	4.442810e-06	2.301034e-08	3.198298e+01	1.511260e+03
1.350000e-06	4.498536e-06	2.308479e-08	3.238415e+01	1.516563e+03
1.360000e-06	4.552636e-06	2.315668e-08	3.277360e+01	1.521816e+03
1.370000e-06	4.605000e-06	2.322537e-08	3.315056e+01	1.526879e+03
1.380000e-06	4.655333e-06	2.329102e-08	3.351289e+01	1.531598e+03
1.390000e-06	4.703660e-06	2.335490e-08	3.386079e+01	1.535857e+03
1.400000e-06	4.750320e-06	2.341634e-08	3.419669e+01	1.539619e+03
1.410000e-06	4.795458e-06	2.347474e-08	3.452163e+01	1.542932e+03
1.420000e-06	4.839101e-06	2.352796e-08	3.483581e+01	1.545917e+03
1.430000e-06	4.880978e-06	2.357450e-08	3.513728e+01	1.548724e+03
1.440000e-06	4.920937e-06	2.361619e-08	3.542494e+01	1.551490e+03
1.450000e-06	4.959200e-06	2.365537e-08	3.570038e+01	1.554295e+03
1.460000e-06	4.995874e-06	2.369293e-08	3.596439e+01	1.557140e+03
1.470000e-06	5.030860e-06	2.372868e-08	3.621624e+01	1.559952e+03
1.480000e-06	5.063908e-06	2.376244e-08	3.645415e+01	1.562611e+03
1.490000e-06	5.095138e-06	2.379439e-08	3.667897e+01	1.564990e+03
1.500000e-06	5.124767e-06	2.382367e-08	3.689227e+01	1.566999e+03
1.510000e-06	5.152802e-06	2.384940e-08	3.709408e+01	1.568613e+03
1.520000e-06	5.178902e-06	2.387414e-08	3.728198e+01	1.569882e+03
1.530000e-06	5.202891e-06	2.389599e-08	3.745467e+01	1.570917e+03
1.540000e-06	5.225009e-06	2.391356e-08	3.761389e+01	1.571853e+03
1.550000e-06	5.245437e-06	2.393049e-08	3.776095e+01	1.572811e+03
1.560000e-06	5.264165e-06	2.394708e-08	3.789577e+01	1.573860e+03
1.570000e-06	5.280892e-06	2.396143e-08	3.801618e+01	1.575001e+03
1.580000e-06	5.295567e-06	2.397389e-08	3.812183e+01	1.576162e+03
1.590000e-06	5.308318e-06	2.398581e-08	3.821362e+01	1.577232e+03
1.600000e-06	5.318938e-06	2.399719e-08	3.829007e+01	1.578087e+03
1.610000e-06	5.327390e-06	2.400648e-08	3.835092e+01	1.578640e+03
1.620000e-06	5.333935e-06	2.401166e-08	3.839803e+01	1.578861e+03
1.630000e-06	5.338686e-06	2.401444e-08	3.843223e+01	1.578788e+03
1.640000e-06	5.341610e-06	2.401662e-08	3.845328e+01	1.578518e+03
1.650000e-06	5.342543e-06	2.402007e-08	3.846000e+01	1.578173e+03
1.660000e-06	5.341600e-06	2.402069e-08	3.845321e+01	1.577860e+03
1.670000e-06	5.339001e-06	2.401774e-08	3.843450e+01	1.577642e+03
1.680000e-06	5.334811e-06	2.401657e-08	3.840434e+01	1.577511e+03
1.690000e-06	5.328769e-06	2.401030e-08	3.836084e+01	1.577397e+03
1.700000e-06	5.320864e-06	2.400032e-08	3.830393e+01	1.577184e+03
1.710000e-06	5.311423e-06	2.399255e-08	3.823597e+01	1.576749e+03
1.720000e-06	5.300350e-06	2.398928e-08	3.815625e+01	1.576000e+03
1.730000e-06	5.287402e-06	2.399074e-08	3.806304e+01	1.574907e+03
1.740000e-06	5.272411e-06	2.391723e-08	3.795513e+01	1.573512e+03
1.750000e-06	5.255191e-06	2.387007e-08	3.783117e+01	1.571918e+03
1.760000e-06	5.235488e-06	2.389010e-08	3.768933e+01	1.570263e+03
1.770000e-06	5.213274e-06	2.388015e-08	3.752941e+01	1.568676e+03
1.780000e-06	5.189364e-06	2.394864e-08	3.735729e+01	1.567243e+03
1.790000e-06	5.164729e-06	2.388803e-08	3.717994e+01	1.565979e+03
1.800000e-06	5.139020e-06	2.374558e-08	3.699487e+01	1.564826e+03
1.810000e-06	5.111359e-06	2.383612e-08	3.679575e+01	1.563669e+03
1.820000e-06	5.081811e-06	2.374512e-08	3.658304e+01	1.562368e+03
1.830000e-06	5.050551e-06	2.365753e-08	3.635800e+01	1.560802e+03
1.840000e-06	5.017304e-06	2.382950e-08	3.611866e+01	1.558895e+03
1.850000e-06	4.982406e-06	2.373919e-08	3.586743e+01	1.556643e+03
1.860000e-06	4.945877e-06	2.369214e-08	3.560447e+01	1.554104e+03
1.870000e-06	4.907272e-06	2.374742e-08	3.532656e+01	1.551382e+03
1.880000e-06	4.866968e-06	2.356725e-08	3.503642e+01	1.548587e+03
1.890000e-06	4.824979e-06	2.357147e-08	3.473415e+01	1.545804e+03
1.900000e-06	4.781279e-06	2.354526e-08	3.441956e+01	1.543066e+03
1.910000e-06	4.735938e-06	2.346153e-08	3.409316e+01	1.540341e+03
1.920000e-06	4.688721e-06	2.351984e-08	3.375325e+01	1.537547e+03
1.930000e-06	4.639833e-06	2.335449e-08	3.340131e+01	1.534576e+03
1.940000e-06	4.589155e-06	2.333136e-08	3.303650e+01	1.531332e+03
1.950000e-06	4.536422e-06	2.334460e-08	3.265688e+01	1.527756e+03
1.960000e-06	4.481791e-06	2.322059e-08	3.226360e+01	1.523848e+03
1.970000e-06	4.425411e-06	2.320754e-08	3.185773e+01	1.519665e+03
1.980000e-06	4.367447e-06	2.310462e-08	3.144046e+01	1.515301e+03
1.990000e-06	4.308089e-06	2.305913e-08	3.101315e+01	1.510859e+03
2.000000e-06	4.247340e-06	2.299671e-08	3.057583e+01	1.506414e+03
2.010000e-06	4.184941e-06	2.290063e-08	3.012663e+01	1.501990e+03
2.020000e-06	4.120796e-06	2.288232e-08	2.966486e+01	1.497555e+03
2.030000e-06	4.055212e-06	2.275512e-08	2.919274e+01	1.493026e+03
2.040000e-06	3.988291e-06	2.270639e-08	2.871098e+01	1.488299e+03
2.050000e-06	3.919989e-06	2.263527e-08	2.821929e+01	1.483280e+03
2.060000e-06	3.850116e-06	2.254042e-08	2.771628e+01	1.477916e+03
2.070000e-06	3.778753e-06	2.248923e-08	2.720256e+01	1.472210e+03
2.080000e-06	3.706209e-06	2.236915e-08	2.668033e+01	1.466220e+03
2.090000e-06	3.632340e-06	2.228927e-08	2.614856e+01	1.460039e+03
2.100000e-06	3.557095e-06	2.217112e-08	2.560688e+01	1.453762e+03
2.110000e-06	3.480423e-06	2.208861e-08	2.505493e+01	1.447453e+03
2.120000e-06	3.402188e-06	2.201180e-08	2.449174e+01	1.441124e+03
2.130000e-06	3.322693e-06	2.189809e-08	2.391946e+01	1.434721e+03
2.140000e-06	3.242103e-06	2.181219e-08	2.333931e+01	1.428145e+03
2.150000e-06	3.160413e-06	2.169778e-08	2.275124e+01	1.421275e+03
2.160000e-06	3.077646e-06	2.159097e-08	2.215541e+01	1.414007e+03
2.170000e-06	2.993893e-06	2.145567e-08	2.155249e+01	1.406287e+03
2.180000e-06	2.909072e-06	2.133747e-08	2.094188e+01	1.398123e+03
2.190000e-06	2.822875e-06	2.122501e-08	2.032137e+01	1.389588e+03
2.200000e-06	2.735524e-06	2.108711e-08	1.969254e+01	1.380788e+03
2.210000e-06	2.647284e-06	2.095383e-08	1.905732e+01	1.371829e+03
2.220000e-06	2.558170e-06	2.081505e-08	1.841580e+01	1.362780e+03
2.230000e-06	2.468139e-06	2.068683e-08	1.776769e+01	1.353638e+03
2.240000e-06	2.377294e-06	2.054288e-08	1.711371e+01	1.344331e+03
2.250000e-06	2.285801e-06	2.039817e-08	1.645507e+01	1.334724e+03
2.260000e-06	2.193612e-06	2.024436e-08	1.579142e+01	1.324662e+03
2.270000e-06	2.100523e-06	2.007534e-08	1.512128e+01	1.314014e+03
2.280000e-06	2.006365e-06	1.989859e-08	1.444345e+01	1.302706e+03
2.290000e-06	1.911326e-06	1.971695e-08	1.375929e+01	1.290749e+03
2.300000e-06	1.815640e-06	1.953869e-08	1.307047e+01	1.278226e+03
2.310000e-06	1.719405e-06	1.935373e-08	1.237768e+01	1.265271e+03
2.320000e-06	1.622687e-06	1.915866e-08	1.168143e+01	1.252010e+03
2.330000e-06	1.525479e-06	1.895221e-08	1.098165e+01	1.238521e+03
2.340000e-06	1.427718e-06	1.873990e-08	1.027788e+01	1.224793e+03
2.350000e-06	1.329436e-06	1.851641e-08	9.570371e+00	1.210717e+03
2.360000e-06	1.230780e-06	1.828261e-08	8.860163e+00	1.196104e+03
2.370000e-06	1.131845e-06	1.804045e-08	8.147945e+00	1.180735e+03
2.380000e-06	1.032639e-06	1.779054e-08	7.433783e+00	1.164418e+03
2.390000e-06	9.331262e-07	1.753063e-08	6.717406e+00	1.147035e+03
2.400000e-06	8.333830e-07	1.725436e-08	5.999373e+00	1.128577e+03
2.410000e-06	7.334056e-07	1.696655e-08	5.279654e+00	1.109130e+03
2.420000e-06	6.331462e-07	1.666737e-08	4.557904e+00	1.088835e+03
2.430000e-06	5.326329e-07	1.635327e-08	3.834327e+00	1.067818e+03
2.440000e-06	4.319275e-07	1.602383e-08	3.109368e+00	1.046121e+03
2.450000e-06	3.310832e-07	1.567869e-08	2.383408e+00	1.023647e+03
2.460000e-06	2.300886e-07	1.531235e-08	1.656366e+00	1.000142e+03
2.470000e-06	1.289685e-07	1.492009e-08	9.284208e-01	9.752293e+02
2.480000e-06	2.768384e-08	1.450059e-08	1.992909e-01	9.484757e+02
2.490000e-06	-7.367808e-08	1.405459e-08	-5.303951e-01	9.194863e+02
2.500000e-06	-1.749613e-07	1.358137e-08	-1.259515e+00	8.879840e+02
2.510000e-06	-2.761092e-07	1.307757e-08	-1.987660e+00	8.538521e+02
2.520000e-06	-3.771716e-07	1.253860e-08	-2.715190e+00	8.171142e+02
2.530000e-06	-4.781207e-07	1.195474e-08	-3.441904e+00	7.778460e+02
2.540000e-06	-5.788652e-07	1.132128e-08	-4.167146e+00	7.360331e+02
2.550000e-06	-6.793900e-07	1.063210e-08	-4.890805e+00	6.914102e+02
2.560000e-06	-7.796089e-07	9.878532e-09	-5.612263e+00	6.433249e+02
2.570000e-06	-8.795145e-07	9.051596e-09	-6.331465e+00	5.906771e+02
2.580000e-06	-9.791879e-07	8.139407e-09	-7.048996e+00	5.319662e+02
2.590000e-06	-1.078577e-06	7.125487e-09	-7.764481e+00	4.654610e+02
2.600000e-06	-1.177592e-06	5.985439e-09	-8.477271e+00	3.894758e+02
2.610000e-06	-1.276241e-06	4.695853e-09	-9.187426e+00	3.027084e+02
2.620000e-06	-1.374533e-06	3.236190e-09	-9.895012e+00	2.045753e+02
2.630000e-06	-1.472288e-06	1.599267e-09	-1.059873e+01	9.547405e+01
2.640000e-06	-1.569454e-06	-2.010224e-10	-1.129822e+01	-2.309087e+01
2.650000e-06	-1.666126e-06	-2.130815e-09	-1.199414e+01	-1.485550e+02
2.660000e-06	-1.762274e-06	-4.132526e-09	-1.268629e+01	-2.775183e+02
2.670000e-06	-1.857932e-06	-6.132602e-09	-1.337491e+01	-4.061142e+02
2.680000e-06	-1.952994e-06	-8.055108e-09	-1.405925e+01	-5.304606e+02
2.690000e-06	-2.047191e-06	-9.838528e-09	-1.473736e+01	-6.471132e+02
2.700000e-06	-2.140400e-06	-1.144768e-08	-1.540835e+01	-7.534411e+02
2.710000e-06	-2.232704e-06	-1.287071e-08	-1.607283e+01	-8.478601e+02
2.720000e-06	-2.324185e-06	-1.411185e-08	-1.673138e+01	-9.298924e+02
2.730000e-06	-2.414871e-06	-1.518713e-08	-1.738422e+01	-1.000054e+03
2.740000e-06	-2.504761e-06	-1.611604e-08	-1.803132e+01	-1.059604e+03
2.750000e-06	-2.593748e-06	-1.691752e-08	-1.867192e+01	-1.110225e+03
2.760000e-06	-2.681870e-06	-1.761068e-08	-1.930629e+01	-1.153687e+03
2.770000e-06	-2.769216e-06	-1.821173e-08	-1.993509e+01	-1.191578e+03
2.780000e-06	-2.855605e-06	-1.873355e-08	-2.055698e+01	-1.225134e+03
2.790000e-06	-2.940768e-06	-1.918779e-08	-2.117006e+01	-1.255178e+03
2.800000e-06	-3.024761e-06	-1.958858e-08	-2.177471e+01	-1.282173e+03
2.810000e-06	-3.107799e-06	-1.994496e-08	-2.237248e+01	-1.306343e+03
2.820000e-06	-3.189842e-06	-2.026075e-08	-2.296309e+01	-1.327813e+03
2.830000e-06	-3.270819e-06	-2.054509e-08	-2.354603e+01	-1.346738e+03
2.840000e-06	-3.350735e-06	-2.080393e-08	-2.412134e+01	-1.363377e+03
2.850000e-06	-3.429433e-06	-2.104108e-08	-2.468786e+01	-1.378105e+03
2.860000e-06	-3.506636e-06	-2.126176e-08	-2.524364e+01	-1.391370e+03
2.870000e-06	-3.582347e-06	-2.146564e-08	-2.578866e+01	-1.403615e+03
2.880000e-06	-3.656718e-06	-2.165104e-08	-2.632405e+01	-1.415193e+03
2.890000e-06	-3.729761e-06	-2.181817e-08	-2.684987e+01	-1.426312e+03
2.900000e-06	-3.801526e-06	-2.197154e-08	-2.736650e+01	-1.437017e+03
2.910000e-06	-3.871844e-06	-2.211561e-08	-2.787270e+01	-1.447217e+03
2.920000e-06	-3.940575e-06	-2.225112e-08	-2.836749e+01	-1.456750e+03
2.930000e-06	-4.007907e-06	-2.237884e-08	-2.885220e+01	-1.465457e+03
2.940000e-06	-4.073852e-06	-2.249880e-08	-2.932692e+01	-1.473254e+03
