# Temperatura_=_68.58
# Concentracion g/m^3_=_41000.0
# C_Vs_to_Am_M_A/Vsm_=_65563218390.804596
# pendiente_HvsI_1/m_=_3716.3
# ordenada_HvsI_A/m_=_1297.0
# frecuencia_Hz_=_301636.6612617622

Tiempo_(s)	Campo_(V.s)	Magnetizacion_(V.s)	Campo_(kA/m)	Magnetizacion_(A/m)
0.000000e+00	-5.331236e-06	-2.389600e-08	-3.834232e+01	-1.563108e+03
1.000000e-08	-5.329467e-06	-2.389245e-08	-3.832960e+01	-1.562937e+03
2.000000e-08	-5.325826e-06	-2.388559e-08	-3.830342e+01	-1.562827e+03
3.000000e-08	-5.320559e-06	-2.387775e-08	-3.826553e+01	-1.562701e+03
4.000000e-08	-5.313708e-06	-2.386911e-08	-3.821626e+01	-1.562451e+03
5.000000e-08	-5.305201e-06	-2.385700e-08	-3.815508e+01	-1.561968e+03
6.000000e-08	-5.294705e-06	-2.384244e-08	-3.807960e+01	-1.561180e+03
7.000000e-08	-5.282190e-06	-2.382313e-08	-3.798958e+01	-1.560073e+03
8.000000e-08	-5.267744e-06	-2.380821e-08	-3.788569e+01	-1.558693e+03
9.000000e-08	-5.251023e-06	-2.382023e-08	-3.776544e+01	-1.557132e+03
1.000000e-07	-5.232091e-06	-2.380646e-08	-3.762927e+01	-1.555501e+03
1.100000e-07	-5.211269e-06	-2.376327e-08	-3.747952e+01	-1.553893e+03
1.200000e-07	-5.188678e-06	-2.373173e-08	-3.731705e+01	-1.552356e+03
1.300000e-07	-5.164687e-06	-2.365998e-08	-3.714450e+01	-1.550879e+03
1.400000e-07	-5.139254e-06	-2.363391e-08	-3.696159e+01	-1.549395e+03
1.500000e-07	-5.112073e-06	-2.366435e-08	-3.676610e+01	-1.547808e+03
1.600000e-07	-5.083303e-06	-2.359866e-08	-3.655919e+01	-1.546018e+03
1.700000e-07	-5.053087e-06	-2.358164e-08	-3.634187e+01	-1.543958e+03
1.800000e-07	-5.021051e-06	-2.358331e-08	-3.611147e+01	-1.541614e+03
1.900000e-07	-4.986901e-06	-2.347362e-08	-3.586586e+01	-1.539029e+03
2.000000e-07	-4.951100e-06	-2.342824e-08	-3.560838e+01	-1.536290e+03
2.100000e-07	-4.913749e-06	-2.339494e-08	-3.533975e+01	-1.533499e+03
2.200000e-07	-4.874691e-06	-2.334079e-08	-3.505885e+01	-1.530741e+03
2.300000e-07	-4.833767e-06	-2.334145e-08	-3.476452e+01	-1.528053e+03
2.400000e-07	-4.790788e-06	-2.329433e-08	-3.445541e+01	-1.525412e+03
2.500000e-07	-4.746040e-06	-2.322648e-08	-3.413359e+01	-1.522736e+03
2.600000e-07	-4.699566e-06	-2.317433e-08	-3.379935e+01	-1.519912e+03
2.700000e-07	-4.651188e-06	-2.310822e-08	-3.345141e+01	-1.516824e+03
2.800000e-07	-4.600757e-06	-2.307838e-08	-3.308871e+01	-1.513389e+03
2.900000e-07	-4.548269e-06	-2.302353e-08	-3.271122e+01	-1.509580e+03
3.000000e-07	-4.494028e-06	-2.292743e-08	-3.232111e+01	-1.505436e+03
3.100000e-07	-4.438233e-06	-2.286671e-08	-3.191983e+01	-1.501045e+03
3.200000e-07	-4.380698e-06	-2.282841e-08	-3.150604e+01	-1.496520e+03
3.300000e-07	-4.321425e-06	-2.276111e-08	-3.107975e+01	-1.491960e+03
3.400000e-07	-4.260662e-06	-2.267521e-08	-3.064274e+01	-1.487424e+03
3.500000e-07	-4.198483e-06	-2.261385e-08	-3.019555e+01	-1.482906e+03
3.600000e-07	-4.134959e-06	-2.253023e-08	-2.973868e+01	-1.478344e+03
3.700000e-07	-4.070006e-06	-2.243812e-08	-2.927154e+01	-1.473633e+03
3.800000e-07	-4.003441e-06	-2.237643e-08	-2.879281e+01	-1.468665e+03
3.900000e-07	-3.935303e-06	-2.230084e-08	-2.830275e+01	-1.463357e+03
4.000000e-07	-3.865755e-06	-2.221194e-08	-2.780256e+01	-1.457680e+03
4.100000e-07	-3.794979e-06	-2.211497e-08	-2.729354e+01	-1.451668e+03
4.200000e-07	-3.723087e-06	-2.201924e-08	-2.677650e+01	-1.445406e+03
4.300000e-07	-3.649802e-06	-2.192583e-08	-2.624943e+01	-1.439003e+03
4.400000e-07	-3.574829e-06	-2.183489e-08	-2.571022e+01	-1.432552e+03
4.500000e-07	-3.498378e-06	-2.174278e-08	-2.516039e+01	-1.426104e+03
4.600000e-07	-3.420700e-06	-2.163423e-08	-2.460172e+01	-1.419645e+03
4.700000e-07	-3.341668e-06	-2.151837e-08	-2.403333e+01	-1.413098e+03
4.800000e-07	-3.261253e-06	-2.140807e-08	-2.345498e+01	-1.406345e+03
4.900000e-07	-3.179610e-06	-2.130241e-08	-2.286780e+01	-1.399260e+03
5.000000e-07	-3.096867e-06	-2.119043e-08	-2.227271e+01	-1.391753e+03
5.100000e-07	-3.013192e-06	-2.106973e-08	-2.167092e+01	-1.383788e+03
5.200000e-07	-2.928645e-06	-2.094718e-08	-2.106285e+01	-1.375403e+03
5.300000e-07	-2.843176e-06	-2.081694e-08	-2.044816e+01	-1.366689e+03
5.400000e-07	-2.756730e-06	-2.067795e-08	-1.982644e+01	-1.357765e+03
5.500000e-07	-2.669416e-06	-2.054557e-08	-1.919848e+01	-1.348731e+03
5.600000e-07	-2.581231e-06	-2.041112e-08	-1.856425e+01	-1.339636e+03
5.700000e-07	-2.491929e-06	-2.026457e-08	-1.792199e+01	-1.330455e+03
5.800000e-07	-2.401433e-06	-2.010777e-08	-1.727114e+01	-1.321087e+03
5.900000e-07	-2.309995e-06	-1.994832e-08	-1.661352e+01	-1.311384e+03
6.000000e-07	-2.217820e-06	-1.978683e-08	-1.595059e+01	-1.301192e+03
6.100000e-07	-2.124931e-06	-1.962147e-08	-1.528253e+01	-1.290392e+03
6.200000e-07	-2.031318e-06	-1.945178e-08	-1.460927e+01	-1.278940e+03
6.300000e-07	-1.936932e-06	-1.927290e-08	-1.393044e+01	-1.266875e+03
6.400000e-07	-1.841865e-06	-1.908601e-08	-1.324672e+01	-1.254304e+03
6.500000e-07	-1.746222e-06	-1.889152e-08	-1.255885e+01	-1.241364e+03
6.600000e-07	-1.649984e-06	-1.869161e-08	-1.186671e+01	-1.228174e+03
6.700000e-07	-1.553032e-06	-1.848581e-08	-1.116943e+01	-1.214784e+03
6.800000e-07	-1.455310e-06	-1.827248e-08	-1.046661e+01	-1.201149e+03
6.900000e-07	-1.356927e-06	-1.805064e-08	-9.759036e+00	-1.187130e+03
7.000000e-07	-1.258021e-06	-1.781975e-08	-9.047704e+00	-1.172523e+03
7.100000e-07	-1.158755e-06	-1.758095e-08	-8.333786e+00	-1.157113e+03
7.200000e-07	-1.059205e-06	-1.733232e-08	-7.617821e+00	-1.140732e+03
7.300000e-07	-9.593655e-07	-1.707143e-08	-6.899771e+00	-1.123300e+03
7.400000e-07	-8.592165e-07	-1.679670e-08	-6.179498e+00	-1.104846e+03
7.500000e-07	-7.587853e-07	-1.651241e-08	-5.457195e+00	-1.085479e+03
7.600000e-07	-6.581135e-07	-1.621681e-08	-4.733162e+00	-1.065342e+03
7.700000e-07	-5.572378e-07	-1.590224e-08	-4.007662e+00	-1.044532e+03
7.800000e-07	-4.562245e-07	-1.556883e-08	-3.281173e+00	-1.023039e+03
7.900000e-07	-3.550529e-07	-1.521585e-08	-2.553546e+00	-1.000700e+03
8.000000e-07	-2.537080e-07	-1.483979e-08	-1.824671e+00	-9.772015e+02
8.100000e-07	-1.522214e-07	-1.444173e-08	-1.094778e+00	-9.521288e+02
8.200000e-07	-5.070665e-08	-1.402503e-08	-3.646829e-01	-9.250436e+02
8.300000e-07	5.079434e-08	-1.358335e-08	3.653137e-01	-8.955759e+02
8.400000e-07	1.523182e-07	-1.310712e-08	1.095475e+00	-8.634932e+02
8.500000e-07	2.537743e-07	-1.259059e-08	1.825149e+00	-8.287197e+02
8.600000e-07	3.551172e-07	-1.203259e-08	2.554008e+00	-7.912897e+02
8.700000e-07	4.563811e-07	-1.143023e-08	3.282300e+00	-7.512355e+02
8.800000e-07	5.575401e-07	-1.077685e-08	4.009837e+00	-7.084341e+02
8.900000e-07	6.585449e-07	-1.006542e-08	4.736265e+00	-6.624516e+02
9.000000e-07	7.593552e-07	-9.282709e-09	5.461293e+00	-6.124341e+02
9.100000e-07	8.599246e-07	-8.415962e-09	6.184590e+00	-5.570882e+02
9.200000e-07	9.602496e-07	-7.450608e-09	6.906129e+00	-4.947812e+02
9.300000e-07	1.060249e-06	-6.367289e-09	7.625322e+00	-4.237599e+02
9.400000e-07	1.159857e-06	-5.142544e-09	8.341707e+00	-3.424624e+02
9.500000e-07	1.259108e-06	-3.754505e-09	9.055521e+00	-2.498674e+02
9.600000e-07	1.357950e-06	-2.190817e-09	9.766399e+00	-1.458109e+02
9.700000e-07	1.456207e-06	-4.542497e-10	1.047306e+01	-3.120174e+01
9.800000e-07	1.553772e-06	1.433454e-09	1.117475e+01	9.192104e+01
9.900000e-07	1.650589e-06	3.424766e-09	1.187106e+01	2.205131e+02
1.000000e-06	1.746641e-06	5.446782e-09	1.256187e+01	3.508215e+02
1.010000e-06	1.842050e-06	7.419763e-09	1.324805e+01	4.788068e+02
1.020000e-06	1.936870e-06	9.273535e-09	1.393000e+01	6.006178e+02
1.030000e-06	2.031006e-06	1.096123e-08	1.460702e+01	7.130349e+02
1.040000e-06	2.124405e-06	1.245871e-08	1.527875e+01	8.138042e+02
1.050000e-06	2.217184e-06	1.376167e-08	1.594602e+01	9.018092e+02
1.060000e-06	2.309319e-06	1.488251e-08	1.660865e+01	9.770580e+02
1.070000e-06	2.400666e-06	1.584078e-08	1.726562e+01	1.040504e+03
1.080000e-06	2.491113e-06	1.666045e-08	1.791612e+01	1.093746e+03
1.090000e-06	2.580465e-06	1.736121e-08	1.855874e+01	1.138680e+03
1.100000e-06	2.668711e-06	1.796259e-08	1.919341e+01	1.177166e+03
1.110000e-06	2.756016e-06	1.848110e-08	1.982131e+01	1.210778e+03
1.120000e-06	2.842460e-06	1.893162e-08	2.044302e+01	1.240671e+03
1.130000e-06	2.928007e-06	1.932762e-08	2.105827e+01	1.267559e+03
1.140000e-06	3.012621e-06	1.967851e-08	2.166682e+01	1.291800e+03
1.150000e-06	3.096328e-06	1.999203e-08	2.226883e+01	1.313540e+03
1.160000e-06	3.178985e-06	2.027395e-08	2.286330e+01	1.332862e+03
1.170000e-06	3.260402e-06	2.053157e-08	2.344886e+01	1.349908e+03
1.180000e-06	3.340592e-06	2.076563e-08	2.402558e+01	1.364938e+03
1.190000e-06	3.419660e-06	2.097955e-08	2.459424e+01	1.378328e+03
1.200000e-06	3.497540e-06	2.117645e-08	2.515436e+01	1.390510e+03
1.210000e-06	3.574173e-06	2.135814e-08	2.570551e+01	1.401893e+03
1.220000e-06	3.649493e-06	2.152770e-08	2.624721e+01	1.412780e+03
1.230000e-06	3.723223e-06	2.168718e-08	2.677747e+01	1.423318e+03
1.240000e-06	3.795392e-06	2.183541e-08	2.729651e+01	1.433501e+03
1.250000e-06	3.866190e-06	2.197248e-08	2.780569e+01	1.443198e+03
1.260000e-06	3.935643e-06	2.209964e-08	2.830520e+01	1.452233e+03
1.270000e-06	4.003833e-06	2.221766e-08	2.879562e+01	1.460454e+03
1.280000e-06	4.070619e-06	2.232783e-08	2.927595e+01	1.467800e+03
1.290000e-06	4.135748e-06	2.243207e-08	2.974436e+01	1.474326e+03
1.300000e-06	4.199297e-06	2.253113e-08	3.020140e+01	1.480194e+03
1.310000e-06	4.261457e-06	2.262299e-08	3.064846e+01	1.485633e+03
1.320000e-06	4.322267e-06	2.270905e-08	3.108581e+01	1.490873e+03
1.330000e-06	4.381677e-06	2.279019e-08	3.151308e+01	1.496087e+03
1.340000e-06	4.439431e-06	2.286673e-08	3.192845e+01	1.501350e+03
1.350000e-06	4.495380e-06	2.293981e-08	3.233084e+01	1.506632e+03
1.360000e-06	4.549674e-06	2.301047e-08	3.272132e+01	1.511816e+03
1.370000e-06	4.602324e-06	2.307784e-08	3.309998e+01	1.516746e+03
1.380000e-06	4.653025e-06	2.314151e-08	3.346462e+01	1.521282e+03
1.390000e-06	4.701714e-06	2.320245e-08	3.381480e+01	1.525344e+03
1.400000e-06	4.748672e-06	2.326084e-08	3.415252e+01	1.528940e+03
1.410000e-06	4.794056e-06	2.331661e-08	3.447892e+01	1.532155e+03
1.420000e-06	4.837933e-06	2.336944e-08	3.479448e+01	1.535129e+03
1.430000e-06	4.880047e-06	2.341984e-08	3.509737e+01	1.538007e+03
1.440000e-06	4.920313e-06	2.346603e-08	3.538696e+01	1.540896e+03
1.450000e-06	4.958904e-06	2.350708e-08	3.566451e+01	1.543835e+03
1.460000e-06	4.995878e-06	2.354535e-08	3.593043e+01	1.546783e+03
1.470000e-06	5.031248e-06	2.358091e-08	3.618481e+01	1.549638e+03
1.480000e-06	5.064716e-06	2.361422e-08	3.642551e+01	1.552270e+03
1.490000e-06	5.096243e-06	2.364481e-08	3.665225e+01	1.554567e+03
1.500000e-06	5.126078e-06	2.367275e-08	3.686683e+01	1.556468e+03
1.510000e-06	5.154288e-06	2.369866e-08	3.706971e+01	1.557986e+03
1.520000e-06	5.180590e-06	2.372323e-08	3.725887e+01	1.559202e+03
1.530000e-06	5.204811e-06	2.374632e-08	3.743307e+01	1.560240e+03
1.540000e-06	5.227156e-06	2.376579e-08	3.759378e+01	1.561232e+03
1.550000e-06	5.247804e-06	2.378229e-08	3.774228e+01	1.562275e+03
1.560000e-06	5.266704e-06	2.379633e-08	3.787821e+01	1.563408e+03
1.570000e-06	5.283607e-06	2.380775e-08	3.799977e+01	1.564596e+03
1.580000e-06	5.298524e-06	2.381827e-08	3.810706e+01	1.565751e+03
1.590000e-06	5.311565e-06	2.382905e-08	3.820085e+01	1.566756e+03
1.600000e-06	5.322509e-06	2.384004e-08	3.827956e+01	1.567508e+03
1.610000e-06	5.331229e-06	2.384967e-08	3.834227e+01	1.567945e+03
1.620000e-06	5.338013e-06	2.385718e-08	3.839107e+01	1.568071e+03
1.630000e-06	5.343076e-06	2.386325e-08	3.842748e+01	1.567950e+03
1.640000e-06	5.346336e-06	2.386803e-08	3.845092e+01	1.567688e+03
1.650000e-06	5.347598e-06	2.386967e-08	3.846000e+01	1.567395e+03
1.660000e-06	5.346941e-06	2.386531e-08	3.845528e+01	1.567157e+03
1.670000e-06	5.344586e-06	2.385898e-08	3.843834e+01	1.567002e+03
1.680000e-06	5.340647e-06	2.385443e-08	3.841001e+01	1.566896e+03
1.690000e-06	5.334871e-06	2.384929e-08	3.836847e+01	1.566753e+03
1.700000e-06	5.327198e-06	2.384365e-08	3.831328e+01	1.566460e+03
1.710000e-06	5.317937e-06	2.383787e-08	3.824668e+01	1.565916e+03
1.720000e-06	5.307086e-06	2.383140e-08	3.816864e+01	1.565058e+03
1.730000e-06	5.294356e-06	2.382462e-08	3.807708e+01	1.563886e+03
1.740000e-06	5.279591e-06	2.376724e-08	3.797089e+01	1.562458e+03
1.750000e-06	5.262715e-06	2.372694e-08	3.784952e+01	1.560872e+03
1.760000e-06	5.243436e-06	2.372572e-08	3.771087e+01	1.559239e+03
1.770000e-06	5.221605e-06	2.371510e-08	3.755386e+01	1.557643e+03
1.780000e-06	5.197925e-06	2.375734e-08	3.738355e+01	1.556121e+03
1.790000e-06	5.173412e-06	2.370825e-08	3.720726e+01	1.554649e+03
1.800000e-06	5.147867e-06	2.361442e-08	3.702354e+01	1.553151e+03
1.810000e-06	5.120434e-06	2.363384e-08	3.682624e+01	1.551528e+03
1.820000e-06	5.091033e-06	2.356378e-08	3.661478e+01	1.549683e+03
1.830000e-06	5.059880e-06	2.351497e-08	3.639073e+01	1.547561e+03
1.840000e-06	5.026789e-06	2.358543e-08	3.615274e+01	1.545160e+03
1.850000e-06	4.991996e-06	2.352166e-08	3.590250e+01	1.542533e+03
1.860000e-06	4.955606e-06	2.348967e-08	3.564079e+01	1.539773e+03
1.870000e-06	4.917251e-06	2.348041e-08	3.536494e+01	1.536983e+03
1.880000e-06	4.877185e-06	2.335481e-08	3.507678e+01	1.534238e+03
1.890000e-06	4.835433e-06	2.333715e-08	3.477650e+01	1.531564e+03
1.900000e-06	4.791932e-06	2.330425e-08	3.446364e+01	1.528922e+03
1.910000e-06	4.746749e-06	2.327379e-08	3.413869e+01	1.526225e+03
1.920000e-06	4.699621e-06	2.328429e-08	3.379974e+01	1.523353e+03
1.930000e-06	4.650796e-06	2.315616e-08	3.344859e+01	1.520195e+03
1.940000e-06	4.600359e-06	2.312438e-08	3.308585e+01	1.516679e+03
1.950000e-06	4.547911e-06	2.311253e-08	3.270864e+01	1.512793e+03
1.960000e-06	4.493439e-06	2.301177e-08	3.231688e+01	1.508586e+03
1.970000e-06	4.437229e-06	2.295541e-08	3.191262e+01	1.504156e+03
1.980000e-06	4.379483e-06	2.288128e-08	3.149730e+01	1.499616e+03
1.990000e-06	4.320354e-06	2.283406e-08	3.107204e+01	1.495058e+03
2.000000e-06	4.259836e-06	2.275647e-08	3.063680e+01	1.490527e+03
2.010000e-06	4.197597e-06	2.268116e-08	3.018918e+01	1.486006e+03
2.020000e-06	4.133563e-06	2.263224e-08	2.972865e+01	1.481421e+03
2.030000e-06	4.068069e-06	2.252074e-08	2.925761e+01	1.476664e+03
2.040000e-06	4.001257e-06	2.244952e-08	2.877710e+01	1.471627e+03
2.050000e-06	3.933098e-06	2.237015e-08	2.828690e+01	1.466240e+03
2.060000e-06	3.863319e-06	2.229077e-08	2.778504e+01	1.460485e+03
2.070000e-06	3.791987e-06	2.222094e-08	2.727202e+01	1.454411e+03
2.080000e-06	3.719487e-06	2.211686e-08	2.675061e+01	1.448109e+03
2.090000e-06	3.645727e-06	2.202407e-08	2.622012e+01	1.441687e+03
2.100000e-06	3.570633e-06	2.191036e-08	2.568004e+01	1.435235e+03
2.110000e-06	3.494116e-06	2.182306e-08	2.512973e+01	1.428787e+03
2.120000e-06	3.416022e-06	2.173398e-08	2.456808e+01	1.422317e+03
2.130000e-06	3.336563e-06	2.162147e-08	2.399661e+01	1.415736e+03
2.140000e-06	3.255981e-06	2.151579e-08	2.341706e+01	1.408921e+03
2.150000e-06	3.174339e-06	2.140276e-08	2.282989e+01	1.401752e+03
2.160000e-06	3.091621e-06	2.128895e-08	2.223498e+01	1.394146e+03
2.170000e-06	3.007967e-06	2.115552e-08	2.163334e+01	1.386085e+03
2.180000e-06	2.923237e-06	2.103817e-08	2.102396e+01	1.377620e+03
2.190000e-06	2.837121e-06	2.092503e-08	2.040461e+01	1.368850e+03
2.200000e-06	2.749813e-06	2.078951e-08	1.977669e+01	1.359894e+03
2.210000e-06	2.661596e-06	2.064731e-08	1.914223e+01	1.350845e+03
2.220000e-06	2.572473e-06	2.050591e-08	1.850127e+01	1.341736e+03
2.230000e-06	2.482441e-06	2.036876e-08	1.785375e+01	1.332525e+03
2.240000e-06	2.391614e-06	2.022027e-08	1.720052e+01	1.323098e+03
2.250000e-06	2.300114e-06	2.006914e-08	1.654245e+01	1.313302e+03
2.260000e-06	2.207902e-06	1.991282e-08	1.587926e+01	1.302987e+03
2.270000e-06	2.114751e-06	1.974401e-08	1.520932e+01	1.292048e+03
2.280000e-06	2.020577e-06	1.956698e-08	1.453202e+01	1.280458e+03
2.290000e-06	1.925592e-06	1.938752e-08	1.384889e+01	1.268272e+03
2.300000e-06	1.829995e-06	1.920849e-08	1.316135e+01	1.255610e+03
2.310000e-06	1.733830e-06	1.902325e-08	1.246973e+01	1.242608e+03
2.320000e-06	1.637143e-06	1.882517e-08	1.177436e+01	1.229373e+03
2.330000e-06	1.539946e-06	1.861458e-08	1.107532e+01	1.215937e+03
2.340000e-06	1.442198e-06	1.839714e-08	1.037231e+01	1.202234e+03
2.350000e-06	1.343936e-06	1.817040e-08	9.665609e+00	1.188107e+03
2.360000e-06	1.245265e-06	1.793455e-08	8.955962e+00	1.173344e+03
2.370000e-06	1.146269e-06	1.769152e-08	8.243986e+00	1.157737e+03
2.380000e-06	1.047016e-06	1.744134e-08	7.530151e+00	1.141133e+03
2.390000e-06	9.474966e-07	1.718167e-08	6.814409e+00	1.123476e+03
2.400000e-06	8.477497e-07	1.690654e-08	6.097028e+00	1.104814e+03
2.410000e-06	7.478123e-07	1.661642e-08	5.378277e+00	1.085270e+03
2.420000e-06	6.476016e-07	1.631418e-08	4.657560e+00	1.064983e+03
2.430000e-06	5.471236e-07	1.599728e-08	3.934921e+00	1.044032e+03
2.440000e-06	4.464266e-07	1.566234e-08	3.210706e+00	1.022376e+03
2.450000e-06	3.454483e-07	1.530910e-08	2.484469e+00	9.998182e+02
2.460000e-06	2.442110e-07	1.493540e-08	1.756369e+00	9.760191e+02
2.470000e-06	1.428331e-07	1.453697e-08	1.027258e+00	9.505504e+02
2.480000e-06	4.133316e-08	1.410980e-08	2.972687e-01	9.229813e+02
2.490000e-06	-6.019731e-08	1.365531e-08	-4.329399e-01	8.929667e+02
2.500000e-06	-1.616334e-07	1.317103e-08	-1.162470e+00	8.603082e+02
2.510000e-06	-2.629330e-07	1.265080e-08	-1.891018e+00	8.249600e+02
2.520000e-06	-3.640941e-07	1.208889e-08	-2.618570e+00	7.869671e+02
2.530000e-06	-4.651135e-07	1.147703e-08	-3.345103e+00	7.463423e+02
2.540000e-06	-5.659916e-07	1.081060e-08	-4.070620e+00	7.029083e+02
2.550000e-06	-6.666505e-07	1.008187e-08	-4.794560e+00	6.561479e+02
2.560000e-06	-7.669990e-07	9.281017e-09	-5.516268e+00	6.051107e+02
2.570000e-06	-8.670750e-07	8.396376e-09	-6.236016e+00	5.484182e+02
2.580000e-06	-9.668802e-07	7.411362e-09	-6.953817e+00	4.843894e+02
2.590000e-06	-1.066363e-06	6.306122e-09	-7.669301e+00	4.112839e+02
2.600000e-06	-1.165548e-06	5.054960e-09	-8.382639e+00	3.276260e+02
2.610000e-06	-1.264402e-06	3.637208e-09	-9.093595e+00	2.325539e+02
2.620000e-06	-1.362804e-06	2.043037e-09	-9.801305e+00	1.261201e+02
2.630000e-06	-1.460723e-06	2.766036e-10	-1.050554e+01	9.476962e+00
2.640000e-06	-1.558122e-06	-1.635225e-09	-1.120604e+01	-1.151044e+02
2.650000e-06	-1.654952e-06	-3.640214e-09	-1.190244e+01	-2.443976e+02
2.660000e-06	-1.751256e-06	-5.666105e-09	-1.259506e+01	-3.745497e+02
2.670000e-06	-1.847072e-06	-7.635185e-09	-1.328417e+01	-5.015215e+02
2.680000e-06	-1.942302e-06	-9.478728e-09	-1.396907e+01	-6.215624e+02
2.690000e-06	-2.036722e-06	-1.114998e-08	-1.464813e+01	-7.316365e+02
2.700000e-06	-2.130173e-06	-1.262642e-08	-1.532024e+01	-8.297255e+02
2.710000e-06	-2.222710e-06	-1.390953e-08	-1.598576e+01	-9.149611e+02
2.720000e-06	-2.314378e-06	-1.501411e-08	-1.664504e+01	-9.875740e+02
2.730000e-06	-2.405268e-06	-1.595928e-08	-1.729872e+01	-1.048684e+03
2.740000e-06	-2.495346e-06	-1.676759e-08	-1.794656e+01	-1.099983e+03
2.750000e-06	-2.584498e-06	-1.745845e-08	-1.858775e+01	-1.143386e+03
2.760000e-06	-2.672805e-06	-1.805070e-08	-1.922285e+01	-1.180709e+03
2.770000e-06	-2.760351e-06	-1.856083e-08	-1.985248e+01	-1.213443e+03
2.780000e-06	-2.846978e-06	-1.900452e-08	-2.047551e+01	-1.242647e+03
2.790000e-06	-2.932424e-06	-1.939740e-08	-2.109004e+01	-1.268947e+03
2.800000e-06	-3.016718e-06	-1.974697e-08	-2.169628e+01	-1.292645e+03
2.810000e-06	-3.099957e-06	-2.005912e-08	-2.229493e+01	-1.313860e+03
2.820000e-06	-3.182147e-06	-2.033888e-08	-2.288605e+01	-1.332680e+03
2.830000e-06	-3.263307e-06	-2.059132e-08	-2.346975e+01	-1.349268e+03
2.840000e-06	-3.343458e-06	-2.082300e-08	-2.404620e+01	-1.363913e+03
2.850000e-06	-3.422440e-06	-2.103749e-08	-2.461423e+01	-1.377007e+03
2.860000e-06	-3.499924e-06	-2.123495e-08	-2.517150e+01	-1.388987e+03
2.870000e-06	-3.575850e-06	-2.141535e-08	-2.571757e+01	-1.400243e+03
2.880000e-06	-3.650368e-06	-2.158117e-08	-2.625350e+01	-1.411049e+03
2.890000e-06	-3.723571e-06	-2.173560e-08	-2.677998e+01	-1.421518e+03
2.900000e-06	-3.795541e-06	-2.188052e-08	-2.729758e+01	-1.431610e+03
2.910000e-06	-3.866112e-06	-2.201769e-08	-2.780513e+01	-1.441181e+03
2.920000e-06	-3.935103e-06	-2.214710e-08	-2.830131e+01	-1.450053e+03
2.930000e-06	-4.002622e-06	-2.226728e-08	-2.878692e+01	-1.458089e+03
2.940000e-06	-4.068766e-06	-2.237784e-08	-2.926263e+01	-1.465251e+03
