# Temperatura_=_59.14
# Concentracion g/m^3_=_41000.0
# C_Vs_to_Am_M_A/Vsm_=_65563218390.804596
# pendiente_HvsI_1/m_=_3716.3
# ordenada_HvsI_A/m_=_1297.0
# frecuencia_Hz_=_301639.01143399434

Tiempo_(s)	Campo_(V.s)	Magnetizacion_(V.s)	Campo_(kA/m)	Magnetizacion_(A/m)
0.000000e+00	-5.308718e-06	-2.427674e-08	-3.833554e+01	-1.587287e+03
1.000000e-08	-5.306794e-06	-2.427102e-08	-3.832164e+01	-1.587069e+03
2.000000e-08	-5.303022e-06	-2.426708e-08	-3.829440e+01	-1.586931e+03
3.000000e-08	-5.297575e-06	-2.425928e-08	-3.825507e+01	-1.586826e+03
4.000000e-08	-5.290542e-06	-2.424878e-08	-3.820428e+01	-1.586657e+03
5.000000e-08	-5.281853e-06	-2.423811e-08	-3.814154e+01	-1.586309e+03
6.000000e-08	-5.271305e-06	-2.422695e-08	-3.806537e+01	-1.585688e+03
7.000000e-08	-5.258777e-06	-2.421858e-08	-3.797490e+01	-1.584747e+03
8.000000e-08	-5.244213e-06	-2.421332e-08	-3.786973e+01	-1.583504e+03
9.000000e-08	-5.227356e-06	-2.417962e-08	-3.774800e+01	-1.582036e+03
1.000000e-07	-5.208311e-06	-2.416797e-08	-3.761047e+01	-1.580456e+03
1.100000e-07	-5.187412e-06	-2.415390e-08	-3.745956e+01	-1.578877e+03
1.200000e-07	-5.164816e-06	-2.409465e-08	-3.729638e+01	-1.577378e+03
1.300000e-07	-5.140787e-06	-2.407826e-08	-3.712287e+01	-1.575975e+03
1.400000e-07	-5.115308e-06	-2.403197e-08	-3.693888e+01	-1.574619e+03
1.500000e-07	-5.088099e-06	-2.395444e-08	-3.674239e+01	-1.573206e+03
1.600000e-07	-5.059280e-06	-2.403655e-08	-3.653429e+01	-1.571608e+03
1.700000e-07	-5.029052e-06	-2.399868e-08	-3.631600e+01	-1.569711e+03
1.800000e-07	-4.997045e-06	-2.392161e-08	-3.608487e+01	-1.567453e+03
1.900000e-07	-4.962985e-06	-2.393728e-08	-3.583892e+01	-1.564838e+03
2.000000e-07	-4.927221e-06	-2.375964e-08	-3.558065e+01	-1.561942e+03
2.100000e-07	-4.889919e-06	-2.366757e-08	-3.531129e+01	-1.558885e+03
2.200000e-07	-4.850871e-06	-2.371167e-08	-3.502931e+01	-1.555801e+03
2.300000e-07	-4.809923e-06	-2.368293e-08	-3.473362e+01	-1.552795e+03
2.400000e-07	-4.767052e-06	-2.369098e-08	-3.442403e+01	-1.549915e+03
2.500000e-07	-4.722357e-06	-2.363846e-08	-3.410128e+01	-1.547133e+03
2.600000e-07	-4.675936e-06	-2.349112e-08	-3.376606e+01	-1.544359e+03
2.700000e-07	-4.627651e-06	-2.347381e-08	-3.341738e+01	-1.541465e+03
2.800000e-07	-4.577337e-06	-2.348647e-08	-3.305406e+01	-1.538321e+03
2.900000e-07	-4.525016e-06	-2.344161e-08	-3.267624e+01	-1.534836e+03
3.000000e-07	-4.470921e-06	-2.333730e-08	-3.228560e+01	-1.530981e+03
3.100000e-07	-4.415218e-06	-2.326040e-08	-3.188335e+01	-1.526795e+03
3.200000e-07	-4.357827e-06	-2.321463e-08	-3.146892e+01	-1.522373e+03
3.300000e-07	-4.298711e-06	-2.312746e-08	-3.104203e+01	-1.517833e+03
3.400000e-07	-4.238106e-06	-2.307082e-08	-3.060439e+01	-1.513278e+03
3.500000e-07	-4.176144e-06	-2.301415e-08	-3.015694e+01	-1.508766e+03
3.600000e-07	-4.112765e-06	-2.294784e-08	-2.969927e+01	-1.504289e+03
3.700000e-07	-4.047948e-06	-2.286150e-08	-2.923121e+01	-1.499780e+03
3.800000e-07	-3.981548e-06	-2.276863e-08	-2.875172e+01	-1.495129e+03
3.900000e-07	-3.913563e-06	-2.270962e-08	-2.826079e+01	-1.490221e+03
4.000000e-07	-3.844179e-06	-2.262662e-08	-2.775975e+01	-1.484973e+03
4.100000e-07	-3.773597e-06	-2.252417e-08	-2.725006e+01	-1.479354e+03
4.200000e-07	-3.701924e-06	-2.243254e-08	-2.673249e+01	-1.473398e+03
4.300000e-07	-3.628943e-06	-2.234800e-08	-2.620547e+01	-1.467186e+03
4.400000e-07	-3.554313e-06	-2.226905e-08	-2.566655e+01	-1.460826e+03
4.500000e-07	-3.478093e-06	-2.218152e-08	-2.511615e+01	-1.454406e+03
4.600000e-07	-3.400544e-06	-2.207617e-08	-2.455615e+01	-1.447974e+03
4.700000e-07	-3.321690e-06	-2.195358e-08	-2.398673e+01	-1.441510e+03
4.800000e-07	-3.241499e-06	-2.184095e-08	-2.340765e+01	-1.434936e+03
4.900000e-07	-3.160057e-06	-2.174491e-08	-2.281953e+01	-1.428138e+03
5.000000e-07	-3.077510e-06	-2.163397e-08	-2.222344e+01	-1.420997e+03
5.100000e-07	-2.994031e-06	-2.151676e-08	-2.162062e+01	-1.413427e+03
5.200000e-07	-2.909728e-06	-2.139566e-08	-2.101185e+01	-1.405403e+03
5.300000e-07	-2.824541e-06	-2.126701e-08	-2.039670e+01	-1.396964e+03
5.400000e-07	-2.738394e-06	-2.113582e-08	-1.977461e+01	-1.388202e+03
5.500000e-07	-2.651323e-06	-2.100853e-08	-1.914585e+01	-1.379225e+03
5.600000e-07	-2.563379e-06	-2.088447e-08	-1.851078e+01	-1.370124e+03
5.700000e-07	-2.474467e-06	-2.073947e-08	-1.786872e+01	-1.360931e+03
5.800000e-07	-2.384379e-06	-2.057842e-08	-1.721818e+01	-1.351608e+03
5.900000e-07	-2.293195e-06	-2.041223e-08	-1.655972e+01	-1.342048e+03
6.000000e-07	-2.201255e-06	-2.025245e-08	-1.589580e+01	-1.332104e+03
6.100000e-07	-2.108620e-06	-2.009290e-08	-1.522685e+01	-1.321629e+03
6.200000e-07	-2.015188e-06	-1.992706e-08	-1.455216e+01	-1.310518e+03
6.300000e-07	-1.921009e-06	-1.975143e-08	-1.387207e+01	-1.298741e+03
6.400000e-07	-1.826164e-06	-1.956217e-08	-1.318717e+01	-1.286347e+03
6.500000e-07	-1.730747e-06	-1.936701e-08	-1.249814e+01	-1.273448e+03
6.600000e-07	-1.634853e-06	-1.916840e-08	-1.180567e+01	-1.260176e+03
6.700000e-07	-1.538430e-06	-1.896794e-08	-1.110937e+01	-1.246633e+03
6.800000e-07	-1.441327e-06	-1.875881e-08	-1.040817e+01	-1.232850e+03
6.900000e-07	-1.343514e-06	-1.853901e-08	-9.701842e+00	-1.218763e+03
7.000000e-07	-1.245055e-06	-1.830484e-08	-8.990847e+00	-1.204220e+03
7.100000e-07	-1.146059e-06	-1.806034e-08	-8.275968e+00	-1.189012e+03
7.200000e-07	-1.046684e-06	-1.781081e-08	-7.558355e+00	-1.172933e+03
7.300000e-07	-9.470444e-07	-1.755295e-08	-6.838837e+00	-1.155828e+03
7.400000e-07	-8.471843e-07	-1.728372e-08	-6.117723e+00	-1.137638e+03
7.500000e-07	-7.471402e-07	-1.700240e-08	-5.395280e+00	-1.118406e+03
7.600000e-07	-6.469121e-07	-1.670723e-08	-4.671509e+00	-1.098249e+03
7.700000e-07	-5.464887e-07	-1.639321e-08	-3.946327e+00	-1.077304e+03
7.800000e-07	-4.459128e-07	-1.606116e-08	-3.220044e+00	-1.055654e+03
7.900000e-07	-3.452022e-07	-1.571071e-08	-2.492789e+00	-1.033266e+03
8.000000e-07	-2.443198e-07	-1.534207e-08	-1.764292e+00	-1.009960e+03
8.100000e-07	-1.432687e-07	-1.495345e-08	-1.034578e+00	-9.854127e+02
8.200000e-07	-4.217018e-08	-1.454421e-08	-3.045211e-01	-9.592165e+02
8.300000e-07	5.895896e-08	-1.411154e-08	4.257569e-01	-9.309571e+02
8.400000e-07	1.601212e-07	-1.364714e-08	1.156274e+00	-9.003015e+02
8.500000e-07	2.612102e-07	-1.314784e-08	1.886262e+00	-8.670584e+02
8.600000e-07	3.621475e-07	-1.261231e-08	2.615155e+00	-8.311859e+02
8.700000e-07	4.629187e-07	-1.203996e-08	3.342848e+00	-7.927339e+02
8.800000e-07	5.636174e-07	-1.142453e-08	4.070017e+00	-7.517255e+02
8.900000e-07	6.641753e-07	-1.075664e-08	4.796171e+00	-7.080045e+02
9.000000e-07	7.645163e-07	-1.002548e-08	5.520757e+00	-6.610877e+02
9.100000e-07	8.646576e-07	-9.221946e-09	6.243901e+00	-6.100708e+02
9.200000e-07	9.645797e-07	-8.337425e-09	6.965463e+00	-5.536283e+02
9.300000e-07	1.064283e-06	-7.358079e-09	7.685442e+00	-4.901295e+02
9.400000e-07	1.163692e-06	-6.260586e-09	8.403298e+00	-4.178682e+02
9.500000e-07	1.262679e-06	-5.016071e-09	9.118113e+00	-3.353743e+02
9.600000e-07	1.361060e-06	-3.607682e-09	9.828543e+00	-2.417505e+02
9.700000e-07	1.458738e-06	-2.025544e-09	1.053390e+01	-1.369664e+02
9.800000e-07	1.555701e-06	-2.738155e-10	1.123409e+01	-2.204454e+01
9.900000e-07	1.651966e-06	1.620799e-09	1.192925e+01	1.009118e+02
1.000000e-06	1.747628e-06	3.602648e-09	1.262004e+01	2.288658e+02
1.010000e-06	1.842666e-06	5.601716e-09	1.330634e+01	3.581534e+02
1.020000e-06	1.937091e-06	7.547018e-09	1.398820e+01	4.848992e+02
1.030000e-06	2.030886e-06	9.373885e-09	1.466552e+01	6.054684e+02
1.040000e-06	2.123958e-06	1.104067e-08	1.533761e+01	7.168755e+02
1.050000e-06	2.216346e-06	1.252697e-08	1.600477e+01	8.170797e+02
1.060000e-06	2.308080e-06	1.383193e-08	1.666720e+01	9.051186e+02
1.070000e-06	2.399012e-06	1.496653e-08	1.732385e+01	9.810706e+02
1.080000e-06	2.488862e-06	1.594750e-08	1.797268e+01	1.045864e+03
1.090000e-06	2.577595e-06	1.679467e-08	1.861344e+01	1.100987e+03
1.100000e-06	2.665426e-06	1.752592e-08	1.924768e+01	1.148161e+03
1.110000e-06	2.752389e-06	1.816172e-08	1.987566e+01	1.189041e+03
1.120000e-06	2.838428e-06	1.871398e-08	2.049697e+01	1.225007e+03
1.130000e-06	2.923544e-06	1.919344e-08	2.111162e+01	1.257052e+03
1.140000e-06	3.007766e-06	1.961306e-08	2.171980e+01	1.285794e+03
1.150000e-06	3.091085e-06	1.998634e-08	2.232147e+01	1.311559e+03
1.160000e-06	3.173318e-06	2.032126e-08	2.291530e+01	1.334516e+03
1.170000e-06	3.254299e-06	2.062146e-08	2.350008e+01	1.354814e+03
1.180000e-06	3.334056e-06	2.089209e-08	2.407603e+01	1.372672e+03
1.190000e-06	3.412695e-06	2.113863e-08	2.464390e+01	1.388422e+03
1.200000e-06	3.490189e-06	2.136193e-08	2.520350e+01	1.402486e+03
1.210000e-06	3.566422e-06	2.156350e-08	2.575400e+01	1.415314e+03
1.220000e-06	3.641264e-06	2.175066e-08	2.629445e+01	1.427304e+03
1.230000e-06	3.714542e-06	2.192661e-08	2.682361e+01	1.438731e+03
1.240000e-06	3.786331e-06	2.209242e-08	2.734201e+01	1.449715e+03
1.250000e-06	3.856762e-06	2.224570e-08	2.785061e+01	1.460228e+03
1.260000e-06	3.925858e-06	2.238802e-08	2.834957e+01	1.470142e+03
1.270000e-06	3.993648e-06	2.251880e-08	2.883910e+01	1.479301e+03
1.280000e-06	4.059914e-06	2.264037e-08	2.931762e+01	1.487588e+03
1.290000e-06	4.124478e-06	2.275405e-08	2.978385e+01	1.494983e+03
1.300000e-06	4.187572e-06	2.285996e-08	3.023947e+01	1.501572e+03
1.310000e-06	4.249335e-06	2.295727e-08	3.068547e+01	1.507537e+03
1.320000e-06	4.309760e-06	2.304812e-08	3.112182e+01	1.513103e+03
1.330000e-06	4.368766e-06	2.313296e-08	3.154791e+01	1.518480e+03
1.340000e-06	4.426057e-06	2.321205e-08	3.196163e+01	1.523811e+03
1.350000e-06	4.481574e-06	2.328852e-08	3.236253e+01	1.529140e+03
1.360000e-06	4.535512e-06	2.336269e-08	3.275203e+01	1.534416e+03
1.370000e-06	4.587789e-06	2.343379e-08	3.312953e+01	1.539516e+03
1.380000e-06	4.638082e-06	2.350004e-08	3.349271e+01	1.544297e+03
1.390000e-06	4.686407e-06	2.356246e-08	3.384168e+01	1.548645e+03
1.400000e-06	4.733063e-06	2.362227e-08	3.417859e+01	1.552512e+03
1.410000e-06	4.778200e-06	2.367901e-08	3.450454e+01	1.555935e+03
1.420000e-06	4.821762e-06	2.373258e-08	3.481911e+01	1.559019e+03
1.430000e-06	4.863545e-06	2.378255e-08	3.512083e+01	1.561904e+03
1.440000e-06	4.903510e-06	2.382861e-08	3.540943e+01	1.564725e+03
1.450000e-06	4.941814e-06	2.387038e-08	3.568604e+01	1.567566e+03
1.460000e-06	4.978537e-06	2.390877e-08	3.595122e+01	1.570442e+03
1.470000e-06	5.013577e-06	2.394605e-08	3.620425e+01	1.573294e+03
1.480000e-06	5.046683e-06	2.398193e-08	3.644332e+01	1.576015e+03
1.490000e-06	5.077926e-06	2.401473e-08	3.666893e+01	1.578483e+03
1.500000e-06	5.107530e-06	2.404361e-08	3.688271e+01	1.580607e+03
1.510000e-06	5.135443e-06	2.406953e-08	3.708428e+01	1.582351e+03
1.520000e-06	5.161442e-06	2.409379e-08	3.727202e+01	1.583748e+03
1.530000e-06	5.185423e-06	2.411704e-08	3.744519e+01	1.584892e+03
1.540000e-06	5.207559e-06	2.413760e-08	3.760504e+01	1.585904e+03
1.550000e-06	5.228014e-06	2.415623e-08	3.775275e+01	1.586900e+03
1.560000e-06	5.246752e-06	2.417376e-08	3.788807e+01	1.587951e+03
1.570000e-06	5.263507e-06	2.418851e-08	3.800906e+01	1.589065e+03
1.580000e-06	5.278254e-06	2.420094e-08	3.811555e+01	1.590189e+03
1.590000e-06	5.291069e-06	2.421276e-08	3.820809e+01	1.591225e+03
1.600000e-06	5.301782e-06	2.422372e-08	3.828545e+01	1.592066e+03
1.610000e-06	5.310361e-06	2.423247e-08	3.834740e+01	1.592629e+03
1.620000e-06	5.316972e-06	2.423935e-08	3.839514e+01	1.592884e+03
1.630000e-06	5.321843e-06	2.424409e-08	3.843032e+01	1.592863e+03
1.640000e-06	5.324919e-06	2.424610e-08	3.845253e+01	1.592651e+03
1.650000e-06	5.325954e-06	2.424547e-08	3.846000e+01	1.592358e+03
1.660000e-06	5.325074e-06	2.424653e-08	3.845365e+01	1.592083e+03
1.670000e-06	5.322562e-06	2.424948e-08	3.843551e+01	1.591886e+03
1.680000e-06	5.318462e-06	2.424793e-08	3.840590e+01	1.591763e+03
1.690000e-06	5.312586e-06	2.424355e-08	3.836347e+01	1.591651e+03
1.700000e-06	5.304846e-06	2.423552e-08	3.830757e+01	1.591446e+03
1.710000e-06	5.295437e-06	2.422607e-08	3.823963e+01	1.591037e+03
1.720000e-06	5.284424e-06	2.421378e-08	3.816011e+01	1.590337e+03
1.730000e-06	5.271606e-06	2.418421e-08	3.806754e+01	1.589315e+03
1.740000e-06	5.256730e-06	2.418990e-08	3.796012e+01	1.588006e+03
1.750000e-06	5.239645e-06	2.416039e-08	3.783674e+01	1.586498e+03
1.760000e-06	5.220097e-06	2.412881e-08	3.769558e+01	1.584908e+03
1.770000e-06	5.198137e-06	2.414375e-08	3.753700e+01	1.583343e+03
1.780000e-06	5.174498e-06	2.409269e-08	3.736630e+01	1.581868e+03
1.790000e-06	5.149974e-06	2.413326e-08	3.718921e+01	1.580483e+03
1.800000e-06	5.124381e-06	2.413727e-08	3.700439e+01	1.579123e+03
1.810000e-06	5.096888e-06	2.397664e-08	3.680586e+01	1.577675e+03
1.820000e-06	5.067427e-06	2.400958e-08	3.659312e+01	1.576010e+03
1.830000e-06	5.036256e-06	2.397836e-08	3.636802e+01	1.574026e+03
1.840000e-06	5.003239e-06	2.386504e-08	3.612960e+01	1.571674e+03
1.850000e-06	4.968500e-06	2.399677e-08	3.587874e+01	1.568979e+03
1.860000e-06	4.932126e-06	2.396945e-08	3.561608e+01	1.566030e+03
1.870000e-06	4.893787e-06	2.386522e-08	3.533922e+01	1.562953e+03
1.880000e-06	4.853655e-06	2.382912e-08	3.504942e+01	1.559880e+03
1.890000e-06	4.811894e-06	2.363595e-08	3.474785e+01	1.556903e+03
1.900000e-06	4.768432e-06	2.367655e-08	3.443400e+01	1.554051e+03
1.910000e-06	4.723289e-06	2.375586e-08	3.410801e+01	1.551281e+03
1.920000e-06	4.676335e-06	2.358946e-08	3.376895e+01	1.548489e+03
1.930000e-06	4.627634e-06	2.353973e-08	3.341726e+01	1.545543e+03
1.940000e-06	4.577221e-06	2.348163e-08	3.305322e+01	1.542319e+03
1.950000e-06	4.524875e-06	2.346680e-08	3.267522e+01	1.538741e+03
1.960000e-06	4.470597e-06	2.340780e-08	3.228326e+01	1.534796e+03
1.970000e-06	4.414488e-06	2.329342e-08	3.187809e+01	1.530540e+03
1.980000e-06	4.356743e-06	2.331530e-08	3.146110e+01	1.526076e+03
1.990000e-06	4.297641e-06	2.320888e-08	3.103430e+01	1.521523e+03
2.000000e-06	4.237193e-06	2.311389e-08	3.059780e+01	1.516975e+03
2.010000e-06	4.175136e-06	2.306224e-08	3.014967e+01	1.512474e+03
2.020000e-06	4.111338e-06	2.298504e-08	2.968897e+01	1.507997e+03
2.030000e-06	4.046060e-06	2.295005e-08	2.921757e+01	1.503462e+03
2.040000e-06	3.979423e-06	2.282422e-08	2.873638e+01	1.498756e+03
2.050000e-06	3.911359e-06	2.277975e-08	2.824487e+01	1.493769e+03
2.060000e-06	3.841824e-06	2.272915e-08	2.774274e+01	1.488428e+03
2.070000e-06	3.770813e-06	2.261464e-08	2.722995e+01	1.482718e+03
2.080000e-06	3.698497e-06	2.252890e-08	2.670774e+01	1.476688e+03
2.090000e-06	3.624896e-06	2.240391e-08	2.617625e+01	1.470428e+03
2.100000e-06	3.549989e-06	2.233031e-08	2.563533e+01	1.464045e+03
2.110000e-06	3.473699e-06	2.223996e-08	2.508442e+01	1.457620e+03
2.120000e-06	3.395823e-06	2.215262e-08	2.452206e+01	1.451182e+03
2.130000e-06	3.316533e-06	2.205290e-08	2.394949e+01	1.444699e+03
2.140000e-06	3.236080e-06	2.193304e-08	2.336852e+01	1.438081e+03
2.150000e-06	3.154552e-06	2.184322e-08	2.277978e+01	1.431206e+03
2.160000e-06	3.071979e-06	2.171750e-08	2.218350e+01	1.423963e+03
2.170000e-06	2.988412e-06	2.159879e-08	2.158005e+01	1.416279e+03
2.180000e-06	2.903820e-06	2.147556e-08	2.096919e+01	1.408144e+03
2.190000e-06	2.817989e-06	2.135829e-08	2.034938e+01	1.399614e+03
2.200000e-06	2.730918e-06	2.122799e-08	1.972062e+01	1.390787e+03
2.210000e-06	2.642884e-06	2.107931e-08	1.908490e+01	1.381771e+03
2.220000e-06	2.554009e-06	2.094862e-08	1.844312e+01	1.372645e+03
2.230000e-06	2.464243e-06	2.081603e-08	1.779490e+01	1.363426e+03
2.240000e-06	2.373639e-06	2.068395e-08	1.714062e+01	1.354055e+03
2.250000e-06	2.282304e-06	2.053369e-08	1.648107e+01	1.344413e+03
2.260000e-06	2.190271e-06	2.037989e-08	1.581648e+01	1.334348e+03
2.270000e-06	2.097451e-06	2.020852e-08	1.514620e+01	1.323720e+03
2.280000e-06	2.003721e-06	2.002401e-08	1.446936e+01	1.312441e+03
2.290000e-06	1.909109e-06	1.984519e-08	1.378614e+01	1.300502e+03
2.300000e-06	1.813771e-06	1.967144e-08	1.309768e+01	1.287969e+03
2.310000e-06	1.717870e-06	1.949592e-08	1.240515e+01	1.274964e+03
2.320000e-06	1.621502e-06	1.929699e-08	1.170926e+01	1.261615e+03
2.330000e-06	1.524639e-06	1.908489e-08	1.100979e+01	1.248012e+03
2.340000e-06	1.427263e-06	1.886723e-08	1.030661e+01	1.234162e+03
2.350000e-06	1.329374e-06	1.864894e-08	9.599734e+00	1.219978e+03
2.360000e-06	1.231037e-06	1.841802e-08	8.889618e+00	1.205288e+03
2.370000e-06	1.132357e-06	1.817159e-08	8.177027e+00	1.189880e+03
2.380000e-06	1.033343e-06	1.791660e-08	7.462019e+00	1.173554e+03
2.390000e-06	9.340406e-07	1.765294e-08	6.744933e+00	1.156179e+03
2.400000e-06	8.344993e-07	1.737744e-08	6.026122e+00	1.137720e+03
2.410000e-06	7.347173e-07	1.709089e-08	5.305571e+00	1.118243e+03
2.420000e-06	6.346844e-07	1.679618e-08	4.583209e+00	1.097876e+03
2.430000e-06	5.344669e-07	1.648487e-08	3.859515e+00	1.076750e+03
2.440000e-06	4.341354e-07	1.615203e-08	3.134997e+00	1.054923e+03
2.450000e-06	3.336679e-07	1.579839e-08	2.409496e+00	1.032328e+03
2.460000e-06	2.330553e-07	1.542875e-08	1.682949e+00	1.008745e+03
2.470000e-06	1.323653e-07	1.503731e-08	9.558421e-01	9.838248e+02
2.480000e-06	3.163837e-08	1.461823e-08	2.284683e-01	9.571490e+02
2.490000e-06	-6.914795e-08	1.417551e-08	-4.993341e-01	9.283161e+02
2.500000e-06	-1.699423e-07	1.370889e-08	-1.227194e+00	8.970245e+02
2.510000e-06	-2.706497e-07	1.321187e-08	-1.954427e+00	8.631220e+02
2.520000e-06	-3.712567e-07	1.267438e-08	-2.680934e+00	8.265978e+02
2.530000e-06	-4.717512e-07	1.209036e-08	-3.406630e+00	7.875079e+02
2.540000e-06	-5.720945e-07	1.145873e-08	-4.131233e+00	7.458457e+02
2.550000e-06	-6.722800e-07	1.077549e-08	-4.854696e+00	7.013856e+02
2.560000e-06	-7.722556e-07	1.003112e-08	-5.576644e+00	6.535450e+02
2.570000e-06	-8.719952e-07	9.214569e-09	-6.296888e+00	6.013100e+02
2.580000e-06	-9.714926e-07	8.311327e-09	-7.015383e+00	5.432631e+02
2.590000e-06	-1.070667e-06	7.305111e-09	-7.731544e+00	4.777293e+02
2.600000e-06	-1.169418e-06	6.178119e-09	-8.444648e+00	4.030301e+02
2.610000e-06	-1.267770e-06	4.908014e-09	-9.154874e+00	3.178075e+02
2.620000e-06	-1.365764e-06	3.475292e-09	-9.862511e+00	2.213566e+02
2.630000e-06	-1.463226e-06	1.868006e-09	-1.056631e+01	1.138982e+02
2.640000e-06	-1.560129e-06	9.214256e-11	-1.126607e+01	-3.270588e+00
2.650000e-06	-1.656574e-06	-1.820983e-09	-1.196252e+01	-1.277927e+02
2.660000e-06	-1.752555e-06	-3.815984e-09	-1.265563e+01	-2.564404e+02
2.670000e-06	-1.848050e-06	-5.820099e-09	-1.334521e+01	-3.854550e+02
2.680000e-06	-1.942873e-06	-7.759713e-09	-1.402996e+01	-5.109792e+02
2.690000e-06	-2.036718e-06	-9.574532e-09	-1.470763e+01	-6.295056e+02
2.700000e-06	-2.129509e-06	-1.122484e-08	-1.537770e+01	-7.382630e+02
2.710000e-06	-2.221426e-06	-1.269296e-08	-1.604146e+01	-8.354744e+02
2.720000e-06	-2.312644e-06	-1.397936e-08	-1.670016e+01	-9.204476e+02
2.730000e-06	-2.403142e-06	-1.509703e-08	-1.735367e+01	-9.934965e+02
2.740000e-06	-2.492775e-06	-1.606416e-08	-1.800093e+01	-1.055719e+03
2.750000e-06	-2.581477e-06	-1.689965e-08	-1.864147e+01	-1.108693e+03
2.760000e-06	-2.669400e-06	-1.762279e-08	-1.927638e+01	-1.154146e+03
2.770000e-06	-2.756528e-06	-1.825017e-08	-1.990556e+01	-1.193684e+03
2.780000e-06	-2.842586e-06	-1.879489e-08	-2.052700e+01	-1.228592e+03
2.790000e-06	-2.927499e-06	-1.926854e-08	-2.114018e+01	-1.259768e+03
2.800000e-06	-3.011364e-06	-1.968419e-08	-2.174578e+01	-1.287745e+03
2.810000e-06	-3.094234e-06	-2.005386e-08	-2.234421e+01	-1.312795e+03
2.820000e-06	-3.176101e-06	-2.038313e-08	-2.293539e+01	-1.335073e+03
2.830000e-06	-3.256957e-06	-2.067931e-08	-2.351927e+01	-1.354737e+03
2.840000e-06	-3.336737e-06	-2.094846e-08	-2.409539e+01	-1.372034e+03
2.850000e-06	-3.415212e-06	-2.119397e-08	-2.466208e+01	-1.387321e+03
2.860000e-06	-3.492100e-06	-2.141882e-08	-2.521730e+01	-1.401035e+03
2.870000e-06	-3.567484e-06	-2.162432e-08	-2.576166e+01	-1.413622e+03
2.880000e-06	-3.641518e-06	-2.181140e-08	-2.629628e+01	-1.425452e+03
2.890000e-06	-3.714314e-06	-2.198292e-08	-2.682196e+01	-1.436764e+03
2.900000e-06	-3.785958e-06	-2.214263e-08	-2.733932e+01	-1.447638e+03
2.910000e-06	-3.856113e-06	-2.229214e-08	-2.784592e+01	-1.458017e+03
2.920000e-06	-3.924656e-06	-2.243140e-08	-2.834089e+01	-1.467757e+03
2.930000e-06	-3.991846e-06	-2.256099e-08	-2.882608e+01	-1.476707e+03
2.940000e-06	-4.057712e-06	-2.268242e-08	-2.930172e+01	-1.484769e+03
