# Temperatura_=_31.37
# Concentracion g/m^3_=_41000.0
# C_Vs_to_Am_M_A/Vsm_=_65563218390.804596
# pendiente_HvsI_1/m_=_3716.3
# ordenada_HvsI_A/m_=_1297.0
# frecuencia_Hz_=_301643.0536661453

Tiempo_(s)	Campo_(V.s)	Magnetizacion_(V.s)	Campo_(kA/m)	Magnetizacion_(A/m)
0.000000e+00	-5.330672e-06	-2.391913e-08	-3.833584e+01	-1.564003e+03
1.000000e-08	-5.328419e-06	-2.391638e-08	-3.831964e+01	-1.563553e+03
2.000000e-08	-5.324271e-06	-2.390781e-08	-3.828981e+01	-1.563173e+03
3.000000e-08	-5.318541e-06	-2.389935e-08	-3.824860e+01	-1.562887e+03
4.000000e-08	-5.311268e-06	-2.388848e-08	-3.819630e+01	-1.562648e+03
5.000000e-08	-5.302313e-06	-2.387458e-08	-3.813189e+01	-1.562361e+03
6.000000e-08	-5.291293e-06	-2.385961e-08	-3.805264e+01	-1.561903e+03
7.000000e-08	-5.278308e-06	-2.383688e-08	-3.795926e+01	-1.561168e+03
8.000000e-08	-5.263340e-06	-2.383695e-08	-3.785162e+01	-1.560095e+03
9.000000e-08	-5.246024e-06	-2.387176e-08	-3.772709e+01	-1.558694e+03
1.000000e-07	-5.226544e-06	-2.383696e-08	-3.758700e+01	-1.557044e+03
1.100000e-07	-5.205260e-06	-2.378174e-08	-3.743393e+01	-1.555270e+03
1.200000e-07	-5.182294e-06	-2.374662e-08	-3.726877e+01	-1.553513e+03
1.300000e-07	-5.157945e-06	-2.364077e-08	-3.709366e+01	-1.551888e+03
1.400000e-07	-5.132066e-06	-2.367950e-08	-3.690756e+01	-1.550452e+03
1.500000e-07	-5.104384e-06	-2.372725e-08	-3.670848e+01	-1.549186e+03
1.600000e-07	-5.075245e-06	-2.358597e-08	-3.649892e+01	-1.548005e+03
1.700000e-07	-5.044716e-06	-2.364607e-08	-3.627937e+01	-1.546775e+03
1.800000e-07	-5.012244e-06	-2.363900e-08	-3.604585e+01	-1.545356e+03
1.900000e-07	-4.977603e-06	-2.347597e-08	-3.579673e+01	-1.543633e+03
2.000000e-07	-4.941397e-06	-2.354864e-08	-3.553634e+01	-1.541548e+03
2.100000e-07	-4.903620e-06	-2.351770e-08	-3.526467e+01	-1.539112e+03
2.200000e-07	-4.864091e-06	-2.341237e-08	-3.498040e+01	-1.536390e+03
2.300000e-07	-4.822715e-06	-2.342116e-08	-3.468284e+01	-1.533482e+03
2.400000e-07	-4.779307e-06	-2.333048e-08	-3.437067e+01	-1.530489e+03
2.500000e-07	-4.734116e-06	-2.328897e-08	-3.404567e+01	-1.527479e+03
2.600000e-07	-4.687205e-06	-2.328421e-08	-3.370831e+01	-1.524468e+03
2.700000e-07	-4.638380e-06	-2.320218e-08	-3.335718e+01	-1.521424e+03
2.800000e-07	-4.587388e-06	-2.316138e-08	-3.299047e+01	-1.518270e+03
2.900000e-07	-4.534409e-06	-2.310640e-08	-3.260947e+01	-1.514922e+03
3.000000e-07	-4.479829e-06	-2.302755e-08	-3.221696e+01	-1.511309e+03
3.100000e-07	-4.423624e-06	-2.296895e-08	-3.181275e+01	-1.507402e+03
3.200000e-07	-4.365563e-06	-2.293312e-08	-3.139520e+01	-1.503220e+03
3.300000e-07	-4.305820e-06	-2.287780e-08	-3.096556e+01	-1.498825e+03
3.400000e-07	-4.244686e-06	-2.278262e-08	-3.052591e+01	-1.494298e+03
3.500000e-07	-4.182214e-06	-2.271884e-08	-3.007664e+01	-1.489714e+03
3.600000e-07	-4.118420e-06	-2.263978e-08	-2.961786e+01	-1.485115e+03
3.700000e-07	-4.053056e-06	-2.257084e-08	-2.914779e+01	-1.480494e+03
3.800000e-07	-3.985982e-06	-2.251725e-08	-2.866543e+01	-1.475799e+03
3.900000e-07	-3.917388e-06	-2.242237e-08	-2.817212e+01	-1.470944e+03
4.000000e-07	-3.847494e-06	-2.234277e-08	-2.766948e+01	-1.465838e+03
4.100000e-07	-3.776417e-06	-2.225476e-08	-2.715832e+01	-1.460413e+03
4.200000e-07	-3.704193e-06	-2.216007e-08	-2.663893e+01	-1.454646e+03
4.300000e-07	-3.630447e-06	-2.206859e-08	-2.610857e+01	-1.448564e+03
4.400000e-07	-3.554955e-06	-2.198117e-08	-2.556567e+01	-1.442237e+03
4.500000e-07	-3.478063e-06	-2.188918e-08	-2.501270e+01	-1.435753e+03
4.600000e-07	-3.399906e-06	-2.178362e-08	-2.445063e+01	-1.429187e+03
4.700000e-07	-3.320386e-06	-2.168246e-08	-2.387875e+01	-1.422578e+03
4.800000e-07	-3.239513e-06	-2.157434e-08	-2.329715e+01	-1.415911e+03
4.900000e-07	-3.157477e-06	-2.146358e-08	-2.270718e+01	-1.409121e+03
5.000000e-07	-3.074421e-06	-2.135222e-08	-2.210988e+01	-1.402107e+03
5.100000e-07	-2.990516e-06	-2.123608e-08	-2.150647e+01	-1.394767e+03
5.200000e-07	-2.905795e-06	-2.111722e-08	-2.089720e+01	-1.387024e+03
5.300000e-07	-2.820089e-06	-2.099187e-08	-2.028084e+01	-1.378851e+03
5.400000e-07	-2.733386e-06	-2.086099e-08	-1.965731e+01	-1.370278e+03
5.500000e-07	-2.645844e-06	-2.073021e-08	-1.902775e+01	-1.361375e+03
5.600000e-07	-2.557436e-06	-2.059348e-08	-1.839196e+01	-1.352234e+03
5.700000e-07	-2.467849e-06	-2.045160e-08	-1.774769e+01	-1.342928e+03
5.800000e-07	-2.377035e-06	-2.030464e-08	-1.709459e+01	-1.333486e+03
5.900000e-07	-2.285329e-06	-2.015362e-08	-1.643508e+01	-1.323873e+03
6.000000e-07	-2.192947e-06	-1.999561e-08	-1.577071e+01	-1.313997e+03
6.100000e-07	-2.099849e-06	-1.983272e-08	-1.510119e+01	-1.303734e+03
6.200000e-07	-2.005975e-06	-1.966427e-08	-1.442609e+01	-1.292956e+03
6.300000e-07	-1.911329e-06	-1.948685e-08	-1.374544e+01	-1.281575e+03
6.400000e-07	-1.816055e-06	-1.930492e-08	-1.306027e+01	-1.269564e+03
6.500000e-07	-1.720275e-06	-1.911501e-08	-1.237146e+01	-1.256967e+03
6.600000e-07	-1.623952e-06	-1.892043e-08	-1.167875e+01	-1.243880e+03
6.700000e-07	-1.526879e-06	-1.871936e-08	-1.098064e+01	-1.230419e+03
6.800000e-07	-1.429017e-06	-1.851003e-08	-1.027686e+01	-1.216672e+03
6.900000e-07	-1.330464e-06	-1.829328e-08	-9.568108e+00	-1.202665e+03
7.000000e-07	-1.231382e-06	-1.807096e-08	-8.855560e+00	-1.188340e+03
7.100000e-07	-1.131978e-06	-1.784187e-08	-8.140686e+00	-1.173558e+03
7.200000e-07	-1.032280e-06	-1.759936e-08	-7.423701e+00	-1.158133e+03
7.300000e-07	-9.323445e-07	-1.734566e-08	-6.705010e+00	-1.141878e+03
7.400000e-07	-8.321995e-07	-1.708189e-08	-5.984812e+00	-1.124649e+03
7.500000e-07	-7.317975e-07	-1.680975e-08	-5.262765e+00	-1.106389e+03
7.600000e-07	-6.311111e-07	-1.652591e-08	-4.538673e+00	-1.087130e+03
7.700000e-07	-5.302201e-07	-1.622717e-08	-3.813109e+00	-1.066970e+03
7.800000e-07	-4.291564e-07	-1.591304e-08	-3.086303e+00	-1.046028e+03
7.900000e-07	-3.279425e-07	-1.558140e-08	-2.358418e+00	-1.024374e+03
8.000000e-07	-2.266303e-07	-1.523234e-08	-1.629825e+00	-1.001978e+03
8.100000e-07	-1.251527e-07	-1.486654e-08	-9.000432e-01	-9.786775e+02
8.200000e-07	-2.359786e-08	-1.448213e-08	-1.697054e-01	-9.541831e+02
8.300000e-07	7.791516e-08	-1.407626e-08	5.603315e-01	-9.281273e+02
8.400000e-07	1.794492e-07	-1.364738e-08	1.290519e+00	-9.001359e+02
8.500000e-07	2.809731e-07	-1.318966e-08	2.020635e+00	-8.699053e+02
8.600000e-07	3.823922e-07	-1.269932e-08	2.749996e+00	-8.372577e+02
8.700000e-07	4.836794e-07	-1.217370e-08	3.478409e+00	-8.021492e+02
8.800000e-07	5.848370e-07	-1.161198e-08	4.205890e+00	-7.646191e+02
8.900000e-07	6.858061e-07	-1.101076e-08	4.932015e+00	-7.246848e+02
9.000000e-07	7.864839e-07	-1.036144e-08	5.656045e+00	-6.822040e+02
9.100000e-07	8.868847e-07	-9.656367e-09	6.378083e+00	-6.367407e+02
9.200000e-07	9.870742e-07	-8.884537e-09	7.098602e+00	-5.874780e+02
9.300000e-07	1.087016e-06	-8.034748e-09	7.817343e+00	-5.332138e+02
9.400000e-07	1.186626e-06	-7.093289e-09	8.533692e+00	-4.724621e+02
9.500000e-07	1.285873e-06	-6.043527e-09	9.247433e+00	-4.036567e+02
9.600000e-07	1.384672e-06	-4.863748e-09	9.957953e+00	-3.254311e+02
9.700000e-07	1.482799e-06	-3.534033e-09	1.066364e+01	-2.369243e+02
9.800000e-07	1.580108e-06	-2.042299e-09	1.136344e+01	-1.380506e+02
9.900000e-07	1.676640e-06	-3.898318e-10	1.205765e+01	-2.967436e+01
1.000000e-06	1.772518e-06	1.396890e-09	1.274717e+01	8.635545e+01
1.010000e-06	1.867772e-06	3.271437e-09	1.343219e+01	2.073294e+02
1.020000e-06	1.962376e-06	5.168910e-09	1.411254e+01	3.299465e+02
1.030000e-06	2.056295e-06	7.020908e-09	1.478796e+01	4.506844e+02
1.040000e-06	2.149551e-06	8.769850e-09	1.545862e+01	5.662071e+02
1.050000e-06	2.242147e-06	1.037750e-08	1.612453e+01	6.737364e+02
1.060000e-06	2.334067e-06	1.182760e-08	1.678558e+01	7.713256e+02
1.070000e-06	2.425278e-06	1.311673e-08	1.744153e+01	8.579891e+02
1.080000e-06	2.515504e-06	1.425230e-08	1.809040e+01	9.336779e+02
1.090000e-06	2.604522e-06	1.524461e-08	1.873057e+01	9.991179e+02
1.100000e-06	2.692493e-06	1.611151e-08	1.936322e+01	1.055554e+03
1.110000e-06	2.779667e-06	1.686840e-08	1.999014e+01	1.104461e+03
1.120000e-06	2.865973e-06	1.753076e-08	2.061082e+01	1.147278e+03
1.130000e-06	2.951273e-06	1.811066e-08	2.122425e+01	1.185214e+03
1.140000e-06	3.035604e-06	1.861980e-08	2.183073e+01	1.219154e+03
1.150000e-06	3.119097e-06	1.906894e-08	2.243117e+01	1.249658e+03
1.160000e-06	3.201595e-06	1.946705e-08	2.302446e+01	1.277036e+03
1.170000e-06	3.282722e-06	1.982529e-08	2.360789e+01	1.301472e+03
1.180000e-06	3.362584e-06	2.014690e-08	2.418222e+01	1.323133e+03
1.190000e-06	3.441319e-06	2.043703e-08	2.474845e+01	1.342260e+03
1.200000e-06	3.518832e-06	2.069978e-08	2.530589e+01	1.359192e+03
1.210000e-06	3.595151e-06	2.093905e-08	2.585474e+01	1.374351e+03
1.220000e-06	3.670152e-06	2.115814e-08	2.639412e+01	1.388180e+03
1.230000e-06	3.743530e-06	2.136034e-08	2.692182e+01	1.401068e+03
1.240000e-06	3.815348e-06	2.154684e-08	2.743830e+01	1.413286e+03
1.250000e-06	3.885798e-06	2.172097e-08	2.794495e+01	1.424956e+03
1.260000e-06	3.954866e-06	2.188363e-08	2.844165e+01	1.436062e+03
1.270000e-06	4.022662e-06	2.203440e-08	2.892921e+01	1.446492e+03
1.280000e-06	4.088989e-06	2.217353e-08	2.940621e+01	1.456104e+03
1.290000e-06	4.153639e-06	2.230280e-08	2.987114e+01	1.464798e+03
1.300000e-06	4.216759e-06	2.242182e-08	3.032507e+01	1.472557e+03
1.310000e-06	4.278499e-06	2.253008e-08	3.076908e+01	1.479472e+03
1.320000e-06	4.338925e-06	2.262904e-08	3.120363e+01	1.485719e+03
1.330000e-06	4.397997e-06	2.272045e-08	3.162846e+01	1.491515e+03
1.340000e-06	4.455341e-06	2.280801e-08	3.204085e+01	1.497068e+03
1.350000e-06	4.510820e-06	2.289295e-08	3.243983e+01	1.502520e+03
1.360000e-06	4.564694e-06	2.297568e-08	3.282726e+01	1.507922e+03
1.370000e-06	4.616878e-06	2.305330e-08	3.320255e+01	1.513234e+03
1.380000e-06	4.667069e-06	2.312549e-08	3.356350e+01	1.518347e+03
1.390000e-06	4.715310e-06	2.319185e-08	3.391043e+01	1.523134e+03
1.400000e-06	4.761866e-06	2.325225e-08	3.424524e+01	1.527489e+03
1.410000e-06	4.806810e-06	2.331064e-08	3.456846e+01	1.531372e+03
1.420000e-06	4.850193e-06	2.336706e-08	3.488045e+01	1.534816e+03
1.430000e-06	4.891785e-06	2.341909e-08	3.517956e+01	1.537920e+03
1.440000e-06	4.931487e-06	2.346769e-08	3.546508e+01	1.540818e+03
1.450000e-06	4.969553e-06	2.351422e-08	3.573884e+01	1.543632e+03
1.460000e-06	5.006097e-06	2.355919e-08	3.600164e+01	1.546443e+03
1.470000e-06	5.040966e-06	2.360105e-08	3.625240e+01	1.549260e+03
1.480000e-06	5.073837e-06	2.363762e-08	3.648880e+01	1.552026e+03
1.490000e-06	5.104837e-06	2.366873e-08	3.671174e+01	1.554636e+03
1.500000e-06	5.134210e-06	2.369653e-08	3.692297e+01	1.556975e+03
1.510000e-06	5.161957e-06	2.372184e-08	3.712252e+01	1.558956e+03
1.520000e-06	5.187764e-06	2.374474e-08	3.730811e+01	1.560549e+03
1.530000e-06	5.211461e-06	2.376541e-08	3.747853e+01	1.561792e+03
1.540000e-06	5.233340e-06	2.378554e-08	3.763587e+01	1.562783e+03
1.550000e-06	5.253553e-06	2.380695e-08	3.778124e+01	1.563646e+03
1.560000e-06	5.272025e-06	2.382772e-08	3.791408e+01	1.564499e+03
1.570000e-06	5.288471e-06	2.384473e-08	3.803235e+01	1.565417e+03
1.580000e-06	5.302857e-06	2.385640e-08	3.813581e+01	1.566410e+03
1.590000e-06	5.315298e-06	2.386556e-08	3.822528e+01	1.567423e+03
1.600000e-06	5.325582e-06	2.387360e-08	3.829924e+01	1.568357e+03
1.610000e-06	5.333739e-06	2.388102e-08	3.835790e+01	1.569096e+03
1.620000e-06	5.340041e-06	2.388948e-08	3.840322e+01	1.569553e+03
1.630000e-06	5.344580e-06	2.389672e-08	3.843587e+01	1.569691e+03
1.640000e-06	5.347266e-06	2.390085e-08	3.845518e+01	1.569538e+03
1.650000e-06	5.347936e-06	2.390408e-08	3.846000e+01	1.569177e+03
1.660000e-06	5.346742e-06	2.390258e-08	3.845141e+01	1.568723e+03
1.670000e-06	5.343907e-06	2.389962e-08	3.843102e+01	1.568283e+03
1.680000e-06	5.339525e-06	2.389674e-08	3.839951e+01	1.567926e+03
1.690000e-06	5.333281e-06	2.389056e-08	3.835460e+01	1.567657e+03
1.700000e-06	5.325130e-06	2.388254e-08	3.829599e+01	1.567416e+03
1.710000e-06	5.315436e-06	2.387505e-08	3.822627e+01	1.567096e+03
1.720000e-06	5.304121e-06	2.387477e-08	3.814490e+01	1.566576e+03
1.730000e-06	5.290927e-06	2.386318e-08	3.805001e+01	1.565758e+03
1.740000e-06	5.275680e-06	2.378329e-08	3.794037e+01	1.564598e+03
1.750000e-06	5.258165e-06	2.377313e-08	3.781440e+01	1.563124e+03
1.760000e-06	5.238099e-06	2.378901e-08	3.767010e+01	1.561428e+03
1.770000e-06	5.215562e-06	2.379066e-08	3.750802e+01	1.559644e+03
1.780000e-06	5.191468e-06	2.384835e-08	3.733475e+01	1.557910e+03
1.790000e-06	5.166735e-06	2.370343e-08	3.715688e+01	1.556328e+03
1.800000e-06	5.140762e-06	2.365591e-08	3.697009e+01	1.554937e+03
1.810000e-06	5.112686e-06	2.374062e-08	3.676819e+01	1.553702e+03
1.820000e-06	5.082801e-06	2.357346e-08	3.655326e+01	1.552520e+03
1.830000e-06	5.051143e-06	2.359919e-08	3.632560e+01	1.551255e+03
1.840000e-06	5.017529e-06	2.368656e-08	3.608386e+01	1.549767e+03
1.850000e-06	4.982335e-06	2.351182e-08	3.583076e+01	1.547955e+03
1.860000e-06	4.945419e-06	2.356843e-08	3.556527e+01	1.545778e+03
1.870000e-06	4.906523e-06	2.356351e-08	3.528555e+01	1.543260e+03
1.880000e-06	4.866005e-06	2.343450e-08	3.499416e+01	1.540481e+03
1.890000e-06	4.823750e-06	2.349183e-08	3.469028e+01	1.537542e+03
1.900000e-06	4.779764e-06	2.334638e-08	3.437395e+01	1.534538e+03
1.910000e-06	4.734026e-06	2.330870e-08	3.404503e+01	1.531527e+03
1.920000e-06	4.686342e-06	2.335629e-08	3.370210e+01	1.528511e+03
1.930000e-06	4.637060e-06	2.319541e-08	3.334769e+01	1.525446e+03
1.940000e-06	4.586053e-06	2.320406e-08	3.298087e+01	1.522250e+03
1.950000e-06	4.533066e-06	2.316888e-08	3.259981e+01	1.518840e+03
1.960000e-06	4.478179e-06	2.309759e-08	3.220509e+01	1.515153e+03
1.970000e-06	4.421516e-06	2.304323e-08	3.179760e+01	1.511172e+03
1.980000e-06	4.363289e-06	2.292332e-08	3.137885e+01	1.506929e+03
1.990000e-06	4.303706e-06	2.293046e-08	3.095035e+01	1.502491e+03
2.000000e-06	4.242693e-06	2.283453e-08	3.051158e+01	1.497942e+03
2.010000e-06	4.179918e-06	2.276144e-08	3.006012e+01	1.493351e+03
2.020000e-06	4.115417e-06	2.271228e-08	2.959626e+01	1.488747e+03
2.030000e-06	4.049561e-06	2.260183e-08	2.912266e+01	1.484114e+03
2.040000e-06	3.982405e-06	2.257171e-08	2.863970e+01	1.479386e+03
2.050000e-06	3.913873e-06	2.245405e-08	2.814685e+01	1.474475e+03
2.060000e-06	3.843740e-06	2.239110e-08	2.764248e+01	1.469292e+03
2.070000e-06	3.772107e-06	2.233340e-08	2.712733e+01	1.463780e+03
2.080000e-06	3.699310e-06	2.222208e-08	2.660381e+01	1.457929e+03
2.090000e-06	3.625214e-06	2.214369e-08	2.607094e+01	1.451777e+03
2.100000e-06	3.549743e-06	2.202610e-08	2.552819e+01	1.445401e+03
2.110000e-06	3.472772e-06	2.194945e-08	2.497464e+01	1.438888e+03
2.120000e-06	3.394219e-06	2.184742e-08	2.440973e+01	1.432309e+03
2.130000e-06	3.314371e-06	2.174739e-08	2.383550e+01	1.425687e+03
2.140000e-06	3.233412e-06	2.165460e-08	2.325328e+01	1.418996e+03
2.150000e-06	3.151376e-06	2.153875e-08	2.266331e+01	1.412158e+03
2.160000e-06	3.068328e-06	2.143212e-08	2.206606e+01	1.405071e+03
2.170000e-06	2.984352e-06	2.130670e-08	2.146214e+01	1.397634e+03
2.180000e-06	2.899215e-06	2.120053e-08	2.084987e+01	1.389783e+03
2.190000e-06	2.812685e-06	2.107999e-08	2.022759e+01	1.381504e+03
2.200000e-06	2.725050e-06	2.095002e-08	1.959736e+01	1.372838e+03
2.210000e-06	2.636555e-06	2.082043e-08	1.896094e+01	1.363866e+03
2.220000e-06	2.547163e-06	2.068460e-08	1.831807e+01	1.354677e+03
2.230000e-06	2.456904e-06	2.054580e-08	1.766897e+01	1.345335e+03
2.240000e-06	2.365886e-06	2.039825e-08	1.701441e+01	1.335854e+03
2.250000e-06	2.274163e-06	2.025495e-08	1.635478e+01	1.326185e+03
2.260000e-06	2.181769e-06	2.009895e-08	1.569032e+01	1.316224e+03
2.270000e-06	2.088447e-06	1.993638e-08	1.501919e+01	1.305841e+03
2.280000e-06	1.994020e-06	1.976681e-08	1.434011e+01	1.294917e+03
2.290000e-06	1.898779e-06	1.959109e-08	1.365518e+01	1.283376e+03
2.300000e-06	1.802964e-06	1.941128e-08	1.296612e+01	1.271211e+03
2.310000e-06	1.706627e-06	1.922621e-08	1.227331e+01	1.258480e+03
2.320000e-06	1.609752e-06	1.903772e-08	1.157663e+01	1.245288e+03
2.330000e-06	1.512336e-06	1.883870e-08	1.087605e+01	1.231747e+03
2.340000e-06	1.414422e-06	1.862835e-08	1.017190e+01	1.217935e+03
2.350000e-06	1.316074e-06	1.840546e-08	9.464620e+00	1.203856e+03
2.360000e-06	1.217332e-06	1.817675e-08	8.754512e+00	1.189430e+03
2.370000e-06	1.118237e-06	1.794259e-08	8.041868e+00	1.174505e+03
2.380000e-06	1.018907e-06	1.770083e-08	7.327530e+00	1.158887e+03
2.390000e-06	9.193180e-07	1.744967e-08	6.611329e+00	1.142397e+03
2.400000e-06	8.195056e-07	1.718361e-08	5.893523e+00	1.124912e+03
2.410000e-06	7.194784e-07	1.690445e-08	5.174171e+00	1.106394e+03
2.420000e-06	6.192273e-07	1.661332e-08	4.453210e+00	1.086897e+03
2.430000e-06	5.187825e-07	1.631010e-08	3.730855e+00	1.066530e+03
2.440000e-06	4.180991e-07	1.599684e-08	3.006784e+00	1.045405e+03
2.450000e-06	3.172058e-07	1.566872e-08	2.281204e+00	1.023572e+03
2.460000e-06	2.161653e-07	1.532029e-08	1.554566e+00	1.000969e+03
2.470000e-06	1.149978e-07	1.494978e-08	8.270133e-01	9.773999e+02
2.480000e-06	1.364228e-08	1.455787e-08	9.810923e-02	9.525499e+02
2.490000e-06	-8.780677e-08	1.414402e-08	-6.314676e-01	9.260423e+02
2.500000e-06	-1.891608e-07	1.370532e-08	-1.360361e+00	8.975139e+02
2.510000e-06	-2.903215e-07	1.324336e-08	-2.087864e+00	8.666888e+02
2.520000e-06	-3.913497e-07	1.275104e-08	-2.814414e+00	8.334241e+02
2.530000e-06	-4.922513e-07	1.222016e-08	-3.540054e+00	7.977038e+02
2.540000e-06	-5.929023e-07	1.164944e-08	-4.263892e+00	7.595733e+02
2.550000e-06	-6.933707e-07	1.103589e-08	-4.986417e+00	7.190237e+02
2.560000e-06	-7.936482e-07	1.037383e-08	-5.707568e+00	6.758506e+02
2.570000e-06	-8.936280e-07	9.655062e-09	-6.426579e+00	6.295284e+02
2.580000e-06	-9.933459e-07	8.870738e-09	-7.143706e+00	5.791403e+02
2.590000e-06	-1.092836e-06	8.006814e-09	-7.859193e+00	5.233995e+02
2.600000e-06	-1.192038e-06	7.045923e-09	-8.572611e+00	4.607771e+02
2.610000e-06	-1.290742e-06	5.971151e-09	-9.282446e+00	3.897287e+02
2.620000e-06	-1.388938e-06	4.762951e-09	-9.988628e+00	3.089859e+02
2.630000e-06	-1.486675e-06	3.405045e-09	-1.069151e+01	2.178589e+02
2.640000e-06	-1.583892e-06	1.888694e-09	-1.139065e+01	1.164881e+02
2.650000e-06	-1.680573e-06	2.180624e-10	-1.208594e+01	5.986760e+00
2.660000e-06	-1.776732e-06	-1.583855e-09	-1.277747e+01	-1.115632e+02
2.670000e-06	-1.872401e-06	-3.470950e-09	-1.346548e+01	-2.332744e+02
2.680000e-06	-1.967452e-06	-5.374096e-09	-1.414905e+01	-3.557530e+02
2.690000e-06	-2.061615e-06	-7.222092e-09	-1.482623e+01	-4.754852e+02
2.700000e-06	-2.154708e-06	-8.960186e-09	-1.549571e+01	-5.892426e+02
2.710000e-06	-2.246901e-06	-1.055570e-08	-1.615872e+01	-6.944344e+02
2.720000e-06	-2.338395e-06	-1.199191e-08	-1.681671e+01	-7.893477e+02
2.730000e-06	-2.429071e-06	-1.326502e-08	-1.746881e+01	-8.732396e+02
2.740000e-06	-2.518876e-06	-1.438303e-08	-1.811465e+01	-9.462745e+02
2.750000e-06	-2.607777e-06	-1.536046e-08	-1.875398e+01	-1.009334e+03
2.760000e-06	-2.695834e-06	-1.621304e-08	-1.938725e+01	-1.063749e+03
2.770000e-06	-2.783145e-06	-1.695687e-08	-2.001515e+01	-1.111006e+03
2.780000e-06	-2.869423e-06	-1.760968e-08	-2.063563e+01	-1.152503e+03
2.790000e-06	-2.954487e-06	-1.818595e-08	-2.124737e+01	-1.189372e+03
2.800000e-06	-3.038465e-06	-1.869449e-08	-2.185130e+01	-1.222413e+03
2.810000e-06	-3.121444e-06	-1.914115e-08	-2.244805e+01	-1.252114e+03
2.820000e-06	-3.203400e-06	-1.953577e-08	-2.303744e+01	-1.278744e+03
2.830000e-06	-3.284312e-06	-1.988769e-08	-2.361933e+01	-1.302470e+03
2.840000e-06	-3.364184e-06	-2.020269e-08	-2.419372e+01	-1.323473e+03
2.850000e-06	-3.442795e-06	-2.048725e-08	-2.475906e+01	-1.342016e+03
2.860000e-06	-3.519854e-06	-2.074660e-08	-2.531324e+01	-1.358465e+03
2.870000e-06	-3.595422e-06	-2.098487e-08	-2.585669e+01	-1.373252e+03
2.880000e-06	-3.669611e-06	-2.120582e-08	-2.639023e+01	-1.386815e+03
2.890000e-06	-3.742471e-06	-2.140982e-08	-2.691420e+01	-1.399517e+03
2.900000e-06	-3.814109e-06	-2.159568e-08	-2.742939e+01	-1.411594e+03
2.910000e-06	-3.884320e-06	-2.176609e-08	-2.793432e+01	-1.423131e+03
2.920000e-06	-3.952943e-06	-2.192230e-08	-2.842783e+01	-1.434082e+03
2.930000e-06	-4.020173e-06	-2.206745e-08	-2.891131e+01	-1.444321e+03
2.940000e-06	-4.086023e-06	-2.220509e-08	-2.938488e+01	-1.453712e+03
