# Temperatura_=_94.95
# Concentracion g/m^3_=_41000.0
# C_Vs_to_Am_M_A/Vsm_=_65563218390.804596
# pendiente_HvsI_1/m_=_3716.3
# ordenada_HvsI_A/m_=_1297.0
# frecuencia_Hz_=_302496.13207494776

Tiempo_(s)	Campo_(V.s)	Magnetizacion_(V.s)	Campo_(kA/m)	Magnetizacion_(A/m)
0.000000e+00	-7.942896e-06	-2.449717e-08	-5.685147e+01	-1.603462e+03
1.000000e-08	-7.938188e-06	-2.448884e-08	-5.681777e+01	-1.602477e+03
2.000000e-08	-7.931075e-06	-2.447326e-08	-5.676686e+01	-1.601181e+03
3.000000e-08	-7.921238e-06	-2.445978e-08	-5.669644e+01	-1.599802e+03
4.000000e-08	-7.908415e-06	-2.444358e-08	-5.660466e+01	-1.598548e+03
5.000000e-08	-7.892639e-06	-2.442440e-08	-5.649174e+01	-1.597545e+03
6.000000e-08	-7.874267e-06	-2.440197e-08	-5.636025e+01	-1.596795e+03
7.000000e-08	-7.853661e-06	-2.437087e-08	-5.621276e+01	-1.596182e+03
8.000000e-08	-7.830486e-06	-2.439088e-08	-5.604689e+01	-1.595512e+03
9.000000e-08	-7.804176e-06	-2.442438e-08	-5.585857e+01	-1.594576e+03
1.000000e-07	-7.774677e-06	-2.436091e-08	-5.564743e+01	-1.593225e+03
1.100000e-07	-7.742402e-06	-2.430433e-08	-5.541642e+01	-1.591419e+03
1.200000e-07	-7.707436e-06	-2.428120e-08	-5.516616e+01	-1.589243e+03
1.300000e-07	-7.669952e-06	-2.423242e-08	-5.489786e+01	-1.586877e+03
1.400000e-07	-7.630329e-06	-2.413502e-08	-5.461426e+01	-1.584541e+03
1.500000e-07	-7.588442e-06	-2.413007e-08	-5.431445e+01	-1.582419e+03
1.600000e-07	-7.543924e-06	-2.421349e-08	-5.399581e+01	-1.580592e+03
1.700000e-07	-7.496812e-06	-2.405678e-08	-5.365861e+01	-1.579011e+03
1.800000e-07	-7.446859e-06	-2.407359e-08	-5.330107e+01	-1.577497e+03
1.900000e-07	-7.393810e-06	-2.405771e-08	-5.292137e+01	-1.575798e+03
2.000000e-07	-7.338042e-06	-2.393185e-08	-5.252220e+01	-1.573656e+03
2.100000e-07	-7.279563e-06	-2.393835e-08	-5.210364e+01	-1.570894e+03
2.200000e-07	-7.218337e-06	-2.383361e-08	-5.166542e+01	-1.567465e+03
2.300000e-07	-7.154544e-06	-2.381979e-08	-5.120882e+01	-1.563473e+03
2.400000e-07	-7.088040e-06	-2.376829e-08	-5.073281e+01	-1.559141e+03
2.500000e-07	-7.018801e-06	-2.371087e-08	-5.023723e+01	-1.554746e+03
2.600000e-07	-6.946839e-06	-2.364108e-08	-4.972216e+01	-1.550534e+03
2.700000e-07	-6.872122e-06	-2.357098e-08	-4.918737e+01	-1.546645e+03
2.800000e-07	-6.794740e-06	-2.353051e-08	-4.863351e+01	-1.543065e+03
2.900000e-07	-6.714596e-06	-2.344622e-08	-4.805988e+01	-1.539633e+03
3.000000e-07	-6.631855e-06	-2.339935e-08	-4.746765e+01	-1.536090e+03
3.100000e-07	-6.546865e-06	-2.333574e-08	-4.685934e+01	-1.532155e+03
3.200000e-07	-6.459711e-06	-2.325491e-08	-4.623553e+01	-1.527614e+03
3.300000e-07	-6.370187e-06	-2.317155e-08	-4.559476e+01	-1.522390e+03
3.400000e-07	-6.278264e-06	-2.306943e-08	-4.493682e+01	-1.516563e+03
3.500000e-07	-6.184152e-06	-2.300596e-08	-4.426322e+01	-1.510348e+03
3.600000e-07	-6.087810e-06	-2.292683e-08	-4.357364e+01	-1.504027e+03
3.700000e-07	-5.989212e-06	-2.282993e-08	-4.286792e+01	-1.497860e+03
3.800000e-07	-5.888485e-06	-2.273850e-08	-4.214697e+01	-1.492000e+03
3.900000e-07	-5.785672e-06	-2.264564e-08	-4.141108e+01	-1.486440e+03
4.000000e-07	-5.680765e-06	-2.254842e-08	-4.066021e+01	-1.481013e+03
4.100000e-07	-5.573839e-06	-2.244225e-08	-3.989488e+01	-1.475440e+03
4.200000e-07	-5.464954e-06	-2.234988e-08	-3.911554e+01	-1.469414e+03
4.300000e-07	-5.354105e-06	-2.224127e-08	-3.832213e+01	-1.462699e+03
4.400000e-07	-5.241225e-06	-2.212955e-08	-3.751419e+01	-1.455199e+03
4.500000e-07	-5.126341e-06	-2.201622e-08	-3.669191e+01	-1.446995e+03
4.600000e-07	-5.009529e-06	-2.189786e-08	-3.585582e+01	-1.438321e+03
4.700000e-07	-4.890866e-06	-2.177827e-08	-3.500649e+01	-1.429486e+03
4.800000e-07	-4.770442e-06	-2.165458e-08	-3.414455e+01	-1.420776e+03
4.900000e-07	-4.648210e-06	-2.152953e-08	-3.326967e+01	-1.412360e+03
5.000000e-07	-4.524228e-06	-2.138882e-08	-3.238227e+01	-1.404227e+03
5.100000e-07	-4.398668e-06	-2.124447e-08	-3.148357e+01	-1.396181e+03
5.200000e-07	-4.271526e-06	-2.109501e-08	-3.057354e+01	-1.387896e+03
5.300000e-07	-4.142827e-06	-2.094252e-08	-2.965238e+01	-1.379010e+03
5.400000e-07	-4.012610e-06	-2.078905e-08	-2.872035e+01	-1.369241e+03
5.500000e-07	-3.880874e-06	-2.063344e-08	-2.777744e+01	-1.358475e+03
5.600000e-07	-3.747622e-06	-2.047423e-08	-2.682369e+01	-1.346803e+03
5.700000e-07	-3.612957e-06	-2.029942e-08	-2.585983e+01	-1.334495e+03
5.800000e-07	-3.477004e-06	-2.011699e-08	-2.488674e+01	-1.321914e+03
5.900000e-07	-3.339668e-06	-1.992684e-08	-2.390375e+01	-1.309389e+03
6.000000e-07	-3.200932e-06	-1.973529e-08	-2.291075e+01	-1.297105e+03
6.100000e-07	-3.060892e-06	-1.953771e-08	-2.190840e+01	-1.285020e+03
6.200000e-07	-2.919560e-06	-1.933364e-08	-2.089682e+01	-1.272859e+03
6.300000e-07	-2.777044e-06	-1.911938e-08	-1.987676e+01	-1.260183e+03
6.400000e-07	-2.633505e-06	-1.889271e-08	-1.884938e+01	-1.246513e+03
6.500000e-07	-2.488957e-06	-1.865814e-08	-1.781477e+01	-1.231470e+03
6.600000e-07	-2.343462e-06	-1.841121e-08	-1.677338e+01	-1.214899e+03
6.700000e-07	-2.197129e-06	-1.815625e-08	-1.572600e+01	-1.196915e+03
6.800000e-07	-2.050097e-06	-1.788892e-08	-1.467362e+01	-1.177872e+03
6.900000e-07	-1.902483e-06	-1.760902e-08	-1.361707e+01	-1.158233e+03
7.000000e-07	-1.754291e-06	-1.731213e-08	-1.255638e+01	-1.138410e+03
7.100000e-07	-1.605559e-06	-1.699854e-08	-1.149182e+01	-1.118587e+03
7.200000e-07	-1.456292e-06	-1.667118e-08	-1.042345e+01	-1.098607e+03
7.300000e-07	-1.306490e-06	-1.632724e-08	-9.351236e+00	-1.077962e+03
7.400000e-07	-1.156234e-06	-1.596112e-08	-8.275772e+00	-1.055881e+03
7.500000e-07	-1.005641e-06	-1.557140e-08	-7.197902e+00	-1.031522e+03
7.600000e-07	-8.547721e-07	-1.515740e-08	-6.118051e+00	-1.004192e+03
7.700000e-07	-7.036381e-07	-1.470691e-08	-5.036306e+00	-9.735302e+02
7.800000e-07	-5.522793e-07	-1.421920e-08	-3.952952e+00	-9.395919e+02
7.900000e-07	-4.006936e-07	-1.369242e-08	-2.867974e+00	-9.027743e+02
8.000000e-07	-2.489425e-07	-1.312312e-08	-1.781812e+00	-8.635892e+02
8.100000e-07	-9.712414e-08	-1.249857e-08	-6.951683e-01	-8.223231e+02
8.200000e-07	5.474970e-08	-1.180606e-08	3.918722e-01	-7.786703e+02
8.300000e-07	2.066373e-07	-1.103364e-08	1.479011e+00	-7.314464e+02
8.400000e-07	3.585225e-07	-1.016478e-08	2.566133e+00	-6.784863e+02
8.500000e-07	5.103532e-07	-9.183965e-09	3.652865e+00	-6.167920e+02
8.600000e-07	6.620291e-07	-8.057424e-09	4.738489e+00	-5.429459e+02
8.700000e-07	8.134855e-07	-6.742339e-09	5.822541e+00	-4.537320e+02
8.800000e-07	9.646767e-07	-5.177502e-09	6.904696e+00	-3.468528e+02
8.900000e-07	1.115576e-06	-3.296002e-09	7.984760e+00	-2.215923e+02
9.000000e-07	1.266104e-06	-1.081689e-09	9.062168e+00	-7.927098e+01
9.100000e-07	1.416226e-06	1.332385e-09	1.013667e+01	7.662586e+01
9.200000e-07	1.565883e-06	3.785640e-09	1.120785e+01	2.407019e+02
9.300000e-07	1.714993e-06	6.238661e-09	1.227511e+01	4.062619e+02
9.400000e-07	1.863525e-06	8.683689e-09	1.333822e+01	5.661789e+02
9.500000e-07	2.011452e-06	1.102534e-08	1.439701e+01	7.138577e+02
9.600000e-07	2.158633e-06	1.304135e-08	1.545047e+01	8.441122e+02
9.700000e-07	2.304863e-06	1.462314e-08	1.649711e+01	9.537919e+02
9.800000e-07	2.450095e-06	1.584202e-08	1.753661e+01	1.042047e+03
9.900000e-07	2.594361e-06	1.678930e-08	1.856920e+01	1.110198e+03
1.000000e-06	2.737711e-06	1.753490e-08	1.959523e+01	1.161258e+03
1.010000e-06	2.880080e-06	1.813549e-08	2.061424e+01	1.199225e+03
1.020000e-06	3.021401e-06	1.863322e-08	2.162574e+01	1.228301e+03
1.030000e-06	3.161557e-06	1.905561e-08	2.262891e+01	1.252202e+03
1.040000e-06	3.300295e-06	1.942321e-08	2.362194e+01	1.273672e+03
1.050000e-06	3.437633e-06	1.974557e-08	2.460494e+01	1.294289e+03
1.060000e-06	3.573745e-06	2.002961e-08	2.557916e+01	1.314543e+03
1.070000e-06	3.708551e-06	2.028355e-08	2.654404e+01	1.334133e+03
1.080000e-06	3.842038e-06	2.051839e-08	2.749948e+01	1.352374e+03
1.090000e-06	3.974221e-06	2.073913e-08	2.844558e+01	1.368600e+03
1.100000e-06	4.104894e-06	2.094410e-08	2.938087e+01	1.382460e+03
1.110000e-06	4.234037e-06	2.113312e-08	3.030522e+01	1.394055e+03
1.120000e-06	4.361756e-06	2.130829e-08	3.121937e+01	1.403898e+03
1.130000e-06	4.487990e-06	2.147205e-08	3.212289e+01	1.412746e+03
1.140000e-06	4.612760e-06	2.162841e-08	3.301594e+01	1.421374e+03
1.150000e-06	4.735883e-06	2.178128e-08	3.389719e+01	1.430349e+03
1.160000e-06	4.857238e-06	2.192625e-08	3.476579e+01	1.439901e+03
1.170000e-06	4.976942e-06	2.206214e-08	3.562258e+01	1.449896e+03
1.180000e-06	5.094865e-06	2.219084e-08	3.646662e+01	1.459925e+03
1.190000e-06	5.210799e-06	2.231296e-08	3.729641e+01	1.469459e+03
1.200000e-06	5.324665e-06	2.243029e-08	3.811142e+01	1.478039e+03
1.210000e-06	5.436550e-06	2.254114e-08	3.891223e+01	1.485414e+03
1.220000e-06	5.546497e-06	2.264780e-08	3.969918e+01	1.491615e+03
1.230000e-06	5.654503e-06	2.274843e-08	4.047224e+01	1.496931e+03
1.240000e-06	5.760478e-06	2.284339e-08	4.123075e+01	1.501807e+03
1.250000e-06	5.864330e-06	2.293285e-08	4.197408e+01	1.506703e+03
1.260000e-06	5.966087e-06	2.301705e-08	4.270241e+01	1.511957e+03
1.270000e-06	6.065633e-06	2.309820e-08	4.341491e+01	1.517693e+03
1.280000e-06	6.162827e-06	2.317942e-08	4.411058e+01	1.523803e+03
1.290000e-06	6.257667e-06	2.326033e-08	4.478939e+01	1.529996e+03
1.300000e-06	6.350305e-06	2.333680e-08	4.545246e+01	1.535910e+03
1.310000e-06	6.440701e-06	2.340747e-08	4.609947e+01	1.541229e+03
1.320000e-06	6.528717e-06	2.347437e-08	4.672945e+01	1.545786e+03
1.330000e-06	6.614466e-06	2.354020e-08	4.734320e+01	1.549610e+03
1.340000e-06	6.697926e-06	2.360403e-08	4.794056e+01	1.552911e+03
1.350000e-06	6.778984e-06	2.366720e-08	4.852073e+01	1.556007e+03
1.360000e-06	6.857607e-06	2.372953e-08	4.908348e+01	1.559218e+03
1.370000e-06	6.933659e-06	2.378818e-08	4.962783e+01	1.562767e+03
1.380000e-06	7.007010e-06	2.384282e-08	5.015284e+01	1.566710e+03
1.390000e-06	7.077789e-06	2.389459e-08	5.065944e+01	1.570924e+03
1.400000e-06	7.146181e-06	2.394469e-08	5.114895e+01	1.575153e+03
1.410000e-06	7.212025e-06	2.399374e-08	5.162023e+01	1.579090e+03
1.420000e-06	7.275246e-06	2.404091e-08	5.207274e+01	1.582473e+03
1.430000e-06	7.336029e-06	2.408436e-08	5.250780e+01	1.585171e+03
1.440000e-06	7.394252e-06	2.412428e-08	5.292453e+01	1.587217e+03
1.450000e-06	7.449807e-06	2.416154e-08	5.332216e+01	1.588797e+03
1.460000e-06	7.502623e-06	2.419790e-08	5.370020e+01	1.590186e+03
1.470000e-06	7.552356e-06	2.423097e-08	5.405617e+01	1.591661e+03
1.480000e-06	7.599116e-06	2.426127e-08	5.439085e+01	1.593416e+03
1.490000e-06	7.643256e-06	2.428952e-08	5.470678e+01	1.595501e+03
1.500000e-06	7.684618e-06	2.431531e-08	5.500283e+01	1.597813e+03
1.510000e-06	7.723182e-06	2.433913e-08	5.527886e+01	1.600132e+03
1.520000e-06	7.759201e-06	2.435926e-08	5.553666e+01	1.602193e+03
1.530000e-06	7.792465e-06	2.437810e-08	5.577475e+01	1.603771e+03
1.540000e-06	7.822836e-06	2.439664e-08	5.599213e+01	1.604752e+03
1.550000e-06	7.850549e-06	2.441421e-08	5.619049e+01	1.605171e+03
1.560000e-06	7.875414e-06	2.442872e-08	5.636846e+01	1.605195e+03
1.570000e-06	7.897349e-06	2.443993e-08	5.652546e+01	1.605070e+03
1.580000e-06	7.916618e-06	2.444718e-08	5.666338e+01	1.605046e+03
1.590000e-06	7.933032e-06	2.445336e-08	5.678086e+01	1.605298e+03
1.600000e-06	7.946301e-06	2.445926e-08	5.687584e+01	1.605872e+03
1.610000e-06	7.956420e-06	2.446369e-08	5.694826e+01	1.606674e+03
1.620000e-06	7.963539e-06	2.446805e-08	5.699921e+01	1.607503e+03
1.630000e-06	7.967913e-06	2.447076e-08	5.703052e+01	1.608116e+03
1.640000e-06	7.969447e-06	2.447363e-08	5.704150e+01	1.608302e+03
1.650000e-06	7.968159e-06	2.447224e-08	5.703228e+01	1.607953e+03
1.660000e-06	7.964424e-06	2.446175e-08	5.700555e+01	1.607091e+03
1.670000e-06	7.958006e-06	2.445499e-08	5.695961e+01	1.605860e+03
1.680000e-06	7.948823e-06	2.444523e-08	5.689389e+01	1.604480e+03
1.690000e-06	7.936980e-06	2.443338e-08	5.680912e+01	1.603171e+03
1.700000e-06	7.922300e-06	2.442293e-08	5.670405e+01	1.602088e+03
1.710000e-06	7.905043e-06	2.441831e-08	5.658053e+01	1.601272e+03
1.720000e-06	7.885569e-06	2.441629e-08	5.644114e+01	1.600636e+03
1.730000e-06	7.863543e-06	2.431814e-08	5.628349e+01	1.600002e+03
1.740000e-06	7.838255e-06	2.427566e-08	5.610249e+01	1.599159e+03
1.750000e-06	7.809296e-06	2.430835e-08	5.589522e+01	1.597935e+03
1.760000e-06	7.776964e-06	2.428523e-08	5.566380e+01	1.596255e+03
1.770000e-06	7.742159e-06	2.424992e-08	5.541469e+01	1.594167e+03
1.780000e-06	7.705155e-06	2.431090e-08	5.514982e+01	1.591832e+03
1.790000e-06	7.665913e-06	2.428877e-08	5.486895e+01	1.589464e+03
1.800000e-06	7.624629e-06	2.410707e-08	5.457346e+01	1.587265e+03
1.810000e-06	7.580826e-06	2.421741e-08	5.425994e+01	1.585352e+03
1.820000e-06	7.534339e-06	2.414555e-08	5.392720e+01	1.583712e+03
1.830000e-06	7.485238e-06	2.411338e-08	5.357576e+01	1.582201e+03
1.840000e-06	7.433104e-06	2.418419e-08	5.320261e+01	1.580581e+03
1.850000e-06	7.378060e-06	2.402279e-08	5.280864e+01	1.578587e+03
1.860000e-06	7.320355e-06	2.409901e-08	5.239561e+01	1.576012e+03
1.870000e-06	7.260084e-06	2.398667e-08	5.196422e+01	1.572767e+03
1.880000e-06	7.197094e-06	2.391167e-08	5.151337e+01	1.568916e+03
1.890000e-06	7.131228e-06	2.390158e-08	5.104193e+01	1.564651e+03
1.900000e-06	7.062711e-06	2.377959e-08	5.055152e+01	1.560245e+03
1.910000e-06	6.991386e-06	2.381206e-08	5.004101e+01	1.555959e+03
1.920000e-06	6.917356e-06	2.370685e-08	4.951113e+01	1.551970e+03
1.930000e-06	6.840698e-06	2.369179e-08	4.896246e+01	1.548311e+03
1.940000e-06	6.761232e-06	2.361761e-08	4.839367e+01	1.544859e+03
1.950000e-06	6.679256e-06	2.350005e-08	4.780693e+01	1.541375e+03
1.960000e-06	6.594822e-06	2.347369e-08	4.720259e+01	1.537576e+03
1.970000e-06	6.507895e-06	2.336437e-08	4.658041e+01	1.533222e+03
1.980000e-06	6.418628e-06	2.334556e-08	4.594148e+01	1.528190e+03
1.990000e-06	6.327182e-06	2.323615e-08	4.528695e+01	1.522517e+03
2.000000e-06	6.233535e-06	2.316511e-08	4.461667e+01	1.516383e+03
2.010000e-06	6.137574e-06	2.307927e-08	4.392983e+01	1.510062e+03
2.020000e-06	6.039427e-06	2.298464e-08	4.322734e+01	1.503828e+03
2.030000e-06	5.939162e-06	2.291360e-08	4.250969e+01	1.497872e+03
2.040000e-06	5.836719e-06	2.282014e-08	4.177645e+01	1.492235e+03
2.050000e-06	5.732151e-06	2.274666e-08	4.102800e+01	1.486793e+03
2.060000e-06	5.625667e-06	2.262329e-08	4.026584e+01	1.481292e+03
2.070000e-06	5.517301e-06	2.253065e-08	3.949021e+01	1.475423e+03
2.080000e-06	5.406959e-06	2.241544e-08	3.870043e+01	1.468920e+03
2.090000e-06	5.294626e-06	2.231293e-08	3.789641e+01	1.461642e+03
2.100000e-06	5.180328e-06	2.219584e-08	3.707832e+01	1.453620e+03
2.110000e-06	5.064049e-06	2.208747e-08	3.624605e+01	1.445048e+03
2.120000e-06	4.945772e-06	2.196925e-08	3.539948e+01	1.436225e+03
2.130000e-06	4.825603e-06	2.184216e-08	3.453937e+01	1.427454e+03
2.140000e-06	4.703677e-06	2.171780e-08	3.366668e+01	1.418945e+03
2.150000e-06	4.580035e-06	2.158466e-08	3.278170e+01	1.410742e+03
2.160000e-06	4.454679e-06	2.145853e-08	3.188447e+01	1.402699e+03
2.170000e-06	4.327688e-06	2.131734e-08	3.097553e+01	1.394518e+03
2.180000e-06	4.199148e-06	2.117665e-08	3.005550e+01	1.385836e+03
2.190000e-06	4.069087e-06	2.102051e-08	2.912459e+01	1.376338e+03
2.200000e-06	3.937541e-06	2.086631e-08	2.818304e+01	1.365855e+03
2.210000e-06	3.804547e-06	2.070577e-08	2.723113e+01	1.354419e+03
2.220000e-06	3.670078e-06	2.054709e-08	2.626867e+01	1.342257e+03
2.230000e-06	3.534245e-06	2.037724e-08	2.529644e+01	1.329714e+03
2.240000e-06	3.397071e-06	2.020019e-08	2.431461e+01	1.317144e+03
2.250000e-06	3.258575e-06	2.001160e-08	2.332333e+01	1.304784e+03
2.260000e-06	3.118874e-06	1.981306e-08	2.232341e+01	1.292658e+03
2.270000e-06	2.977936e-06	1.961227e-08	2.131465e+01	1.280557e+03
2.280000e-06	2.835807e-06	1.940459e-08	2.029736e+01	1.268077e+03
2.290000e-06	2.692548e-06	1.919120e-08	1.927198e+01	1.254735e+03
2.300000e-06	2.548292e-06	1.896406e-08	1.823946e+01	1.240109e+03
2.310000e-06	2.403174e-06	1.872792e-08	1.720078e+01	1.223973e+03
2.320000e-06	2.257239e-06	1.847840e-08	1.615624e+01	1.206365e+03
2.330000e-06	2.110535e-06	1.821711e-08	1.510620e+01	1.187577e+03
2.340000e-06	1.963142e-06	1.794329e-08	1.405124e+01	1.168059e+03
2.350000e-06	1.815208e-06	1.765675e-08	1.299239e+01	1.148255e+03
2.360000e-06	1.666737e-06	1.735594e-08	1.192971e+01	1.128430e+03
2.370000e-06	1.517716e-06	1.703629e-08	1.086309e+01	1.108531e+03
2.380000e-06	1.368191e-06	1.669727e-08	9.792861e+00	1.088144e+03
2.390000e-06	1.218203e-06	1.633805e-08	8.719316e+00	1.066559e+03
2.400000e-06	1.067782e-06	1.595996e-08	7.642676e+00	1.042931e+03
2.410000e-06	9.169055e-07	1.555768e-08	6.562772e+00	1.016502e+03
2.420000e-06	7.656770e-07	1.512571e-08	5.480351e+00	9.868029e+02
2.430000e-06	6.142423e-07	1.465696e-08	4.396453e+00	9.537706e+02
2.440000e-06	4.626278e-07	1.414406e-08	3.311269e+00	9.177211e+02
2.450000e-06	3.108401e-07	1.358609e-08	2.224845e+00	8.791646e+02
2.460000e-06	1.589152e-07	1.297450e-08	1.137439e+00	8.384903e+02
2.470000e-06	6.864788e-09	1.230344e-08	4.913488e-02	7.955963e+02
2.480000e-06	-1.452625e-07	1.156166e-08	-1.039719e+00	7.495696e+02
2.490000e-06	-2.973443e-07	1.073343e-08	-2.128249e+00	6.985218e+02
2.500000e-06	-4.493089e-07	9.797909e-09	-3.215939e+00	6.396619e+02
2.510000e-06	-6.011828e-07	8.727540e-09	-4.302980e+00	5.696363e+02
2.520000e-06	-7.528849e-07	7.485768e-09	-5.388791e+00	4.850997e+02
2.530000e-06	-9.043153e-07	6.021191e-09	-6.472658e+00	3.834192e+02
2.540000e-06	-1.055470e-06	4.265614e-09	-7.554552e+00	2.633688e+02
2.550000e-06	-1.206255e-06	2.158209e-09	-8.633795e+00	1.256579e+02
2.560000e-06	-1.356562e-06	-2.364157e-10	-9.709623e+00	-2.683758e+01
2.570000e-06	-1.506327e-06	-2.739965e-09	-1.078157e+01	-1.892193e+02
2.580000e-06	-1.655451e-06	-5.254610e-09	-1.184893e+01	-3.550833e+02
2.590000e-06	-1.803901e-06	-7.770976e-09	-1.291147e+01	-5.173283e+02
2.600000e-06	-1.951710e-06	-1.022989e-08	-1.396941e+01	-6.691106e+02
2.610000e-06	-2.098824e-06	-1.241910e-08	-1.502239e+01	-8.047640e+02
2.620000e-06	-2.245179e-06	-1.417126e-08	-1.606992e+01	-9.205121e+02
2.630000e-06	-2.390730e-06	-1.552377e-08	-1.711171e+01	-1.014844e+03
2.640000e-06	-2.535460e-06	-1.657062e-08	-1.814761e+01	-1.088496e+03
2.650000e-06	-2.679289e-06	-1.739557e-08	-1.917707e+01	-1.144061e+03
2.660000e-06	-2.821979e-06	-1.805676e-08	-2.019838e+01	-1.185336e+03
2.670000e-06	-2.963364e-06	-1.859604e-08	-2.121035e+01	-1.216542e+03
2.680000e-06	-3.103546e-06	-1.904501e-08	-2.221371e+01	-1.241594e+03
2.690000e-06	-3.242544e-06	-1.942687e-08	-2.320858e+01	-1.263548e+03
2.700000e-06	-3.380268e-06	-1.975887e-08	-2.419435e+01	-1.284317e+03
2.710000e-06	-3.516806e-06	-2.005433e-08	-2.517162e+01	-1.304679e+03
2.720000e-06	-3.652059e-06	-2.032041e-08	-2.613970e+01	-1.324522e+03
2.730000e-06	-3.785887e-06	-2.056247e-08	-2.709758e+01	-1.343225e+03
2.740000e-06	-3.918399e-06	-2.078705e-08	-2.804603e+01	-1.360082e+03
2.750000e-06	-4.049519e-06	-2.099637e-08	-2.898453e+01	-1.374630e+03
2.760000e-06	-4.179249e-06	-2.119057e-08	-2.991307e+01	-1.386838e+03
2.770000e-06	-4.307656e-06	-2.137145e-08	-3.083215e+01	-1.397112e+03
2.780000e-06	-4.434480e-06	-2.154148e-08	-3.173989e+01	-1.406163e+03
2.790000e-06	-4.559692e-06	-2.170162e-08	-3.263610e+01	-1.414785e+03
2.800000e-06	-4.683394e-06	-2.185207e-08	-3.352150e+01	-1.423623e+03
2.810000e-06	-4.805422e-06	-2.199260e-08	-3.439492e+01	-1.433010e+03
2.820000e-06	-4.925738e-06	-2.212496e-08	-3.525609e+01	-1.442913e+03
2.830000e-06	-5.044185e-06	-2.225153e-08	-3.610387e+01	-1.452986e+03
2.840000e-06	-5.160599e-06	-2.237413e-08	-3.693711e+01	-1.462716e+03
2.850000e-06	-5.274955e-06	-2.249428e-08	-3.775561e+01	-1.471607e+03
2.860000e-06	-5.387134e-06	-2.260980e-08	-3.855854e+01	-1.479337e+03
2.870000e-06	-5.497228e-06	-2.271687e-08	-3.934653e+01	-1.485856e+03
2.880000e-06	-5.605415e-06	-2.281687e-08	-4.012089e+01	-1.491386e+03
2.890000e-06	-5.711683e-06	-2.291146e-08	-4.088150e+01	-1.496340e+03
2.900000e-06	-5.815881e-06	-2.300250e-08	-4.162731e+01	-1.501190e+03
2.910000e-06	-5.917885e-06	-2.308917e-08	-4.235740e+01	-1.506320e+03
2.920000e-06	-6.017694e-06	-2.317220e-08	-4.307179e+01	-1.511921e+03
2.930000e-06	-6.115436e-06	-2.325200e-08	-4.377138e+01	-1.517949e+03
2.940000e-06	-6.211018e-06	-2.332848e-08	-4.445551e+01	-1.524157e+03
