# Temperatura_=_72.16
# Concentracion g/m^3_=_41000.0
# C_Vs_to_Am_M_A/Vsm_=_65563218390.804596
# pendiente_HvsI_1/m_=_3716.3
# ordenada_HvsI_A/m_=_1297.0
# frecuencia_Hz_=_302501.585292561

Tiempo_(s)	Campo_(V.s)	Magnetizacion_(V.s)	Campo_(kA/m)	Magnetizacion_(A/m)
0.000000e+00	-7.978897e-06	-2.334166e-08	-5.687096e+01	-1.529344e+03
1.000000e-08	-7.976663e-06	-2.333856e-08	-5.685504e+01	-1.528785e+03
2.000000e-08	-7.971717e-06	-2.332734e-08	-5.681978e+01	-1.527755e+03
3.000000e-08	-7.964239e-06	-2.331571e-08	-5.676648e+01	-1.526455e+03
4.000000e-08	-7.954099e-06	-2.330495e-08	-5.669421e+01	-1.525136e+03
5.000000e-08	-7.941085e-06	-2.329186e-08	-5.660145e+01	-1.524018e+03
6.000000e-08	-7.925089e-06	-2.327721e-08	-5.648744e+01	-1.523222e+03
7.000000e-08	-7.906475e-06	-2.326108e-08	-5.635476e+01	-1.522733e+03
8.000000e-08	-7.885610e-06	-2.324922e-08	-5.620604e+01	-1.522409e+03
9.000000e-08	-7.862097e-06	-2.327497e-08	-5.603845e+01	-1.522027e+03
1.000000e-07	-7.835407e-06	-2.325335e-08	-5.584822e+01	-1.521361e+03
1.100000e-07	-7.805582e-06	-2.320595e-08	-5.563563e+01	-1.520252e+03
1.200000e-07	-7.772926e-06	-2.318012e-08	-5.540287e+01	-1.518664e+03
1.300000e-07	-7.737513e-06	-2.315388e-08	-5.515045e+01	-1.516692e+03
1.400000e-07	-7.699615e-06	-2.310537e-08	-5.488033e+01	-1.514537e+03
1.500000e-07	-7.659605e-06	-2.304563e-08	-5.459515e+01	-1.512437e+03
1.600000e-07	-7.617293e-06	-2.308985e-08	-5.429357e+01	-1.510589e+03
1.700000e-07	-7.572314e-06	-2.303892e-08	-5.397297e+01	-1.509081e+03
1.800000e-07	-7.524689e-06	-2.297534e-08	-5.363352e+01	-1.507863e+03
1.900000e-07	-7.474140e-06	-2.299515e-08	-5.327322e+01	-1.506750e+03
2.000000e-07	-7.420491e-06	-2.291963e-08	-5.289083e+01	-1.505483e+03
2.100000e-07	-7.364152e-06	-2.288350e-08	-5.248926e+01	-1.503802e+03
2.200000e-07	-7.305186e-06	-2.284504e-08	-5.206897e+01	-1.501528e+03
2.300000e-07	-7.243507e-06	-2.280523e-08	-5.162934e+01	-1.498617e+03
2.400000e-07	-7.179171e-06	-2.278600e-08	-5.117078e+01	-1.495175e+03
2.500000e-07	-7.112060e-06	-2.271573e-08	-5.069243e+01	-1.491429e+03
2.600000e-07	-7.042215e-06	-2.267781e-08	-5.019460e+01	-1.487651e+03
2.700000e-07	-6.969694e-06	-2.262064e-08	-4.967770e+01	-1.484078e+03
2.800000e-07	-6.894413e-06	-2.257629e-08	-4.914112e+01	-1.480837e+03
2.900000e-07	-6.816337e-06	-2.251549e-08	-4.858461e+01	-1.477902e+03
3.000000e-07	-6.735454e-06	-2.245289e-08	-4.800811e+01	-1.475104e+03
3.100000e-07	-6.652121e-06	-2.241020e-08	-4.741414e+01	-1.472181e+03
3.200000e-07	-6.566670e-06	-2.233751e-08	-4.680507e+01	-1.468863e+03
3.300000e-07	-6.478972e-06	-2.228571e-08	-4.617999e+01	-1.464955e+03
3.400000e-07	-6.388851e-06	-2.220861e-08	-4.553764e+01	-1.460398e+03
3.500000e-07	-6.296370e-06	-2.214914e-08	-4.487846e+01	-1.455295e+03
3.600000e-07	-6.201656e-06	-2.208214e-08	-4.420337e+01	-1.449871e+03
3.700000e-07	-6.104634e-06	-2.200234e-08	-4.351183e+01	-1.444408e+03
3.800000e-07	-6.005330e-06	-2.192795e-08	-4.280402e+01	-1.439151e+03
3.900000e-07	-5.903934e-06	-2.185375e-08	-4.208131e+01	-1.434230e+03
4.000000e-07	-5.800455e-06	-2.178100e-08	-4.134374e+01	-1.429609e+03
4.100000e-07	-5.694885e-06	-2.169043e-08	-4.059127e+01	-1.425099e+03
4.200000e-07	-5.587291e-06	-2.161177e-08	-3.982438e+01	-1.420407e+03
4.300000e-07	-5.477772e-06	-2.151964e-08	-3.904376e+01	-1.415230e+03
4.400000e-07	-5.366315e-06	-2.142793e-08	-3.824933e+01	-1.409347e+03
4.500000e-07	-5.252809e-06	-2.132717e-08	-3.744030e+01	-1.402693e+03
4.600000e-07	-5.137217e-06	-2.122711e-08	-3.661640e+01	-1.395379e+03
4.700000e-07	-5.019682e-06	-2.112294e-08	-3.577865e+01	-1.387658e+03
4.800000e-07	-4.900349e-06	-2.101551e-08	-3.492808e+01	-1.379849e+03
4.900000e-07	-4.779201e-06	-2.090864e-08	-3.406458e+01	-1.372229e+03
5.000000e-07	-4.656276e-06	-2.079512e-08	-3.318841e+01	-1.364942e+03
5.100000e-07	-4.531655e-06	-2.067989e-08	-3.230015e+01	-1.357943e+03
5.200000e-07	-4.405412e-06	-2.055297e-08	-3.140033e+01	-1.351003e+03
5.300000e-07	-4.277596e-06	-2.042290e-08	-3.048930e+01	-1.343774e+03
5.400000e-07	-4.148240e-06	-2.028429e-08	-2.956730e+01	-1.335890e+03
5.500000e-07	-4.017331e-06	-2.014672e-08	-2.863422e+01	-1.327083e+03
5.600000e-07	-3.884880e-06	-2.000492e-08	-2.769015e+01	-1.317268e+03
5.700000e-07	-3.750997e-06	-1.985785e-08	-2.673587e+01	-1.306571e+03
5.800000e-07	-3.615721e-06	-1.970221e-08	-2.577168e+01	-1.295292e+03
5.900000e-07	-3.479045e-06	-1.953996e-08	-2.479749e+01	-1.283809e+03
6.000000e-07	-3.340971e-06	-1.937390e-08	-2.381334e+01	-1.272448e+03
6.100000e-07	-3.201494e-06	-1.920030e-08	-2.281920e+01	-1.261367e+03
6.200000e-07	-3.060657e-06	-1.902103e-08	-2.181536e+01	-1.250488e+03
6.300000e-07	-2.918549e-06	-1.883017e-08	-2.080246e+01	-1.239499e+03
6.400000e-07	-2.775259e-06	-1.863121e-08	-1.978114e+01	-1.227933e+03
6.500000e-07	-2.630878e-06	-1.842074e-08	-1.875203e+01	-1.215303e+03
6.600000e-07	-2.485542e-06	-1.820092e-08	-1.771613e+01	-1.201246e+03
6.700000e-07	-2.339369e-06	-1.797150e-08	-1.667425e+01	-1.185640e+03
6.800000e-07	-2.192440e-06	-1.773438e-08	-1.562699e+01	-1.168645e+03
6.900000e-07	-2.044842e-06	-1.748766e-08	-1.457496e+01	-1.150649e+03
7.000000e-07	-1.896605e-06	-1.722527e-08	-1.351838e+01	-1.132137e+03
7.100000e-07	-1.747751e-06	-1.694672e-08	-1.245740e+01	-1.113511e+03
7.200000e-07	-1.598324e-06	-1.665072e-08	-1.139233e+01	-1.094920e+03
7.300000e-07	-1.448424e-06	-1.633956e-08	-1.032389e+01	-1.076157e+03
7.400000e-07	-1.298144e-06	-1.600712e-08	-9.252744e+00	-1.056653e+03
7.500000e-07	-1.147469e-06	-1.565546e-08	-8.178785e+00	-1.035597e+03
7.600000e-07	-9.963466e-07	-1.528269e-08	-7.101632e+00	-1.012129e+03
7.700000e-07	-8.447491e-07	-1.488277e-08	-6.021095e+00	-9.855732e+02
7.800000e-07	-6.928185e-07	-1.444975e-08	-4.938183e+00	-9.556182e+02
7.900000e-07	-5.406800e-07	-1.397995e-08	-3.853789e+00	-9.223832e+02
8.000000e-07	-3.883175e-07	-1.347020e-08	-2.767800e+00	-8.863260e+02
8.100000e-07	-2.357790e-07	-1.291211e-08	-1.680555e+00	-8.479941e+02
8.200000e-07	-8.312375e-08	-1.229922e-08	-5.924788e-01	-8.076696e+02
8.300000e-07	6.962507e-08	-1.161965e-08	4.962647e-01	-7.649986e+02
8.400000e-07	2.223719e-07	-1.085996e-08	1.584994e+00	-7.187160e+02
8.500000e-07	3.750530e-07	-1.000406e-08	2.673255e+00	-6.665663e+02
8.600000e-07	5.276552e-07	-9.033597e-09	3.760953e+00	-6.054846e+02
8.700000e-07	6.801314e-07	-7.919623e-09	4.847754e+00	-5.320407e+02
8.800000e-07	8.323132e-07	-6.618229e-09	5.932456e+00	-4.430830e+02
8.900000e-07	9.840943e-07	-5.073733e-09	7.014302e+00	-3.364614e+02
9.000000e-07	1.135471e-06	-3.222396e-09	8.093263e+00	-2.116755e+02
9.100000e-07	1.286417e-06	-1.045692e-09	9.169156e+00	-7.029501e+01
9.200000e-07	1.436992e-06	1.345407e-09	1.024241e+01	8.395926e+01
9.300000e-07	1.587179e-06	3.796609e-09	1.131289e+01	2.455209e+02
9.400000e-07	1.736858e-06	6.249476e-09	1.237976e+01	4.076324e+02
9.500000e-07	1.885910e-06	8.671524e-09	1.344215e+01	5.632368e+02
9.600000e-07	2.034239e-06	1.092162e-08	1.449939e+01	7.059402e+02
9.700000e-07	2.181794e-06	1.281368e-08	1.555111e+01	8.308611e+02
9.800000e-07	2.328550e-06	1.430221e-08	1.659714e+01	9.352083e+02
9.900000e-07	2.474458e-06	1.545751e-08	1.763713e+01	1.018486e+03
1.000000e-06	2.619398e-06	1.635666e-08	1.867021e+01	1.082303e+03
1.010000e-06	2.763255e-06	1.706418e-08	1.969558e+01	1.129853e+03
1.020000e-06	2.906080e-06	1.763506e-08	2.071359e+01	1.165179e+03
1.030000e-06	3.047849e-06	1.810829e-08	2.172407e+01	1.192405e+03
1.040000e-06	3.188355e-06	1.850943e-08	2.272555e+01	1.215063e+03
1.050000e-06	3.327595e-06	1.885603e-08	2.371800e+01	1.235667e+03
1.060000e-06	3.465606e-06	1.915784e-08	2.470170e+01	1.255559e+03
1.070000e-06	3.602198e-06	1.942347e-08	2.567529e+01	1.275037e+03
1.080000e-06	3.737371e-06	1.966124e-08	2.663876e+01	1.293686e+03
1.090000e-06	3.871302e-06	1.987808e-08	2.759337e+01	1.310789e+03
1.100000e-06	4.003829e-06	2.007971e-08	2.853798e+01	1.325723e+03
1.110000e-06	4.134926e-06	2.026817e-08	2.947240e+01	1.338225e+03
1.120000e-06	4.264625e-06	2.044416e-08	3.039685e+01	1.348497e+03
1.130000e-06	4.392730e-06	2.060805e-08	3.130994e+01	1.357132e+03
1.140000e-06	4.519312e-06	2.075949e-08	3.221217e+01	1.364927e+03
1.150000e-06	4.644405e-06	2.090044e-08	3.310379e+01	1.372641e+03
1.160000e-06	4.767923e-06	2.103400e-08	3.398419e+01	1.380790e+03
1.170000e-06	4.889772e-06	2.116143e-08	3.485269e+01	1.389527e+03
1.180000e-06	5.009798e-06	2.128052e-08	3.570819e+01	1.398645e+03
1.190000e-06	5.128006e-06	2.139274e-08	3.655074e+01	1.407684e+03
1.200000e-06	5.244324e-06	2.149858e-08	3.737982e+01	1.416106e+03
1.210000e-06	5.358537e-06	2.159943e-08	3.819390e+01	1.423482e+03
1.220000e-06	5.470654e-06	2.169548e-08	3.899303e+01	1.429622e+03
1.230000e-06	5.580884e-06	2.178657e-08	3.977871e+01	1.434634e+03
1.240000e-06	5.689190e-06	2.187285e-08	4.055068e+01	1.438873e+03
1.250000e-06	5.795431e-06	2.195385e-08	4.130793e+01	1.442827e+03
1.260000e-06	5.899490e-06	2.203058e-08	4.204963e+01	1.446967e+03
1.270000e-06	6.001320e-06	2.210494e-08	4.277544e+01	1.451604e+03
1.280000e-06	6.101014e-06	2.217788e-08	4.348603e+01	1.456810e+03
1.290000e-06	6.198404e-06	2.224927e-08	4.418019e+01	1.462416e+03
1.300000e-06	6.293455e-06	2.231864e-08	4.485768e+01	1.468076e+03
1.310000e-06	6.386301e-06	2.238379e-08	4.551946e+01	1.473392e+03
1.320000e-06	6.476900e-06	2.244504e-08	4.616522e+01	1.478041e+03
1.330000e-06	6.565136e-06	2.250272e-08	4.679413e+01	1.481872e+03
1.340000e-06	6.651025e-06	2.255803e-08	4.740633e+01	1.484947e+03
1.350000e-06	6.734617e-06	2.261244e-08	4.800214e+01	1.487515e+03
1.360000e-06	6.815769e-06	2.266692e-08	4.858057e+01	1.489922e+03
1.370000e-06	6.894408e-06	2.271940e-08	4.914108e+01	1.492500e+03
1.380000e-06	6.970459e-06	2.276866e-08	4.968315e+01	1.495466e+03
1.390000e-06	7.043842e-06	2.281412e-08	5.020620e+01	1.498855e+03
1.400000e-06	7.114671e-06	2.285627e-08	5.071104e+01	1.502514e+03
1.410000e-06	7.183021e-06	2.289765e-08	5.119822e+01	1.506163e+03
1.420000e-06	7.248788e-06	2.293604e-08	5.166698e+01	1.509482e+03
1.430000e-06	7.311995e-06	2.297115e-08	5.211751e+01	1.512215e+03
1.440000e-06	7.372809e-06	2.300347e-08	5.255097e+01	1.514253e+03
1.450000e-06	7.431108e-06	2.303434e-08	5.296650e+01	1.515661e+03
1.460000e-06	7.486689e-06	2.306525e-08	5.336266e+01	1.516657e+03
1.470000e-06	7.539329e-06	2.309492e-08	5.373787e+01	1.517543e+03
1.480000e-06	7.588875e-06	2.312251e-08	5.409101e+01	1.518605e+03
1.490000e-06	7.635569e-06	2.314744e-08	5.442383e+01	1.520027e+03
1.500000e-06	7.679623e-06	2.316876e-08	5.473784e+01	1.521839e+03
1.510000e-06	7.720898e-06	2.318748e-08	5.503203e+01	1.523908e+03
1.520000e-06	7.759418e-06	2.320556e-08	5.530659e+01	1.525985e+03
1.530000e-06	7.795354e-06	2.322288e-08	5.556273e+01	1.527787e+03
1.540000e-06	7.828493e-06	2.323901e-08	5.579893e+01	1.529087e+03
1.550000e-06	7.858806e-06	2.325324e-08	5.601499e+01	1.529785e+03
1.560000e-06	7.886384e-06	2.326617e-08	5.621156e+01	1.529937e+03
1.570000e-06	7.911059e-06	2.327845e-08	5.638744e+01	1.529737e+03
1.580000e-06	7.932856e-06	2.328850e-08	5.654280e+01	1.529453e+03
1.590000e-06	7.951821e-06	2.329586e-08	5.667797e+01	1.529344e+03
1.600000e-06	7.967837e-06	2.330145e-08	5.679213e+01	1.529578e+03
1.610000e-06	7.980782e-06	2.330706e-08	5.688440e+01	1.530183e+03
1.620000e-06	7.990599e-06	2.331284e-08	5.695437e+01	1.531037e+03
1.630000e-06	7.997459e-06	2.331736e-08	5.700327e+01	1.531914e+03
1.640000e-06	8.001557e-06	2.331970e-08	5.703247e+01	1.532548e+03
1.650000e-06	8.002823e-06	2.332110e-08	5.704150e+01	1.532725e+03
1.660000e-06	8.001330e-06	2.331530e-08	5.703086e+01	1.532344e+03
1.670000e-06	7.997208e-06	2.331121e-08	5.700148e+01	1.531447e+03
1.680000e-06	7.990398e-06	2.330633e-08	5.695294e+01	1.530207e+03
1.690000e-06	7.980948e-06	2.329916e-08	5.688558e+01	1.528867e+03
1.700000e-06	7.968726e-06	2.329048e-08	5.679846e+01	1.527665e+03
1.710000e-06	7.953714e-06	2.328250e-08	5.669147e+01	1.526760e+03
1.720000e-06	7.936246e-06	2.327674e-08	5.656696e+01	1.526182e+03
1.730000e-06	7.916491e-06	2.324382e-08	5.642615e+01	1.525827e+03
1.740000e-06	7.894088e-06	2.318379e-08	5.626647e+01	1.525490e+03
1.750000e-06	7.868351e-06	2.318936e-08	5.608303e+01	1.524937e+03
1.760000e-06	7.838939e-06	2.318527e-08	5.587338e+01	1.523981e+03
1.770000e-06	7.806275e-06	2.315750e-08	5.564057e+01	1.522541e+03
1.780000e-06	7.771117e-06	2.315822e-08	5.538997e+01	1.520675e+03
1.790000e-06	7.733711e-06	2.318893e-08	5.512336e+01	1.518553e+03
1.800000e-06	7.694211e-06	2.310139e-08	5.484182e+01	1.516410e+03
1.810000e-06	7.652615e-06	2.310570e-08	5.454533e+01	1.514465e+03
1.820000e-06	7.608424e-06	2.313312e-08	5.423035e+01	1.512846e+03
1.830000e-06	7.561533e-06	2.303761e-08	5.389613e+01	1.511549e+03
1.840000e-06	7.511916e-06	2.310001e-08	5.354247e+01	1.510428e+03
1.850000e-06	7.459263e-06	2.302142e-08	5.316718e+01	1.509241e+03
1.860000e-06	7.403640e-06	2.300875e-08	5.277072e+01	1.507717e+03
1.870000e-06	7.345379e-06	2.299637e-08	5.235545e+01	1.505646e+03
1.880000e-06	7.284598e-06	2.288812e-08	5.192223e+01	1.502934e+03
1.890000e-06	7.220995e-06	2.291203e-08	5.146889e+01	1.499643e+03
1.900000e-06	7.154560e-06	2.283214e-08	5.099536e+01	1.495965e+03
1.910000e-06	7.085405e-06	2.280855e-08	5.050244e+01	1.492168e+03
1.920000e-06	7.013410e-06	2.275986e-08	4.998929e+01	1.488509e+03
1.930000e-06	6.938744e-06	2.270045e-08	4.945709e+01	1.485156e+03
1.940000e-06	6.861375e-06	2.268183e-08	4.890563e+01	1.482134e+03
1.950000e-06	6.781331e-06	2.258664e-08	4.833511e+01	1.479318e+03
1.960000e-06	6.698833e-06	2.255981e-08	4.774709e+01	1.476466e+03
1.970000e-06	6.613845e-06	2.248325e-08	4.714132e+01	1.473301e+03
1.980000e-06	6.526350e-06	2.243418e-08	4.651768e+01	1.469596e+03
1.990000e-06	6.436515e-06	2.236827e-08	4.587737e+01	1.465244e+03
2.000000e-06	6.344481e-06	2.229463e-08	4.522138e+01	1.460296e+03
2.010000e-06	6.250120e-06	2.224520e-08	4.454881e+01	1.454945e+03
2.020000e-06	6.153488e-06	2.216149e-08	4.386005e+01	1.449464e+03
2.030000e-06	6.054738e-06	2.209503e-08	4.315619e+01	1.444120e+03
2.040000e-06	5.953830e-06	2.200771e-08	4.243695e+01	1.439087e+03
2.050000e-06	5.850710e-06	2.194103e-08	4.170194e+01	1.434383e+03
2.060000e-06	5.745545e-06	2.185167e-08	4.095236e+01	1.429866e+03
2.070000e-06	5.638527e-06	2.177029e-08	4.018957e+01	1.425266e+03
2.080000e-06	5.529528e-06	2.168231e-08	3.941266e+01	1.420275e+03
2.090000e-06	5.418462e-06	2.159171e-08	3.862102e+01	1.414634e+03
2.100000e-06	5.305377e-06	2.149983e-08	3.781499e+01	1.408224e+03
2.110000e-06	5.190353e-06	2.140190e-08	3.699513e+01	1.401100e+03
2.120000e-06	5.073295e-06	2.130662e-08	3.616078e+01	1.393476e+03
2.130000e-06	4.954258e-06	2.119917e-08	3.531232e+01	1.385661e+03
2.140000e-06	4.833460e-06	2.109434e-08	3.445132e+01	1.377956e+03
2.150000e-06	4.710974e-06	2.097815e-08	3.357827e+01	1.370558e+03
2.160000e-06	4.586811e-06	2.086579e-08	3.269329e+01	1.363483e+03
2.170000e-06	4.460846e-06	2.074472e-08	3.179545e+01	1.356558e+03
2.180000e-06	4.333108e-06	2.062312e-08	3.088497e+01	1.349462e+03
2.190000e-06	4.203862e-06	2.049473e-08	2.996375e+01	1.341825e+03
2.200000e-06	4.073196e-06	2.036413e-08	2.903240e+01	1.333333e+03
2.210000e-06	3.940987e-06	2.022681e-08	2.809006e+01	1.323838e+03
2.220000e-06	3.807235e-06	2.008341e-08	2.713672e+01	1.313399e+03
2.230000e-06	3.672046e-06	1.993471e-08	2.617314e+01	1.302267e+03
2.240000e-06	3.535499e-06	1.977820e-08	2.519988e+01	1.290809e+03
2.250000e-06	3.397686e-06	1.961568e-08	2.421759e+01	1.279381e+03
2.260000e-06	3.258593e-06	1.944419e-08	2.322618e+01	1.268206e+03
2.270000e-06	3.118134e-06	1.926784e-08	2.222504e+01	1.257286e+03
2.280000e-06	2.976400e-06	1.908281e-08	2.121481e+01	1.246378e+03
2.290000e-06	2.833545e-06	1.889140e-08	2.019658e+01	1.235052e+03
2.300000e-06	2.689629e-06	1.869123e-08	1.917080e+01	1.222812e+03
2.310000e-06	2.544731e-06	1.848198e-08	1.813801e+01	1.209240e+03
2.320000e-06	2.399004e-06	1.826057e-08	1.709931e+01	1.194128e+03
2.330000e-06	2.252520e-06	1.802869e-08	1.605523e+01	1.177546e+03
2.340000e-06	2.105232e-06	1.778738e-08	1.500540e+01	1.159820e+03
2.350000e-06	1.957217e-06	1.753344e-08	1.395040e+01	1.141422e+03
2.360000e-06	1.808506e-06	1.726422e-08	1.289044e+01	1.122801e+03
2.370000e-06	1.659104e-06	1.697799e-08	1.182555e+01	1.104203e+03
2.380000e-06	1.509154e-06	1.667527e-08	1.075676e+01	1.085541e+03
2.390000e-06	1.358802e-06	1.635400e-08	9.685094e+00	1.066355e+03
2.400000e-06	1.208095e-06	1.601080e-08	8.610902e+00	1.045894e+03
2.410000e-06	1.056990e-06	1.564536e-08	7.533879e+00	1.023288e+03
2.420000e-06	9.055437e-07	1.525622e-08	6.454418e+00	9.977786e+02
2.430000e-06	7.538163e-07	1.483846e-08	5.372955e+00	9.689234e+02
2.440000e-06	6.017974e-07	1.438555e-08	4.289414e+00	9.367051e+02
2.450000e-06	4.495535e-07	1.389162e-08	3.204270e+00	9.014930e+02
2.460000e-06	2.971325e-07	1.334911e-08	2.117863e+00	8.638408e+02
2.470000e-06	1.445271e-07	1.275160e-08	1.030142e+00	8.241577e+02
2.480000e-06	-8.170690e-09	1.209314e-08	-5.823800e-02	7.823311e+02
2.490000e-06	-1.608771e-07	1.136328e-08	-1.146679e+00	7.374086e+02
2.500000e-06	-3.135249e-07	1.054724e-08	-2.234703e+00	6.874466e+02
2.510000e-06	-4.660541e-07	9.625677e-09	-3.321881e+00	6.296038e+02
2.520000e-06	-6.184303e-07	8.569481e-09	-4.407968e+00	5.605048e+02
2.530000e-06	-7.706031e-07	7.338592e-09	-5.492606e+00	4.768304e+02
2.540000e-06	-9.225041e-07	5.884871e-09	-6.575307e+00	3.760313e+02
2.550000e-06	-1.074078e-06	4.149326e-09	-7.655676e+00	2.570172e+02
2.560000e-06	-1.225223e-06	2.080531e-09	-8.732989e+00	1.206655e+02
2.570000e-06	-1.375918e-06	-2.775642e-10	-9.807091e+00	-2.997965e+01
2.580000e-06	-1.526261e-06	-2.768592e-09	-1.087869e+01	-1.898888e+02
2.590000e-06	-1.676134e-06	-5.282439e-09	-1.194693e+01	-3.525984e+02
2.600000e-06	-1.825340e-06	-7.785901e-09	-1.301043e+01	-5.110427e+02
2.610000e-06	-1.973722e-06	-1.016673e-08	-1.406805e+01	-6.585129e+02
2.620000e-06	-2.121219e-06	-1.222635e-08	-1.511936e+01	-7.895624e+02
2.630000e-06	-2.267940e-06	-1.387073e-08	-1.616513e+01	-9.006869e+02
2.640000e-06	-2.413949e-06	-1.514932e-08	-1.720584e+01	-9.906548e+02
2.650000e-06	-2.559123e-06	-1.614505e-08	-1.824059e+01	-1.060442e+03
2.660000e-06	-2.703261e-06	-1.692930e-08	-1.926796e+01	-1.112804e+03
2.670000e-06	-2.846321e-06	-1.755666e-08	-2.028764e+01	-1.151599e+03
2.680000e-06	-2.988361e-06	-1.806844e-08	-2.130006e+01	-1.181004e+03
2.690000e-06	-3.129238e-06	-1.849369e-08	-2.230418e+01	-1.204802e+03
2.700000e-06	-3.268717e-06	-1.885433e-08	-2.329834e+01	-1.225864e+03
2.710000e-06	-3.406932e-06	-1.916714e-08	-2.428349e+01	-1.245907e+03
2.720000e-06	-3.543896e-06	-1.944595e-08	-2.525973e+01	-1.265538e+03
2.730000e-06	-3.679474e-06	-1.969751e-08	-2.622609e+01	-1.284525e+03
2.740000e-06	-3.813794e-06	-1.992637e-08	-2.718347e+01	-1.302205e+03
2.750000e-06	-3.946739e-06	-2.013602e-08	-2.813106e+01	-1.317886e+03
2.760000e-06	-4.078121e-06	-2.032715e-08	-2.906751e+01	-1.331171e+03
2.770000e-06	-4.208171e-06	-2.050178e-08	-2.999446e+01	-1.342111e+03
2.780000e-06	-4.336862e-06	-2.066417e-08	-3.091173e+01	-1.351190e+03
2.790000e-06	-4.464036e-06	-2.081840e-08	-3.181819e+01	-1.359166e+03
2.800000e-06	-4.589752e-06	-2.096384e-08	-3.271425e+01	-1.366834e+03
2.810000e-06	-4.713784e-06	-2.109935e-08	-3.359831e+01	-1.374809e+03
2.820000e-06	-4.836104e-06	-2.122439e-08	-3.447016e+01	-1.383364e+03
2.830000e-06	-4.956727e-06	-2.134135e-08	-3.532993e+01	-1.392401e+03
2.840000e-06	-5.075498e-06	-2.145439e-08	-3.617649e+01	-1.401524e+03
2.850000e-06	-5.192284e-06	-2.156306e-08	-3.700890e+01	-1.410200e+03
2.860000e-06	-5.306949e-06	-2.166550e-08	-3.782619e+01	-1.417946e+03
2.870000e-06	-5.419499e-06	-2.176155e-08	-3.862841e+01	-1.424486e+03
2.880000e-06	-5.529897e-06	-2.185180e-08	-3.941530e+01	-1.429832e+03
2.890000e-06	-5.638316e-06	-2.193640e-08	-4.018807e+01	-1.434270e+03
2.900000e-06	-5.744887e-06	-2.201762e-08	-4.094767e+01	-1.438261e+03
2.910000e-06	-5.849383e-06	-2.209705e-08	-4.169248e+01	-1.442298e+03
2.920000e-06	-5.951648e-06	-2.217336e-08	-4.242139e+01	-1.446755e+03
2.930000e-06	-6.051680e-06	-2.224613e-08	-4.313439e+01	-1.451786e+03
2.940000e-06	-6.149558e-06	-2.231639e-08	-4.383204e+01	-1.457294e+03
