# Temperatura_=_61.01
# Concentracion g/m^3_=_41000.0
# C_Vs_to_Am_M_A/Vsm_=_65563218390.804596
# pendiente_HvsI_1/m_=_3716.3
# ordenada_HvsI_A/m_=_1297.0
# frecuencia_Hz_=_302502.26572169055

Tiempo_(s)	Campo_(V.s)	Magnetizacion_(V.s)	Campo_(kA/m)	Magnetizacion_(A/m)
0.000000e+00	-7.999436e-06	-2.241036e-08	-5.687410e+01	-1.468984e+03
1.000000e-08	-7.997244e-06	-2.241351e-08	-5.685852e+01	-1.468397e+03
2.000000e-08	-7.992298e-06	-2.240426e-08	-5.682335e+01	-1.467328e+03
3.000000e-08	-7.984786e-06	-2.239201e-08	-5.676995e+01	-1.466010e+03
4.000000e-08	-7.974565e-06	-2.238492e-08	-5.669727e+01	-1.464720e+03
5.000000e-08	-7.961484e-06	-2.237487e-08	-5.660427e+01	-1.463694e+03
6.000000e-08	-7.945461e-06	-2.235881e-08	-5.649035e+01	-1.463049e+03
7.000000e-08	-7.926812e-06	-2.233858e-08	-5.635776e+01	-1.462752e+03
8.000000e-08	-7.905906e-06	-2.231749e-08	-5.620913e+01	-1.462631e+03
9.000000e-08	-7.882354e-06	-2.237438e-08	-5.604168e+01	-1.462435e+03
1.000000e-07	-7.855599e-06	-2.237684e-08	-5.585145e+01	-1.461914e+03
1.100000e-07	-7.825702e-06	-2.229435e-08	-5.563889e+01	-1.460902e+03
1.200000e-07	-7.792926e-06	-2.226687e-08	-5.540586e+01	-1.459377e+03
1.300000e-07	-7.757421e-06	-2.226158e-08	-5.515343e+01	-1.457463e+03
1.400000e-07	-7.719443e-06	-2.221085e-08	-5.488342e+01	-1.455395e+03
1.500000e-07	-7.679243e-06	-2.211620e-08	-5.459761e+01	-1.453444e+03
1.600000e-07	-7.636789e-06	-2.218352e-08	-5.429577e+01	-1.451825e+03
1.700000e-07	-7.591757e-06	-2.220113e-08	-5.397560e+01	-1.450626e+03
1.800000e-07	-7.543981e-06	-2.205523e-08	-5.363593e+01	-1.449774e+03
1.900000e-07	-7.493232e-06	-2.212956e-08	-5.327511e+01	-1.449054e+03
2.000000e-07	-7.439448e-06	-2.208066e-08	-5.289272e+01	-1.448165e+03
2.100000e-07	-7.382929e-06	-2.200882e-08	-5.249088e+01	-1.446816e+03
2.200000e-07	-7.323697e-06	-2.201577e-08	-5.206976e+01	-1.444812e+03
2.300000e-07	-7.261809e-06	-2.191713e-08	-5.162975e+01	-1.442116e+03
2.400000e-07	-7.197314e-06	-2.192141e-08	-5.117121e+01	-1.438859e+03
2.500000e-07	-7.130064e-06	-2.186260e-08	-5.069307e+01	-1.435302e+03
2.600000e-07	-7.060070e-06	-2.183338e-08	-5.019543e+01	-1.431756e+03
2.700000e-07	-6.987289e-06	-2.177453e-08	-4.967797e+01	-1.428487e+03
2.800000e-07	-6.911778e-06	-2.174447e-08	-4.914111e+01	-1.425627e+03
2.900000e-07	-6.833609e-06	-2.170392e-08	-4.858535e+01	-1.423139e+03
3.000000e-07	-6.752686e-06	-2.161708e-08	-4.801000e+01	-1.420827e+03
3.100000e-07	-6.669226e-06	-2.159731e-08	-4.741662e+01	-1.418390e+03
3.200000e-07	-6.583515e-06	-2.153282e-08	-4.680724e+01	-1.415526e+03
3.300000e-07	-6.495516e-06	-2.148492e-08	-4.618159e+01	-1.412019e+03
3.400000e-07	-6.405098e-06	-2.141740e-08	-4.553873e+01	-1.407812e+03
3.500000e-07	-6.312363e-06	-2.135268e-08	-4.487941e+01	-1.403025e+03
3.600000e-07	-6.217387e-06	-2.129755e-08	-4.420416e+01	-1.397918e+03
3.700000e-07	-6.120073e-06	-2.122701e-08	-4.351228e+01	-1.392808e+03
3.800000e-07	-6.020488e-06	-2.115704e-08	-4.280425e+01	-1.387967e+03
3.900000e-07	-5.918786e-06	-2.108781e-08	-4.208117e+01	-1.383536e+03
4.000000e-07	-5.815010e-06	-2.102666e-08	-4.134335e+01	-1.379470e+03
4.100000e-07	-5.709162e-06	-2.094218e-08	-4.059079e+01	-1.375553e+03
4.200000e-07	-5.601344e-06	-2.086451e-08	-3.982424e+01	-1.371458e+03
4.300000e-07	-5.491603e-06	-2.078349e-08	-3.904400e+01	-1.366851e+03
4.400000e-07	-5.379803e-06	-2.069602e-08	-3.824913e+01	-1.361492e+03
4.500000e-07	-5.265924e-06	-2.060230e-08	-3.743947e+01	-1.355316e+03
4.600000e-07	-5.150038e-06	-2.051378e-08	-3.661556e+01	-1.348453e+03
4.700000e-07	-5.032192e-06	-2.041989e-08	-3.577770e+01	-1.341192e+03
4.800000e-07	-4.912517e-06	-2.032093e-08	-3.492684e+01	-1.333886e+03
4.900000e-07	-4.791041e-06	-2.022187e-08	-3.406317e+01	-1.326838e+03
5.000000e-07	-4.667796e-06	-2.011907e-08	-3.318693e+01	-1.320198e+03
5.100000e-07	-4.542891e-06	-2.001168e-08	-3.229888e+01	-1.313907e+03
5.200000e-07	-4.416356e-06	-1.989273e-08	-3.139925e+01	-1.307701e+03
5.300000e-07	-4.288201e-06	-1.977190e-08	-3.048809e+01	-1.301188e+03
5.400000e-07	-4.158446e-06	-1.964461e-08	-2.956557e+01	-1.293966e+03
5.500000e-07	-4.027139e-06	-1.951674e-08	-2.863201e+01	-1.285744e+03
5.600000e-07	-3.894351e-06	-1.938146e-08	-2.768791e+01	-1.276438e+03
5.700000e-07	-3.760117e-06	-1.924672e-08	-2.673355e+01	-1.266204e+03
5.800000e-07	-3.624422e-06	-1.910290e-08	-2.576879e+01	-1.255386e+03
5.900000e-07	-3.487310e-06	-1.895059e-08	-2.479395e+01	-1.244409e+03
6.000000e-07	-3.348866e-06	-1.879016e-08	-2.380965e+01	-1.233638e+03
6.100000e-07	-3.209040e-06	-1.862421e-08	-2.281552e+01	-1.223246e+03
6.200000e-07	-3.067802e-06	-1.845402e-08	-2.181135e+01	-1.213139e+03
6.300000e-07	-2.925298e-06	-1.827348e-08	-2.079818e+01	-1.202964e+03
6.400000e-07	-2.781640e-06	-1.808674e-08	-1.977681e+01	-1.192199e+03
6.500000e-07	-2.636990e-06	-1.788675e-08	-1.874838e+01	-1.180306e+03
6.600000e-07	-2.491441e-06	-1.767829e-08	-1.771356e+01	-1.166889e+03
6.700000e-07	-2.344989e-06	-1.745790e-08	-1.667232e+01	-1.151827e+03
6.800000e-07	-2.197716e-06	-1.722948e-08	-1.562525e+01	-1.135316e+03
6.900000e-07	-2.049693e-06	-1.699231e-08	-1.457283e+01	-1.117807e+03
7.000000e-07	-1.901035e-06	-1.674341e-08	-1.351591e+01	-1.099857e+03
7.100000e-07	-1.751856e-06	-1.647797e-08	-1.245528e+01	-1.081931e+03
7.200000e-07	-1.602154e-06	-1.619420e-08	-1.139094e+01	-1.064211e+03
7.300000e-07	-1.451934e-06	-1.589739e-08	-1.032291e+01	-1.046479e+03
7.400000e-07	-1.301214e-06	-1.558062e-08	-9.251328e+00	-1.028118e+03
7.500000e-07	-1.150047e-06	-1.524320e-08	-8.176562e+00	-1.008237e+03
7.600000e-07	-9.985048e-07	-1.488318e-08	-7.099134e+00	-9.858946e+02
7.700000e-07	-8.465586e-07	-1.449826e-08	-6.018832e+00	-9.603573e+02
7.800000e-07	-6.942248e-07	-1.408094e-08	-4.935774e+00	-9.313021e+02
7.900000e-07	-5.415706e-07	-1.362947e-08	-3.850439e+00	-8.988966e+02
8.000000e-07	-3.887030e-07	-1.313984e-08	-2.763586e+00	-8.637049e+02
8.100000e-07	-2.357471e-07	-1.260337e-08	-1.676106e+00	-8.264198e+02
8.200000e-07	-8.270983e-08	-1.201315e-08	-5.880474e-01	-7.874775e+02
8.300000e-07	7.040750e-08	-1.135970e-08	5.005807e-01	-7.466524e+02
8.400000e-07	2.235435e-07	-1.063039e-08	1.589341e+00	-7.027508e+02
8.500000e-07	3.765903e-07	-9.807974e-09	2.677468e+00	-6.535130e+02
8.600000e-07	5.295627e-07	-8.878293e-09	3.765066e+00	-5.957937e+02
8.700000e-07	6.823902e-07	-7.812358e-09	4.851633e+00	-5.260227e+02
8.800000e-07	8.349294e-07	-6.570044e-09	5.936151e+00	-4.408799e+02
8.900000e-07	9.872135e-07	-5.097455e-09	7.018855e+00	-3.380560e+02
9.000000e-07	1.139155e-06	-3.332907e-09	8.099123e+00	-2.169336e+02
9.100000e-07	1.290594e-06	-1.237894e-09	9.175821e+00	-7.902975e+01
9.200000e-07	1.441585e-06	1.112129e-09	1.024933e+01	7.191991e+01
9.300000e-07	1.592112e-06	3.555063e-09	1.131954e+01	2.302811e+02
9.400000e-07	1.742039e-06	6.006182e-09	1.238549e+01	3.892053e+02
9.500000e-07	1.891385e-06	8.403213e-09	1.344730e+01	5.415568e+02
9.600000e-07	2.040137e-06	1.057683e-08	1.450489e+01	6.809074e+02
9.700000e-07	2.188159e-06	1.237138e-08	1.555729e+01	8.024063e+02
9.800000e-07	2.335290e-06	1.378653e-08	1.660336e+01	9.033597e+02
9.900000e-07	2.481470e-06	1.489385e-08	1.764267e+01	9.834183e+02
1.000000e-06	2.626719e-06	1.576378e-08	1.867535e+01	1.044357e+03
1.010000e-06	2.770956e-06	1.645240e-08	1.970084e+01	1.089512e+03
1.020000e-06	2.914139e-06	1.700727e-08	2.071884e+01	1.123020e+03
1.030000e-06	3.056207e-06	1.746654e-08	2.172891e+01	1.149015e+03
1.040000e-06	3.197018e-06	1.785681e-08	2.273004e+01	1.170962e+03
1.050000e-06	3.336537e-06	1.819301e-08	2.372199e+01	1.191237e+03
1.060000e-06	3.474801e-06	1.848532e-08	2.470502e+01	1.211010e+03
1.070000e-06	3.611796e-06	1.874292e-08	2.567902e+01	1.230405e+03
1.080000e-06	3.747409e-06	1.897565e-08	2.664320e+01	1.248866e+03
1.090000e-06	3.881623e-06	1.918795e-08	2.759742e+01	1.265598e+03
1.100000e-06	4.014469e-06	1.938289e-08	2.854193e+01	1.279966e+03
1.110000e-06	4.145893e-06	1.956311e-08	2.947632e+01	1.291755e+03
1.120000e-06	4.275868e-06	1.972929e-08	3.040041e+01	1.301253e+03
1.130000e-06	4.404328e-06	1.988365e-08	3.131373e+01	1.309149e+03
1.140000e-06	4.531222e-06	2.002674e-08	3.221592e+01	1.316313e+03
1.150000e-06	4.656608e-06	2.016101e-08	3.310738e+01	1.323543e+03
1.160000e-06	4.780434e-06	2.028952e-08	3.398776e+01	1.331344e+03
1.170000e-06	4.902567e-06	2.041079e-08	3.485609e+01	1.339822e+03
1.180000e-06	5.022891e-06	2.052291e-08	3.571157e+01	1.348701e+03
1.190000e-06	5.141390e-06	2.062801e-08	3.655407e+01	1.357453e+03
1.200000e-06	5.257999e-06	2.072794e-08	3.738314e+01	1.365497e+03
1.210000e-06	5.372506e-06	2.082413e-08	3.819725e+01	1.372393e+03
1.220000e-06	5.484871e-06	2.091202e-08	3.899614e+01	1.377978e+03
1.230000e-06	5.595242e-06	2.099624e-08	3.978085e+01	1.382411e+03
1.240000e-06	5.703712e-06	2.107680e-08	4.055205e+01	1.386110e+03
1.250000e-06	5.810172e-06	2.115343e-08	4.130895e+01	1.389615e+03
1.260000e-06	5.914460e-06	2.122518e-08	4.205041e+01	1.393423e+03
1.270000e-06	6.016584e-06	2.129453e-08	4.277649e+01	1.397838e+03
1.280000e-06	6.116518e-06	2.136318e-08	4.348700e+01	1.402895e+03
1.290000e-06	6.214115e-06	2.142956e-08	4.418089e+01	1.408369e+03
1.300000e-06	6.309379e-06	2.149396e-08	4.485819e+01	1.413856e+03
1.310000e-06	6.402397e-06	2.155419e-08	4.551953e+01	1.418915e+03
1.320000e-06	6.493116e-06	2.161017e-08	4.616453e+01	1.423206e+03
1.330000e-06	6.581464e-06	2.166350e-08	4.679265e+01	1.426591e+03
1.340000e-06	6.667500e-06	2.171593e-08	4.740435e+01	1.429175e+03
1.350000e-06	6.751258e-06	2.176579e-08	4.799985e+01	1.431257e+03
1.360000e-06	6.832563e-06	2.181405e-08	4.857791e+01	1.433234e+03
1.370000e-06	6.911338e-06	2.186075e-08	4.913798e+01	1.435472e+03
1.380000e-06	6.987658e-06	2.190498e-08	4.968060e+01	1.438195e+03
1.390000e-06	7.061342e-06	2.194650e-08	5.020447e+01	1.441418e+03
1.400000e-06	7.132385e-06	2.198597e-08	5.070958e+01	1.444953e+03
1.410000e-06	7.200937e-06	2.202346e-08	5.119697e+01	1.448472e+03
1.420000e-06	7.266895e-06	2.205784e-08	5.166591e+01	1.451616e+03
1.430000e-06	7.330242e-06	2.209074e-08	5.211629e+01	1.454110e+03
1.440000e-06	7.391152e-06	2.212104e-08	5.254935e+01	1.455847e+03
1.450000e-06	7.449536e-06	2.214888e-08	5.296444e+01	1.456916e+03
1.460000e-06	7.505232e-06	2.217526e-08	5.336043e+01	1.457576e+03
1.470000e-06	7.558086e-06	2.220044e-08	5.373621e+01	1.458164e+03
1.480000e-06	7.607830e-06	2.222485e-08	5.408987e+01	1.458996e+03
1.490000e-06	7.654640e-06	2.224705e-08	5.442269e+01	1.460267e+03
1.500000e-06	7.698820e-06	2.226536e-08	5.473679e+01	1.461994e+03
1.510000e-06	7.740223e-06	2.228042e-08	5.503116e+01	1.464017e+03
1.520000e-06	7.778814e-06	2.229558e-08	5.530553e+01	1.466053e+03
1.530000e-06	7.814801e-06	2.231147e-08	5.556139e+01	1.467790e+03
1.540000e-06	7.848034e-06	2.232654e-08	5.579767e+01	1.468982e+03
1.550000e-06	7.878393e-06	2.233981e-08	5.601352e+01	1.469531e+03
1.560000e-06	7.905993e-06	2.235169e-08	5.620974e+01	1.469512e+03
1.570000e-06	7.930688e-06	2.236182e-08	5.638532e+01	1.469148e+03
1.580000e-06	7.952478e-06	2.236991e-08	5.654025e+01	1.468738e+03
1.590000e-06	7.971498e-06	2.237612e-08	5.667547e+01	1.468563e+03
1.600000e-06	7.987596e-06	2.238188e-08	5.678992e+01	1.468797e+03
1.610000e-06	8.000652e-06	2.238809e-08	5.688275e+01	1.469457e+03
1.620000e-06	8.010596e-06	2.239315e-08	5.695345e+01	1.470396e+03
1.630000e-06	8.017528e-06	2.239680e-08	5.700273e+01	1.471355e+03
1.640000e-06	8.021689e-06	2.239891e-08	5.703231e+01	1.472046e+03
1.650000e-06	8.022981e-06	2.240200e-08	5.704150e+01	1.472239e+03
1.660000e-06	8.021514e-06	2.239673e-08	5.703107e+01	1.471837e+03
1.670000e-06	8.017506e-06	2.238959e-08	5.700258e+01	1.470902e+03
1.680000e-06	8.010718e-06	2.238739e-08	5.695431e+01	1.469635e+03
1.690000e-06	8.001194e-06	2.238131e-08	5.688660e+01	1.468306e+03
1.700000e-06	7.988939e-06	2.237235e-08	5.679947e+01	1.467175e+03
1.710000e-06	7.973877e-06	2.236794e-08	5.669238e+01	1.466403e+03
1.720000e-06	7.956308e-06	2.237019e-08	5.656747e+01	1.466007e+03
1.730000e-06	7.936483e-06	2.234974e-08	5.642652e+01	1.465855e+03
1.740000e-06	7.914021e-06	2.223600e-08	5.626682e+01	1.465712e+03
1.750000e-06	7.888220e-06	2.225171e-08	5.608338e+01	1.465319e+03
1.760000e-06	7.858738e-06	2.229007e-08	5.587377e+01	1.464474e+03
1.770000e-06	7.825966e-06	2.224614e-08	5.564077e+01	1.463107e+03
1.780000e-06	7.790773e-06	2.223255e-08	5.539056e+01	1.461296e+03
1.790000e-06	7.753362e-06	2.232457e-08	5.512457e+01	1.459248e+03
1.800000e-06	7.713813e-06	2.223848e-08	5.484339e+01	1.457232e+03
1.810000e-06	7.672180e-06	2.213919e-08	5.454739e+01	1.455488e+03
1.820000e-06	7.627903e-06	2.227593e-08	5.423259e+01	1.454154e+03
1.830000e-06	7.580880e-06	2.212382e-08	5.389827e+01	1.453208e+03
1.840000e-06	7.531119e-06	2.218395e-08	5.354448e+01	1.452476e+03
1.850000e-06	7.478285e-06	2.216334e-08	5.316884e+01	1.451675e+03
1.860000e-06	7.422553e-06	2.206021e-08	5.277260e+01	1.450501e+03
1.870000e-06	7.364173e-06	2.216191e-08	5.235753e+01	1.448720e+03
1.880000e-06	7.303211e-06	2.202042e-08	5.192411e+01	1.446240e+03
1.890000e-06	7.239495e-06	2.205315e-08	5.147110e+01	1.443139e+03
1.900000e-06	7.172948e-06	2.199536e-08	5.099797e+01	1.439645e+03
1.910000e-06	7.103671e-06	2.192628e-08	5.050542e+01	1.436062e+03
1.920000e-06	7.031548e-06	2.191912e-08	4.999265e+01	1.432682e+03
1.930000e-06	6.956691e-06	2.181259e-08	4.946043e+01	1.429685e+03
1.940000e-06	6.879102e-06	2.185803e-08	4.890879e+01	1.427093e+03
1.950000e-06	6.798833e-06	2.175531e-08	4.833810e+01	1.424753e+03
1.960000e-06	6.716124e-06	2.172057e-08	4.775006e+01	1.422391e+03
1.970000e-06	6.630944e-06	2.167116e-08	4.714445e+01	1.419693e+03
1.980000e-06	6.543257e-06	2.159402e-08	4.652101e+01	1.416407e+03
1.990000e-06	6.453220e-06	2.156912e-08	4.588087e+01	1.412420e+03
2.000000e-06	6.360931e-06	2.147393e-08	4.522472e+01	1.407797e+03
2.010000e-06	6.266299e-06	2.144904e-08	4.455191e+01	1.402759e+03
2.020000e-06	6.169432e-06	2.136270e-08	4.386320e+01	1.397615e+03
2.030000e-06	6.070423e-06	2.130418e-08	4.315927e+01	1.392665e+03
2.040000e-06	5.969237e-06	2.122113e-08	4.243987e+01	1.388097e+03
2.050000e-06	5.865924e-06	2.116181e-08	4.170533e+01	1.383930e+03
2.060000e-06	5.760534e-06	2.109488e-08	4.095604e+01	1.379997e+03
2.070000e-06	5.653188e-06	2.101069e-08	4.019283e+01	1.375998e+03
2.080000e-06	5.543907e-06	2.094213e-08	3.941587e+01	1.371588e+03
2.090000e-06	5.432636e-06	2.084954e-08	3.862476e+01	1.366487e+03
2.100000e-06	5.319302e-06	2.076944e-08	3.781898e+01	1.360568e+03
2.110000e-06	5.203919e-06	2.067003e-08	3.699863e+01	1.353900e+03
2.120000e-06	5.086504e-06	2.059197e-08	3.616385e+01	1.346730e+03
2.130000e-06	4.967152e-06	2.049400e-08	3.531528e+01	1.339400e+03
2.140000e-06	4.846027e-06	2.040018e-08	3.445411e+01	1.332243e+03
2.150000e-06	4.723171e-06	2.029080e-08	3.358063e+01	1.325468e+03
2.160000e-06	4.598574e-06	2.018550e-08	3.269478e+01	1.319084e+03
2.170000e-06	4.472248e-06	2.007508e-08	3.179663e+01	1.312889e+03
2.180000e-06	4.344294e-06	1.996217e-08	3.088690e+01	1.306521e+03
2.190000e-06	4.214787e-06	1.984785e-08	2.996614e+01	1.299566e+03
2.200000e-06	4.083787e-06	1.972483e-08	2.903476e+01	1.291685e+03
2.210000e-06	3.951211e-06	1.959522e-08	2.809218e+01	1.282722e+03
2.220000e-06	3.817070e-06	1.945418e-08	2.713847e+01	1.272756e+03
2.230000e-06	3.681455e-06	1.931469e-08	2.617428e+01	1.262080e+03
2.240000e-06	3.544506e-06	1.916671e-08	2.520060e+01	1.251108e+03
2.250000e-06	3.406264e-06	1.901872e-08	2.421773e+01	1.240240e+03
2.260000e-06	3.266752e-06	1.885954e-08	2.322583e+01	1.229723e+03
2.270000e-06	3.125991e-06	1.869383e-08	2.222506e+01	1.219551e+03
2.280000e-06	2.983915e-06	1.851623e-08	2.121493e+01	1.209450e+03
2.290000e-06	2.840630e-06	1.833224e-08	2.019621e+01	1.198936e+03
2.300000e-06	2.696276e-06	1.814093e-08	1.916989e+01	1.187458e+03
2.310000e-06	2.551064e-06	1.794187e-08	1.813746e+01	1.174558e+03
2.320000e-06	2.405052e-06	1.773440e-08	1.709935e+01	1.160019e+03
2.330000e-06	2.258184e-06	1.751502e-08	1.605515e+01	1.143935e+03
2.340000e-06	2.110531e-06	1.728244e-08	1.500538e+01	1.126686e+03
2.350000e-06	1.962196e-06	1.703514e-08	1.395075e+01	1.108818e+03
2.360000e-06	1.813233e-06	1.677247e-08	1.289166e+01	1.090848e+03
2.370000e-06	1.663688e-06	1.649564e-08	1.182843e+01	1.073065e+03
2.380000e-06	1.513576e-06	1.620585e-08	1.076117e+01	1.055386e+03
2.390000e-06	1.362944e-06	1.590336e-08	9.690213e+00	1.037315e+03
2.400000e-06	1.211869e-06	1.557912e-08	8.616103e+00	1.018027e+03
2.410000e-06	1.060315e-06	1.522659e-08	7.538591e+00	9.965710e+02
2.420000e-06	9.083448e-07	1.484856e-08	6.458117e+00	9.721186e+02
2.430000e-06	7.560874e-07	1.444410e-08	5.375603e+00	9.441990e+02
2.440000e-06	6.035575e-07	1.400804e-08	4.291152e+00	9.128238e+02
2.450000e-06	4.508561e-07	1.353226e-08	3.205480e+00	8.784511e+02
2.460000e-06	2.980375e-07	1.301102e-08	2.118976e+00	8.417703e+02
2.470000e-06	1.450322e-07	1.243737e-08	1.031144e+00	8.033456e+02
2.480000e-06	-8.094429e-09	1.180569e-08	-5.754948e-02	7.632049e+02
2.490000e-06	-1.611918e-07	1.110470e-08	-1.146036e+00	7.204880e+02
2.500000e-06	-3.142091e-07	1.031985e-08	-2.233953e+00	6.732725e+02
2.510000e-06	-4.671702e-07	9.434745e-09	-3.321470e+00	6.186602e+02
2.520000e-06	-6.200564e-07	8.424548e-09	-4.408455e+00	5.531520e+02
2.530000e-06	-7.727751e-07	7.251193e-09	-5.494249e+00	4.732655e+02
2.540000e-06	-9.252181e-07	5.865859e-09	-6.578082e+00	3.762850e+02
2.550000e-06	-1.077371e-06	4.211886e-09	-7.659853e+00	2.609865e+02
2.560000e-06	-1.229118e-06	2.232373e-09	-8.738736e+00	1.281730e+02
2.570000e-06	-1.380355e-06	-6.219253e-11	-9.813995e+00	-1.911758e+01
2.580000e-06	-1.531058e-06	-2.533275e-09	-1.088546e+01	-1.758024e+02
2.590000e-06	-1.681127e-06	-5.045994e-09	-1.195242e+01	-3.353304e+02
2.600000e-06	-1.830556e-06	-7.536049e-09	-1.301482e+01	-4.905492e+02
2.610000e-06	-1.979311e-06	-9.853526e-09	-1.407243e+01	-6.346987e+02
2.620000e-06	-2.127253e-06	-1.181263e-08	-1.512427e+01	-7.623410e+02
2.630000e-06	-2.274369e-06	-1.337170e-08	-1.617023e+01	-8.700484e+02
2.640000e-06	-2.420703e-06	-1.459212e-08	-1.721063e+01	-9.567233e+02
2.650000e-06	-2.566235e-06	-1.554976e-08	-1.824533e+01	-1.023505e+03
2.660000e-06	-2.710837e-06	-1.631066e-08	-1.927341e+01	-1.073304e+03
2.670000e-06	-2.854333e-06	-1.692284e-08	-2.029363e+01	-1.110090e+03
2.680000e-06	-2.996671e-06	-1.742231e-08	-2.130562e+01	-1.138078e+03
2.690000e-06	-3.137861e-06	-1.783645e-08	-2.230945e+01	-1.161010e+03
2.700000e-06	-3.277750e-06	-1.818733e-08	-2.330403e+01	-1.181639e+03
2.710000e-06	-3.416304e-06	-1.849101e-08	-2.428911e+01	-1.201515e+03
2.720000e-06	-3.553596e-06	-1.876091e-08	-2.526523e+01	-1.221068e+03
2.730000e-06	-3.689555e-06	-1.900379e-08	-2.623186e+01	-1.239914e+03
2.740000e-06	-3.824150e-06	-1.922495e-08	-2.718880e+01	-1.257286e+03
2.750000e-06	-3.957372e-06	-1.942785e-08	-2.813598e+01	-1.272461e+03
2.760000e-06	-4.089135e-06	-1.961285e-08	-2.907279e+01	-1.285071e+03
2.770000e-06	-4.219485e-06	-1.978084e-08	-2.999954e+01	-1.295247e+03
2.780000e-06	-4.348494e-06	-1.993554e-08	-3.091676e+01	-1.303566e+03
2.790000e-06	-4.476023e-06	-2.008192e-08	-3.182347e+01	-1.310870e+03
2.800000e-06	-4.601976e-06	-2.022112e-08	-3.271897e+01	-1.318007e+03
2.810000e-06	-4.726300e-06	-2.035135e-08	-3.360288e+01	-1.325593e+03
2.820000e-06	-4.848965e-06	-2.047027e-08	-3.447499e+01	-1.333867e+03
2.830000e-06	-4.969941e-06	-2.057895e-08	-3.533511e+01	-1.342666e+03
2.840000e-06	-5.089085e-06	-2.068140e-08	-3.618219e+01	-1.351524e+03
2.850000e-06	-5.206210e-06	-2.078122e-08	-3.701493e+01	-1.359855e+03
2.860000e-06	-5.321205e-06	-2.087841e-08	-3.783251e+01	-1.367152e+03
2.870000e-06	-5.434013e-06	-2.096973e-08	-3.863455e+01	-1.373157e+03
2.880000e-06	-5.544680e-06	-2.105412e-08	-3.942136e+01	-1.377925e+03
2.890000e-06	-5.653309e-06	-2.113272e-08	-4.019369e+01	-1.381804e+03
2.900000e-06	-5.760019e-06	-2.120777e-08	-4.095237e+01	-1.385312e+03
2.910000e-06	-5.864726e-06	-2.128216e-08	-4.169682e+01	-1.388978e+03
2.920000e-06	-5.967224e-06	-2.135384e-08	-4.242556e+01	-1.393180e+03
2.930000e-06	-6.067459e-06	-2.142195e-08	-4.313820e+01	-1.398045e+03
2.940000e-06	-6.165562e-06	-2.148789e-08	-4.383569e+01	-1.403423e+03
