# Temperatura_=_41.79
# Concentracion g/m^3_=_41000.0
# C_Vs_to_Am_M_A/Vsm_=_65563218390.804596
# pendiente_HvsI_1/m_=_3716.3
# ordenada_HvsI_A/m_=_1297.0
# frecuencia_Hz_=_302497.71484173177

Tiempo_(s)	Campo_(V.s)	Magnetizacion_(V.s)	Campo_(kA/m)	Magnetizacion_(A/m)
0.000000e+00	-7.956192e-06	-2.521549e-08	-5.685479e+01	-1.650575e+03
1.000000e-08	-7.951515e-06	-2.520947e-08	-5.682137e+01	-1.650287e+03
2.000000e-08	-7.944284e-06	-2.519895e-08	-5.676970e+01	-1.649551e+03
3.000000e-08	-7.934391e-06	-2.518668e-08	-5.669900e+01	-1.648456e+03
4.000000e-08	-7.921581e-06	-2.517247e-08	-5.660746e+01	-1.647172e+03
5.000000e-08	-7.905835e-06	-2.515658e-08	-5.649494e+01	-1.645894e+03
6.000000e-08	-7.887483e-06	-2.513816e-08	-5.636380e+01	-1.644782e+03
7.000000e-08	-7.866834e-06	-2.512565e-08	-5.621624e+01	-1.643915e+03
8.000000e-08	-7.843588e-06	-2.512742e-08	-5.605013e+01	-1.643267e+03
9.000000e-08	-7.817228e-06	-2.512601e-08	-5.586176e+01	-1.642723e+03
1.000000e-07	-7.787673e-06	-2.510393e-08	-5.565056e+01	-1.642114e+03
1.100000e-07	-7.755246e-06	-2.507057e-08	-5.541883e+01	-1.641277e+03
1.200000e-07	-7.720098e-06	-2.503451e-08	-5.516767e+01	-1.640107e+03
1.300000e-07	-7.682416e-06	-2.498166e-08	-5.489839e+01	-1.638584e+03
1.400000e-07	-7.642566e-06	-2.491500e-08	-5.461362e+01	-1.636781e+03
1.500000e-07	-7.600484e-06	-2.492037e-08	-5.431291e+01	-1.634834e+03
1.600000e-07	-7.555815e-06	-2.492871e-08	-5.399371e+01	-1.632892e+03
1.700000e-07	-7.508438e-06	-2.489384e-08	-5.365515e+01	-1.631061e+03
1.800000e-07	-7.458171e-06	-2.488776e-08	-5.329594e+01	-1.629370e+03
1.900000e-07	-7.404843e-06	-2.484029e-08	-5.291486e+01	-1.627750e+03
2.000000e-07	-7.348780e-06	-2.476843e-08	-5.251424e+01	-1.626059e+03
2.100000e-07	-7.290126e-06	-2.472522e-08	-5.209510e+01	-1.624120e+03
2.200000e-07	-7.228786e-06	-2.470852e-08	-5.165677e+01	-1.621783e+03
2.300000e-07	-7.164862e-06	-2.467167e-08	-5.119996e+01	-1.618973e+03
2.400000e-07	-7.098252e-06	-2.459775e-08	-5.072397e+01	-1.615721e+03
2.500000e-07	-7.028834e-06	-2.456687e-08	-5.022791e+01	-1.612154e+03
2.600000e-07	-6.956644e-06	-2.454857e-08	-4.971204e+01	-1.608461e+03
2.700000e-07	-6.881675e-06	-2.446919e-08	-4.917632e+01	-1.604835e+03
2.800000e-07	-6.804017e-06	-2.439453e-08	-4.862137e+01	-1.601410e+03
2.900000e-07	-6.723682e-06	-2.436957e-08	-4.804730e+01	-1.598219e+03
3.000000e-07	-6.640794e-06	-2.431824e-08	-4.745499e+01	-1.595176e+03
3.100000e-07	-6.555626e-06	-2.423593e-08	-4.684637e+01	-1.592104e+03
3.200000e-07	-6.468198e-06	-2.419279e-08	-4.622162e+01	-1.588780e+03
3.300000e-07	-6.378366e-06	-2.414645e-08	-4.557968e+01	-1.585012e+03
3.400000e-07	-6.286214e-06	-2.405530e-08	-4.492116e+01	-1.580689e+03
3.500000e-07	-6.191895e-06	-2.397544e-08	-4.424716e+01	-1.575821e+03
3.600000e-07	-6.095257e-06	-2.391999e-08	-4.355659e+01	-1.570537e+03
3.700000e-07	-5.996300e-06	-2.385174e-08	-4.284944e+01	-1.565042e+03
3.800000e-07	-5.895256e-06	-2.377099e-08	-4.212739e+01	-1.559555e+03
3.900000e-07	-5.792204e-06	-2.369416e-08	-4.139097e+01	-1.554235e+03
4.000000e-07	-5.687123e-06	-2.360623e-08	-4.064007e+01	-1.549130e+03
4.100000e-07	-5.579983e-06	-2.350530e-08	-3.987445e+01	-1.544156e+03
4.200000e-07	-5.470846e-06	-2.341578e-08	-3.909456e+01	-1.539118e+03
4.300000e-07	-5.359790e-06	-2.333758e-08	-3.830096e+01	-1.533770e+03
4.400000e-07	-5.246764e-06	-2.324377e-08	-3.749328e+01	-1.527887e+03
4.500000e-07	-5.131681e-06	-2.313480e-08	-3.667089e+01	-1.521333e+03
4.600000e-07	-5.014533e-06	-2.302780e-08	-3.583375e+01	-1.514110e+03
4.700000e-07	-4.895515e-06	-2.291782e-08	-3.498325e+01	-1.506349e+03
4.800000e-07	-4.774815e-06	-2.280096e-08	-3.412073e+01	-1.498275e+03
4.900000e-07	-4.652387e-06	-2.269051e-08	-3.324587e+01	-1.490129e+03
5.000000e-07	-4.528187e-06	-2.258066e-08	-3.235833e+01	-1.482089e+03
5.100000e-07	-4.402340e-06	-2.245332e-08	-3.145903e+01	-1.474206e+03
5.200000e-07	-4.274951e-06	-2.231035e-08	-3.054872e+01	-1.466377e+03
5.300000e-07	-4.146081e-06	-2.216586e-08	-2.962781e+01	-1.458372e+03
5.400000e-07	-4.015729e-06	-2.202336e-08	-2.869632e+01	-1.449897e+03
5.500000e-07	-3.883792e-06	-2.187870e-08	-2.775350e+01	-1.440681e+03
5.600000e-07	-3.750353e-06	-2.172883e-08	-2.679995e+01	-1.430562e+03
5.700000e-07	-3.615495e-06	-2.156918e-08	-2.583626e+01	-1.419537e+03
5.800000e-07	-3.479242e-06	-2.139694e-08	-2.486260e+01	-1.407761e+03
5.900000e-07	-3.341609e-06	-2.121653e-08	-2.387907e+01	-1.395500e+03
6.000000e-07	-3.202587e-06	-2.103352e-08	-2.288563e+01	-1.383036e+03
6.100000e-07	-3.062223e-06	-2.084472e-08	-2.188259e+01	-1.370570e+03
6.200000e-07	-2.920622e-06	-2.064777e-08	-2.087071e+01	-1.358141e+03
6.300000e-07	-2.777865e-06	-2.043908e-08	-1.985057e+01	-1.345592e+03
6.400000e-07	-2.633960e-06	-2.021862e-08	-1.882222e+01	-1.332599e+03
6.500000e-07	-2.489075e-06	-1.998938e-08	-1.778688e+01	-1.318759e+03
6.600000e-07	-2.343312e-06	-1.975215e-08	-1.674526e+01	-1.303700e+03
6.700000e-07	-2.196756e-06	-1.950418e-08	-1.569798e+01	-1.287195e+03
6.800000e-07	-2.049527e-06	-1.924281e-08	-1.464588e+01	-1.269229e+03
6.900000e-07	-1.901667e-06	-1.896867e-08	-1.358928e+01	-1.249999e+03
7.000000e-07	-1.753192e-06	-1.867825e-08	-1.252828e+01	-1.229843e+03
7.100000e-07	-1.604161e-06	-1.836803e-08	-1.146330e+01	-1.209113e+03
7.200000e-07	-1.454660e-06	-1.804243e-08	-1.039498e+01	-1.188027e+03
7.300000e-07	-1.304730e-06	-1.770142e-08	-9.323575e+00	-1.166552e+03
7.400000e-07	-1.154355e-06	-1.733952e-08	-8.248996e+00	-1.144353e+03
7.500000e-07	-1.003535e-06	-1.695531e-08	-7.171238e+00	-1.120833e+03
7.600000e-07	-8.523969e-07	-1.654861e-08	-6.091211e+00	-1.095262e+03
7.700000e-07	-7.009809e-07	-1.611300e-08	-5.009196e+00	-1.066954e+03
7.800000e-07	-5.493188e-07	-1.564032e-08	-3.925421e+00	-1.035445e+03
7.900000e-07	-3.974710e-07	-1.512860e-08	-2.840320e+00	-1.000599e+03
8.000000e-07	-2.454669e-07	-1.457750e-08	-1.754102e+00	-9.626077e+02
8.100000e-07	-9.336953e-08	-1.398245e-08	-6.672168e-01	-9.218436e+02
8.200000e-07	5.881657e-08	-1.333217e-08	4.203020e-01	-8.786072e+02
8.300000e-07	2.110371e-07	-1.261999e-08	1.508067e+00	-8.328100e+02
8.400000e-07	3.632146e-07	-1.183524e-08	2.595524e+00	-7.836873e+02
8.500000e-07	5.153328e-07	-1.096255e-08	3.682558e+00	-7.296316e+02
8.600000e-07	6.673145e-07	-9.986406e-09	4.768616e+00	-6.682227e+02
8.700000e-07	8.191022e-07	-8.878877e-09	5.853288e+00	-5.964886e+02
8.800000e-07	9.705933e-07	-7.603573e-09	6.935841e+00	-5.113774e+02
8.900000e-07	1.121705e-06	-6.113334e-09	8.015685e+00	-4.103656e+02
9.000000e-07	1.272447e-06	-4.347443e-09	9.092878e+00	-2.920845e+02
9.100000e-07	1.422775e-06	-2.266335e-09	1.016713e+01	-1.568290e+02
9.200000e-07	1.572648e-06	6.955053e-11	1.123811e+01	-6.827402e+00
9.300000e-07	1.721999e-06	2.510506e-09	1.230537e+01	1.538079e+02
9.400000e-07	1.870763e-06	4.961161e-09	1.336844e+01	3.194641e+02
9.500000e-07	2.018862e-06	7.407462e-09	1.442675e+01	4.836908e+02
9.600000e-07	2.166211e-06	9.819073e-09	1.547970e+01	6.400275e+02
9.700000e-07	2.312760e-06	1.205828e-08	1.652693e+01	7.828434e+02
9.800000e-07	2.458381e-06	1.395355e-08	1.756754e+01	9.080341e+02
9.900000e-07	2.602965e-06	1.547144e-08	1.860074e+01	1.013450e+03
1.000000e-06	2.746549e-06	1.667773e-08	1.962678e+01	1.098986e+03
1.010000e-06	2.889072e-06	1.764258e-08	2.064525e+01	1.166341e+03
1.020000e-06	3.030494e-06	1.842662e-08	2.165585e+01	1.218508e+03
1.030000e-06	3.170748e-06	1.907505e-08	2.265810e+01	1.259115e+03
1.040000e-06	3.309702e-06	1.962014e-08	2.365107e+01	1.291767e+03
1.050000e-06	3.447348e-06	2.008044e-08	2.463468e+01	1.319502e+03
1.060000e-06	3.583583e-06	2.047521e-08	2.560821e+01	1.344462e+03
1.070000e-06	3.718480e-06	2.082342e-08	2.657218e+01	1.367808e+03
1.080000e-06	3.852148e-06	2.113478e-08	2.752738e+01	1.389855e+03
1.090000e-06	3.984444e-06	2.141513e-08	2.847276e+01	1.410365e+03
1.100000e-06	4.115298e-06	2.166856e-08	2.940784e+01	1.428891e+03
1.110000e-06	4.244654e-06	2.189713e-08	3.033222e+01	1.445080e+03
1.120000e-06	4.372532e-06	2.210283e-08	3.124603e+01	1.458877e+03
1.130000e-06	4.498891e-06	2.229175e-08	3.214899e+01	1.470579e+03
1.140000e-06	4.623795e-06	2.247095e-08	3.304155e+01	1.480757e+03
1.150000e-06	4.747178e-06	2.263943e-08	3.392324e+01	1.490096e+03
1.160000e-06	4.868788e-06	2.279501e-08	3.479227e+01	1.499204e+03
1.170000e-06	4.988656e-06	2.294035e-08	3.564884e+01	1.508461e+03
1.180000e-06	5.106747e-06	2.307590e-08	3.649271e+01	1.517945e+03
1.190000e-06	5.222905e-06	2.320426e-08	3.732278e+01	1.527458e+03
1.200000e-06	5.336949e-06	2.332692e-08	3.813773e+01	1.536622e+03
1.210000e-06	5.448876e-06	2.344207e-08	3.893756e+01	1.545035e+03
1.220000e-06	5.558869e-06	2.354794e-08	3.972357e+01	1.552405e+03
1.230000e-06	5.667019e-06	2.364530e-08	4.049641e+01	1.558648e+03
1.240000e-06	5.773171e-06	2.373583e-08	4.125496e+01	1.563912e+03
1.250000e-06	5.877114e-06	2.382060e-08	4.199774e+01	1.568527e+03
1.260000e-06	5.978887e-06	2.390177e-08	4.272501e+01	1.572899e+03
1.270000e-06	6.078465e-06	2.398005e-08	4.343659e+01	1.577393e+03
1.280000e-06	6.175676e-06	2.405680e-08	4.413126e+01	1.582226e+03
1.290000e-06	6.270578e-06	2.413162e-08	4.480943e+01	1.587421e+03
1.300000e-06	6.363314e-06	2.420087e-08	4.547212e+01	1.592813e+03
1.310000e-06	6.453810e-06	2.426533e-08	4.611880e+01	1.598116e+03
1.320000e-06	6.541928e-06	2.432727e-08	4.674849e+01	1.603026e+03
1.330000e-06	6.627776e-06	2.438698e-08	4.736195e+01	1.607316e+03
1.340000e-06	6.711326e-06	2.444265e-08	4.795901e+01	1.610905e+03
1.350000e-06	6.792370e-06	2.449620e-08	4.853814e+01	1.613879e+03
1.360000e-06	6.870920e-06	2.454969e-08	4.909946e+01	1.616456e+03
1.370000e-06	6.946937e-06	2.460068e-08	4.964267e+01	1.618913e+03
1.380000e-06	7.020300e-06	2.464814e-08	5.016693e+01	1.621496e+03
1.390000e-06	7.091112e-06	2.469345e-08	5.067295e+01	1.624346e+03
1.400000e-06	7.159492e-06	2.473661e-08	5.116159e+01	1.627458e+03
1.410000e-06	7.225330e-06	2.477769e-08	5.163207e+01	1.630692e+03
1.420000e-06	7.288557e-06	2.481474e-08	5.208388e+01	1.633820e+03
1.430000e-06	7.349347e-06	2.484717e-08	5.251829e+01	1.636604e+03
1.440000e-06	7.407623e-06	2.487764e-08	5.293473e+01	1.638875e+03
1.450000e-06	7.463211e-06	2.490812e-08	5.333196e+01	1.640582e+03
1.460000e-06	7.515978e-06	2.493844e-08	5.370903e+01	1.641810e+03
1.470000e-06	7.565707e-06	2.496598e-08	5.406439e+01	1.642750e+03
1.480000e-06	7.612491e-06	2.499039e-08	5.439871e+01	1.643638e+03
1.490000e-06	7.656579e-06	2.501263e-08	5.471376e+01	1.644680e+03
1.500000e-06	7.697944e-06	2.503337e-08	5.500936e+01	1.645988e+03
1.510000e-06	7.736515e-06	2.505200e-08	5.528498e+01	1.647553e+03
1.520000e-06	7.772418e-06	2.506974e-08	5.554155e+01	1.649245e+03
1.530000e-06	7.805595e-06	2.508700e-08	5.577863e+01	1.650861e+03
1.540000e-06	7.835991e-06	2.510213e-08	5.599584e+01	1.652191e+03
1.550000e-06	7.863677e-06	2.511576e-08	5.619368e+01	1.653083e+03
1.560000e-06	7.888477e-06	2.512820e-08	5.637090e+01	1.653494e+03
1.570000e-06	7.910391e-06	2.513828e-08	5.652750e+01	1.653500e+03
1.580000e-06	7.929583e-06	2.514682e-08	5.666464e+01	1.653271e+03
1.590000e-06	7.945842e-06	2.515412e-08	5.678083e+01	1.653018e+03
1.600000e-06	7.959087e-06	2.516069e-08	5.687548e+01	1.652928e+03
1.610000e-06	7.969303e-06	2.516626e-08	5.694848e+01	1.653102e+03
1.620000e-06	7.976468e-06	2.516997e-08	5.699969e+01	1.653529e+03
1.630000e-06	7.980817e-06	2.517207e-08	5.703076e+01	1.654090e+03
1.640000e-06	7.982320e-06	2.517241e-08	5.704150e+01	1.654593e+03
1.650000e-06	7.981005e-06	2.516968e-08	5.703211e+01	1.654839e+03
1.660000e-06	7.977109e-06	2.516689e-08	5.700427e+01	1.654681e+03
1.670000e-06	7.970520e-06	2.516327e-08	5.695718e+01	1.654068e+03
1.680000e-06	7.961189e-06	2.515709e-08	5.689050e+01	1.653061e+03
1.690000e-06	7.949184e-06	2.514884e-08	5.680471e+01	1.651811e+03
1.700000e-06	7.934365e-06	2.514155e-08	5.669882e+01	1.650513e+03
1.710000e-06	7.917006e-06	2.513820e-08	5.657477e+01	1.649341e+03
1.720000e-06	7.897412e-06	2.511920e-08	5.643475e+01	1.648403e+03
1.730000e-06	7.875211e-06	2.508751e-08	5.627610e+01	1.647701e+03
1.740000e-06	7.849768e-06	2.506069e-08	5.609429e+01	1.647143e+03
1.750000e-06	7.820730e-06	2.504739e-08	5.588678e+01	1.646570e+03
1.760000e-06	7.788433e-06	2.502904e-08	5.565599e+01	1.645813e+03
1.770000e-06	7.753590e-06	2.502543e-08	5.540700e+01	1.644744e+03
1.780000e-06	7.716450e-06	2.506008e-08	5.514160e+01	1.643318e+03
1.790000e-06	7.677149e-06	2.504354e-08	5.486075e+01	1.641584e+03
1.800000e-06	7.635838e-06	2.502763e-08	5.456555e+01	1.639663e+03
1.810000e-06	7.592070e-06	2.500979e-08	5.425278e+01	1.637706e+03
1.820000e-06	7.545520e-06	2.493909e-08	5.392014e+01	1.635836e+03
1.830000e-06	7.496194e-06	2.492522e-08	5.356766e+01	1.634108e+03
1.840000e-06	7.443902e-06	2.492380e-08	5.319398e+01	1.632481e+03
1.850000e-06	7.388703e-06	2.492283e-08	5.279952e+01	1.630827e+03
1.860000e-06	7.330836e-06	2.487989e-08	5.238601e+01	1.628977e+03
1.870000e-06	7.270406e-06	2.479258e-08	5.195418e+01	1.626765e+03
1.880000e-06	7.207213e-06	2.477287e-08	5.150260e+01	1.624093e+03
1.890000e-06	7.141147e-06	2.473115e-08	5.103050e+01	1.620958e+03
1.900000e-06	7.072407e-06	2.466179e-08	5.053928e+01	1.617464e+03
1.910000e-06	7.000877e-06	2.464516e-08	5.002813e+01	1.613786e+03
1.920000e-06	6.926616e-06	2.463024e-08	4.949746e+01	1.610124e+03
1.930000e-06	6.849664e-06	2.456672e-08	4.894756e+01	1.606633e+03
1.940000e-06	6.770035e-06	2.450437e-08	4.837854e+01	1.603379e+03
1.950000e-06	6.687923e-06	2.446058e-08	4.779176e+01	1.600309e+03
1.960000e-06	6.603333e-06	2.439010e-08	4.718729e+01	1.597267e+03
1.970000e-06	6.516270e-06	2.430912e-08	4.656514e+01	1.594038e+03
1.980000e-06	6.426831e-06	2.427097e-08	4.592600e+01	1.590413e+03
1.990000e-06	6.335160e-06	2.423414e-08	4.527093e+01	1.586253e+03
2.000000e-06	6.241235e-06	2.416070e-08	4.459974e+01	1.581532e+03
2.010000e-06	6.145049e-06	2.408051e-08	4.391240e+01	1.576349e+03
2.020000e-06	6.046704e-06	2.399652e-08	4.320963e+01	1.570892e+03
2.030000e-06	5.946223e-06	2.391996e-08	4.249159e+01	1.565382e+03
2.040000e-06	5.843593e-06	2.384572e-08	4.175820e+01	1.560004e+03
2.050000e-06	5.738858e-06	2.378860e-08	4.100976e+01	1.554841e+03
2.060000e-06	5.632172e-06	2.371521e-08	4.024739e+01	1.549845e+03
2.070000e-06	5.523559e-06	2.361347e-08	3.947124e+01	1.544850e+03
2.080000e-06	5.412957e-06	2.351299e-08	3.868088e+01	1.539616e+03
2.090000e-06	5.300317e-06	2.341924e-08	3.787596e+01	1.533905e+03
2.100000e-06	5.185674e-06	2.333020e-08	3.705672e+01	1.527549e+03
2.110000e-06	5.069087e-06	2.323353e-08	3.622359e+01	1.520509e+03
2.120000e-06	4.950477e-06	2.314181e-08	3.537601e+01	1.512882e+03
2.130000e-06	4.829947e-06	2.303231e-08	3.451471e+01	1.504872e+03
2.140000e-06	4.707707e-06	2.290895e-08	3.364118e+01	1.496725e+03
2.150000e-06	4.583829e-06	2.278353e-08	3.275595e+01	1.488643e+03
2.160000e-06	4.458262e-06	2.266496e-08	3.185865e+01	1.480719e+03
2.170000e-06	4.331057e-06	2.254433e-08	3.094965e+01	1.472894e+03
2.180000e-06	4.202326e-06	2.241608e-08	3.002974e+01	1.464968e+03
2.190000e-06	4.072054e-06	2.228119e-08	2.909882e+01	1.456658e+03
2.200000e-06	3.940225e-06	2.213442e-08	2.815677e+01	1.447676e+03
2.210000e-06	3.806944e-06	2.198026e-08	2.720435e+01	1.437823e+03
2.220000e-06	3.672228e-06	2.182396e-08	2.624167e+01	1.427048e+03
2.230000e-06	3.536032e-06	2.166918e-08	2.526841e+01	1.415463e+03
2.240000e-06	3.398524e-06	2.150710e-08	2.428579e+01	1.403310e+03
2.250000e-06	3.259795e-06	2.133429e-08	2.329443e+01	1.390879e+03
2.260000e-06	3.119790e-06	2.114583e-08	2.229395e+01	1.378402e+03
2.270000e-06	2.978533e-06	2.094881e-08	2.128454e+01	1.365970e+03
2.280000e-06	2.836109e-06	2.074922e-08	2.026678e+01	1.353482e+03
2.290000e-06	2.692587e-06	2.054540e-08	1.924118e+01	1.340656e+03
2.300000e-06	2.548092e-06	2.032827e-08	1.820862e+01	1.327099e+03
2.310000e-06	2.402763e-06	2.009648e-08	1.717010e+01	1.312420e+03
2.320000e-06	2.256619e-06	1.985243e-08	1.612576e+01	1.296341e+03
2.330000e-06	2.109705e-06	1.959643e-08	1.507591e+01	1.278781e+03
2.340000e-06	1.962106e-06	1.932807e-08	1.402117e+01	1.259881e+03
2.350000e-06	1.813914e-06	1.904860e-08	1.296219e+01	1.239952e+03
2.360000e-06	1.665174e-06	1.875469e-08	1.189930e+01	1.219355e+03
2.370000e-06	1.515889e-06	1.843917e-08	1.083251e+01	1.198362e+03
2.380000e-06	1.366060e-06	1.810298e-08	9.761840e+00	1.177019e+03
2.390000e-06	1.215744e-06	1.774805e-08	8.687682e+00	1.155079e+03
2.400000e-06	1.065046e-06	1.737253e-08	7.610797e+00	1.132008e+03
2.410000e-06	9.139787e-07	1.697227e-08	6.531274e+00	1.107098e+03
2.420000e-06	7.626163e-07	1.654684e-08	5.449641e+00	1.079632e+03
2.430000e-06	6.109939e-07	1.609324e-08	4.366150e+00	1.049067e+03
2.440000e-06	4.591342e-07	1.560194e-08	3.280964e+00	1.015169e+03
2.450000e-06	3.070938e-07	1.506618e-08	2.194487e+00	9.780422e+02
2.460000e-06	1.548674e-07	1.448298e-08	1.106680e+00	9.380309e+02
2.470000e-06	2.577042e-09	1.384890e-08	1.841549e-02	8.954870e+02
2.480000e-06	-1.497247e-07	1.315688e-08	-1.069930e+00	8.504657e+02
2.490000e-06	-3.019959e-07	1.239920e-08	-2.158057e+00	8.024191e+02
2.500000e-06	-4.541239e-07	1.156326e-08	-3.245161e+00	7.499873e+02
2.510000e-06	-6.061251e-07	1.062840e-08	-4.331358e+00	6.909659e+02
2.520000e-06	-7.579862e-07	9.569664e-09	-5.416554e+00	6.225006e+02
2.530000e-06	-9.095738e-07	8.358741e-09	-6.499796e+00	5.415043e+02
2.540000e-06	-1.060838e-06	6.954158e-09	-7.580727e+00	4.452370e+02
2.550000e-06	-1.211723e-06	5.297380e-09	-8.658948e+00	3.319403e+02
2.560000e-06	-1.362175e-06	3.329002e-09	-9.734073e+00	2.013940e+02
2.570000e-06	-1.512205e-06	1.048178e-09	-1.080619e+01	5.526416e+01
2.580000e-06	-1.661701e-06	-1.421404e-09	-1.187448e+01	-1.028503e+02
2.590000e-06	-1.810441e-06	-3.938602e-09	-1.293738e+01	-2.677079e+02
2.600000e-06	-1.958401e-06	-6.457194e-09	-1.399469e+01	-4.330179e+02
2.610000e-06	-2.105676e-06	-8.954569e-09	-1.504712e+01	-5.922344e+02
2.620000e-06	-2.252204e-06	-1.132250e-08	-1.609420e+01	-7.394095e+02
2.630000e-06	-2.397909e-06	-1.337753e-08	-1.713541e+01	-8.699454e+02
2.640000e-06	-2.542771e-06	-1.504141e-08	-1.817059e+01	-9.811089e+02
2.650000e-06	-2.686723e-06	-1.636898e-08	-1.919927e+01	-1.072223e+03
2.660000e-06	-2.829607e-06	-1.742985e-08	-2.022032e+01	-1.144512e+03
2.670000e-06	-2.971331e-06	-1.828603e-08	-2.123307e+01	-1.200663e+03
2.680000e-06	-3.111786e-06	-1.898767e-08	-2.223676e+01	-1.244192e+03
2.690000e-06	-3.250974e-06	-1.957031e-08	-2.323140e+01	-1.278773e+03
2.700000e-06	-3.388968e-06	-2.005941e-08	-2.421750e+01	-1.307652e+03
2.710000e-06	-3.525671e-06	-2.047843e-08	-2.519437e+01	-1.333244e+03
2.720000e-06	-3.661042e-06	-2.084626e-08	-2.616173e+01	-1.356986e+03
2.730000e-06	-3.795087e-06	-2.117207e-08	-2.711962e+01	-1.379411e+03
2.740000e-06	-3.927723e-06	-2.146231e-08	-2.806743e+01	-1.400403e+03
2.750000e-06	-4.058996e-06	-2.172211e-08	-2.900551e+01	-1.419540e+03
2.760000e-06	-4.188938e-06	-2.195681e-08	-2.993407e+01	-1.436417e+03
2.770000e-06	-4.317490e-06	-2.217374e-08	-3.085270e+01	-1.450883e+03
2.780000e-06	-4.444561e-06	-2.237623e-08	-3.176074e+01	-1.463134e+03
2.790000e-06	-4.570022e-06	-2.256455e-08	-3.265729e+01	-1.473679e+03
2.800000e-06	-4.693831e-06	-2.273685e-08	-3.354202e+01	-1.483189e+03
2.810000e-06	-4.815984e-06	-2.289256e-08	-3.441493e+01	-1.492311e+03
2.820000e-06	-4.936472e-06	-2.303622e-08	-3.527593e+01	-1.501504e+03
2.830000e-06	-5.055059e-06	-2.317248e-08	-3.612335e+01	-1.510933e+03
2.840000e-06	-5.171598e-06	-2.330208e-08	-3.695614e+01	-1.520470e+03
2.850000e-06	-5.286086e-06	-2.342498e-08	-3.777427e+01	-1.529777e+03
2.860000e-06	-5.398392e-06	-2.354086e-08	-3.857680e+01	-1.538442e+03
2.870000e-06	-5.508586e-06	-2.364774e-08	-3.936425e+01	-1.546128e+03
2.880000e-06	-5.616847e-06	-2.374550e-08	-4.013788e+01	-1.552687e+03
2.890000e-06	-5.723231e-06	-2.383668e-08	-4.089810e+01	-1.558203e+03
2.900000e-06	-5.827601e-06	-2.392531e-08	-4.164392e+01	-1.562963e+03
2.910000e-06	-5.929743e-06	-2.401012e-08	-4.237382e+01	-1.567363e+03
2.920000e-06	-6.029651e-06	-2.408993e-08	-4.308777e+01	-1.571792e+03
2.930000e-06	-6.127435e-06	-2.416615e-08	-4.378653e+01	-1.576517e+03
2.940000e-06	-6.223084e-06	-2.423949e-08	-4.447004e+01	-1.581618e+03
