# Temperatura_=_84.16
# Concentracion g/m^3_=_41000.0
# C_Vs_to_Am_M_A/Vsm_=_65563218390.804596
# pendiente_HvsI_1/m_=_3716.3
# ordenada_HvsI_A/m_=_1297.0
# frecuencia_Hz_=_302500.7050631665

Tiempo_(s)	Campo_(V.s)	Magnetizacion_(V.s)	Campo_(kA/m)	Magnetizacion_(A/m)
0.000000e+00	-7.947294e-06	-2.420656e-08	-5.687016e+01	-1.585803e+03
1.000000e-08	-7.945281e-06	-2.420726e-08	-5.685576e+01	-1.585324e+03
2.000000e-08	-7.940501e-06	-2.419884e-08	-5.682155e+01	-1.584385e+03
3.000000e-08	-7.933189e-06	-2.418592e-08	-5.676923e+01	-1.583158e+03
4.000000e-08	-7.923134e-06	-2.417420e-08	-5.669727e+01	-1.581868e+03
5.000000e-08	-7.910178e-06	-2.416093e-08	-5.660457e+01	-1.580720e+03
6.000000e-08	-7.894328e-06	-2.414429e-08	-5.649114e+01	-1.579835e+03
7.000000e-08	-7.875850e-06	-2.412311e-08	-5.635891e+01	-1.579213e+03
8.000000e-08	-7.855105e-06	-2.409703e-08	-5.621047e+01	-1.578733e+03
9.000000e-08	-7.831751e-06	-2.412806e-08	-5.604335e+01	-1.578199e+03
1.000000e-07	-7.805217e-06	-2.413701e-08	-5.585347e+01	-1.577400e+03
1.100000e-07	-7.775532e-06	-2.407529e-08	-5.564105e+01	-1.576183e+03
1.200000e-07	-7.743057e-06	-2.403476e-08	-5.540866e+01	-1.574503e+03
1.300000e-07	-7.707852e-06	-2.401612e-08	-5.515674e+01	-1.572436e+03
1.400000e-07	-7.670157e-06	-2.396390e-08	-5.488699e+01	-1.570161e+03
1.500000e-07	-7.630360e-06	-2.386848e-08	-5.460221e+01	-1.567897e+03
1.600000e-07	-7.588338e-06	-2.390318e-08	-5.430150e+01	-1.565830e+03
1.700000e-07	-7.543652e-06	-2.391754e-08	-5.398173e+01	-1.564057e+03
1.800000e-07	-7.496252e-06	-2.379312e-08	-5.364254e+01	-1.562543e+03
1.900000e-07	-7.446001e-06	-2.382538e-08	-5.328295e+01	-1.561130e+03
2.000000e-07	-7.392736e-06	-2.378320e-08	-5.290179e+01	-1.559580e+03
2.100000e-07	-7.336703e-06	-2.370807e-08	-5.250083e+01	-1.557650e+03
2.200000e-07	-7.278009e-06	-2.368993e-08	-5.208081e+01	-1.555159e+03
2.300000e-07	-7.216658e-06	-2.361044e-08	-5.164179e+01	-1.552053e+03
2.400000e-07	-7.152674e-06	-2.359741e-08	-5.118393e+01	-1.548412e+03
2.500000e-07	-7.085967e-06	-2.353113e-08	-5.070658e+01	-1.544435e+03
2.600000e-07	-7.016577e-06	-2.348791e-08	-5.021003e+01	-1.540372e+03
2.700000e-07	-6.944440e-06	-2.342611e-08	-4.969382e+01	-1.536450e+03
2.800000e-07	-6.869516e-06	-2.336497e-08	-4.915767e+01	-1.532803e+03
2.900000e-07	-6.791928e-06	-2.330951e-08	-4.860246e+01	-1.529424e+03
3.000000e-07	-6.711566e-06	-2.323068e-08	-4.802740e+01	-1.526173e+03
3.100000e-07	-6.628662e-06	-2.318588e-08	-4.743414e+01	-1.522818e+03
3.200000e-07	-6.543588e-06	-2.311690e-08	-4.682536e+01	-1.519106e+03
3.300000e-07	-6.456304e-06	-2.305875e-08	-4.620076e+01	-1.514846e+03
3.400000e-07	-6.366646e-06	-2.297569e-08	-4.555918e+01	-1.509968e+03
3.500000e-07	-6.274625e-06	-2.289438e-08	-4.490068e+01	-1.504543e+03
3.600000e-07	-6.180395e-06	-2.283016e-08	-4.422638e+01	-1.498768e+03
3.700000e-07	-6.083908e-06	-2.274674e-08	-4.353593e+01	-1.492897e+03
3.800000e-07	-5.985095e-06	-2.265927e-08	-4.282883e+01	-1.487160e+03
3.900000e-07	-5.884155e-06	-2.257599e-08	-4.210651e+01	-1.481691e+03
4.000000e-07	-5.781208e-06	-2.249381e-08	-4.136983e+01	-1.476477e+03
4.100000e-07	-5.676164e-06	-2.239493e-08	-4.061815e+01	-1.471363e+03
4.200000e-07	-5.569032e-06	-2.230166e-08	-3.985152e+01	-1.466091e+03
4.300000e-07	-5.459938e-06	-2.220743e-08	-3.907086e+01	-1.460384e+03
4.400000e-07	-5.348907e-06	-2.210619e-08	-3.827632e+01	-1.454033e+03
4.500000e-07	-5.235914e-06	-2.199845e-08	-3.746776e+01	-1.446959e+03
4.600000e-07	-5.120919e-06	-2.189122e-08	-3.664486e+01	-1.439246e+03
4.700000e-07	-5.003937e-06	-2.177886e-08	-3.580775e+01	-1.431110e+03
4.800000e-07	-4.885087e-06	-2.166298e-08	-3.495727e+01	-1.422834e+03
4.900000e-07	-4.764536e-06	-2.154629e-08	-3.409461e+01	-1.414673e+03
5.000000e-07	-4.642256e-06	-2.142689e-08	-3.321959e+01	-1.406764e+03
5.100000e-07	-4.518198e-06	-2.130019e-08	-3.233184e+01	-1.399082e+03
5.200000e-07	-4.392540e-06	-2.116335e-08	-3.143264e+01	-1.391430e+03
5.300000e-07	-4.265277e-06	-2.102292e-08	-3.052196e+01	-1.383496e+03
5.400000e-07	-4.136483e-06	-2.087412e-08	-2.960032e+01	-1.374949e+03
5.500000e-07	-4.006175e-06	-2.072429e-08	-2.866785e+01	-1.365538e+03
5.600000e-07	-3.874299e-06	-2.057217e-08	-2.772415e+01	-1.355171e+03
5.700000e-07	-3.740966e-06	-2.041692e-08	-2.677003e+01	-1.343953e+03
5.800000e-07	-3.606239e-06	-2.025042e-08	-2.580594e+01	-1.332147e+03
5.900000e-07	-3.470173e-06	-2.007904e-08	-2.483227e+01	-1.320094e+03
6.000000e-07	-3.332810e-06	-1.990304e-08	-2.384931e+01	-1.308095e+03
6.100000e-07	-3.194067e-06	-1.972018e-08	-2.285647e+01	-1.296302e+03
6.200000e-07	-3.053895e-06	-1.953018e-08	-2.185341e+01	-1.284652e+03
6.300000e-07	-2.912408e-06	-1.932899e-08	-2.084094e+01	-1.272865e+03
6.400000e-07	-2.769765e-06	-1.911840e-08	-1.982020e+01	-1.260513e+03
6.500000e-07	-2.626031e-06	-1.889640e-08	-1.879166e+01	-1.247139e+03
6.600000e-07	-2.481338e-06	-1.866784e-08	-1.775625e+01	-1.232397e+03
6.700000e-07	-2.335783e-06	-1.842811e-08	-1.671467e+01	-1.216154e+03
6.800000e-07	-2.189364e-06	-1.817828e-08	-1.566690e+01	-1.198539e+03
6.900000e-07	-2.042200e-06	-1.791661e-08	-1.461381e+01	-1.179896e+03
7.000000e-07	-1.894420e-06	-1.764075e-08	-1.355631e+01	-1.160665e+03
7.100000e-07	-1.746115e-06	-1.734910e-08	-1.249505e+01	-1.141222e+03
7.200000e-07	-1.597324e-06	-1.704015e-08	-1.143032e+01	-1.121713e+03
7.300000e-07	-1.448037e-06	-1.671691e-08	-1.036203e+01	-1.101956e+03
7.400000e-07	-1.298264e-06	-1.637429e-08	-9.290269e+00	-1.081433e+03
7.500000e-07	-1.148065e-06	-1.600992e-08	-8.215456e+00	-1.059390e+03
7.600000e-07	-9.974717e-07	-1.562142e-08	-7.137823e+00	-1.035017e+03
7.700000e-07	-8.465415e-07	-1.520767e-08	-6.057779e+00	-1.007657e+03
7.800000e-07	-6.952989e-07	-1.476126e-08	-4.975500e+00	-9.769837e+02
7.900000e-07	-5.437875e-07	-1.427695e-08	-3.891297e+00	-9.430606e+02
8.000000e-07	-3.920876e-07	-1.375071e-08	-2.805746e+00	-9.062641e+02
8.100000e-07	-2.402206e-07	-1.317780e-08	-1.718998e+00	-8.670531e+02
8.200000e-07	-8.824707e-08	-1.254917e-08	-6.314885e-01	-8.256382e+02
8.300000e-07	6.377714e-08	-1.185184e-08	4.563838e-01	-7.816318e+02
8.400000e-07	2.158325e-07	-1.107470e-08	1.544479e+00	-7.337846e+02
8.500000e-07	3.678442e-07	-1.020022e-08	2.632262e+00	-6.799039e+02
8.600000e-07	5.197370e-07	-9.209931e-09	3.719194e+00	-6.170184e+02
8.700000e-07	6.714383e-07	-8.072241e-09	4.804755e+00	-5.417957e+02
8.800000e-07	8.228787e-07	-6.742149e-09	5.888450e+00	-4.511548e+02
8.900000e-07	9.740376e-07	-5.161396e-09	6.970131e+00	-3.429635e+02
9.000000e-07	1.124886e-06	-3.264991e-09	8.049586e+00	-2.166724e+02
9.100000e-07	1.275379e-06	-1.046415e-09	9.126502e+00	-7.373864e+01
9.200000e-07	1.425499e-06	1.363552e-09	1.020075e+01	8.227178e+01
9.300000e-07	1.575181e-06	3.815428e-09	1.127186e+01	2.459541e+02
9.400000e-07	1.724352e-06	6.267828e-09	1.233932e+01	4.106784e+02
9.500000e-07	1.872940e-06	8.709296e-09	1.340260e+01	5.694447e+02
9.600000e-07	2.020823e-06	1.103443e-08	1.446084e+01	7.158212e+02
9.700000e-07	2.167923e-06	1.303068e-08	1.551347e+01	8.447912e+02
9.800000e-07	2.314175e-06	1.460297e-08	1.656004e+01	9.533491e+02
9.900000e-07	2.459505e-06	1.581737e-08	1.760001e+01	1.040741e+03
1.000000e-06	2.603830e-06	1.676077e-08	1.863279e+01	1.108324e+03
1.010000e-06	2.747160e-06	1.750486e-08	1.965844e+01	1.159085e+03
1.020000e-06	2.889492e-06	1.810501e-08	2.067696e+01	1.196953e+03
1.030000e-06	3.030758e-06	1.860041e-08	2.168785e+01	1.226032e+03
1.040000e-06	3.170854e-06	1.901859e-08	2.269036e+01	1.249939e+03
1.050000e-06	3.309595e-06	1.938025e-08	2.368318e+01	1.271339e+03
1.060000e-06	3.446948e-06	1.969780e-08	2.466607e+01	1.291764e+03
1.070000e-06	3.582939e-06	1.997888e-08	2.563921e+01	1.311695e+03
1.080000e-06	3.717614e-06	2.023043e-08	2.660293e+01	1.330853e+03
1.090000e-06	3.851061e-06	2.045890e-08	2.755786e+01	1.348599e+03
1.100000e-06	3.983170e-06	2.067040e-08	2.850323e+01	1.364315e+03
1.110000e-06	4.113795e-06	2.086708e-08	2.943797e+01	1.377691e+03
1.120000e-06	4.242922e-06	2.105041e-08	3.036199e+01	1.388851e+03
1.130000e-06	4.370544e-06	2.122235e-08	3.127524e+01	1.398310e+03
1.140000e-06	4.496676e-06	2.138306e-08	3.217783e+01	1.406810e+03
1.150000e-06	4.621355e-06	2.153428e-08	3.307002e+01	1.415095e+03
1.160000e-06	4.744453e-06	2.167773e-08	3.395090e+01	1.423707e+03
1.170000e-06	4.865789e-06	2.181292e-08	3.481918e+01	1.432854e+03
1.180000e-06	4.985386e-06	2.193978e-08	3.567500e+01	1.442394e+03
1.190000e-06	5.103252e-06	2.206104e-08	3.651843e+01	1.451923e+03
1.200000e-06	5.219147e-06	2.217778e-08	3.734777e+01	1.460930e+03
1.210000e-06	5.332931e-06	2.229000e-08	3.816200e+01	1.468980e+03
1.220000e-06	5.444692e-06	2.239483e-08	3.896175e+01	1.475843e+03
1.230000e-06	5.554595e-06	2.249391e-08	3.974821e+01	1.481568e+03
1.240000e-06	5.662614e-06	2.258758e-08	4.052119e+01	1.486451e+03
1.250000e-06	5.768561e-06	2.267598e-08	4.127933e+01	1.490936e+03
1.260000e-06	5.872312e-06	2.275882e-08	4.202177e+01	1.495475e+03
1.270000e-06	5.973887e-06	2.283791e-08	4.274863e+01	1.500398e+03
1.280000e-06	6.073312e-06	2.291529e-08	4.346010e+01	1.505817e+03
1.290000e-06	6.170419e-06	2.299070e-08	4.415500e+01	1.511617e+03
1.300000e-06	6.265174e-06	2.306439e-08	4.483305e+01	1.517507e+03
1.310000e-06	6.357710e-06	2.313486e-08	4.549524e+01	1.523122e+03
1.320000e-06	6.447934e-06	2.320189e-08	4.614087e+01	1.528148e+03
1.330000e-06	6.535819e-06	2.326672e-08	4.676976e+01	1.532416e+03
1.340000e-06	6.621516e-06	2.332974e-08	4.738301e+01	1.535954e+03
1.350000e-06	6.704934e-06	2.338996e-08	4.797993e+01	1.538967e+03
1.360000e-06	6.785875e-06	2.344891e-08	4.855915e+01	1.541767e+03
1.370000e-06	6.864286e-06	2.350613e-08	4.912024e+01	1.544668e+03
1.380000e-06	6.940135e-06	2.355928e-08	4.966302e+01	1.547893e+03
1.390000e-06	7.013325e-06	2.360841e-08	5.018676e+01	1.551503e+03
1.400000e-06	7.083993e-06	2.365533e-08	5.069245e+01	1.555383e+03
1.410000e-06	7.152241e-06	2.370173e-08	5.118083e+01	1.559288e+03
1.420000e-06	7.217852e-06	2.374693e-08	5.165034e+01	1.562921e+03
1.430000e-06	7.280870e-06	2.379003e-08	5.210129e+01	1.566032e+03
1.440000e-06	7.341517e-06	2.382798e-08	5.253527e+01	1.568489e+03
1.450000e-06	7.399634e-06	2.386375e-08	5.295115e+01	1.570325e+03
1.460000e-06	7.455081e-06	2.390029e-08	5.334793e+01	1.571716e+03
1.470000e-06	7.507689e-06	2.393471e-08	5.372439e+01	1.572927e+03
1.480000e-06	7.557191e-06	2.396557e-08	5.407862e+01	1.574223e+03
1.490000e-06	7.603798e-06	2.399291e-08	5.441213e+01	1.575790e+03
1.500000e-06	7.647786e-06	2.401684e-08	5.472691e+01	1.577678e+03
1.510000e-06	7.688982e-06	2.403687e-08	5.502170e+01	1.579787e+03
1.520000e-06	7.727347e-06	2.405571e-08	5.529624e+01	1.581905e+03
1.530000e-06	7.763132e-06	2.407535e-08	5.555232e+01	1.583778e+03
1.540000e-06	7.796183e-06	2.409440e-08	5.578882e+01	1.585191e+03
1.550000e-06	7.826414e-06	2.411220e-08	5.600515e+01	1.586038e+03
1.560000e-06	7.853929e-06	2.412798e-08	5.620205e+01	1.586354e+03
1.570000e-06	7.878557e-06	2.414089e-08	5.637829e+01	1.586304e+03
1.580000e-06	7.900318e-06	2.415064e-08	5.653400e+01	1.586128e+03
1.590000e-06	7.919347e-06	2.415730e-08	5.667017e+01	1.586068e+03
1.600000e-06	7.935499e-06	2.416174e-08	5.678576e+01	1.586293e+03
1.610000e-06	7.948607e-06	2.416576e-08	5.687956e+01	1.586846e+03
1.620000e-06	7.958623e-06	2.416962e-08	5.695123e+01	1.587632e+03
1.630000e-06	7.965628e-06	2.417347e-08	5.700136e+01	1.588453e+03
1.640000e-06	7.969839e-06	2.417764e-08	5.703149e+01	1.589070e+03
1.650000e-06	7.971238e-06	2.418221e-08	5.704150e+01	1.589277e+03
1.660000e-06	7.969869e-06	2.417945e-08	5.703171e+01	1.588967e+03
1.670000e-06	7.965885e-06	2.417271e-08	5.700320e+01	1.588161e+03
1.680000e-06	7.959190e-06	2.416752e-08	5.695529e+01	1.587003e+03
1.690000e-06	7.949835e-06	2.415911e-08	5.688835e+01	1.585708e+03
1.700000e-06	7.937777e-06	2.414774e-08	5.680206e+01	1.584496e+03
1.710000e-06	7.922905e-06	2.413965e-08	5.669564e+01	1.583521e+03
1.720000e-06	7.905534e-06	2.413898e-08	5.657133e+01	1.582822e+03
1.730000e-06	7.885917e-06	2.412423e-08	5.643095e+01	1.582315e+03
1.740000e-06	7.863735e-06	2.403352e-08	5.627222e+01	1.581822e+03
1.750000e-06	7.838270e-06	2.401959e-08	5.609000e+01	1.581129e+03
1.760000e-06	7.809079e-06	2.404100e-08	5.588110e+01	1.580057e+03
1.770000e-06	7.776572e-06	2.400863e-08	5.564849e+01	1.578523e+03
1.780000e-06	7.741626e-06	2.398779e-08	5.539842e+01	1.576565e+03
1.790000e-06	7.704467e-06	2.405195e-08	5.513251e+01	1.574334e+03
1.800000e-06	7.665163e-06	2.398759e-08	5.485125e+01	1.572042e+03
1.810000e-06	7.623789e-06	2.390164e-08	5.455518e+01	1.569896e+03
1.820000e-06	7.579864e-06	2.398410e-08	5.424087e+01	1.568026e+03
1.830000e-06	7.533275e-06	2.386928e-08	5.390747e+01	1.566441e+03
1.840000e-06	7.483978e-06	2.390015e-08	5.355471e+01	1.565018e+03
1.850000e-06	7.431673e-06	2.387812e-08	5.318042e+01	1.563540e+03
1.860000e-06	7.376478e-06	2.378483e-08	5.278545e+01	1.561756e+03
1.870000e-06	7.318560e-06	2.382925e-08	5.237100e+01	1.559458e+03
1.880000e-06	7.258084e-06	2.370296e-08	5.193823e+01	1.556547e+03
1.890000e-06	7.194911e-06	2.371052e-08	5.148617e+01	1.553061e+03
1.900000e-06	7.128905e-06	2.365927e-08	5.101384e+01	1.549165e+03
1.910000e-06	7.060221e-06	2.357872e-08	5.052234e+01	1.545102e+03
1.920000e-06	6.988695e-06	2.357375e-08	5.001051e+01	1.541115e+03
1.930000e-06	6.914417e-06	2.348290e-08	4.947898e+01	1.537373e+03
1.940000e-06	6.837460e-06	2.347235e-08	4.892829e+01	1.533917e+03
1.950000e-06	6.757835e-06	2.337730e-08	4.835849e+01	1.530647e+03
1.960000e-06	6.675755e-06	2.331589e-08	4.777114e+01	1.527354e+03
1.970000e-06	6.591189e-06	2.325799e-08	4.716599e+01	1.523782e+03
1.980000e-06	6.504126e-06	2.317928e-08	4.654297e+01	1.519713e+03
1.990000e-06	6.414689e-06	2.313904e-08	4.590297e+01	1.515032e+03
2.000000e-06	6.323052e-06	2.304268e-08	4.524722e+01	1.509766e+03
2.010000e-06	6.229146e-06	2.299173e-08	4.457524e+01	1.504077e+03
2.020000e-06	6.132968e-06	2.290342e-08	4.388700e+01	1.498209e+03
2.030000e-06	6.034708e-06	2.282190e-08	4.318386e+01	1.492408e+03
2.040000e-06	5.934368e-06	2.273525e-08	4.246583e+01	1.486847e+03
2.050000e-06	5.831821e-06	2.265697e-08	4.173201e+01	1.481562e+03
2.060000e-06	5.727133e-06	2.257209e-08	4.098288e+01	1.476440e+03
2.070000e-06	5.620560e-06	2.247068e-08	4.022025e+01	1.471249e+03
2.080000e-06	5.512069e-06	2.238618e-08	3.944390e+01	1.465710e+03
2.090000e-06	5.401586e-06	2.228715e-08	3.865329e+01	1.459582e+03
2.100000e-06	5.289082e-06	2.219191e-08	3.784822e+01	1.452739e+03
2.110000e-06	5.174578e-06	2.208189e-08	3.702884e+01	1.445213e+03
2.120000e-06	5.058094e-06	2.198175e-08	3.619529e+01	1.437183e+03
2.130000e-06	4.939624e-06	2.186472e-08	3.534753e+01	1.428921e+03
2.140000e-06	4.819277e-06	2.174435e-08	3.448634e+01	1.420701e+03
2.150000e-06	4.697222e-06	2.162026e-08	3.361292e+01	1.412705e+03
2.160000e-06	4.573512e-06	2.149783e-08	3.272766e+01	1.404964e+03
2.170000e-06	4.448113e-06	2.137446e-08	3.183032e+01	1.397332e+03
2.180000e-06	4.321027e-06	2.124686e-08	3.092090e+01	1.389526e+03
2.190000e-06	4.192365e-06	2.111633e-08	3.000021e+01	1.381210e+03
2.200000e-06	4.062233e-06	2.097434e-08	2.906899e+01	1.372095e+03
2.210000e-06	3.930541e-06	2.082633e-08	2.812661e+01	1.362033e+03
2.220000e-06	3.797373e-06	2.067038e-08	2.717368e+01	1.351066e+03
2.230000e-06	3.662763e-06	2.051060e-08	2.621042e+01	1.339413e+03
2.240000e-06	3.526743e-06	2.034103e-08	2.523708e+01	1.327403e+03
2.250000e-06	3.389437e-06	2.016882e-08	2.425452e+01	1.315360e+03
2.260000e-06	3.250848e-06	1.998901e-08	2.326279e+01	1.303497e+03
2.270000e-06	3.111024e-06	1.980403e-08	2.226222e+01	1.291822e+03
2.280000e-06	2.969965e-06	1.961221e-08	2.125282e+01	1.280121e+03
2.290000e-06	2.827670e-06	1.941236e-08	2.023457e+01	1.268001e+03
2.300000e-06	2.684255e-06	1.920273e-08	1.920830e+01	1.255002e+03
2.310000e-06	2.539917e-06	1.898098e-08	1.817543e+01	1.240725e+03
2.320000e-06	2.394715e-06	1.874822e-08	1.713638e+01	1.224963e+03
2.330000e-06	2.248723e-06	1.850345e-08	1.609167e+01	1.207760e+03
2.340000e-06	2.102010e-06	1.824772e-08	1.504181e+01	1.189401e+03
2.350000e-06	1.954592e-06	1.797954e-08	1.398690e+01	1.170312e+03
2.360000e-06	1.806542e-06	1.769767e-08	1.292746e+01	1.150907e+03
2.370000e-06	1.657940e-06	1.740122e-08	1.186408e+01	1.131421e+03
2.380000e-06	1.508869e-06	1.708846e-08	1.079734e+01	1.111785e+03
2.390000e-06	1.359311e-06	1.675770e-08	9.727113e+00	1.091583e+03
2.400000e-06	1.209303e-06	1.640396e-08	8.653673e+00	1.070119e+03
2.410000e-06	1.058805e-06	1.602695e-08	7.576716e+00	1.046577e+03
2.420000e-06	9.078215e-07	1.562522e-08	6.496293e+00	1.020231e+03
2.430000e-06	7.565899e-07	1.519181e-08	5.414093e+00	9.906345e+02
2.440000e-06	6.051594e-07	1.472178e-08	4.330470e+00	9.577265e+02
2.450000e-06	4.534803e-07	1.420815e-08	3.245067e+00	9.218014e+02
2.460000e-06	3.016285e-07	1.364782e-08	2.158428e+00	8.833243e+02
2.470000e-06	1.496256e-07	1.303475e-08	1.070708e+00	8.426246e+02
2.480000e-06	-2.483939e-09	1.236186e-08	-1.777486e-02	7.995423e+02
2.490000e-06	-1.545820e-07	1.161782e-08	-1.106176e+00	7.531242e+02
2.500000e-06	-3.066385e-07	1.078393e-08	-2.194279e+00	7.014755e+02
2.510000e-06	-4.586407e-07	9.840300e-09	-3.281994e+00	6.418414e+02
2.520000e-06	-6.105366e-07	8.758720e-09	-4.368948e+00	5.709460e+02
2.530000e-06	-7.622189e-07	7.500724e-09	-5.454373e+00	4.855530e+02
2.540000e-06	-9.136635e-07	6.015889e-09	-6.538098e+00	3.831499e+02
2.550000e-06	-1.064838e-06	4.239247e-09	-7.619893e+00	2.626194e+02
2.560000e-06	-1.215550e-06	2.119192e-09	-8.698370e+00	1.247454e+02
2.570000e-06	-1.365759e-06	-2.758055e-10	-9.773258e+00	-2.757240e+01
2.580000e-06	-1.515489e-06	-2.776721e-09	-1.084471e+01	-1.894685e+02
2.590000e-06	-1.664621e-06	-5.291275e-09	-1.191189e+01	-3.546225e+02
2.600000e-06	-1.813112e-06	-7.805316e-09	-1.297448e+01	-5.160513e+02
2.610000e-06	-1.960891e-06	-1.024641e-08	-1.403197e+01	-6.670403e+02
2.620000e-06	-2.107884e-06	-1.241239e-08	-1.508384e+01	-8.020383e+02
2.630000e-06	-2.254178e-06	-1.415563e-08	-1.613071e+01	-9.173483e+02
2.640000e-06	-2.399680e-06	-1.550700e-08	-1.717191e+01	-1.011490e+03
2.650000e-06	-2.544298e-06	-1.655423e-08	-1.820678e+01	-1.085180e+03
2.660000e-06	-2.688054e-06	-1.737664e-08	-1.923548e+01	-1.140950e+03
2.670000e-06	-2.830708e-06	-1.803339e-08	-2.025630e+01	-1.182508e+03
2.680000e-06	-2.972089e-06	-1.856801e-08	-2.126802e+01	-1.213982e+03
2.690000e-06	-3.112191e-06	-1.901088e-08	-2.227057e+01	-1.239209e+03
2.700000e-06	-3.251062e-06	-1.938664e-08	-2.326433e+01	-1.261193e+03
2.710000e-06	-3.388796e-06	-1.971446e-08	-2.424993e+01	-1.281833e+03
2.720000e-06	-3.525334e-06	-2.000714e-08	-2.522699e+01	-1.301924e+03
2.730000e-06	-3.660502e-06	-2.027100e-08	-2.619424e+01	-1.321392e+03
2.740000e-06	-3.794291e-06	-2.051186e-08	-2.715162e+01	-1.339667e+03
2.750000e-06	-3.926708e-06	-2.073370e-08	-2.809919e+01	-1.356088e+03
2.760000e-06	-4.057739e-06	-2.093640e-08	-2.903684e+01	-1.370225e+03
2.770000e-06	-4.187427e-06	-2.112116e-08	-2.996487e+01	-1.382057e+03
2.780000e-06	-4.315694e-06	-2.129195e-08	-3.088274e+01	-1.391989e+03
2.790000e-06	-4.442449e-06	-2.145285e-08	-3.178979e+01	-1.400711e+03
2.800000e-06	-4.567642e-06	-2.160538e-08	-3.268566e+01	-1.408993e+03
2.810000e-06	-4.691304e-06	-2.175019e-08	-3.357058e+01	-1.417460e+03
2.820000e-06	-4.813350e-06	-2.188624e-08	-3.444392e+01	-1.426435e+03
2.830000e-06	-4.933640e-06	-2.201487e-08	-3.530471e+01	-1.435883e+03
2.840000e-06	-5.051986e-06	-2.213772e-08	-3.615158e+01	-1.445469e+03
2.850000e-06	-5.168237e-06	-2.225521e-08	-3.698346e+01	-1.454699e+03
2.860000e-06	-5.282430e-06	-2.236798e-08	-3.780062e+01	-1.463093e+03
2.870000e-06	-5.394530e-06	-2.247326e-08	-3.860280e+01	-1.470346e+03
2.880000e-06	-5.504537e-06	-2.257009e-08	-3.939000e+01	-1.476415e+03
2.890000e-06	-5.612601e-06	-2.266133e-08	-4.016329e+01	-1.481525e+03
2.900000e-06	-5.718799e-06	-2.274971e-08	-4.092324e+01	-1.486086e+03
2.910000e-06	-5.822981e-06	-2.283655e-08	-4.166876e+01	-1.490564e+03
2.920000e-06	-5.924881e-06	-2.291901e-08	-4.239795e+01	-1.495340e+03
2.930000e-06	-6.024531e-06	-2.299785e-08	-4.311103e+01	-1.500601e+03
2.940000e-06	-6.122125e-06	-2.307401e-08	-4.380941e+01	-1.506305e+03
