# Temperatura_=_39.76
# Concentracion g/m^3_=_41000.0
# C_Vs_to_Am_M_A/Vsm_=_65563218390.804596
# pendiente_HvsI_1/m_=_3716.3
# ordenada_HvsI_A/m_=_1297.0
# frecuencia_Hz_=_302502.8554167252

Tiempo_(s)	Campo_(V.s)	Magnetizacion_(V.s)	Campo_(kA/m)	Magnetizacion_(A/m)
0.000000e+00	-8.005089e-06	-2.499984e-08	-5.687000e+01	-1.637385e+03
1.000000e-08	-8.003018e-06	-2.500246e-08	-5.685529e+01	-1.637482e+03
2.000000e-08	-7.998283e-06	-2.499329e-08	-5.682165e+01	-1.637128e+03
3.000000e-08	-7.991008e-06	-2.498125e-08	-5.676997e+01	-1.636322e+03
4.000000e-08	-7.980927e-06	-2.497257e-08	-5.669835e+01	-1.635172e+03
5.000000e-08	-7.967936e-06	-2.496059e-08	-5.660606e+01	-1.633863e+03
6.000000e-08	-7.952036e-06	-2.494350e-08	-5.649310e+01	-1.632596e+03
7.000000e-08	-7.933514e-06	-2.492280e-08	-5.636152e+01	-1.631527e+03
8.000000e-08	-7.912711e-06	-2.490118e-08	-5.621373e+01	-1.630724e+03
9.000000e-08	-7.889269e-06	-2.494713e-08	-5.604719e+01	-1.630142e+03
1.000000e-07	-7.862641e-06	-2.494565e-08	-5.585802e+01	-1.629648e+03
1.100000e-07	-7.832810e-06	-2.487337e-08	-5.564609e+01	-1.629061e+03
1.200000e-07	-7.800107e-06	-2.484955e-08	-5.541376e+01	-1.628217e+03
1.300000e-07	-7.764686e-06	-2.483814e-08	-5.516213e+01	-1.627015e+03
1.400000e-07	-7.726806e-06	-2.477868e-08	-5.489301e+01	-1.625455e+03
1.500000e-07	-7.686698e-06	-2.467869e-08	-5.460808e+01	-1.623630e+03
1.600000e-07	-7.644273e-06	-2.474166e-08	-5.430668e+01	-1.621696e+03
1.700000e-07	-7.599251e-06	-2.476493e-08	-5.398684e+01	-1.619816e+03
1.800000e-07	-7.551518e-06	-2.462752e-08	-5.364772e+01	-1.618104e+03
1.900000e-07	-7.500944e-06	-2.469802e-08	-5.328844e+01	-1.616582e+03
2.000000e-07	-7.447366e-06	-2.464755e-08	-5.290781e+01	-1.615167e+03
2.100000e-07	-7.390961e-06	-2.456540e-08	-5.250709e+01	-1.613695e+03
2.200000e-07	-7.331893e-06	-2.458243e-08	-5.208746e+01	-1.611970e+03
2.300000e-07	-7.270196e-06	-2.451510e-08	-5.164915e+01	-1.609822e+03
2.400000e-07	-7.205809e-06	-2.449288e-08	-5.119173e+01	-1.607167e+03
2.500000e-07	-7.138695e-06	-2.440065e-08	-5.071494e+01	-1.604031e+03
2.600000e-07	-7.068912e-06	-2.439340e-08	-5.021918e+01	-1.600544e+03
2.700000e-07	-6.996346e-06	-2.434731e-08	-4.970366e+01	-1.596906e+03
2.800000e-07	-6.920947e-06	-2.427830e-08	-4.916800e+01	-1.593321e+03
2.900000e-07	-6.842791e-06	-2.422701e-08	-4.861277e+01	-1.589935e+03
3.000000e-07	-6.761903e-06	-2.416822e-08	-4.803812e+01	-1.586788e+03
3.100000e-07	-6.678548e-06	-2.413264e-08	-4.744595e+01	-1.583802e+03
3.200000e-07	-6.592948e-06	-2.404717e-08	-4.683782e+01	-1.580802e+03
3.300000e-07	-6.505034e-06	-2.402227e-08	-4.621326e+01	-1.577567e+03
3.400000e-07	-6.414683e-06	-2.397250e-08	-4.557139e+01	-1.573902e+03
3.500000e-07	-6.321957e-06	-2.388313e-08	-4.491264e+01	-1.569697e+03
3.600000e-07	-6.226973e-06	-2.380668e-08	-4.423785e+01	-1.564960e+03
3.700000e-07	-6.129690e-06	-2.374790e-08	-4.354673e+01	-1.559818e+03
3.800000e-07	-6.030186e-06	-2.368356e-08	-4.283983e+01	-1.554470e+03
3.900000e-07	-5.928577e-06	-2.360568e-08	-4.211798e+01	-1.549131e+03
4.000000e-07	-5.824855e-06	-2.354142e-08	-4.138111e+01	-1.543952e+03
4.100000e-07	-5.719067e-06	-2.345309e-08	-4.062957e+01	-1.538975e+03
4.200000e-07	-5.611297e-06	-2.335632e-08	-3.986395e+01	-1.534112e+03
4.300000e-07	-5.501590e-06	-2.326391e-08	-3.908456e+01	-1.529169e+03
4.400000e-07	-5.389858e-06	-2.318125e-08	-3.829079e+01	-1.523903e+03
4.500000e-07	-5.275978e-06	-2.308455e-08	-3.748176e+01	-1.518096e+03
4.600000e-07	-5.160089e-06	-2.298469e-08	-3.665846e+01	-1.511627e+03
4.700000e-07	-5.042314e-06	-2.288183e-08	-3.582177e+01	-1.504506e+03
4.800000e-07	-4.922665e-06	-2.277135e-08	-3.497175e+01	-1.496875e+03
4.900000e-07	-4.801185e-06	-2.265606e-08	-3.410872e+01	-1.488962e+03
5.000000e-07	-4.677928e-06	-2.254853e-08	-3.323308e+01	-1.481003e+03
5.100000e-07	-4.552986e-06	-2.244302e-08	-3.234547e+01	-1.473168e+03
5.200000e-07	-4.426447e-06	-2.231688e-08	-3.144650e+01	-1.465493e+03
5.300000e-07	-4.298329e-06	-2.218102e-08	-3.053632e+01	-1.457862e+03
5.400000e-07	-4.168590e-06	-2.204061e-08	-2.961462e+01	-1.450033e+03
5.500000e-07	-4.037286e-06	-2.190152e-08	-2.868181e+01	-1.441707e+03
5.600000e-07	-3.904485e-06	-2.175195e-08	-2.773837e+01	-1.432617e+03
5.700000e-07	-3.770232e-06	-2.160309e-08	-2.678460e+01	-1.422608e+03
5.800000e-07	-3.634519e-06	-2.144709e-08	-2.582046e+01	-1.411691e+03
5.900000e-07	-3.497332e-06	-2.128226e-08	-2.484586e+01	-1.400033e+03
6.000000e-07	-3.358757e-06	-2.110703e-08	-2.386138e+01	-1.387908e+03
6.100000e-07	-3.218874e-06	-2.092545e-08	-2.286762e+01	-1.375600e+03
6.200000e-07	-3.077654e-06	-2.074027e-08	-2.186437e+01	-1.363306e+03
6.300000e-07	-2.935053e-06	-2.054438e-08	-2.085129e+01	-1.351052e+03
6.400000e-07	-2.791258e-06	-2.033973e-08	-1.982974e+01	-1.338670e+03
6.500000e-07	-2.646488e-06	-2.012056e-08	-1.880126e+01	-1.325829e+03
6.600000e-07	-2.500832e-06	-1.989307e-08	-1.776649e+01	-1.312120e+03
6.700000e-07	-2.354313e-06	-1.965421e-08	-1.672558e+01	-1.297179e+03
6.800000e-07	-2.207004e-06	-1.940579e-08	-1.567907e+01	-1.280787e+03
6.900000e-07	-2.058972e-06	-1.914594e-08	-1.462742e+01	-1.262946e+03
7.000000e-07	-1.910300e-06	-1.887622e-08	-1.357121e+01	-1.243864e+03
7.100000e-07	-1.761063e-06	-1.859227e-08	-1.251100e+01	-1.223888e+03
7.200000e-07	-1.611282e-06	-1.828804e-08	-1.144692e+01	-1.203366e+03
7.300000e-07	-1.460944e-06	-1.796748e-08	-1.037889e+01	-1.182504e+03
7.400000e-07	-1.310054e-06	-1.762631e-08	-9.306925e+00	-1.161250e+03
7.500000e-07	-1.158682e-06	-1.726567e-08	-8.231542e+00	-1.139249e+03
7.600000e-07	-1.006902e-06	-1.688395e-08	-7.153264e+00	-1.115889e+03
7.700000e-07	-8.547893e-07	-1.648151e-08	-6.072621e+00	-1.090436e+03
7.800000e-07	-7.023980e-07	-1.604823e-08	-4.989997e+00	-1.062211e+03
7.900000e-07	-5.498022e-07	-1.557826e-08	-3.905922e+00	-1.030771e+03
8.000000e-07	-3.969980e-07	-1.507055e-08	-2.820365e+00	-9.960038e+02
8.100000e-07	-2.440418e-07	-1.452374e-08	-1.733729e+00	-9.581197e+02
8.200000e-07	-9.101844e-08	-1.393237e-08	-6.466160e-01	-9.174995e+02
8.300000e-07	6.210268e-08	-1.328583e-08	4.411918e-01	-8.744302e+02
8.400000e-07	2.152612e-07	-1.257632e-08	1.529265e+00	-8.287884e+02
8.500000e-07	3.683514e-07	-1.178979e-08	2.616853e+00	-7.797570e+02
8.600000e-07	5.213628e-07	-1.091656e-08	3.703882e+00	-7.256704e+02
8.700000e-07	6.742635e-07	-9.940667e-09	4.790124e+00	-6.640590e+02
8.800000e-07	8.269293e-07	-8.836605e-09	5.874697e+00	-5.919263e+02
8.900000e-07	9.792984e-07	-7.564558e-09	6.957162e+00	-5.062344e+02
9.000000e-07	1.131415e-06	-6.076230e-09	8.037832e+00	-4.045173e+02
9.100000e-07	1.283185e-06	-4.309413e-09	9.116040e+00	-2.855048e+02
9.200000e-07	1.434458e-06	-2.216742e-09	1.019072e+01	-1.496182e+02
9.300000e-07	1.585148e-06	1.284861e-10	1.126126e+01	7.800729e-01
9.400000e-07	1.735202e-06	2.570822e-09	1.232727e+01	1.614603e+02
9.500000e-07	1.884671e-06	5.022302e-09	1.338914e+01	3.267310e+02
9.600000e-07	2.033528e-06	7.471189e-09	1.444665e+01	4.901187e+02
9.700000e-07	2.181658e-06	9.885312e-09	1.549900e+01	6.452015e+02
9.800000e-07	2.329016e-06	1.211001e-08	1.654587e+01	7.864432e+02
9.900000e-07	2.475486e-06	1.397346e-08	1.758643e+01	9.098742e+02
1.000000e-06	2.620944e-06	1.546273e-08	1.861979e+01	1.013496e+03
1.010000e-06	2.765405e-06	1.664734e-08	1.964607e+01	1.097349e+03
1.020000e-06	2.908827e-06	1.759816e-08	2.066498e+01	1.163242e+03
1.030000e-06	3.051149e-06	1.837153e-08	2.167607e+01	1.214232e+03
1.040000e-06	3.192284e-06	1.900934e-08	2.267872e+01	1.253961e+03
1.050000e-06	3.332086e-06	1.954516e-08	2.367191e+01	1.286001e+03
1.060000e-06	3.470533e-06	1.999965e-08	2.465547e+01	1.313324e+03
1.070000e-06	3.607643e-06	2.038978e-08	2.562953e+01	1.337991e+03
1.080000e-06	3.743401e-06	2.073233e-08	2.659399e+01	1.361088e+03
1.090000e-06	3.877832e-06	2.103594e-08	2.754901e+01	1.382875e+03
1.100000e-06	4.010921e-06	2.130876e-08	2.849451e+01	1.403085e+03
1.110000e-06	4.142576e-06	2.155793e-08	2.942981e+01	1.421270e+03
1.120000e-06	4.272701e-06	2.178446e-08	3.035426e+01	1.437096e+03
1.130000e-06	4.401296e-06	2.199005e-08	3.126782e+01	1.450538e+03
1.140000e-06	4.528313e-06	2.217865e-08	3.217018e+01	1.461919e+03
1.150000e-06	4.653800e-06	2.235327e-08	3.306167e+01	1.471828e+03
1.160000e-06	4.777796e-06	2.251646e-08	3.394257e+01	1.480950e+03
1.170000e-06	4.900129e-06	2.266879e-08	3.481165e+01	1.489881e+03
1.180000e-06	5.020650e-06	2.280986e-08	3.566786e+01	1.498978e+03
1.190000e-06	5.139345e-06	2.294332e-08	3.651109e+01	1.508297e+03
1.200000e-06	5.256136e-06	2.306938e-08	3.734080e+01	1.517620e+03
1.210000e-06	5.370841e-06	2.319040e-08	3.815569e+01	1.526566e+03
1.220000e-06	5.483390e-06	2.330200e-08	3.895527e+01	1.534738e+03
1.230000e-06	5.593934e-06	2.340490e-08	3.974060e+01	1.541861e+03
1.240000e-06	5.702650e-06	2.349989e-08	4.051294e+01	1.547873e+03
1.250000e-06	5.809367e-06	2.358849e-08	4.127109e+01	1.552940e+03
1.260000e-06	5.913821e-06	2.367242e-08	4.201315e+01	1.557403e+03
1.270000e-06	6.016098e-06	2.375236e-08	4.273975e+01	1.561669e+03
1.280000e-06	6.116240e-06	2.383069e-08	4.345118e+01	1.566089e+03
1.290000e-06	6.214052e-06	2.390630e-08	4.414606e+01	1.570862e+03
1.300000e-06	6.309535e-06	2.397834e-08	4.482439e+01	1.575991e+03
1.310000e-06	6.402816e-06	2.404574e-08	4.548708e+01	1.581293e+03
1.320000e-06	6.493800e-06	2.410988e-08	4.613346e+01	1.586476e+03
1.330000e-06	6.582378e-06	2.417010e-08	4.676273e+01	1.591236e+03
1.340000e-06	6.668622e-06	2.422738e-08	4.737543e+01	1.595359e+03
1.350000e-06	6.752635e-06	2.428147e-08	4.797228e+01	1.598781e+03
1.360000e-06	6.834251e-06	2.433452e-08	4.855210e+01	1.601603e+03
1.370000e-06	6.913325e-06	2.438734e-08	4.911386e+01	1.604054e+03
1.380000e-06	6.989843e-06	2.443742e-08	4.965746e+01	1.606415e+03
1.390000e-06	7.063638e-06	2.448295e-08	5.018171e+01	1.608926e+03
1.400000e-06	7.134813e-06	2.452442e-08	5.068736e+01	1.611714e+03
1.410000e-06	7.203540e-06	2.456454e-08	5.117561e+01	1.614762e+03
1.420000e-06	7.269681e-06	2.460224e-08	5.164549e+01	1.617916e+03
1.430000e-06	7.333218e-06	2.463733e-08	5.209687e+01	1.620943e+03
1.440000e-06	7.394334e-06	2.466921e-08	5.253106e+01	1.623607e+03
1.450000e-06	7.452898e-06	2.469830e-08	5.294711e+01	1.625747e+03
1.460000e-06	7.508748e-06	2.472634e-08	5.334388e+01	1.627329e+03
1.470000e-06	7.561780e-06	2.475434e-08	5.372063e+01	1.628450e+03
1.480000e-06	7.611715e-06	2.478176e-08	5.407538e+01	1.629312e+03
1.490000e-06	7.658660e-06	2.480709e-08	5.440889e+01	1.630152e+03
1.500000e-06	7.702975e-06	2.482909e-08	5.472371e+01	1.631171e+03
1.510000e-06	7.744568e-06	2.484775e-08	5.501920e+01	1.632470e+03
1.520000e-06	7.783319e-06	2.486509e-08	5.529450e+01	1.634023e+03
1.530000e-06	7.819399e-06	2.488107e-08	5.555082e+01	1.635688e+03
1.540000e-06	7.852697e-06	2.489584e-08	5.578737e+01	1.637253e+03
1.550000e-06	7.883177e-06	2.490940e-08	5.600391e+01	1.638511e+03
1.560000e-06	7.910959e-06	2.492159e-08	5.620128e+01	1.639317e+03
1.570000e-06	7.935796e-06	2.493291e-08	5.637773e+01	1.639642e+03
1.580000e-06	7.957703e-06	2.494320e-08	5.653336e+01	1.639576e+03
1.590000e-06	7.976858e-06	2.495239e-08	5.666944e+01	1.639303e+03
1.600000e-06	7.993122e-06	2.495924e-08	5.678498e+01	1.639039e+03
1.610000e-06	8.006363e-06	2.496451e-08	5.687905e+01	1.638966e+03
1.620000e-06	8.016455e-06	2.496803e-08	5.695075e+01	1.639176e+03
1.630000e-06	8.023535e-06	2.496988e-08	5.700105e+01	1.639642e+03
1.640000e-06	8.027814e-06	2.497217e-08	5.703145e+01	1.640229e+03
1.650000e-06	8.029229e-06	2.497679e-08	5.704150e+01	1.640736e+03
1.660000e-06	8.027866e-06	2.497322e-08	5.703181e+01	1.640960e+03
1.670000e-06	8.023914e-06	2.496669e-08	5.700374e+01	1.640758e+03
1.680000e-06	8.017255e-06	2.496359e-08	5.695643e+01	1.640091e+03
1.690000e-06	8.007858e-06	2.495640e-08	5.688967e+01	1.639035e+03
1.700000e-06	7.995735e-06	2.494683e-08	5.680355e+01	1.637755e+03
1.710000e-06	7.980820e-06	2.494119e-08	5.669759e+01	1.636455e+03
1.720000e-06	7.963367e-06	2.494198e-08	5.657360e+01	1.635311e+03
1.730000e-06	7.943620e-06	2.492554e-08	5.643331e+01	1.634423e+03
1.740000e-06	7.921267e-06	2.482952e-08	5.627451e+01	1.633782e+03
1.750000e-06	7.895593e-06	2.484090e-08	5.609212e+01	1.633279e+03
1.760000e-06	7.866196e-06	2.486414e-08	5.588327e+01	1.632743e+03
1.770000e-06	7.833538e-06	2.481693e-08	5.565126e+01	1.631997e+03
1.780000e-06	7.798451e-06	2.480487e-08	5.540199e+01	1.630917e+03
1.790000e-06	7.761046e-06	2.490419e-08	5.513626e+01	1.629466e+03
1.800000e-06	7.721461e-06	2.484170e-08	5.485504e+01	1.627712e+03
1.810000e-06	7.679852e-06	2.474874e-08	5.455944e+01	1.625795e+03
1.820000e-06	7.635646e-06	2.485934e-08	5.424539e+01	1.623883e+03
1.830000e-06	7.588740e-06	2.470597e-08	5.391216e+01	1.622111e+03
1.840000e-06	7.539109e-06	2.474937e-08	5.355957e+01	1.620533e+03
1.850000e-06	7.486380e-06	2.473728e-08	5.318497e+01	1.619099e+03
1.860000e-06	7.430775e-06	2.464700e-08	5.278994e+01	1.617667e+03
1.870000e-06	7.372539e-06	2.469516e-08	5.237622e+01	1.616045e+03
1.880000e-06	7.311705e-06	2.454904e-08	5.194404e+01	1.614049e+03
1.890000e-06	7.248056e-06	2.461465e-08	5.149186e+01	1.611561e+03
1.900000e-06	7.181551e-06	2.455862e-08	5.101940e+01	1.608570e+03
1.910000e-06	7.112336e-06	2.447672e-08	5.052768e+01	1.605177e+03
1.920000e-06	7.040282e-06	2.448402e-08	5.001579e+01	1.601565e+03
1.930000e-06	6.965493e-06	2.438757e-08	4.948447e+01	1.597944e+03
1.940000e-06	6.887972e-06	2.439596e-08	4.893374e+01	1.594485e+03
1.950000e-06	6.807782e-06	2.430905e-08	4.836405e+01	1.591265e+03
1.960000e-06	6.725121e-06	2.429410e-08	4.777681e+01	1.588244e+03
1.970000e-06	6.639927e-06	2.421875e-08	4.717157e+01	1.585272e+03
1.980000e-06	6.552241e-06	2.412074e-08	4.654863e+01	1.582137e+03
1.990000e-06	6.462264e-06	2.410515e-08	4.590941e+01	1.578629e+03
2.000000e-06	6.370081e-06	2.403190e-08	4.525453e+01	1.574603e+03
2.010000e-06	6.275611e-06	2.399547e-08	4.458339e+01	1.570030e+03
2.020000e-06	6.178878e-06	2.389994e-08	4.389618e+01	1.564999e+03
2.030000e-06	6.079985e-06	2.383197e-08	4.319362e+01	1.559694e+03
2.040000e-06	5.978907e-06	2.373496e-08	4.247554e+01	1.554332e+03
2.050000e-06	5.875654e-06	2.366456e-08	4.174200e+01	1.549092e+03
2.060000e-06	5.770345e-06	2.361240e-08	4.099386e+01	1.544055e+03
2.070000e-06	5.663066e-06	2.353801e-08	4.023173e+01	1.539173e+03
2.080000e-06	5.553728e-06	2.345404e-08	3.945497e+01	1.534282e+03
2.090000e-06	5.442399e-06	2.335203e-08	3.866406e+01	1.529147e+03
2.100000e-06	5.329089e-06	2.326665e-08	3.785908e+01	1.523534e+03
2.110000e-06	5.213712e-06	2.316293e-08	3.703941e+01	1.517284e+03
2.120000e-06	5.096317e-06	2.307496e-08	3.620541e+01	1.510364e+03
2.130000e-06	4.976948e-06	2.297772e-08	3.535739e+01	1.502876e+03
2.140000e-06	4.855750e-06	2.287577e-08	3.449637e+01	1.495027e+03
2.150000e-06	4.732867e-06	2.274931e-08	3.362338e+01	1.487061e+03
2.160000e-06	4.608246e-06	2.262880e-08	3.273804e+01	1.479176e+03
2.170000e-06	4.481842e-06	2.251132e-08	3.184004e+01	1.471456e+03
2.180000e-06	4.353826e-06	2.239296e-08	3.093058e+01	1.463833e+03
2.190000e-06	4.224295e-06	2.227162e-08	3.001037e+01	1.456100e+03
2.200000e-06	4.093284e-06	2.214303e-08	2.907963e+01	1.447967e+03
2.210000e-06	3.960704e-06	2.200263e-08	2.813776e+01	1.439147e+03
2.220000e-06	3.826583e-06	2.184508e-08	2.718493e+01	1.429442e+03
2.230000e-06	3.691024e-06	2.168793e-08	2.622188e+01	1.418807e+03
2.240000e-06	3.554082e-06	2.152890e-08	2.524902e+01	1.407361e+03
2.250000e-06	3.415790e-06	2.136957e-08	2.426656e+01	1.395355e+03
2.260000e-06	3.276146e-06	2.119775e-08	2.327450e+01	1.383079e+03
2.270000e-06	3.135202e-06	2.101488e-08	2.227320e+01	1.370769e+03
2.280000e-06	2.993013e-06	2.082118e-08	2.126306e+01	1.358512e+03
2.290000e-06	2.849680e-06	2.062493e-08	2.024478e+01	1.346202e+03
2.300000e-06	2.705342e-06	2.042230e-08	1.921938e+01	1.333552e+03
2.310000e-06	2.560139e-06	2.020853e-08	1.818782e+01	1.320168e+03
2.320000e-06	2.414056e-06	1.998167e-08	1.715001e+01	1.305656e+03
2.330000e-06	2.267103e-06	1.974001e-08	1.610602e+01	1.289742e+03
2.340000e-06	2.119327e-06	1.948530e-08	1.505619e+01	1.272354e+03
2.350000e-06	1.970794e-06	1.921800e-08	1.400098e+01	1.253639e+03
2.360000e-06	1.821638e-06	1.893932e-08	1.294133e+01	1.233910e+03
2.370000e-06	1.671896e-06	1.864759e-08	1.187753e+01	1.213532e+03
2.380000e-06	1.521596e-06	1.833717e-08	1.080977e+01	1.192772e+03
2.390000e-06	1.370836e-06	1.800848e-08	9.738737e+00	1.171669e+03
2.400000e-06	1.219675e-06	1.765973e-08	8.664852e+00	1.149966e+03
2.410000e-06	1.068117e-06	1.728671e-08	7.588151e+00	1.127121e+03
2.420000e-06	9.161879e-07	1.688721e-08	6.508811e+00	1.102422e+03
2.430000e-06	7.639681e-07	1.646128e-08	5.427406e+00	1.075152e+03
2.440000e-06	6.115090e-07	1.600879e-08	4.344301e+00	1.044775e+03
2.450000e-06	4.588218e-07	1.552012e-08	3.259576e+00	1.011069e+03
2.460000e-06	3.059566e-07	1.498906e-08	2.173587e+00	9.741497e+02
2.470000e-06	1.529313e-07	1.441117e-08	1.086460e+00	9.343678e+02
2.480000e-06	-2.261834e-10	1.378165e-08	-1.606859e-03	8.920740e+02
2.490000e-06	-1.534356e-07	1.309507e-08	-1.090042e+00	8.473111e+02
2.500000e-06	-3.065939e-07	1.234182e-08	-2.178114e+00	7.995098e+02
2.510000e-06	-4.596648e-07	1.150888e-08	-3.265565e+00	7.472831e+02
2.520000e-06	-6.126744e-07	1.057457e-08	-4.352580e+00	6.884008e+02
2.530000e-06	-7.654989e-07	9.514208e-09	-5.438281e+00	6.199918e+02
2.540000e-06	-9.179603e-07	8.301306e-09	-6.521402e+00	5.389685e+02
2.550000e-06	-1.070059e-06	6.893544e-09	-7.601947e+00	4.426110e+02
2.560000e-06	-1.221776e-06	5.233118e-09	-8.679781e+00	3.292017e+02
2.570000e-06	-1.373088e-06	3.256486e-09	-9.754733e+00	1.985772e+02
2.580000e-06	-1.524009e-06	9.667305e-10	-1.082691e+01	5.246752e+01
2.590000e-06	-1.674347e-06	-1.504006e-09	-1.189495e+01	-1.054689e+02
2.600000e-06	-1.823964e-06	-4.019102e-09	-1.295786e+01	-2.699475e+02
2.610000e-06	-1.972915e-06	-6.536219e-09	-1.401604e+01	-4.346599e+02
2.620000e-06	-2.121123e-06	-9.034910e-09	-1.506895e+01	-5.930733e+02
2.630000e-06	-2.268453e-06	-1.139242e-08	-1.611561e+01	-7.392823e+02
2.640000e-06	-2.414929e-06	-1.341928e-08	-1.715621e+01	-8.687545e+02
2.650000e-06	-2.560573e-06	-1.505263e-08	-1.819090e+01	-9.788341e+02
2.660000e-06	-2.705286e-06	-1.635291e-08	-1.921898e+01	-1.068919e+03
2.670000e-06	-2.848973e-06	-1.739322e-08	-2.023976e+01	-1.140298e+03
2.680000e-06	-2.991549e-06	-1.823434e-08	-2.125265e+01	-1.195694e+03
2.690000e-06	-3.132896e-06	-1.892229e-08	-2.225682e+01	-1.238637e+03
2.700000e-06	-3.272946e-06	-1.949313e-08	-2.325177e+01	-1.272786e+03
2.710000e-06	-3.411640e-06	-1.997349e-08	-2.423708e+01	-1.301352e+03
2.720000e-06	-3.549087e-06	-2.038666e-08	-2.521353e+01	-1.326708e+03
2.730000e-06	-3.685297e-06	-2.074948e-08	-2.618120e+01	-1.350246e+03
2.740000e-06	-3.820120e-06	-2.107007e-08	-2.713901e+01	-1.372463e+03
2.750000e-06	-3.953519e-06	-2.135522e-08	-2.808671e+01	-1.393227e+03
2.760000e-06	-4.085491e-06	-2.161046e-08	-2.902427e+01	-1.412108e+03
2.770000e-06	-4.216078e-06	-2.184102e-08	-2.995199e+01	-1.428712e+03
2.780000e-06	-4.345258e-06	-2.205371e-08	-3.086972e+01	-1.442900e+03
2.790000e-06	-4.472967e-06	-2.225174e-08	-3.177699e+01	-1.454889e+03
2.800000e-06	-4.599121e-06	-2.243416e-08	-3.267322e+01	-1.465196e+03
2.810000e-06	-4.723615e-06	-2.260124e-08	-3.355766e+01	-1.474497e+03
2.820000e-06	-4.846426e-06	-2.275391e-08	-3.443013e+01	-1.483436e+03
2.830000e-06	-4.967520e-06	-2.289558e-08	-3.529041e+01	-1.492458e+03
2.840000e-06	-5.086770e-06	-2.302910e-08	-3.613759e+01	-1.501717e+03
2.850000e-06	-5.204050e-06	-2.315463e-08	-3.697077e+01	-1.511074e+03
2.860000e-06	-5.319250e-06	-2.327341e-08	-3.778918e+01	-1.520186e+03
2.870000e-06	-5.432277e-06	-2.338531e-08	-3.859215e+01	-1.528644e+03
2.880000e-06	-5.543168e-06	-2.348880e-08	-3.937995e+01	-1.536121e+03
2.890000e-06	-5.652004e-06	-2.358413e-08	-4.015314e+01	-1.542482e+03
2.900000e-06	-5.758904e-06	-2.367207e-08	-4.091258e+01	-1.547821e+03
2.910000e-06	-5.863867e-06	-2.375703e-08	-4.165827e+01	-1.552434e+03
2.920000e-06	-5.966610e-06	-2.383891e-08	-4.238818e+01	-1.556718e+03
2.930000e-06	-6.067027e-06	-2.391742e-08	-4.310156e+01	-1.561057e+03
2.940000e-06	-6.165279e-06	-2.399368e-08	-4.379957e+01	-1.565706e+03
