# Temperatura_=_33.32
# Concentracion g/m^3_=_28200.0
# C_Vs_to_Am_M_A/Vsm_=_65563218390.804596
# pendiente_HvsI_1/m_=_3716.3
# ordenada_HvsI_A/m_=_1297.0
# frecuencia_Hz_=_302122.5915840431

Tiempo_(s)	Campo_(V.s)	Magnetizacion_(V.s)	Campo_(kA/m)	Magnetizacion_(A/m)
0.000000e+00	-6.389729e-06	-1.871011e-08	-4.585763e+01	-1.226361e+03
1.000000e-08	-6.386820e-06	-1.870865e-08	-4.583675e+01	-1.225931e+03
2.000000e-08	-6.381788e-06	-1.869872e-08	-4.580064e+01	-1.225339e+03
3.000000e-08	-6.374703e-06	-1.868733e-08	-4.574979e+01	-1.224628e+03
4.000000e-08	-6.365523e-06	-1.867511e-08	-4.568391e+01	-1.223852e+03
5.000000e-08	-6.354123e-06	-1.866272e-08	-4.560210e+01	-1.223053e+03
6.000000e-08	-6.340352e-06	-1.864945e-08	-4.550327e+01	-1.222257e+03
7.000000e-08	-6.324151e-06	-1.862440e-08	-4.538699e+01	-1.221459e+03
8.000000e-08	-6.305859e-06	-1.860689e-08	-4.525572e+01	-1.220627e+03
9.000000e-08	-6.285687e-06	-1.862731e-08	-4.511094e+01	-1.219699e+03
1.000000e-07	-6.263026e-06	-1.863163e-08	-4.494831e+01	-1.218604e+03
1.100000e-07	-6.237623e-06	-1.858325e-08	-4.476600e+01	-1.217269e+03
1.200000e-07	-6.209926e-06	-1.855634e-08	-4.456722e+01	-1.215642e+03
1.300000e-07	-6.180325e-06	-1.853332e-08	-4.435479e+01	-1.213700e+03
1.400000e-07	-6.149096e-06	-1.843750e-08	-4.413066e+01	-1.211457e+03
1.500000e-07	-6.116187e-06	-1.842880e-08	-4.389448e+01	-1.208959e+03
1.600000e-07	-6.081236e-06	-1.849881e-08	-4.364365e+01	-1.206275e+03
1.700000e-07	-6.044328e-06	-1.836892e-08	-4.337876e+01	-1.203483e+03
1.800000e-07	-6.005434e-06	-1.837402e-08	-4.309964e+01	-1.200651e+03
1.900000e-07	-5.964186e-06	-1.838532e-08	-4.280360e+01	-1.197821e+03
2.000000e-07	-5.920678e-06	-1.822184e-08	-4.249136e+01	-1.195008e+03
2.100000e-07	-5.875094e-06	-1.823802e-08	-4.216421e+01	-1.192190e+03
2.200000e-07	-5.827288e-06	-1.822026e-08	-4.182112e+01	-1.189321e+03
2.300000e-07	-5.777024e-06	-1.813962e-08	-4.146039e+01	-1.186339e+03
2.400000e-07	-5.724226e-06	-1.809001e-08	-4.108147e+01	-1.183181e+03
2.500000e-07	-5.669168e-06	-1.801612e-08	-4.068633e+01	-1.179798e+03
2.600000e-07	-5.612052e-06	-1.795609e-08	-4.027642e+01	-1.176160e+03
2.700000e-07	-5.552792e-06	-1.788566e-08	-3.985112e+01	-1.172263e+03
2.800000e-07	-5.491498e-06	-1.783609e-08	-3.941123e+01	-1.168122e+03
2.900000e-07	-5.428247e-06	-1.778116e-08	-3.895729e+01	-1.163765e+03
3.000000e-07	-5.362967e-06	-1.768673e-08	-3.848879e+01	-1.159220e+03
3.100000e-07	-5.295615e-06	-1.763050e-08	-3.800542e+01	-1.154511e+03
3.200000e-07	-5.226209e-06	-1.755384e-08	-3.750732e+01	-1.149645e+03
3.300000e-07	-5.154957e-06	-1.748006e-08	-3.699595e+01	-1.144612e+03
3.400000e-07	-5.081960e-06	-1.739721e-08	-3.647207e+01	-1.139390e+03
3.500000e-07	-5.006901e-06	-1.730289e-08	-3.593339e+01	-1.133947e+03
3.600000e-07	-4.929644e-06	-1.722617e-08	-3.537894e+01	-1.128250e+03
3.700000e-07	-4.850436e-06	-1.712446e-08	-3.481047e+01	-1.122274e+03
3.800000e-07	-4.769362e-06	-1.703693e-08	-3.422862e+01	-1.116001e+03
3.900000e-07	-4.686588e-06	-1.693458e-08	-3.363458e+01	-1.109428e+03
4.000000e-07	-4.602433e-06	-1.682508e-08	-3.303062e+01	-1.102558e+03
4.100000e-07	-4.516885e-06	-1.671300e-08	-3.241666e+01	-1.095399e+03
4.200000e-07	-4.429873e-06	-1.659774e-08	-3.179219e+01	-1.087961e+03
4.300000e-07	-4.341462e-06	-1.648781e-08	-3.115768e+01	-1.080244e+03
4.400000e-07	-4.251485e-06	-1.636297e-08	-3.051194e+01	-1.072242e+03
4.500000e-07	-4.159822e-06	-1.624112e-08	-2.985409e+01	-1.063941e+03
4.600000e-07	-4.066596e-06	-1.610552e-08	-2.918503e+01	-1.055317e+03
4.700000e-07	-3.972071e-06	-1.596026e-08	-2.850665e+01	-1.046346e+03
4.800000e-07	-3.876246e-06	-1.581588e-08	-2.781893e+01	-1.037000e+03
4.900000e-07	-3.778985e-06	-1.567103e-08	-2.712092e+01	-1.027255e+03
5.000000e-07	-3.680186e-06	-1.551746e-08	-2.641186e+01	-1.017092e+03
5.100000e-07	-3.580022e-06	-1.535360e-08	-2.569300e+01	-1.006492e+03
5.200000e-07	-3.478646e-06	-1.518325e-08	-2.496545e+01	-9.954392e+02
5.300000e-07	-3.376000e-06	-1.500048e-08	-2.422878e+01	-9.839150e+02
5.400000e-07	-3.272098e-06	-1.481547e-08	-2.348310e+01	-9.718976e+02
5.500000e-07	-3.167002e-06	-1.462385e-08	-2.272885e+01	-9.593598e+02
5.600000e-07	-3.060705e-06	-1.442527e-08	-2.196599e+01	-9.462686e+02
5.700000e-07	-2.953117e-06	-1.421466e-08	-2.119385e+01	-9.325859e+02
5.800000e-07	-2.844430e-06	-1.399003e-08	-2.041383e+01	-9.182695e+02
5.900000e-07	-2.734816e-06	-1.375638e-08	-1.962715e+01	-9.032746e+02
6.000000e-07	-2.624221e-06	-1.351601e-08	-1.883344e+01	-8.875543e+02
6.100000e-07	-2.512645e-06	-1.326601e-08	-1.803268e+01	-8.710606e+02
6.200000e-07	-2.400121e-06	-1.300334e-08	-1.722513e+01	-8.537432e+02
6.300000e-07	-2.286619e-06	-1.272569e-08	-1.641055e+01	-8.355493e+02
6.400000e-07	-2.172075e-06	-1.242996e-08	-1.558849e+01	-8.164225e+02
6.500000e-07	-2.056565e-06	-1.211712e-08	-1.475950e+01	-7.963011e+02
6.600000e-07	-1.940286e-06	-1.179073e-08	-1.392499e+01	-7.751175e+02
6.700000e-07	-1.823324e-06	-1.145127e-08	-1.308558e+01	-7.527974e+02
6.800000e-07	-1.705785e-06	-1.109151e-08	-1.224203e+01	-7.292590e+02
6.900000e-07	-1.587711e-06	-1.070860e-08	-1.139464e+01	-7.044132e+02
7.000000e-07	-1.469067e-06	-1.030277e-08	-1.054316e+01	-6.781652e+02
7.100000e-07	-1.349862e-06	-9.876658e-09	-9.687651e+00	-6.504178e+02
7.200000e-07	-1.230170e-06	-9.427795e-09	-8.828651e+00	-6.210774e+02
7.300000e-07	-1.110076e-06	-8.956111e-09	-7.966760e+00	-5.900636e+02
7.400000e-07	-9.897115e-07	-8.459976e-09	-7.102934e+00	-5.573213e+02
7.500000e-07	-8.691289e-07	-7.935687e-09	-6.237540e+00	-5.228349e+02
7.600000e-07	-7.482976e-07	-7.383311e-09	-5.370362e+00	-4.866421e+02
7.700000e-07	-6.271965e-07	-6.802177e-09	-4.501247e+00	-4.488435e+02
7.800000e-07	-5.058947e-07	-6.200625e-09	-3.630691e+00	-4.096074e+02
7.900000e-07	-3.845134e-07	-5.585476e-09	-2.759565e+00	-3.691629e+02
8.000000e-07	-2.630167e-07	-4.957096e-09	-1.887611e+00	-3.277846e+02
8.100000e-07	-1.412885e-07	-4.316200e-09	-1.013996e+00	-2.857655e+02
8.200000e-07	-1.938416e-08	-3.671115e-09	-1.391157e-01	-2.433837e+02
8.300000e-07	1.026262e-07	-3.025878e-09	7.365252e-01	-2.008665e+02
8.400000e-07	2.246091e-07	-2.379687e-09	1.611969e+00	-1.583589e+02
8.500000e-07	3.464589e-07	-1.731777e-09	2.486456e+00	-1.159023e+02
8.600000e-07	4.681840e-07	-1.082055e-09	3.360050e+00	-7.342932e+01
8.700000e-07	5.897074e-07	-4.319047e-10	4.232196e+00	-3.077713e+01
8.800000e-07	7.109613e-07	2.236759e-10	5.102407e+00	1.228117e+01
8.900000e-07	8.319760e-07	8.884783e-10	5.970902e+00	5.599150e+01
9.000000e-07	9.528314e-07	1.566433e-09	6.838254e+00	1.005668e+02
9.100000e-07	1.073483e-06	2.259733e-09	7.704142e+00	1.461370e+02
9.200000e-07	1.193811e-06	2.967417e-09	8.567710e+00	1.927096e+02
9.300000e-07	1.313691e-06	3.690433e-09	9.428063e+00	2.401484e+02
9.400000e-07	1.433019e-06	4.422502e-09	1.028445e+01	2.881732e+02
9.500000e-07	1.551777e-06	5.154893e-09	1.113675e+01	3.363822e+02
9.600000e-07	1.669958e-06	5.884414e-09	1.198491e+01	3.842911e+02
9.700000e-07	1.787553e-06	6.603097e-09	1.282886e+01	4.313839e+02
9.800000e-07	1.904503e-06	7.298047e-09	1.366819e+01	4.771658e+02
9.900000e-07	2.020714e-06	7.963519e-09	1.450220e+01	5.212089e+02
1.000000e-06	2.136169e-06	8.600123e-09	1.533080e+01	5.631868e+02
1.010000e-06	2.250596e-06	9.205880e-09	1.615202e+01	6.028905e+02
1.020000e-06	2.363884e-06	9.776435e-09	1.696505e+01	6.402284e+02
1.030000e-06	2.476262e-06	1.031046e-08	1.777157e+01	6.752116e+02
1.040000e-06	2.587707e-06	1.080577e-08	1.857139e+01	7.079289e+02
1.050000e-06	2.698161e-06	1.126788e-08	1.936409e+01	7.385190e+02
1.060000e-06	2.807721e-06	1.170104e-08	2.015037e+01	7.671438e+02
1.070000e-06	2.916406e-06	1.211007e-08	2.093039e+01	7.939670e+02
1.080000e-06	3.024227e-06	1.249572e-08	2.170419e+01	8.191414e+02
1.090000e-06	3.131045e-06	1.285936e-08	2.247079e+01	8.428023e+02
1.100000e-06	3.236524e-06	1.320032e-08	2.322780e+01	8.650678e+02
1.110000e-06	3.340625e-06	1.351923e-08	2.397490e+01	8.860417e+02
1.120000e-06	3.443571e-06	1.381964e-08	2.471373e+01	9.058176e+02
1.130000e-06	3.545405e-06	1.410162e-08	2.544456e+01	9.244818e+02
1.140000e-06	3.646049e-06	1.436786e-08	2.616686e+01	9.421143e+02
1.150000e-06	3.745495e-06	1.462030e-08	2.688056e+01	9.587889e+02
1.160000e-06	3.843456e-06	1.486100e-08	2.758361e+01	9.745718e+02
1.170000e-06	3.939804e-06	1.508776e-08	2.827508e+01	9.895211e+02
1.180000e-06	4.034760e-06	1.530218e-08	2.895655e+01	1.003687e+03
1.190000e-06	4.128332e-06	1.550557e-08	2.962810e+01	1.017114e+03
1.200000e-06	4.220613e-06	1.569867e-08	3.029038e+01	1.029843e+03
1.210000e-06	4.311638e-06	1.588217e-08	3.094365e+01	1.041911e+03
1.220000e-06	4.400948e-06	1.605715e-08	3.158460e+01	1.053358e+03
1.230000e-06	4.488488e-06	1.622247e-08	3.221285e+01	1.064222e+03
1.240000e-06	4.574468e-06	1.637956e-08	3.282992e+01	1.074538e+03
1.250000e-06	4.658902e-06	1.652848e-08	3.343588e+01	1.084336e+03
1.260000e-06	4.741844e-06	1.667084e-08	3.403113e+01	1.093642e+03
1.270000e-06	4.823013e-06	1.680748e-08	3.461367e+01	1.102468e+03
1.280000e-06	4.902276e-06	1.693756e-08	3.518252e+01	1.110825e+03
1.290000e-06	4.979823e-06	1.705931e-08	3.573906e+01	1.118716e+03
1.300000e-06	5.055589e-06	1.717145e-08	3.628281e+01	1.126147e+03
1.310000e-06	5.129187e-06	1.727655e-08	3.681101e+01	1.133129e+03
1.320000e-06	5.200731e-06	1.737459e-08	3.732446e+01	1.139685e+03
1.330000e-06	5.270480e-06	1.746788e-08	3.782503e+01	1.145848e+03
1.340000e-06	5.338444e-06	1.755703e-08	3.831280e+01	1.151662e+03
1.350000e-06	5.404418e-06	1.764130e-08	3.878628e+01	1.157175e+03
1.360000e-06	5.468334e-06	1.772155e-08	3.924499e+01	1.162432e+03
1.370000e-06	5.530435e-06	1.779788e-08	3.969067e+01	1.167471e+03
1.380000e-06	5.590718e-06	1.787174e-08	4.012331e+01	1.172312e+03
1.390000e-06	5.648947e-06	1.794368e-08	4.054121e+01	1.176963e+03
1.400000e-06	5.705062e-06	1.801331e-08	4.094393e+01	1.181416e+03
1.410000e-06	5.759234e-06	1.807784e-08	4.133271e+01	1.185654e+03
1.420000e-06	5.811256e-06	1.813678e-08	4.170606e+01	1.189655e+03
1.430000e-06	5.860724e-06	1.819296e-08	4.206108e+01	1.193407e+03
1.440000e-06	5.907802e-06	1.824538e-08	4.239895e+01	1.196904e+03
1.450000e-06	5.952957e-06	1.829320e-08	4.272302e+01	1.200152e+03
1.460000e-06	5.996214e-06	1.833798e-08	4.303347e+01	1.203167e+03
1.470000e-06	6.037121e-06	1.838140e-08	4.332704e+01	1.205969e+03
1.480000e-06	6.075740e-06	1.842287e-08	4.360420e+01	1.208579e+03
1.490000e-06	6.112483e-06	1.846028e-08	4.386790e+01	1.211008e+03
1.500000e-06	6.147132e-06	1.849330e-08	4.411657e+01	1.213259e+03
1.510000e-06	6.179500e-06	1.852231e-08	4.434886e+01	1.215326e+03
1.520000e-06	6.209655e-06	1.854736e-08	4.456528e+01	1.217196e+03
1.530000e-06	6.237757e-06	1.856861e-08	4.476696e+01	1.218857e+03
1.540000e-06	6.263581e-06	1.858872e-08	4.495229e+01	1.220306e+03
1.550000e-06	6.286972e-06	1.860794e-08	4.512017e+01	1.221550e+03
1.560000e-06	6.308139e-06	1.862530e-08	4.527208e+01	1.222606e+03
1.570000e-06	6.327265e-06	1.864196e-08	4.540934e+01	1.223503e+03
1.580000e-06	6.344179e-06	1.865807e-08	4.553073e+01	1.224271e+03
1.590000e-06	6.358621e-06	1.867083e-08	4.563437e+01	1.224937e+03
1.600000e-06	6.370605e-06	1.867840e-08	4.572038e+01	1.225512e+03
1.610000e-06	6.380017e-06	1.868520e-08	4.578793e+01	1.225994e+03
1.620000e-06	6.386922e-06	1.869113e-08	4.583748e+01	1.226363e+03
1.630000e-06	6.391637e-06	1.869491e-08	4.587132e+01	1.226590e+03
1.640000e-06	6.394266e-06	1.869659e-08	4.589019e+01	1.226645e+03
1.650000e-06	6.394601e-06	1.869608e-08	4.589260e+01	1.226506e+03
1.660000e-06	6.392692e-06	1.869046e-08	4.587890e+01	1.226169e+03
1.670000e-06	6.388728e-06	1.868172e-08	4.585045e+01	1.225653e+03
1.680000e-06	6.382619e-06	1.867733e-08	4.580660e+01	1.224995e+03
1.690000e-06	6.374402e-06	1.867126e-08	4.574763e+01	1.224245e+03
1.700000e-06	6.364208e-06	1.866393e-08	4.567448e+01	1.223453e+03
1.710000e-06	6.351875e-06	1.865701e-08	4.558596e+01	1.222654e+03
1.720000e-06	6.337201e-06	1.864911e-08	4.548065e+01	1.221859e+03
1.730000e-06	6.320458e-06	1.862725e-08	4.536049e+01	1.221051e+03
1.740000e-06	6.301690e-06	1.855224e-08	4.522579e+01	1.220179e+03
1.750000e-06	6.280162e-06	1.853584e-08	4.507130e+01	1.219177e+03
1.760000e-06	6.255459e-06	1.856447e-08	4.489401e+01	1.217970e+03
1.770000e-06	6.228199e-06	1.854384e-08	4.469837e+01	1.216494e+03
1.780000e-06	6.199112e-06	1.854278e-08	4.448962e+01	1.214710e+03
1.790000e-06	6.168455e-06	1.855560e-08	4.426960e+01	1.212614e+03
1.800000e-06	6.136287e-06	1.842608e-08	4.403873e+01	1.210236e+03
1.810000e-06	6.102146e-06	1.839807e-08	4.379371e+01	1.207636e+03
1.820000e-06	6.065945e-06	1.832941e-08	4.353391e+01	1.204888e+03
1.830000e-06	6.027827e-06	1.816667e-08	4.326035e+01	1.202069e+03
1.840000e-06	5.987385e-06	1.828661e-08	4.297010e+01	1.199234e+03
1.850000e-06	5.944770e-06	1.824637e-08	4.266426e+01	1.196413e+03
1.860000e-06	5.900164e-06	1.811948e-08	4.234414e+01	1.193602e+03
1.870000e-06	5.853346e-06	1.812590e-08	4.200813e+01	1.190766e+03
1.880000e-06	5.804472e-06	1.801658e-08	4.165738e+01	1.187848e+03
1.890000e-06	5.753217e-06	1.804447e-08	4.128953e+01	1.184786e+03
1.900000e-06	5.699385e-06	1.801670e-08	4.090319e+01	1.181520e+03
1.910000e-06	5.643318e-06	1.792595e-08	4.050081e+01	1.178012e+03
1.920000e-06	5.585121e-06	1.793303e-08	4.008315e+01	1.174243e+03
1.930000e-06	5.525049e-06	1.778589e-08	3.965202e+01	1.170222e+03
1.940000e-06	5.462973e-06	1.776150e-08	3.920652e+01	1.165968e+03
1.950000e-06	5.398679e-06	1.770151e-08	3.874509e+01	1.161514e+03
1.960000e-06	5.332335e-06	1.761458e-08	3.826896e+01	1.156886e+03
1.970000e-06	5.264076e-06	1.760000e-08	3.777907e+01	1.152098e+03
1.980000e-06	5.193835e-06	1.746287e-08	3.727497e+01	1.147150e+03
1.990000e-06	5.121499e-06	1.740654e-08	3.675583e+01	1.142027e+03
2.000000e-06	5.047259e-06	1.730857e-08	3.622303e+01	1.136698e+03
2.010000e-06	4.971093e-06	1.722626e-08	3.567640e+01	1.131132e+03
2.020000e-06	4.892911e-06	1.717221e-08	3.511531e+01	1.125298e+03
2.030000e-06	4.812864e-06	1.704593e-08	3.454083e+01	1.119175e+03
2.040000e-06	4.731063e-06	1.697599e-08	3.395376e+01	1.112752e+03
2.050000e-06	4.647758e-06	1.684763e-08	3.335590e+01	1.106029e+03
2.060000e-06	4.562956e-06	1.675295e-08	3.274730e+01	1.099014e+03
2.070000e-06	4.476460e-06	1.664305e-08	3.212654e+01	1.091715e+03
2.080000e-06	4.388265e-06	1.652470e-08	3.149358e+01	1.084137e+03
2.090000e-06	4.298495e-06	1.641903e-08	3.084932e+01	1.076280e+03
2.100000e-06	4.207304e-06	1.627696e-08	3.019487e+01	1.068131e+03
2.110000e-06	4.114743e-06	1.616557e-08	2.953058e+01	1.059671e+03
2.120000e-06	4.020871e-06	1.601892e-08	2.885687e+01	1.050877e+03
2.130000e-06	3.925508e-06	1.588206e-08	2.817247e+01	1.041721e+03
2.140000e-06	3.828631e-06	1.573375e-08	2.747721e+01	1.032179e+03
2.150000e-06	3.730406e-06	1.558638e-08	2.677228e+01	1.022227e+03
2.160000e-06	3.630836e-06	1.543393e-08	2.605768e+01	1.011848e+03
2.170000e-06	3.529972e-06	1.526968e-08	2.533381e+01	1.001023e+03
2.180000e-06	3.427836e-06	1.510592e-08	2.460080e+01	9.897373e+02
2.190000e-06	3.324259e-06	1.492094e-08	2.385745e+01	9.779695e+02
2.200000e-06	3.219324e-06	1.473653e-08	2.310436e+01	9.656957e+02
2.210000e-06	3.113341e-06	1.453781e-08	2.234374e+01	9.528856e+02
2.220000e-06	3.006268e-06	1.434067e-08	2.157530e+01	9.395037e+02
2.230000e-06	2.898114e-06	1.413262e-08	2.079910e+01	9.255097e+02
2.240000e-06	2.789044e-06	1.391354e-08	2.001634e+01	9.108598e+02
2.250000e-06	2.679025e-06	1.367794e-08	1.922675e+01	8.955081e+02
2.260000e-06	2.567895e-06	1.343001e-08	1.842920e+01	8.794072e+02
2.270000e-06	2.455726e-06	1.317246e-08	1.762419e+01	8.625080e+02
2.280000e-06	2.342623e-06	1.290301e-08	1.681247e+01	8.447592e+02
2.290000e-06	2.228599e-06	1.262402e-08	1.599415e+01	8.261063e+02
2.300000e-06	2.113692e-06	1.232701e-08	1.516948e+01	8.064902e+02
2.310000e-06	1.997950e-06	1.201542e-08	1.433883e+01	7.858465e+02
2.320000e-06	1.881475e-06	1.168487e-08	1.350292e+01	7.641045e+02
2.330000e-06	1.764319e-06	1.133906e-08	1.266211e+01	7.411859e+02
2.340000e-06	1.646481e-06	1.097281e-08	1.181642e+01	7.170054e+02
2.350000e-06	1.527935e-06	1.058624e-08	1.096564e+01	6.914706e+02
2.360000e-06	1.408747e-06	1.017581e-08	1.011025e+01	6.644850e+02
2.370000e-06	1.289013e-06	9.740483e-09	9.250950e+00	6.359522e+02
2.380000e-06	1.168798e-06	9.279321e-09	8.388197e+00	6.057839e+02
2.390000e-06	1.048197e-06	8.792651e-09	7.522674e+00	5.739106e+02
2.400000e-06	9.273341e-07	8.282511e-09	6.655266e+00	5.402952e+02
2.410000e-06	8.062635e-07	7.746958e-09	5.786370e+00	5.049471e+02
2.420000e-06	6.849430e-07	7.184821e-09	4.915680e+00	4.679346e+02
2.430000e-06	5.633867e-07	6.595983e-09	4.043298e+00	4.293921e+02
2.440000e-06	4.416798e-07	5.985277e-09	3.169836e+00	3.895198e+02
2.450000e-06	3.198318e-07	5.358246e-09	2.295360e+00	3.485722e+02
2.460000e-06	1.978417e-07	4.719938e-09	1.419865e+00	3.068370e+02
2.470000e-06	7.576703e-08	4.073402e-09	5.437627e-01	2.646041e+02
2.480000e-06	-4.634366e-08	3.425439e-09	-3.325979e-01	2.221307e+02
2.490000e-06	-1.684090e-07	2.777474e-09	-1.208633e+00	1.796064e+02
2.500000e-06	-2.904394e-07	2.130169e-09	-2.084418e+00	1.371260e+02
2.510000e-06	-4.124309e-07	1.483672e-09	-2.959923e+00	9.467609e+01
2.520000e-06	-5.343129e-07	8.348910e-10	-3.834642e+00	5.213878e+01
2.530000e-06	-6.560446e-07	1.792355e-10	-4.708283e+00	9.314270e+00
2.540000e-06	-7.775363e-07	-4.837222e-10	-5.580201e+00	-3.404013e+01
2.550000e-06	-8.988073e-07	-1.159243e-09	-6.450535e+00	-7.816043e+01
2.560000e-06	-1.019849e-06	-1.849721e-09	-7.319225e+00	-1.232238e+02
2.570000e-06	-1.140598e-06	-2.554778e-09	-8.185810e+00	-1.693030e+02
2.580000e-06	-1.261040e-06	-3.273235e-09	-9.050196e+00	-2.163350e+02
2.590000e-06	-1.381011e-06	-4.001054e-09	-9.911200e+00	-2.641102e+02
2.600000e-06	-1.500285e-06	-4.736580e-09	-1.076720e+01	-3.122836e+02
2.610000e-06	-1.618784e-06	-5.471383e-09	-1.161764e+01	-3.604062e+02
2.620000e-06	-1.736550e-06	-6.198256e-09	-1.246282e+01	-4.079715e+02
2.630000e-06	-1.853657e-06	-6.910609e-09	-1.330328e+01	-4.544675e+02
2.640000e-06	-1.970037e-06	-7.601091e-09	-1.413850e+01	-4.994278e+02
2.650000e-06	-2.085526e-06	-8.259235e-09	-1.496734e+01	-5.424719e+02
2.660000e-06	-2.200107e-06	-8.883789e-09	-1.578967e+01	-5.833313e+02
2.670000e-06	-2.313708e-06	-9.474922e-09	-1.660495e+01	-6.218566e+02
2.680000e-06	-2.426166e-06	-1.003105e-08	-1.741204e+01	-6.580103e+02
2.690000e-06	-2.537641e-06	-1.054966e-08	-1.821207e+01	-6.918456e+02
2.700000e-06	-2.648193e-06	-1.102992e-08	-1.900548e+01	-7.234800e+02
2.710000e-06	-2.757685e-06	-1.148004e-08	-1.979128e+01	-7.530667e+02
2.720000e-06	-2.866349e-06	-1.190204e-08	-2.057114e+01	-7.807707e+02
2.730000e-06	-2.974215e-06	-1.229869e-08	-2.134526e+01	-8.067514e+02
2.740000e-06	-3.081114e-06	-1.267242e-08	-2.211246e+01	-8.311532e+02
2.750000e-06	-3.186971e-06	-1.302531e-08	-2.287216e+01	-8.541027e+02
2.760000e-06	-3.291798e-06	-1.335619e-08	-2.362448e+01	-8.757101e+02
2.770000e-06	-3.395418e-06	-1.366749e-08	-2.436814e+01	-8.960739e+02
2.780000e-06	-3.497587e-06	-1.396083e-08	-2.510139e+01	-9.152835e+02
2.790000e-06	-3.598415e-06	-1.423643e-08	-2.582501e+01	-9.334222e+02
2.800000e-06	-3.698065e-06	-1.449699e-08	-2.654017e+01	-9.505670e+02
2.810000e-06	-3.796485e-06	-1.474492e-08	-2.724651e+01	-9.667880e+02
2.820000e-06	-3.893629e-06	-1.498131e-08	-2.794369e+01	-9.821473e+02
2.830000e-06	-3.989593e-06	-1.520600e-08	-2.863240e+01	-9.966992e+02
2.840000e-06	-4.084116e-06	-1.542151e-08	-2.931077e+01	-1.010491e+03
2.850000e-06	-4.176997e-06	-1.562501e-08	-2.997736e+01	-1.023563e+03
2.860000e-06	-4.268462e-06	-1.581511e-08	-3.063378e+01	-1.035957e+03
2.870000e-06	-4.358495e-06	-1.599222e-08	-3.127993e+01	-1.047710e+03
2.880000e-06	-4.447016e-06	-1.615895e-08	-3.191522e+01	-1.058861e+03
2.890000e-06	-4.533833e-06	-1.631692e-08	-3.253829e+01	-1.069446e+03
2.900000e-06	-4.618820e-06	-1.646946e-08	-3.314822e+01	-1.079500e+03
2.910000e-06	-4.702212e-06	-1.661682e-08	-3.374671e+01	-1.089050e+03
2.920000e-06	-4.783988e-06	-1.675756e-08	-3.433360e+01	-1.098114e+03
2.930000e-06	-4.864180e-06	-1.689026e-08	-3.490912e+01	-1.106705e+03
2.940000e-06	-4.942399e-06	-1.701395e-08	-3.547047e+01	-1.114829e+03
