# Temperatura_=_73.12
# Concentracion g/m^3_=_28200.0
# C_Vs_to_Am_M_A/Vsm_=_65563218390.804596
# pendiente_HvsI_1/m_=_3716.3
# ordenada_HvsI_A/m_=_1297.0
# frecuencia_Hz_=_302121.6636524054

Tiempo_(s)	Campo_(V.s)	Magnetizacion_(V.s)	Campo_(kA/m)	Magnetizacion_(A/m)
0.000000e+00	-6.395283e-06	-2.260168e-08	-4.585965e+01	-1.481228e+03
1.000000e-08	-6.391779e-06	-2.259537e-08	-4.583452e+01	-1.480763e+03
2.000000e-08	-6.386233e-06	-2.258159e-08	-4.579476e+01	-1.480117e+03
3.000000e-08	-6.378848e-06	-2.256944e-08	-4.574180e+01	-1.479301e+03
4.000000e-08	-6.369359e-06	-2.255431e-08	-4.567375e+01	-1.478333e+03
5.000000e-08	-6.357438e-06	-2.253556e-08	-4.558827e+01	-1.477233e+03
6.000000e-08	-6.343101e-06	-2.251193e-08	-4.548546e+01	-1.476022e+03
7.000000e-08	-6.326450e-06	-2.247791e-08	-4.536606e+01	-1.474713e+03
8.000000e-08	-6.307774e-06	-2.247657e-08	-4.523213e+01	-1.473311e+03
9.000000e-08	-6.287041e-06	-2.254728e-08	-4.508346e+01	-1.471808e+03
1.000000e-07	-6.263808e-06	-2.249127e-08	-4.491686e+01	-1.470184e+03
1.100000e-07	-6.237912e-06	-2.239919e-08	-4.473116e+01	-1.468410e+03
1.200000e-07	-6.209722e-06	-2.238997e-08	-4.452902e+01	-1.466454e+03
1.300000e-07	-6.179666e-06	-2.230659e-08	-4.431349e+01	-1.464282e+03
1.400000e-07	-6.148058e-06	-2.214322e-08	-4.408684e+01	-1.461868e+03
1.500000e-07	-6.114678e-06	-2.230528e-08	-4.384748e+01	-1.459196e+03
1.600000e-07	-6.079230e-06	-2.228182e-08	-4.359328e+01	-1.456262e+03
1.700000e-07	-6.042007e-06	-2.208835e-08	-4.332636e+01	-1.453074e+03
1.800000e-07	-6.002735e-06	-2.224297e-08	-4.304475e+01	-1.449653e+03
1.900000e-07	-5.960981e-06	-2.207042e-08	-4.274533e+01	-1.446024e+03
2.000000e-07	-5.917046e-06	-2.195201e-08	-4.243028e+01	-1.442217e+03
2.100000e-07	-5.871001e-06	-2.198789e-08	-4.210010e+01	-1.438257e+03
2.200000e-07	-5.822642e-06	-2.184724e-08	-4.175332e+01	-1.434164e+03
2.300000e-07	-5.771844e-06	-2.183163e-08	-4.138906e+01	-1.429947e+03
2.400000e-07	-5.718575e-06	-2.177578e-08	-4.100707e+01	-1.425603e+03
2.500000e-07	-5.663156e-06	-2.168590e-08	-4.060967e+01	-1.421119e+03
2.600000e-07	-5.605547e-06	-2.164455e-08	-4.019657e+01	-1.416470e+03
2.700000e-07	-5.545748e-06	-2.153295e-08	-3.976776e+01	-1.411627e+03
2.800000e-07	-5.484056e-06	-2.146653e-08	-3.932537e+01	-1.406558e+03
2.900000e-07	-5.420385e-06	-2.137062e-08	-3.886879e+01	-1.401235e+03
3.000000e-07	-5.354642e-06	-2.130957e-08	-3.839737e+01	-1.395637e+03
3.100000e-07	-5.286824e-06	-2.122486e-08	-3.791105e+01	-1.389751e+03
3.200000e-07	-5.217012e-06	-2.111381e-08	-3.741044e+01	-1.383575e+03
3.300000e-07	-5.145385e-06	-2.102731e-08	-3.689682e+01	-1.377116e+03
3.400000e-07	-5.071912e-06	-2.088548e-08	-3.636994e+01	-1.370385e+03
3.500000e-07	-4.996366e-06	-2.080597e-08	-3.582822e+01	-1.363391e+03
3.600000e-07	-4.918644e-06	-2.069790e-08	-3.527089e+01	-1.356142e+03
3.700000e-07	-4.838925e-06	-2.057897e-08	-3.469923e+01	-1.348635e+03
3.800000e-07	-4.757374e-06	-2.047182e-08	-3.411444e+01	-1.340858e+03
3.900000e-07	-4.674235e-06	-2.032699e-08	-3.351827e+01	-1.332790e+03
4.000000e-07	-4.589729e-06	-2.018951e-08	-3.291228e+01	-1.324402e+03
4.100000e-07	-4.503819e-06	-2.005654e-08	-3.229623e+01	-1.315665e+03
4.200000e-07	-4.416466e-06	-1.993346e-08	-3.166984e+01	-1.306551e+03
4.300000e-07	-4.327627e-06	-1.978827e-08	-3.103279e+01	-1.297043e+03
4.400000e-07	-4.237218e-06	-1.963292e-08	-3.038447e+01	-1.287130e+03
4.500000e-07	-4.145159e-06	-1.948296e-08	-2.972434e+01	-1.276811e+03
4.600000e-07	-4.051548e-06	-1.931134e-08	-2.905306e+01	-1.266091e+03
4.700000e-07	-3.956583e-06	-1.914184e-08	-2.837208e+01	-1.254974e+03
4.800000e-07	-3.860303e-06	-1.896989e-08	-2.768168e+01	-1.243459e+03
4.900000e-07	-3.762609e-06	-1.879081e-08	-2.698112e+01	-1.231533e+03
5.000000e-07	-3.663426e-06	-1.859434e-08	-2.626989e+01	-1.219171e+03
5.100000e-07	-3.562853e-06	-1.839082e-08	-2.554870e+01	-1.206334e+03
5.200000e-07	-3.461046e-06	-1.818605e-08	-2.481866e+01	-1.192976e+03
5.300000e-07	-3.358035e-06	-1.796751e-08	-2.407998e+01	-1.179046e+03
5.400000e-07	-3.253789e-06	-1.774598e-08	-2.333245e+01	-1.164497e+03
5.500000e-07	-3.148376e-06	-1.751704e-08	-2.257655e+01	-1.149289e+03
5.600000e-07	-3.041737e-06	-1.727836e-08	-2.181186e+01	-1.133393e+03
5.700000e-07	-2.933802e-06	-1.702234e-08	-2.103787e+01	-1.116784e+03
5.800000e-07	-2.824774e-06	-1.675234e-08	-2.025605e+01	-1.099442e+03
5.900000e-07	-2.714829e-06	-1.647138e-08	-1.946765e+01	-1.081341e+03
6.000000e-07	-2.604019e-06	-1.617824e-08	-1.867305e+01	-1.062443e+03
6.100000e-07	-2.492235e-06	-1.587659e-08	-1.787146e+01	-1.042694e+03
6.200000e-07	-2.379456e-06	-1.556174e-08	-1.706273e+01	-1.022023e+03
6.300000e-07	-2.265726e-06	-1.523110e-08	-1.624719e+01	-1.000340e+03
6.400000e-07	-2.150959e-06	-1.487939e-08	-1.542421e+01	-9.775478e+02
6.500000e-07	-2.035229e-06	-1.451068e-08	-1.459433e+01	-9.535436e+02
6.600000e-07	-1.918671e-06	-1.412246e-08	-1.375851e+01	-9.282266e+02
6.700000e-07	-1.801435e-06	-1.371364e-08	-1.291783e+01	-9.015004e+02
6.800000e-07	-1.683630e-06	-1.328498e-08	-1.207307e+01	-8.732717e+02
6.900000e-07	-1.565347e-06	-1.283028e-08	-1.122488e+01	-8.434459e+02
7.000000e-07	-1.446579e-06	-1.234766e-08	-1.037321e+01	-8.119216e+02
7.100000e-07	-1.327338e-06	-1.183281e-08	-9.518151e+00	-7.785867e+02
7.200000e-07	-1.207571e-06	-1.129063e-08	-8.659316e+00	-7.433199e+02
7.300000e-07	-1.087310e-06	-1.071923e-08	-7.796941e+00	-7.059992e+02
7.400000e-07	-9.667105e-07	-1.011765e-08	-6.932141e+00	-6.665194e+02
7.500000e-07	-8.458150e-07	-9.484514e-09	-6.065217e+00	-6.248147e+02
7.600000e-07	-7.246841e-07	-8.816770e-09	-5.196605e+00	-5.808834e+02
7.700000e-07	-6.033790e-07	-8.111570e-09	-4.326743e+00	-5.348095e+02
7.800000e-07	-4.818805e-07	-7.375364e-09	-3.455496e+00	-4.867724e+02
7.900000e-07	-3.601913e-07	-6.616999e-09	-2.582879e+00	-4.370420e+02
8.000000e-07	-2.383489e-07	-5.838182e-09	-1.709165e+00	-3.859568e+02
8.100000e-07	-1.163509e-07	-5.044766e-09	-8.343351e-01	-3.338845e+02
8.200000e-07	5.646185e-09	-4.242225e-09	4.048798e-02	-2.811737e+02
8.300000e-07	1.276359e-07	-3.434461e-09	9.152585e-01	-2.281023e+02
8.400000e-07	2.496520e-07	-2.623027e-09	1.790219e+00	-1.748357e+02
8.500000e-07	3.715737e-07	-1.809992e-09	2.664501e+00	-1.214021e+02
8.600000e-07	4.933799e-07	-9.913741e-10	3.537956e+00	-6.769305e+01
8.700000e-07	6.150330e-07	-1.656504e-10	4.410313e+00	-1.349155e+01
8.800000e-07	7.364940e-07	6.709187e-10	5.281292e+00	4.147645e+01
8.900000e-07	8.577532e-07	1.522923e-09	6.150824e+00	9.747450e+01
9.000000e-07	9.787714e-07	2.392959e-09	7.018628e+00	1.546844e+02
9.100000e-07	1.099485e-06	3.282168e-09	7.884247e+00	2.131441e+02
9.200000e-07	1.219794e-06	4.187303e-09	8.746965e+00	2.727075e+02
9.300000e-07	1.339610e-06	5.106133e-09	9.606149e+00	3.330328e+02
9.400000e-07	1.458909e-06	6.029412e-09	1.046162e+01	3.936028e+02
9.500000e-07	1.577710e-06	6.943916e-09	1.131353e+01	4.537743e+02
9.600000e-07	1.695898e-06	7.841102e-09	1.216104e+01	5.128462e+02
9.700000e-07	1.813444e-06	8.711952e-09	1.300394e+01	5.701356e+02
9.800000e-07	1.930407e-06	9.547195e-09	1.384267e+01	6.250491e+02
9.900000e-07	2.046681e-06	1.033793e-08	1.467645e+01	6.771358e+02
1.000000e-06	2.162000e-06	1.107989e-08	1.550339e+01	7.261177e+02
1.010000e-06	2.276248e-06	1.177371e-08	1.632265e+01	7.718922e+02
1.020000e-06	2.389464e-06	1.242161e-08	1.713450e+01	8.145114e+02
1.030000e-06	2.501720e-06	1.302366e-08	1.793947e+01	8.541436e+02
1.040000e-06	2.613012e-06	1.358542e-08	1.873753e+01	8.910276e+02
1.050000e-06	2.723320e-06	1.410880e-08	1.952854e+01	9.254274e+02
1.060000e-06	2.832721e-06	1.459748e-08	2.031303e+01	9.575965e+02
1.070000e-06	2.941299e-06	1.505403e-08	2.109163e+01	9.877554e+02
1.080000e-06	3.049046e-06	1.548309e-08	2.186427e+01	1.016083e+03
1.090000e-06	3.155661e-06	1.588771e-08	2.262879e+01	1.042721e+03
1.100000e-06	3.260895e-06	1.627138e-08	2.338341e+01	1.067784e+03
1.110000e-06	3.364842e-06	1.663233e-08	2.412880e+01	1.091373e+03
1.120000e-06	3.467625e-06	1.697045e-08	2.486583e+01	1.113587e+03
1.130000e-06	3.569260e-06	1.728914e-08	2.559465e+01	1.134525e+03
1.140000e-06	3.669779e-06	1.759061e-08	2.631546e+01	1.154291e+03
1.150000e-06	3.769043e-06	1.787617e-08	2.702726e+01	1.172988e+03
1.160000e-06	3.866768e-06	1.814483e-08	2.772804e+01	1.190707e+03
1.170000e-06	3.962960e-06	1.840008e-08	2.841781e+01	1.207527e+03
1.180000e-06	4.057742e-06	1.864190e-08	2.909748e+01	1.223510e+03
1.190000e-06	4.151190e-06	1.887086e-08	2.976758e+01	1.238701e+03
1.200000e-06	4.243428e-06	1.908799e-08	3.042901e+01	1.253135e+03
1.210000e-06	4.334165e-06	1.929666e-08	3.107967e+01	1.266840e+03
1.220000e-06	4.423124e-06	1.949511e-08	3.171758e+01	1.279848e+03
1.230000e-06	4.510446e-06	1.968380e-08	3.234375e+01	1.292196e+03
1.240000e-06	4.596225e-06	1.986232e-08	3.295886e+01	1.303927e+03
1.250000e-06	4.680515e-06	2.003266e-08	3.356330e+01	1.315087e+03
1.260000e-06	4.763220e-06	2.019419e-08	3.415636e+01	1.325720e+03
1.270000e-06	4.844051e-06	2.034885e-08	3.473599e+01	1.335862e+03
1.280000e-06	4.922956e-06	2.049875e-08	3.530180e+01	1.345539e+03
1.290000e-06	5.000100e-06	2.064384e-08	3.585499e+01	1.354760e+03
1.300000e-06	5.075336e-06	2.078047e-08	3.639450e+01	1.363527e+03
1.310000e-06	5.148463e-06	2.090689e-08	3.691889e+01	1.371834e+03
1.320000e-06	5.219665e-06	2.102438e-08	3.742946e+01	1.379677e+03
1.330000e-06	5.289081e-06	2.113511e-08	3.792723e+01	1.387061e+03
1.340000e-06	5.356693e-06	2.123991e-08	3.841207e+01	1.394001e+03
1.350000e-06	5.422337e-06	2.133811e-08	3.888279e+01	1.400528e+03
1.360000e-06	5.485922e-06	2.143268e-08	3.933875e+01	1.406682e+03
1.370000e-06	5.547609e-06	2.152338e-08	3.978110e+01	1.412509e+03
1.380000e-06	5.607517e-06	2.161033e-08	4.021069e+01	1.418053e+03
1.390000e-06	5.665387e-06	2.169313e-08	4.062567e+01	1.423352e+03
1.400000e-06	5.721158e-06	2.177187e-08	4.102560e+01	1.428429e+03
1.410000e-06	5.774964e-06	2.184697e-08	4.141143e+01	1.433291e+03
1.420000e-06	5.826396e-06	2.191732e-08	4.178024e+01	1.437937e+03
1.430000e-06	5.875307e-06	2.198270e-08	4.213098e+01	1.442354e+03
1.440000e-06	5.922029e-06	2.204392e-08	4.246602e+01	1.446526e+03
1.450000e-06	5.966875e-06	2.210281e-08	4.278759e+01	1.450441e+03
1.460000e-06	6.009696e-06	2.215972e-08	4.309466e+01	1.454091e+03
1.470000e-06	6.050175e-06	2.221521e-08	4.338493e+01	1.457476e+03
1.480000e-06	6.088484e-06	2.226628e-08	4.365964e+01	1.460603e+03
1.490000e-06	6.124883e-06	2.231057e-08	4.392065e+01	1.463481e+03
1.500000e-06	6.159084e-06	2.234877e-08	4.416590e+01	1.466121e+03
1.510000e-06	6.190979e-06	2.238230e-08	4.439462e+01	1.468531e+03
1.520000e-06	6.220752e-06	2.241419e-08	4.460811e+01	1.470718e+03
1.530000e-06	6.248443e-06	2.244328e-08	4.480668e+01	1.472684e+03
1.540000e-06	6.273861e-06	2.246783e-08	4.498895e+01	1.474430e+03
1.550000e-06	6.296803e-06	2.248997e-08	4.515347e+01	1.475961e+03
1.560000e-06	6.317604e-06	2.250953e-08	4.530262e+01	1.477282e+03
1.570000e-06	6.336336e-06	2.252800e-08	4.543695e+01	1.478403e+03
1.580000e-06	6.352656e-06	2.254578e-08	4.555398e+01	1.479337e+03
1.590000e-06	6.366517e-06	2.255908e-08	4.565337e+01	1.480100e+03
1.600000e-06	6.377972e-06	2.256891e-08	4.573552e+01	1.480703e+03
1.610000e-06	6.386884e-06	2.257664e-08	4.579942e+01	1.481154e+03
1.620000e-06	6.393355e-06	2.258277e-08	4.584582e+01	1.481455e+03
1.630000e-06	6.397737e-06	2.258645e-08	4.587724e+01	1.481602e+03
1.640000e-06	6.399878e-06	2.258845e-08	4.589260e+01	1.481584e+03
1.650000e-06	6.399662e-06	2.258929e-08	4.589105e+01	1.481392e+03
1.660000e-06	6.397316e-06	2.257541e-08	4.587423e+01	1.481018e+03
1.670000e-06	6.392980e-06	2.256917e-08	4.584313e+01	1.480462e+03
1.680000e-06	6.386478e-06	2.256266e-08	4.579651e+01	1.479729e+03
1.690000e-06	6.377752e-06	2.255026e-08	4.573394e+01	1.478834e+03
1.700000e-06	6.367060e-06	2.253776e-08	4.565727e+01	1.477798e+03
1.710000e-06	6.354192e-06	2.252578e-08	4.556499e+01	1.476640e+03
1.720000e-06	6.339019e-06	2.253489e-08	4.545619e+01	1.475379e+03
1.730000e-06	6.321884e-06	2.247591e-08	4.533332e+01	1.474024e+03
1.740000e-06	6.302637e-06	2.235251e-08	4.519530e+01	1.472573e+03
1.750000e-06	6.280375e-06	2.238327e-08	4.503566e+01	1.471013e+03
1.760000e-06	6.254976e-06	2.239778e-08	4.485353e+01	1.469318e+03
1.770000e-06	6.227393e-06	2.232458e-08	4.465573e+01	1.467457e+03
1.780000e-06	6.197997e-06	2.245924e-08	4.444494e+01	1.465396e+03
1.790000e-06	6.166987e-06	2.238272e-08	4.422257e+01	1.463106e+03
1.800000e-06	6.134506e-06	2.217271e-08	4.398965e+01	1.460565e+03
1.810000e-06	6.099960e-06	2.233195e-08	4.374193e+01	1.457761e+03
1.820000e-06	6.063458e-06	2.212472e-08	4.348018e+01	1.454699e+03
1.830000e-06	6.024923e-06	2.204187e-08	4.320385e+01	1.451391e+03
1.840000e-06	5.983904e-06	2.219217e-08	4.290971e+01	1.447863e+03
1.850000e-06	5.940893e-06	2.192557e-08	4.260128e+01	1.444141e+03
1.860000e-06	5.895835e-06	2.199027e-08	4.227818e+01	1.440254e+03
1.870000e-06	5.848570e-06	2.191469e-08	4.193925e+01	1.436226e+03
1.880000e-06	5.799309e-06	2.175885e-08	4.158601e+01	1.432071e+03
1.890000e-06	5.747508e-06	2.183794e-08	4.121455e+01	1.427791e+03
1.900000e-06	5.693145e-06	2.161171e-08	4.082472e+01	1.423380e+03
1.910000e-06	5.636578e-06	2.164114e-08	4.041909e+01	1.418817e+03
1.920000e-06	5.577996e-06	2.160570e-08	3.999901e+01	1.414075e+03
1.930000e-06	5.517601e-06	2.143911e-08	3.956592e+01	1.409122e+03
1.940000e-06	5.455027e-06	2.144236e-08	3.911721e+01	1.403930e+03
1.950000e-06	5.390276e-06	2.125698e-08	3.865289e+01	1.398471e+03
1.960000e-06	5.323552e-06	2.126273e-08	3.817442e+01	1.392730e+03
1.970000e-06	5.254831e-06	2.112606e-08	3.768163e+01	1.386699e+03
1.980000e-06	5.184026e-06	2.101532e-08	3.717390e+01	1.380381e+03
1.990000e-06	5.111210e-06	2.099126e-08	3.665175e+01	1.373784e+03
2.000000e-06	5.036646e-06	2.081145e-08	3.611706e+01	1.366920e+03
2.010000e-06	4.960093e-06	2.075729e-08	3.556811e+01	1.359798e+03
2.020000e-06	4.881464e-06	2.058118e-08	3.500427e+01	1.352421e+03
2.030000e-06	4.801008e-06	2.050102e-08	3.442734e+01	1.344781e+03
2.040000e-06	4.718925e-06	2.040820e-08	3.383873e+01	1.336862e+03
2.050000e-06	4.635300e-06	2.026160e-08	3.323906e+01	1.328637e+03
2.060000e-06	4.550034e-06	2.015711e-08	3.262764e+01	1.320079e+03
2.070000e-06	4.463090e-06	1.998677e-08	3.200417e+01	1.311156e+03
2.080000e-06	4.374503e-06	1.986928e-08	3.136893e+01	1.301848e+03
2.090000e-06	4.284460e-06	1.968765e-08	3.072324e+01	1.292137e+03
2.100000e-06	4.193036e-06	1.954510e-08	3.006765e+01	1.282021e+03
2.110000e-06	4.100197e-06	1.938995e-08	2.940192e+01	1.271501e+03
2.120000e-06	4.005918e-06	1.921876e-08	2.872586e+01	1.260582e+03
2.130000e-06	3.910062e-06	1.905426e-08	2.803849e+01	1.249267e+03
2.140000e-06	3.812753e-06	1.887113e-08	2.734070e+01	1.237548e+03
2.150000e-06	3.714206e-06	1.870459e-08	2.663403e+01	1.225408e+03
2.160000e-06	3.614364e-06	1.850523e-08	2.591808e+01	1.212814e+03
2.170000e-06	3.513085e-06	1.831526e-08	2.519182e+01	1.199723e+03
2.180000e-06	3.410477e-06	1.809746e-08	2.445604e+01	1.186085e+03
2.190000e-06	3.306523e-06	1.788095e-08	2.371060e+01	1.171851e+03
2.200000e-06	3.201328e-06	1.764893e-08	2.295626e+01	1.156977e+03
2.210000e-06	3.095069e-06	1.741490e-08	2.219429e+01	1.141429e+03
2.220000e-06	2.987695e-06	1.717347e-08	2.142433e+01	1.125179e+03
2.230000e-06	2.879348e-06	1.692101e-08	2.064739e+01	1.108206e+03
2.240000e-06	2.770061e-06	1.666137e-08	1.986371e+01	1.090488e+03
2.250000e-06	2.659690e-06	1.638189e-08	1.907225e+01	1.071994e+03
2.260000e-06	2.548224e-06	1.608823e-08	1.827294e+01	1.052679e+03
2.270000e-06	2.435779e-06	1.577279e-08	1.746662e+01	1.032479e+03
2.280000e-06	2.322357e-06	1.544909e-08	1.665329e+01	1.011314e+03
2.290000e-06	2.208032e-06	1.510643e-08	1.583348e+01	9.890890e+02
2.300000e-06	2.092820e-06	1.475439e-08	1.500731e+01	9.657036e+02
2.310000e-06	1.976684e-06	1.438342e-08	1.417452e+01	9.410553e+02
2.320000e-06	1.859825e-06	1.399319e-08	1.333653e+01	9.150455e+02
2.330000e-06	1.742371e-06	1.357683e-08	1.249429e+01	8.875797e+02
2.340000e-06	1.624239e-06	1.313479e-08	1.164718e+01	8.585645e+02
2.350000e-06	1.505383e-06	1.266969e-08	1.079488e+01	8.279028e+02
2.360000e-06	1.385894e-06	1.217841e-08	9.938043e+00	7.954879e+02
2.370000e-06	1.265926e-06	1.165804e-08	9.077771e+00	7.612025e+02
2.380000e-06	1.145567e-06	1.110019e-08	8.214692e+00	7.249235e+02
2.390000e-06	1.024888e-06	1.051089e-08	7.349320e+00	6.865346e+02
2.400000e-06	9.039263e-07	9.890410e-09	6.481925e+00	6.459471e+02
2.410000e-06	7.826530e-07	9.241124e-09	5.612292e+00	6.031243e+02
2.420000e-06	6.611403e-07	8.559959e-09	4.740942e+00	5.581054e+02
2.430000e-06	5.394788e-07	7.846777e-09	3.868525e+00	5.110214e+02
2.440000e-06	4.176799e-07	7.103379e-09	2.995122e+00	4.620989e+02
2.450000e-06	2.957132e-07	6.331762e-09	2.120517e+00	4.116459e+02
2.460000e-06	1.735535e-07	5.540108e-09	1.244527e+00	3.600212e+02
2.470000e-06	5.129636e-08	4.735066e-09	3.678388e-01	3.075894e+02
2.480000e-06	-7.094362e-08	3.927184e-09	-5.087265e-01	2.546697e+02
2.490000e-06	-1.931468e-07	3.115096e-09	-1.385028e+00	2.014883e+02
2.500000e-06	-3.152498e-07	2.300406e-09	-2.260611e+00	1.481436e+02
2.510000e-06	-4.372715e-07	1.485198e-09	-3.135611e+00	9.459352e+01
2.520000e-06	-5.591959e-07	6.618312e-10	-4.009913e+00	4.067039e+01
2.530000e-06	-6.809868e-07	-1.719938e-10	-4.883258e+00	-1.387907e+01
2.540000e-06	-8.025591e-07	-1.021280e-09	-5.755036e+00	-6.933264e+01
2.550000e-06	-9.238589e-07	-1.886736e-09	-6.624858e+00	-1.259216e+02
2.560000e-06	-1.044918e-06	-2.769205e-09	-7.492959e+00	-1.837625e+02
2.570000e-06	-1.165662e-06	-3.671060e-09	-8.358796e+00	-2.428047e+02
2.580000e-06	-1.286017e-06	-4.587496e-09	-9.221839e+00	-3.028036e+02
2.590000e-06	-1.405936e-06	-5.513302e-09	-1.008176e+01	-3.633252e+02
2.600000e-06	-1.525264e-06	-6.440867e-09	-1.093745e+01	-4.237817e+02
2.610000e-06	-1.643841e-06	-7.357059e-09	-1.178775e+01	-4.834917e+02
2.620000e-06	-1.761652e-06	-8.249822e-09	-1.263255e+01	-5.417536e+02
2.630000e-06	-1.878750e-06	-9.109112e-09	-1.347224e+01	-5.979214e+02
2.640000e-06	-1.995072e-06	-9.926384e-09	-1.430638e+01	-6.514674e+02
2.650000e-06	-2.110549e-06	-1.069709e-08	-1.513444e+01	-7.020253e+02
2.660000e-06	-2.225204e-06	-1.142166e-08	-1.595661e+01	-7.494059e+02
2.670000e-06	-2.338811e-06	-1.209959e-08	-1.677128e+01	-7.935879e+02
2.680000e-06	-2.451266e-06	-1.273146e-08	-1.757767e+01	-8.346870e+02
2.690000e-06	-2.562693e-06	-1.331992e-08	-1.837670e+01	-8.729127e+02
2.700000e-06	-2.673146e-06	-1.386746e-08	-1.916874e+01	-9.085216e+02
2.710000e-06	-2.782620e-06	-1.437716e-08	-1.995377e+01	-9.417761e+02
2.720000e-06	-2.891152e-06	-1.485285e-08	-2.073203e+01	-9.729151e+02
2.730000e-06	-2.998821e-06	-1.529836e-08	-2.150411e+01	-1.002139e+03
2.740000e-06	-3.105572e-06	-1.571610e-08	-2.226961e+01	-1.029606e+03
2.750000e-06	-3.211302e-06	-1.610999e-08	-2.302778e+01	-1.055443e+03
2.760000e-06	-3.315946e-06	-1.648215e-08	-2.377817e+01	-1.079757e+03
2.770000e-06	-3.419409e-06	-1.683230e-08	-2.452009e+01	-1.102646e+03
2.780000e-06	-3.521496e-06	-1.716113e-08	-2.525214e+01	-1.124209e+03
2.790000e-06	-3.622216e-06	-1.747170e-08	-2.597439e+01	-1.144548e+03
2.800000e-06	-3.721775e-06	-1.776639e-08	-2.668831e+01	-1.163767e+03
2.810000e-06	-3.820095e-06	-1.804677e-08	-2.739335e+01	-1.181964e+03
2.820000e-06	-3.917102e-06	-1.831054e-08	-2.808898e+01	-1.199225e+03
2.830000e-06	-4.012811e-06	-1.855929e-08	-2.877528e+01	-1.215620e+03
2.840000e-06	-4.107001e-06	-1.879750e-08	-2.945071e+01	-1.231202e+03
2.850000e-06	-4.199678e-06	-1.902517e-08	-3.011528e+01	-1.246011e+03
2.860000e-06	-4.290966e-06	-1.924342e-08	-3.076989e+01	-1.260076e+03
2.870000e-06	-4.380686e-06	-1.945092e-08	-3.141327e+01	-1.273429e+03
2.880000e-06	-4.468834e-06	-1.964488e-08	-3.204536e+01	-1.286102e+03
2.890000e-06	-4.555305e-06	-1.982711e-08	-3.266544e+01	-1.298136e+03
2.900000e-06	-4.639986e-06	-1.999989e-08	-3.327267e+01	-1.309576e+03
2.910000e-06	-4.723103e-06	-2.016409e-08	-3.386869e+01	-1.320467e+03
2.920000e-06	-4.804696e-06	-2.032137e-08	-3.445378e+01	-1.330851e+03
2.930000e-06	-4.884617e-06	-2.047192e-08	-3.502688e+01	-1.340758e+03
2.940000e-06	-4.962520e-06	-2.061665e-08	-3.558551e+01	-1.350206e+03
