# Temperatura_=_72.7
# Concentracion g/m^3_=_28200.0
# C_Vs_to_Am_M_A/Vsm_=_65563218390.804596
# pendiente_HvsI_1/m_=_3716.3
# ordenada_HvsI_A/m_=_1297.0
# frecuencia_Hz_=_302119.4395868686

Tiempo_(s)	Campo_(V.s)	Magnetizacion_(V.s)	Campo_(kA/m)	Magnetizacion_(A/m)
0.000000e+00	-6.407623e-06	-2.238421e-08	-4.585989e+01	-1.466422e+03
1.000000e-08	-6.404368e-06	-2.238056e-08	-4.583659e+01	-1.465919e+03
2.000000e-08	-6.399038e-06	-2.237037e-08	-4.579844e+01	-1.465221e+03
3.000000e-08	-6.391725e-06	-2.236055e-08	-4.574611e+01	-1.464353e+03
4.000000e-08	-6.382268e-06	-2.234873e-08	-4.567842e+01	-1.463345e+03
5.000000e-08	-6.370525e-06	-2.233378e-08	-4.559438e+01	-1.462230e+03
6.000000e-08	-6.356443e-06	-2.231463e-08	-4.549359e+01	-1.461033e+03
7.000000e-08	-6.340016e-06	-2.228265e-08	-4.537602e+01	-1.459765e+03
8.000000e-08	-6.321436e-06	-2.226617e-08	-4.524304e+01	-1.458424e+03
9.000000e-08	-6.300782e-06	-2.229843e-08	-4.509522e+01	-1.456988e+03
1.000000e-07	-6.277667e-06	-2.226801e-08	-4.492979e+01	-1.455426e+03
1.100000e-07	-6.251895e-06	-2.219775e-08	-4.474533e+01	-1.453703e+03
1.200000e-07	-6.223803e-06	-2.217897e-08	-4.454427e+01	-1.451789e+03
1.300000e-07	-6.193861e-06	-2.213827e-08	-4.432998e+01	-1.449664e+03
1.400000e-07	-6.162332e-06	-2.202853e-08	-4.410432e+01	-1.447320e+03
1.500000e-07	-6.129019e-06	-2.206111e-08	-4.386590e+01	-1.444768e+03
1.600000e-07	-6.093651e-06	-2.208515e-08	-4.361276e+01	-1.442024e+03
1.700000e-07	-6.056439e-06	-2.192312e-08	-4.334644e+01	-1.439111e+03
1.800000e-07	-6.017276e-06	-2.196704e-08	-4.306614e+01	-1.436047e+03
1.900000e-07	-5.975635e-06	-2.190737e-08	-4.276812e+01	-1.432840e+03
2.000000e-07	-5.931711e-06	-2.176602e-08	-4.245375e+01	-1.429486e+03
2.100000e-07	-5.885747e-06	-2.180304e-08	-4.212478e+01	-1.425971e+03
2.200000e-07	-5.837545e-06	-2.172963e-08	-4.177980e+01	-1.422268e+03
2.300000e-07	-5.786865e-06	-2.165887e-08	-4.141708e+01	-1.418352e+03
2.400000e-07	-5.733650e-06	-2.159136e-08	-4.103621e+01	-1.414198e+03
2.500000e-07	-5.678233e-06	-2.149118e-08	-4.063958e+01	-1.409788e+03
2.600000e-07	-5.620592e-06	-2.143765e-08	-4.022705e+01	-1.405116e+03
2.700000e-07	-5.560733e-06	-2.135457e-08	-3.979863e+01	-1.400183e+03
2.800000e-07	-5.498952e-06	-2.128172e-08	-3.935645e+01	-1.395000e+03
2.900000e-07	-5.435330e-06	-2.118587e-08	-3.890111e+01	-1.389576e+03
3.000000e-07	-5.369602e-06	-2.108314e-08	-3.843068e+01	-1.383923e+03
3.100000e-07	-5.301634e-06	-2.101167e-08	-3.794424e+01	-1.378044e+03
3.200000e-07	-5.231715e-06	-2.092348e-08	-3.744382e+01	-1.371936e+03
3.300000e-07	-5.160130e-06	-2.085098e-08	-3.693148e+01	-1.365590e+03
3.400000e-07	-5.086710e-06	-2.073079e-08	-3.640600e+01	-1.358990e+03
3.500000e-07	-5.011126e-06	-2.061995e-08	-3.586504e+01	-1.352119e+03
3.600000e-07	-4.933423e-06	-2.051462e-08	-3.530892e+01	-1.344960e+03
3.700000e-07	-4.853671e-06	-2.038596e-08	-3.473813e+01	-1.337497e+03
3.800000e-07	-4.772058e-06	-2.028249e-08	-3.415402e+01	-1.329718e+03
3.900000e-07	-4.688925e-06	-2.015716e-08	-3.355903e+01	-1.321615e+03
4.000000e-07	-4.604418e-06	-2.002420e-08	-3.295420e+01	-1.313180e+03
4.100000e-07	-4.518402e-06	-1.988224e-08	-3.233858e+01	-1.304406e+03
4.200000e-07	-4.430960e-06	-1.974598e-08	-3.171275e+01	-1.295289e+03
4.300000e-07	-4.342112e-06	-1.960549e-08	-3.107685e+01	-1.285823e+03
4.400000e-07	-4.251693e-06	-1.945207e-08	-3.042972e+01	-1.275999e+03
4.500000e-07	-4.159581e-06	-1.930162e-08	-2.977047e+01	-1.265812e+03
4.600000e-07	-4.065905e-06	-1.913167e-08	-2.910002e+01	-1.255250e+03
4.700000e-07	-3.970935e-06	-1.896007e-08	-2.842031e+01	-1.244301e+03
4.800000e-07	-3.874635e-06	-1.878954e-08	-2.773108e+01	-1.232949e+03
4.900000e-07	-3.776856e-06	-1.861852e-08	-2.703127e+01	-1.221171e+03
5.000000e-07	-3.677560e-06	-1.843183e-08	-2.632060e+01	-1.208937e+03
5.100000e-07	-3.576924e-06	-1.823222e-08	-2.560034e+01	-1.196214e+03
5.200000e-07	-3.475054e-06	-1.802559e-08	-2.487125e+01	-1.182961e+03
5.300000e-07	-3.371996e-06	-1.780809e-08	-2.413365e+01	-1.169138e+03
5.400000e-07	-3.267747e-06	-1.758718e-08	-2.338753e+01	-1.154707e+03
5.500000e-07	-3.162249e-06	-1.735598e-08	-2.263248e+01	-1.139633e+03
5.600000e-07	-3.055430e-06	-1.711561e-08	-2.186797e+01	-1.123887e+03
5.700000e-07	-2.947355e-06	-1.686084e-08	-2.109446e+01	-1.107444e+03
5.800000e-07	-2.838225e-06	-1.659505e-08	-2.031342e+01	-1.090279e+03
5.900000e-07	-2.728175e-06	-1.632378e-08	-1.952578e+01	-1.072365e+03
6.000000e-07	-2.617280e-06	-1.604395e-08	-1.873209e+01	-1.053662e+03
6.100000e-07	-2.505381e-06	-1.574806e-08	-1.793122e+01	-1.034120e+03
6.200000e-07	-2.392444e-06	-1.543382e-08	-1.712292e+01	-1.013670e+03
6.300000e-07	-2.278533e-06	-1.510102e-08	-1.630765e+01	-9.922299e+02
6.400000e-07	-2.163560e-06	-1.475019e-08	-1.548478e+01	-9.697073e+02
6.500000e-07	-2.047627e-06	-1.438563e-08	-1.465504e+01	-9.460022e+02
6.600000e-07	-1.930936e-06	-1.400309e-08	-1.381987e+01	-9.210138e+02
6.700000e-07	-1.813577e-06	-1.359856e-08	-1.297992e+01	-8.946431e+02
6.800000e-07	-1.695588e-06	-1.317250e-08	-1.213546e+01	-8.667930e+02
6.900000e-07	-1.577111e-06	-1.272348e-08	-1.128751e+01	-8.373655e+02
7.000000e-07	-1.458199e-06	-1.224896e-08	-1.043645e+01	-8.062580e+02
7.100000e-07	-1.338759e-06	-1.174692e-08	-9.581612e+00	-7.733604e+02
7.200000e-07	-1.218813e-06	-1.121428e-08	-8.723149e+00	-7.385564e+02
7.300000e-07	-1.098421e-06	-1.065075e-08	-7.861494e+00	-7.017306e+02
7.400000e-07	-9.776308e-07	-1.005466e-08	-6.996985e+00	-6.627839e+02
7.500000e-07	-8.565653e-07	-9.425510e-09	-6.130509e+00	-6.216533e+02
7.600000e-07	-7.352750e-07	-8.764494e-09	-5.262424e+00	-5.783354e+02
7.700000e-07	-6.137133e-07	-8.070563e-09	-4.392397e+00	-5.329062e+02
7.800000e-07	-4.919646e-07	-7.348023e-09	-3.521031e+00	-4.855326e+02
7.900000e-07	-3.700671e-07	-6.601636e-09	-2.648601e+00	-4.364694e+02
8.000000e-07	-2.479996e-07	-5.833919e-09	-1.774954e+00	-3.860404e+02
8.100000e-07	-1.257725e-07	-5.048806e-09	-9.001643e-01	-3.346028e+02
8.200000e-07	-3.451732e-09	-4.254735e-09	-2.470433e-02	-2.825007e+02
8.300000e-07	1.188326e-07	-3.454527e-09	8.504950e-01	-2.300152e+02
8.400000e-07	2.410796e-07	-2.650329e-09	1.725427e+00	-1.773216e+02
8.500000e-07	3.632624e-07	-1.843696e-09	2.599899e+00	-1.244621e+02
8.600000e-07	4.853556e-07	-1.031920e-09	3.473730e+00	-7.134339e+01
8.700000e-07	6.073474e-07	-2.148268e-10	4.346835e+00	-1.776017e+01
8.800000e-07	7.291675e-07	6.102943e-10	5.218712e+00	3.655576e+01
8.900000e-07	8.507671e-07	1.448068e-09	6.089011e+00	9.186985e+01
9.000000e-07	9.721344e-07	2.304623e-09	6.957646e+00	1.483734e+02
9.100000e-07	1.093143e-06	3.182110e-09	7.823714e+00	2.061197e+02
9.200000e-07	1.213769e-06	4.077636e-09	8.687043e+00	2.649809e+02
9.300000e-07	1.333894e-06	4.987403e-09	9.546793e+00	3.246328e+02
9.400000e-07	1.453361e-06	5.902906e-09	1.040183e+01	3.845731e+02
9.500000e-07	1.572286e-06	6.809606e-09	1.125298e+01	4.441678e+02
9.600000e-07	1.690712e-06	7.699509e-09	1.210057e+01	5.027200e+02
9.700000e-07	1.808608e-06	8.562210e-09	1.294436e+01	5.595459e+02
9.800000e-07	1.925858e-06	9.387224e-09	1.378352e+01	6.140481e+02
9.900000e-07	2.042363e-06	1.016802e-08	1.461736e+01	6.657704e+02
1.000000e-06	2.158009e-06	1.090118e-08	1.544505e+01	7.144298e+02
1.010000e-06	2.272645e-06	1.159117e-08	1.626551e+01	7.599196e+02
1.020000e-06	2.386220e-06	1.223565e-08	1.707837e+01	8.022885e+02
1.030000e-06	2.498777e-06	1.283650e-08	1.788395e+01	8.417020e+02
1.040000e-06	2.610347e-06	1.339628e-08	1.868247e+01	8.783950e+02
1.050000e-06	2.720962e-06	1.391809e-08	1.947415e+01	9.126265e+02
1.060000e-06	2.830709e-06	1.440471e-08	2.025962e+01	9.446435e+02
1.070000e-06	2.939622e-06	1.485925e-08	2.103912e+01	9.746593e+02
1.080000e-06	3.047616e-06	1.528610e-08	2.181204e+01	1.002846e+03
1.090000e-06	3.154473e-06	1.568583e-08	2.257682e+01	1.029341e+03
1.100000e-06	3.260028e-06	1.606379e-08	2.333229e+01	1.054256e+03
1.110000e-06	3.364308e-06	1.642045e-08	2.407863e+01	1.077694e+03
1.120000e-06	3.467335e-06	1.675891e-08	2.481600e+01	1.099759e+03
1.130000e-06	3.569192e-06	1.707833e-08	2.554501e+01	1.120559e+03
1.140000e-06	3.669915e-06	1.738140e-08	2.626588e+01	1.140203e+03
1.150000e-06	3.769347e-06	1.766667e-08	2.697753e+01	1.158799e+03
1.160000e-06	3.867380e-06	1.793233e-08	2.767916e+01	1.176442e+03
1.170000e-06	3.963888e-06	1.818290e-08	2.836988e+01	1.193207e+03
1.180000e-06	4.058925e-06	1.842111e-08	2.905007e+01	1.209151e+03
1.190000e-06	4.152662e-06	1.864877e-08	2.972094e+01	1.224312e+03
1.200000e-06	4.245107e-06	1.886630e-08	3.038258e+01	1.238718e+03
1.210000e-06	4.336124e-06	1.907292e-08	3.103400e+01	1.252392e+03
1.220000e-06	4.425507e-06	1.926910e-08	3.167372e+01	1.265363e+03
1.230000e-06	4.513136e-06	1.945643e-08	3.230089e+01	1.277668e+03
1.240000e-06	4.599115e-06	1.963547e-08	3.291624e+01	1.289352e+03
1.250000e-06	4.683583e-06	1.980686e-08	3.352079e+01	1.300466e+03
1.260000e-06	4.766502e-06	1.996988e-08	3.411425e+01	1.311058e+03
1.270000e-06	4.847652e-06	2.012455e-08	3.469505e+01	1.321166e+03
1.280000e-06	4.926950e-06	2.027154e-08	3.526259e+01	1.330815e+03
1.290000e-06	5.004461e-06	2.041221e-08	3.581735e+01	1.340013e+03
1.300000e-06	5.080012e-06	2.054455e-08	3.635806e+01	1.348758e+03
1.310000e-06	5.153419e-06	2.067051e-08	3.688345e+01	1.357041e+03
1.320000e-06	5.224899e-06	2.079065e-08	3.739503e+01	1.364856e+03
1.330000e-06	5.294607e-06	2.090598e-08	3.789394e+01	1.372208e+03
1.340000e-06	5.362452e-06	2.101294e-08	3.837951e+01	1.379116e+03
1.350000e-06	5.428345e-06	2.111069e-08	3.885111e+01	1.385614e+03
1.360000e-06	5.492225e-06	2.120439e-08	3.930831e+01	1.391745e+03
1.370000e-06	5.554176e-06	2.129373e-08	3.975170e+01	1.397558e+03
1.380000e-06	5.614325e-06	2.137795e-08	4.018219e+01	1.403096e+03
1.390000e-06	5.672581e-06	2.145841e-08	4.059913e+01	1.408393e+03
1.400000e-06	5.728750e-06	2.153796e-08	4.100114e+01	1.413466e+03
1.410000e-06	5.782807e-06	2.161340e-08	4.138803e+01	1.418317e+03
1.420000e-06	5.834541e-06	2.168091e-08	4.175829e+01	1.422940e+03
1.430000e-06	5.883689e-06	2.174478e-08	4.211005e+01	1.427321e+03
1.440000e-06	5.930603e-06	2.180594e-08	4.244582e+01	1.431448e+03
1.450000e-06	5.975616e-06	2.186524e-08	4.276798e+01	1.435314e+03
1.460000e-06	6.018607e-06	2.192060e-08	4.307567e+01	1.438923e+03
1.470000e-06	6.059325e-06	2.197265e-08	4.336709e+01	1.442282e+03
1.480000e-06	6.097825e-06	2.202142e-08	4.364264e+01	1.445405e+03
1.490000e-06	6.134335e-06	2.206389e-08	4.390394e+01	1.448304e+03
1.500000e-06	6.168708e-06	2.210295e-08	4.414995e+01	1.450987e+03
1.510000e-06	6.200840e-06	2.213845e-08	4.437992e+01	1.453453e+03
1.520000e-06	6.230883e-06	2.217028e-08	4.459495e+01	1.455699e+03
1.530000e-06	6.258858e-06	2.219812e-08	4.479516e+01	1.457717e+03
1.540000e-06	6.284398e-06	2.222252e-08	4.497796e+01	1.459501e+03
1.550000e-06	6.307503e-06	2.224651e-08	4.514332e+01	1.461051e+03
1.560000e-06	6.328492e-06	2.226820e-08	4.529354e+01	1.462376e+03
1.570000e-06	6.347424e-06	2.228825e-08	4.542904e+01	1.463492e+03
1.580000e-06	6.363986e-06	2.230662e-08	4.554757e+01	1.464423e+03
1.590000e-06	6.378100e-06	2.231911e-08	4.564859e+01	1.465189e+03
1.600000e-06	6.389858e-06	2.232788e-08	4.573275e+01	1.465808e+03
1.610000e-06	6.398960e-06	2.233557e-08	4.579789e+01	1.466287e+03
1.620000e-06	6.405573e-06	2.234160e-08	4.584522e+01	1.466621e+03
1.630000e-06	6.410019e-06	2.234414e-08	4.587704e+01	1.466797e+03
1.640000e-06	6.412193e-06	2.234465e-08	4.589260e+01	1.466794e+03
1.650000e-06	6.412113e-06	2.234432e-08	4.589202e+01	1.466597e+03
1.660000e-06	6.409918e-06	2.233543e-08	4.587631e+01	1.466196e+03
1.670000e-06	6.405650e-06	2.232522e-08	4.584577e+01	1.465593e+03
1.680000e-06	6.399117e-06	2.231632e-08	4.579901e+01	1.464807e+03
1.690000e-06	6.390485e-06	2.230516e-08	4.573723e+01	1.463865e+03
1.700000e-06	6.379974e-06	2.229294e-08	4.566200e+01	1.462799e+03
1.710000e-06	6.367258e-06	2.227875e-08	4.557099e+01	1.461641e+03
1.720000e-06	6.352165e-06	2.227108e-08	4.546297e+01	1.460408e+03
1.730000e-06	6.335023e-06	2.223464e-08	4.534028e+01	1.459105e+03
1.740000e-06	6.315833e-06	2.213575e-08	4.520294e+01	1.457719e+03
1.750000e-06	6.293750e-06	2.212918e-08	4.504489e+01	1.456225e+03
1.760000e-06	6.268518e-06	2.214837e-08	4.486431e+01	1.454587e+03
1.770000e-06	6.240969e-06	2.210552e-08	4.466713e+01	1.452772e+03
1.780000e-06	6.211611e-06	2.212942e-08	4.445701e+01	1.450754e+03
1.790000e-06	6.180610e-06	2.213479e-08	4.423514e+01	1.448519e+03
1.800000e-06	6.148169e-06	2.201779e-08	4.400296e+01	1.446069e+03
1.810000e-06	6.113728e-06	2.203441e-08	4.375646e+01	1.443419e+03
1.820000e-06	6.077198e-06	2.191992e-08	4.349501e+01	1.440588e+03
1.830000e-06	6.038686e-06	2.179039e-08	4.321937e+01	1.437597e+03
1.840000e-06	5.997811e-06	2.193034e-08	4.292683e+01	1.434461e+03
1.850000e-06	5.954853e-06	2.180605e-08	4.261938e+01	1.431182e+03
1.860000e-06	5.909858e-06	2.172442e-08	4.229734e+01	1.427750e+03
1.870000e-06	5.862597e-06	2.171818e-08	4.195909e+01	1.424144e+03
1.880000e-06	5.813243e-06	2.158144e-08	4.160586e+01	1.420339e+03
1.890000e-06	5.761477e-06	2.163377e-08	4.123537e+01	1.416306e+03
1.900000e-06	5.707123e-06	2.153791e-08	4.084635e+01	1.412026e+03
1.910000e-06	5.650619e-06	2.144003e-08	4.044195e+01	1.407485e+03
1.920000e-06	5.592093e-06	2.142254e-08	4.002307e+01	1.402682e+03
1.930000e-06	5.531620e-06	2.127697e-08	3.959027e+01	1.397622e+03
1.940000e-06	5.469088e-06	2.126692e-08	3.914271e+01	1.392317e+03
1.950000e-06	5.404442e-06	2.115111e-08	3.868004e+01	1.386778e+03
1.960000e-06	5.337784e-06	2.107460e-08	3.820296e+01	1.381012e+03
1.970000e-06	5.269072e-06	2.099372e-08	3.771118e+01	1.375019e+03
1.980000e-06	5.198272e-06	2.084235e-08	3.720447e+01	1.368794e+03
1.990000e-06	5.125492e-06	2.079492e-08	3.668357e+01	1.362323e+03
2.000000e-06	5.050911e-06	2.065865e-08	3.614979e+01	1.355590e+03
2.010000e-06	4.974322e-06	2.058729e-08	3.560164e+01	1.348577e+03
2.020000e-06	4.895674e-06	2.047426e-08	3.503875e+01	1.341267e+03
2.030000e-06	4.815222e-06	2.032775e-08	3.446294e+01	1.333648e+03
2.040000e-06	4.733066e-06	2.022510e-08	3.387495e+01	1.325708e+03
2.050000e-06	4.649414e-06	2.007937e-08	3.327624e+01	1.317439e+03
2.060000e-06	4.564153e-06	1.998103e-08	3.266602e+01	1.308835e+03
2.070000e-06	4.477144e-06	1.983384e-08	3.204329e+01	1.299891e+03
2.080000e-06	4.388547e-06	1.970156e-08	3.140919e+01	1.290600e+03
2.090000e-06	4.298468e-06	1.955103e-08	3.076449e+01	1.280956e+03
2.100000e-06	4.207063e-06	1.939199e-08	3.011030e+01	1.270952e+03
2.110000e-06	4.114265e-06	1.924655e-08	2.944613e+01	1.260578e+03
2.120000e-06	4.019915e-06	1.907069e-08	2.877087e+01	1.249825e+03
2.130000e-06	3.924005e-06	1.890509e-08	2.808443e+01	1.238677e+03
2.140000e-06	3.826694e-06	1.871830e-08	2.738797e+01	1.227115e+03
2.150000e-06	3.728062e-06	1.854300e-08	2.668205e+01	1.215113e+03
2.160000e-06	3.628171e-06	1.835470e-08	2.596712e+01	1.202639e+03
2.170000e-06	3.526898e-06	1.816764e-08	2.524230e+01	1.189656e+03
2.180000e-06	3.424129e-06	1.796668e-08	2.450677e+01	1.176123e+03
2.190000e-06	3.320007e-06	1.774944e-08	2.376156e+01	1.162001e+03
2.200000e-06	3.214713e-06	1.752137e-08	2.300797e+01	1.147252e+03
2.210000e-06	3.108336e-06	1.728255e-08	2.224662e+01	1.131846e+03
2.220000e-06	3.000848e-06	1.704372e-08	2.147732e+01	1.115754e+03
2.230000e-06	2.892366e-06	1.679032e-08	2.070091e+01	1.098953e+03
2.240000e-06	2.782836e-06	1.652739e-08	1.991699e+01	1.081418e+03
2.250000e-06	2.672225e-06	1.624775e-08	1.912533e+01	1.063115e+03
2.260000e-06	2.560658e-06	1.595760e-08	1.832684e+01	1.044000e+03
2.270000e-06	2.448119e-06	1.565008e-08	1.752139e+01	1.024013e+03
2.280000e-06	2.334555e-06	1.533148e-08	1.670860e+01	1.003079e+03
2.290000e-06	2.220051e-06	1.499694e-08	1.588909e+01	9.811101e+02
2.300000e-06	2.104730e-06	1.464635e-08	1.506372e+01	9.580089e+02
2.310000e-06	1.988565e-06	1.427931e-08	1.423233e+01	9.336746e+02
2.320000e-06	1.871563e-06	1.389279e-08	1.339493e+01	9.080073e+02
2.330000e-06	1.753862e-06	1.348542e-08	1.255253e+01	8.809091e+02
2.340000e-06	1.635492e-06	1.305152e-08	1.170535e+01	8.522827e+02
2.350000e-06	1.516415e-06	1.259109e-08	1.085311e+01	8.220285e+02
2.360000e-06	1.396677e-06	1.210273e-08	9.996134e+00	7.900402e+02
2.370000e-06	1.276483e-06	1.158627e-08	9.135897e+00	7.562041e+02
2.380000e-06	1.155977e-06	1.103795e-08	8.273425e+00	7.204030e+02
2.390000e-06	1.035183e-06	1.046030e-08	7.408888e+00	6.825274e+02
2.400000e-06	9.140977e-07	9.851173e-09	6.542273e+00	6.424935e+02
2.410000e-06	7.926891e-07	9.208858e-09	5.673342e+00	6.002651e+02
2.420000e-06	6.710219e-07	8.532969e-09	4.802560e+00	5.558764e+02
2.430000e-06	5.491718e-07	7.826393e-09	3.930468e+00	5.094484e+02
2.440000e-06	4.271193e-07	7.094080e-09	3.056928e+00	4.611932e+02
2.450000e-06	3.048799e-07	6.335414e-09	2.182051e+00	4.114036e+02
2.460000e-06	1.825713e-07	5.555439e-09	1.306678e+00	3.604253e+02
2.470000e-06	6.020804e-08	4.762782e-09	4.309139e-01	3.086152e+02
2.480000e-06	-6.217703e-08	3.962581e-09	-4.450062e-01	2.562920e+02
2.490000e-06	-1.845715e-07	3.159182e-09	-1.320993e+00	2.036885e+02
2.500000e-06	-3.069325e-07	2.354596e-09	-2.196742e+00	1.509154e+02
2.510000e-06	-4.292121e-07	1.547961e-09	-3.071906e+00	9.794584e+01
2.520000e-06	-5.513980e-07	7.336660e-10	-3.946402e+00	4.462584e+01
2.530000e-06	-6.734648e-07	-9.144928e-11	-4.820043e+00	-9.288710e+00
2.540000e-06	-7.953143e-07	-9.290615e-10	-5.692130e+00	-6.407353e+01
2.550000e-06	-9.168231e-07	-1.784610e-09	-6.561779e+00	-1.199657e+02
2.560000e-06	-1.038033e-06	-2.656217e-09	-7.429292e+00	-1.770946e+02
2.570000e-06	-1.158901e-06	-3.545717e-09	-8.294348e+00	-2.354266e+02
2.580000e-06	-1.279430e-06	-4.453158e-09	-9.156984e+00	-2.947356e+02
2.590000e-06	-1.399555e-06	-5.371264e-09	-1.001673e+01	-3.546042e+02
2.600000e-06	-1.519142e-06	-6.290379e-09	-1.087263e+01	-4.144566e+02
2.610000e-06	-1.638077e-06	-7.197297e-09	-1.172385e+01	-4.736182e+02
2.620000e-06	-1.756243e-06	-8.083310e-09	-1.256958e+01	-5.313888e+02
2.630000e-06	-1.873714e-06	-8.936495e-09	-1.341032e+01	-5.871198e+02
2.640000e-06	-1.990411e-06	-9.749052e-09	-1.424554e+01	-6.402787e+02
2.650000e-06	-2.106113e-06	-1.051606e-08	-1.507362e+01	-6.904937e+02
2.660000e-06	-2.220886e-06	-1.123733e-08	-1.589506e+01	-7.375711e+02
2.670000e-06	-2.334774e-06	-1.191194e-08	-1.671017e+01	-7.814860e+02
2.680000e-06	-2.447591e-06	-1.253991e-08	-1.751761e+01	-8.223511e+02
2.690000e-06	-2.559384e-06	-1.312670e-08	-1.831772e+01	-8.603725e+02
2.700000e-06	-2.670141e-06	-1.367276e-08	-1.911042e+01	-8.958024e+02
2.710000e-06	-2.779796e-06	-1.417935e-08	-1.989523e+01	-9.288975e+02
2.720000e-06	-2.888572e-06	-1.465201e-08	-2.067375e+01	-9.598898e+02
2.730000e-06	-2.996517e-06	-1.509446e-08	-2.144632e+01	-9.889721e+02
2.740000e-06	-3.103524e-06	-1.551002e-08	-2.221218e+01	-1.016298e+03
2.750000e-06	-3.209521e-06	-1.590317e-08	-2.297081e+01	-1.041989e+03
2.760000e-06	-3.314414e-06	-1.627245e-08	-2.372154e+01	-1.066153e+03
2.770000e-06	-3.418151e-06	-1.661791e-08	-2.446399e+01	-1.088892e+03
2.780000e-06	-3.520574e-06	-1.694429e-08	-2.519704e+01	-1.110310e+03
2.790000e-06	-3.621607e-06	-1.725478e-08	-2.592014e+01	-1.130519e+03
2.800000e-06	-3.721351e-06	-1.754978e-08	-2.663402e+01	-1.149626e+03
2.810000e-06	-3.819878e-06	-1.783030e-08	-2.733918e+01	-1.167734e+03
2.820000e-06	-3.917167e-06	-1.809358e-08	-2.803549e+01	-1.184930e+03
2.830000e-06	-4.013190e-06	-1.834154e-08	-2.872274e+01	-1.201279e+03
2.840000e-06	-4.107729e-06	-1.857791e-08	-2.939936e+01	-1.216828e+03
2.850000e-06	-4.200656e-06	-1.880406e-08	-3.006444e+01	-1.231608e+03
2.860000e-06	-4.292166e-06	-1.902263e-08	-3.071939e+01	-1.245645e+03
2.870000e-06	-4.382222e-06	-1.923156e-08	-3.136393e+01	-1.258963e+03
2.880000e-06	-4.470711e-06	-1.942709e-08	-3.199725e+01	-1.271596e+03
2.890000e-06	-4.557514e-06	-1.961011e-08	-3.261851e+01	-1.283584e+03
2.900000e-06	-4.642534e-06	-1.978319e-08	-3.322700e+01	-1.294977e+03
2.910000e-06	-4.725901e-06	-1.994645e-08	-3.382367e+01	-1.305825e+03
2.920000e-06	-4.807739e-06	-2.010245e-08	-3.440939e+01	-1.316171e+03
2.930000e-06	-4.887956e-06	-2.025285e-08	-3.498351e+01	-1.326047e+03
2.940000e-06	-4.966217e-06	-2.039649e-08	-3.554362e+01	-1.335470e+03
