# Temperatura_=_73.54
# Concentracion g/m^3_=_28200.0
# C_Vs_to_Am_M_A/Vsm_=_65563218390.804596
# pendiente_HvsI_1/m_=_3716.3
# ordenada_HvsI_A/m_=_1297.0
# frecuencia_Hz_=_302121.8212045037

Tiempo_(s)	Campo_(V.s)	Magnetizacion_(V.s)	Campo_(kA/m)	Magnetizacion_(A/m)
0.000000e+00	-6.431562e-06	-2.277945e-08	-4.585723e+01	-1.493995e+03
1.000000e-08	-6.428235e-06	-2.277726e-08	-4.583351e+01	-1.493560e+03
2.000000e-08	-6.422777e-06	-2.276644e-08	-4.579459e+01	-1.492892e+03
3.000000e-08	-6.415411e-06	-2.275525e-08	-4.574207e+01	-1.492015e+03
4.000000e-08	-6.405953e-06	-2.274129e-08	-4.567464e+01	-1.490973e+03
5.000000e-08	-6.394114e-06	-2.272117e-08	-4.559022e+01	-1.489818e+03
6.000000e-08	-6.379824e-06	-2.269335e-08	-4.548834e+01	-1.488603e+03
7.000000e-08	-6.363217e-06	-2.265505e-08	-4.536993e+01	-1.487361e+03
8.000000e-08	-6.344602e-06	-2.265235e-08	-4.523720e+01	-1.486099e+03
9.000000e-08	-6.323830e-06	-2.273348e-08	-4.508909e+01	-1.484795e+03
1.000000e-07	-6.300512e-06	-2.267785e-08	-4.492284e+01	-1.483395e+03
1.100000e-07	-6.274579e-06	-2.258185e-08	-4.473793e+01	-1.481827e+03
1.200000e-07	-6.246331e-06	-2.258063e-08	-4.453652e+01	-1.480014e+03
1.300000e-07	-6.216209e-06	-2.250577e-08	-4.432176e+01	-1.477890e+03
1.400000e-07	-6.184600e-06	-2.231509e-08	-4.409638e+01	-1.475411e+03
1.500000e-07	-6.151223e-06	-2.247700e-08	-4.385840e+01	-1.472564e+03
1.600000e-07	-6.115761e-06	-2.247494e-08	-4.360556e+01	-1.469368e+03
1.700000e-07	-6.078447e-06	-2.224560e-08	-4.333951e+01	-1.465869e+03
1.800000e-07	-6.039023e-06	-2.241191e-08	-4.305842e+01	-1.462131e+03
1.900000e-07	-5.997118e-06	-2.225037e-08	-4.275963e+01	-1.458217e+03
2.000000e-07	-5.953048e-06	-2.213679e-08	-4.244541e+01	-1.454185e+03
2.100000e-07	-5.906955e-06	-2.221409e-08	-4.211677e+01	-1.450071e+03
2.200000e-07	-5.858583e-06	-2.205668e-08	-4.177187e+01	-1.445889e+03
2.300000e-07	-5.807696e-06	-2.201120e-08	-4.140904e+01	-1.441629e+03
2.400000e-07	-5.754252e-06	-2.194152e-08	-4.102799e+01	-1.437266e+03
2.500000e-07	-5.698606e-06	-2.184552e-08	-4.063123e+01	-1.432761e+03
2.600000e-07	-5.640764e-06	-2.181244e-08	-4.021882e+01	-1.428076e+03
2.700000e-07	-5.580728e-06	-2.170428e-08	-3.979076e+01	-1.423176e+03
2.800000e-07	-5.518833e-06	-2.164253e-08	-3.934944e+01	-1.418034e+03
2.900000e-07	-5.454986e-06	-2.153140e-08	-3.889421e+01	-1.412637e+03
3.000000e-07	-5.388911e-06	-2.146136e-08	-3.842309e+01	-1.406978e+03
3.100000e-07	-5.320764e-06	-2.138380e-08	-3.793721e+01	-1.401056e+03
3.200000e-07	-5.250714e-06	-2.128422e-08	-3.743775e+01	-1.394874e+03
3.300000e-07	-5.178823e-06	-2.121279e-08	-3.692516e+01	-1.388432e+03
3.400000e-07	-5.104977e-06	-2.106183e-08	-3.639864e+01	-1.381728e+03
3.500000e-07	-5.028989e-06	-2.097263e-08	-3.585684e+01	-1.374755e+03
3.600000e-07	-4.950917e-06	-2.085984e-08	-3.530018e+01	-1.367503e+03
3.700000e-07	-4.870789e-06	-2.073952e-08	-3.472887e+01	-1.359959e+03
3.800000e-07	-4.788896e-06	-2.064262e-08	-3.414497e+01	-1.352106e+03
3.900000e-07	-4.705557e-06	-2.050229e-08	-3.355076e+01	-1.343930e+03
4.000000e-07	-4.620729e-06	-2.036048e-08	-3.294593e+01	-1.335416e+03
4.100000e-07	-4.534427e-06	-2.022105e-08	-3.233060e+01	-1.326551e+03
4.200000e-07	-4.446712e-06	-2.009955e-08	-3.170519e+01	-1.317324e+03
4.300000e-07	-4.357488e-06	-1.995389e-08	-3.106902e+01	-1.307728e+03
4.400000e-07	-4.266616e-06	-1.979275e-08	-3.042110e+01	-1.297754e+03
4.500000e-07	-4.174107e-06	-1.964146e-08	-2.976151e+01	-1.287397e+03
4.600000e-07	-4.080182e-06	-1.946490e-08	-2.909182e+01	-1.276649e+03
4.700000e-07	-3.984804e-06	-1.929201e-08	-2.841177e+01	-1.265503e+03
4.800000e-07	-3.887971e-06	-1.912014e-08	-2.772135e+01	-1.253943e+03
4.900000e-07	-3.789732e-06	-1.894652e-08	-2.702090e+01	-1.241950e+03
5.000000e-07	-3.690034e-06	-1.875383e-08	-2.631006e+01	-1.229496e+03
5.100000e-07	-3.589023e-06	-1.854833e-08	-2.558984e+01	-1.216548e+03
5.200000e-07	-3.486805e-06	-1.834282e-08	-2.486102e+01	-1.203067e+03
5.300000e-07	-3.383365e-06	-1.812345e-08	-2.412349e+01	-1.189013e+03
5.400000e-07	-3.278645e-06	-1.790114e-08	-2.337683e+01	-1.174346e+03
5.500000e-07	-3.172630e-06	-1.766710e-08	-2.262095e+01	-1.159029e+03
5.600000e-07	-3.065352e-06	-1.742406e-08	-2.185605e+01	-1.143032e+03
5.700000e-07	-2.956903e-06	-1.716611e-08	-2.108280e+01	-1.126327e+03
5.800000e-07	-2.847410e-06	-1.689715e-08	-2.030212e+01	-1.108888e+03
5.900000e-07	-2.736972e-06	-1.661970e-08	-1.951469e+01	-1.090683e+03
6.000000e-07	-2.625541e-06	-1.632856e-08	-1.872018e+01	-1.071673e+03
6.100000e-07	-2.513091e-06	-1.602428e-08	-1.791841e+01	-1.051806e+03
6.200000e-07	-2.399626e-06	-1.570437e-08	-1.710941e+01	-1.031013e+03
6.300000e-07	-2.285080e-06	-1.537035e-08	-1.629269e+01	-1.009214e+03
6.400000e-07	-2.169552e-06	-1.501683e-08	-1.546897e+01	-9.863134e+02
6.500000e-07	-2.053182e-06	-1.464690e-08	-1.463925e+01	-9.622120e+02
6.600000e-07	-1.936002e-06	-1.425635e-08	-1.380375e+01	-9.368063e+02
6.700000e-07	-1.818136e-06	-1.384527e-08	-1.296336e+01	-9.099933e+02
6.800000e-07	-1.699757e-06	-1.341512e-08	-1.211932e+01	-8.816703e+02
6.900000e-07	-1.580875e-06	-1.296051e-08	-1.127169e+01	-8.517320e+02
7.000000e-07	-1.461474e-06	-1.247861e-08	-1.042035e+01	-8.200679e+02
7.100000e-07	-1.341559e-06	-1.196262e-08	-9.565353e+00	-7.865596e+02
7.200000e-07	-1.221114e-06	-1.141583e-08	-8.706578e+00	-7.510831e+02
7.300000e-07	-1.100216e-06	-1.083857e-08	-7.844575e+00	-7.135173e+02
7.400000e-07	-9.789196e-07	-1.023014e-08	-6.979726e+00	-6.737586e+02
7.500000e-07	-8.572977e-07	-9.591393e-09	-6.112558e+00	-6.317434e+02
7.600000e-07	-7.354620e-07	-8.920811e-09	-5.243866e+00	-5.874703e+02
7.700000e-07	-6.134073e-07	-8.211577e-09	-4.373612e+00	-5.410211e+02
7.800000e-07	-4.911197e-07	-7.470697e-09	-3.501698e+00	-4.925717e+02
7.900000e-07	-3.686388e-07	-6.707332e-09	-2.628406e+00	-4.423884e+02
8.000000e-07	-2.460362e-07	-5.921513e-09	-1.754245e+00	-3.908081e+02
8.100000e-07	-1.233462e-07	-5.118479e-09	-8.794623e-01	-3.382010e+02
8.200000e-07	-5.616252e-10	-4.304032e-09	-4.004404e-03	-2.849224e+02
8.300000e-07	1.222315e-07	-3.486702e-09	8.715140e-01	-2.312612e+02
8.400000e-07	2.449947e-07	-2.666826e-09	1.746820e+00	-1.773949e+02
8.500000e-07	3.677048e-07	-1.845349e-09	2.621746e+00	-1.233627e+02
8.600000e-07	4.902521e-07	-1.020492e-09	3.495512e+00	-6.906258e+01
8.700000e-07	6.126499e-07	-1.893080e-10	4.368212e+00	-1.427728e+01
8.800000e-07	7.349026e-07	6.551059e-10	5.239877e+00	4.127447e+01
8.900000e-07	8.569085e-07	1.517543e-09	6.109783e+00	9.786859e+01
9.000000e-07	9.786443e-07	2.397440e-09	6.977763e+00	1.557008e+02
9.100000e-07	1.100137e-06	3.297193e-09	7.844010e+00	2.148201e+02
9.200000e-07	1.221280e-06	4.213066e-09	8.707760e+00	2.750841e+02
9.300000e-07	1.341953e-06	5.143279e-09	9.568163e+00	3.361443e+02
9.400000e-07	1.462040e-06	6.078152e-09	1.042439e+01	3.974666e+02
9.500000e-07	1.581465e-06	7.006053e-09	1.127589e+01	4.583825e+02
9.600000e-07	1.700268e-06	7.915648e-09	1.212296e+01	5.181618e+02
9.700000e-07	1.818466e-06	8.795085e-09	1.296572e+01	5.760948e+02
9.800000e-07	1.936083e-06	9.638335e-09	1.380433e+01	6.315683e+02
9.900000e-07	2.052965e-06	1.043535e-08	1.463770e+01	6.841238e+02
1.000000e-06	2.169029e-06	1.118104e-08	1.546524e+01	7.334879e+02
1.010000e-06	2.284126e-06	1.187741e-08	1.628589e+01	7.795739e+02
1.020000e-06	2.398141e-06	1.252902e-08	1.709882e+01	8.224565e+02
1.030000e-06	2.511220e-06	1.313704e-08	1.790508e+01	8.623278e+02
1.040000e-06	2.623282e-06	1.370429e-08	1.870408e+01	8.994459e+02
1.050000e-06	2.734249e-06	1.423143e-08	1.949528e+01	9.340859e+02
1.060000e-06	2.844252e-06	1.472430e-08	2.027960e+01	9.665023e+02
1.070000e-06	2.953395e-06	1.518590e-08	2.105779e+01	9.969083e+02
1.080000e-06	3.061677e-06	1.561936e-08	2.182985e+01	1.025470e+03
1.090000e-06	3.168885e-06	1.602708e-08	2.259425e+01	1.052317e+03
1.100000e-06	3.274897e-06	1.641186e-08	2.335011e+01	1.077554e+03
1.110000e-06	3.379648e-06	1.677465e-08	2.409699e+01	1.101281e+03
1.120000e-06	3.483088e-06	1.711533e-08	2.483452e+01	1.123601e+03
1.130000e-06	3.585266e-06	1.743584e-08	2.556306e+01	1.144627e+03
1.140000e-06	3.686256e-06	1.773889e-08	2.628312e+01	1.164476e+03
1.150000e-06	3.786043e-06	1.802631e-08	2.699460e+01	1.183262e+03
1.160000e-06	3.884407e-06	1.829717e-08	2.769594e+01	1.201083e+03
1.170000e-06	3.981260e-06	1.855434e-08	2.838650e+01	1.218017e+03
1.180000e-06	4.076646e-06	1.879895e-08	2.906661e+01	1.234119e+03
1.190000e-06	4.170687e-06	1.903098e-08	2.973712e+01	1.249422e+03
1.200000e-06	4.263440e-06	1.925024e-08	3.039845e+01	1.263950e+03
1.210000e-06	4.354714e-06	1.945834e-08	3.104924e+01	1.277727e+03
1.220000e-06	4.444340e-06	1.965578e-08	3.168828e+01	1.290782e+03
1.230000e-06	4.532287e-06	1.984412e-08	3.231534e+01	1.303161e+03
1.240000e-06	4.618545e-06	2.002340e-08	3.293036e+01	1.314918e+03
1.250000e-06	4.703289e-06	2.019610e-08	3.353459e+01	1.326115e+03
1.260000e-06	4.786441e-06	2.036158e-08	3.412747e+01	1.336808e+03
1.270000e-06	4.867806e-06	2.051932e-08	3.470760e+01	1.347039e+03
1.280000e-06	4.947341e-06	2.067074e-08	3.527469e+01	1.356830e+03
1.290000e-06	5.025020e-06	2.081607e-08	3.582854e+01	1.366181e+03
1.300000e-06	5.100875e-06	2.095155e-08	3.636939e+01	1.375077e+03
1.310000e-06	5.174684e-06	2.107937e-08	3.689565e+01	1.383496e+03
1.320000e-06	5.246426e-06	2.119928e-08	3.740717e+01	1.391420e+03
1.330000e-06	5.316301e-06	2.131330e-08	3.790539e+01	1.398848e+03
1.340000e-06	5.384418e-06	2.141827e-08	3.839106e+01	1.405801e+03
1.350000e-06	5.450558e-06	2.151443e-08	3.886264e+01	1.412321e+03
1.360000e-06	5.514543e-06	2.160924e-08	3.931885e+01	1.418465e+03
1.370000e-06	5.576604e-06	2.170082e-08	3.976135e+01	1.424296e+03
1.380000e-06	5.636943e-06	2.179089e-08	4.019157e+01	1.429870e+03
1.390000e-06	5.695308e-06	2.187597e-08	4.060771e+01	1.435227e+03
1.400000e-06	5.751482e-06	2.195666e-08	4.100824e+01	1.440383e+03
1.410000e-06	5.805589e-06	2.203214e-08	4.139402e+01	1.445335e+03
1.420000e-06	5.857491e-06	2.210095e-08	4.176409e+01	1.450062e+03
1.430000e-06	5.906973e-06	2.216701e-08	4.211689e+01	1.454536e+03
1.440000e-06	5.954153e-06	2.223082e-08	4.245329e+01	1.458733e+03
1.450000e-06	5.999321e-06	2.229141e-08	4.277534e+01	1.462642e+03
1.460000e-06	6.042385e-06	2.234801e-08	4.308239e+01	1.466265e+03
1.470000e-06	6.083203e-06	2.240217e-08	4.337342e+01	1.469617e+03
1.480000e-06	6.121888e-06	2.245347e-08	4.364924e+01	1.472723e+03
1.490000e-06	6.158602e-06	2.249960e-08	4.391102e+01	1.475607e+03
1.500000e-06	6.193103e-06	2.254034e-08	4.415701e+01	1.478285e+03
1.510000e-06	6.225178e-06	2.257643e-08	4.438571e+01	1.480760e+03
1.520000e-06	6.255090e-06	2.260807e-08	4.459898e+01	1.483027e+03
1.530000e-06	6.283085e-06	2.263542e-08	4.479858e+01	1.485067e+03
1.540000e-06	6.308806e-06	2.266039e-08	4.498197e+01	1.486866e+03
1.550000e-06	6.332041e-06	2.268480e-08	4.514764e+01	1.488414e+03
1.560000e-06	6.353130e-06	2.270672e-08	4.529801e+01	1.489715e+03
1.570000e-06	6.372080e-06	2.272783e-08	4.543312e+01	1.490790e+03
1.580000e-06	6.388601e-06	2.274674e-08	4.555091e+01	1.491670e+03
1.590000e-06	6.402614e-06	2.276026e-08	4.565083e+01	1.492392e+03
1.600000e-06	6.414140e-06	2.276935e-08	4.573301e+01	1.492988e+03
1.610000e-06	6.423124e-06	2.277582e-08	4.579706e+01	1.493477e+03
1.620000e-06	6.429741e-06	2.278193e-08	4.584425e+01	1.493860e+03
1.630000e-06	6.434270e-06	2.278608e-08	4.587654e+01	1.494118e+03
1.640000e-06	6.436523e-06	2.278867e-08	4.589260e+01	1.494219e+03
1.650000e-06	6.436349e-06	2.279158e-08	4.589136e+01	1.494124e+03
1.660000e-06	6.434044e-06	2.278096e-08	4.587492e+01	1.493807e+03
1.670000e-06	6.429717e-06	2.277695e-08	4.584407e+01	1.493254e+03
1.680000e-06	6.423138e-06	2.277065e-08	4.579717e+01	1.492477e+03
1.690000e-06	6.414438e-06	2.275755e-08	4.573514e+01	1.491511e+03
1.700000e-06	6.403838e-06	2.274496e-08	4.565956e+01	1.490406e+03
1.710000e-06	6.390992e-06	2.273235e-08	4.556796e+01	1.489215e+03
1.720000e-06	6.375788e-06	2.274155e-08	4.545956e+01	1.487984e+03
1.730000e-06	6.358594e-06	2.268518e-08	4.533696e+01	1.486733e+03
1.740000e-06	6.339310e-06	2.255416e-08	4.519947e+01	1.485455e+03
1.750000e-06	6.317023e-06	2.259427e-08	4.504056e+01	1.484111e+03
1.760000e-06	6.291569e-06	2.261730e-08	4.485908e+01	1.482636e+03
1.770000e-06	6.263905e-06	2.252629e-08	4.466183e+01	1.480956e+03
1.780000e-06	6.234392e-06	2.266701e-08	4.445140e+01	1.478995e+03
1.790000e-06	6.203279e-06	2.262394e-08	4.422957e+01	1.476697e+03
1.800000e-06	6.170804e-06	2.242958e-08	4.399802e+01	1.474033e+03
1.810000e-06	6.136177e-06	2.262354e-08	4.375112e+01	1.471007e+03
1.820000e-06	6.099444e-06	2.235691e-08	4.348922e+01	1.467653e+03
1.830000e-06	6.060628e-06	2.219419e-08	4.321246e+01	1.464026e+03
1.840000e-06	6.019386e-06	2.237493e-08	4.291840e+01	1.460192e+03
1.850000e-06	5.976219e-06	2.207846e-08	4.261062e+01	1.456213e+03
1.860000e-06	5.931012e-06	2.213876e-08	4.228829e+01	1.452137e+03
1.870000e-06	5.883596e-06	2.209838e-08	4.195021e+01	1.447988e+03
1.880000e-06	5.834142e-06	2.193907e-08	4.159760e+01	1.443770e+03
1.890000e-06	5.782155e-06	2.204700e-08	4.122694e+01	1.439463e+03
1.900000e-06	5.727552e-06	2.180693e-08	4.083762e+01	1.435034e+03
1.910000e-06	5.670708e-06	2.181076e-08	4.043232e+01	1.430444e+03
1.920000e-06	5.611871e-06	2.177211e-08	4.001281e+01	1.425655e+03
1.930000e-06	5.551252e-06	2.160196e-08	3.958059e+01	1.420636e+03
1.940000e-06	5.488443e-06	2.164216e-08	3.913276e+01	1.415368e+03
1.950000e-06	5.423406e-06	2.144451e-08	3.866904e+01	1.409840e+03
1.960000e-06	5.356356e-06	2.144665e-08	3.819098e+01	1.404050e+03
1.970000e-06	5.287290e-06	2.130633e-08	3.769854e+01	1.397997e+03
1.980000e-06	5.216211e-06	2.117811e-08	3.719174e+01	1.391685e+03
1.990000e-06	5.143149e-06	2.116962e-08	3.667081e+01	1.385113e+03
2.000000e-06	5.068260e-06	2.099210e-08	3.613684e+01	1.378276e+03
2.010000e-06	4.991387e-06	2.095356e-08	3.558874e+01	1.371165e+03
2.020000e-06	4.912411e-06	2.076464e-08	3.502564e+01	1.363769e+03
2.030000e-06	4.831523e-06	2.066392e-08	3.444890e+01	1.356072e+03
2.040000e-06	4.749036e-06	2.056725e-08	3.386077e+01	1.348059e+03
2.050000e-06	4.665087e-06	2.041758e-08	3.326221e+01	1.339716e+03
2.060000e-06	4.579431e-06	2.032374e-08	3.265148e+01	1.331028e+03
2.070000e-06	4.492013e-06	2.015237e-08	3.202819e+01	1.321984e+03
2.080000e-06	4.402966e-06	2.004055e-08	3.139328e+01	1.312573e+03
2.090000e-06	4.312476e-06	1.985777e-08	3.074808e+01	1.302788e+03
2.100000e-06	4.220618e-06	1.971531e-08	3.009313e+01	1.292623e+03
2.110000e-06	4.127291e-06	1.956145e-08	2.942771e+01	1.282072e+03
2.120000e-06	4.032468e-06	1.938563e-08	2.875161e+01	1.271127e+03
2.130000e-06	3.936131e-06	1.921653e-08	2.806473e+01	1.259775e+03
2.140000e-06	3.838452e-06	1.902533e-08	2.736828e+01	1.248002e+03
2.150000e-06	3.739449e-06	1.885905e-08	2.666238e+01	1.235782e+03
2.160000e-06	3.639099e-06	1.865918e-08	2.594689e+01	1.223086e+03
2.170000e-06	3.537363e-06	1.847228e-08	2.522151e+01	1.209877e+03
2.180000e-06	3.434239e-06	1.825366e-08	2.448623e+01	1.196115e+03
2.190000e-06	3.329798e-06	1.803525e-08	2.374156e+01	1.181759e+03
2.200000e-06	3.224136e-06	1.779968e-08	2.298819e+01	1.166771e+03
2.210000e-06	3.117392e-06	1.756149e-08	2.222710e+01	1.151118e+03
2.220000e-06	3.009570e-06	1.731795e-08	2.145832e+01	1.134770e+03
2.230000e-06	2.900705e-06	1.706001e-08	2.068211e+01	1.117701e+03
2.240000e-06	2.790827e-06	1.679548e-08	1.989868e+01	1.099883e+03
2.250000e-06	2.679886e-06	1.651304e-08	1.910767e+01	1.081281e+03
2.260000e-06	2.567865e-06	1.622041e-08	1.830895e+01	1.061850e+03
2.270000e-06	2.454772e-06	1.590592e-08	1.750260e+01	1.041530e+03
2.280000e-06	2.340736e-06	1.558523e-08	1.668952e+01	1.020245e+03
2.290000e-06	2.225768e-06	1.524341e-08	1.586979e+01	9.979073e+02
2.300000e-06	2.109828e-06	1.488634e-08	1.504314e+01	9.744192e+02
2.310000e-06	1.993074e-06	1.450909e-08	1.421068e+01	9.496786e+02
2.320000e-06	1.875589e-06	1.411553e-08	1.337301e+01	9.235821e+02
2.330000e-06	1.757416e-06	1.369928e-08	1.253043e+01	8.960270e+02
2.340000e-06	1.638508e-06	1.325705e-08	1.168261e+01	8.669098e+02
2.350000e-06	1.518967e-06	1.278986e-08	1.083028e+01	8.361229e+02
2.360000e-06	1.398880e-06	1.229565e-08	9.974057e+00	8.035519e+02
2.370000e-06	1.278340e-06	1.177308e-08	9.114599e+00	7.690752e+02
2.380000e-06	1.157443e-06	1.121324e-08	8.252603e+00	7.325685e+02
2.390000e-06	1.036178e-06	1.062324e-08	7.387982e+00	6.939172e+02
2.400000e-06	9.145924e-07	9.997786e-09	6.521071e+00	6.530349e+02
2.410000e-06	7.926707e-07	9.339499e-09	5.651766e+00	6.098861e+02
2.420000e-06	6.705210e-07	8.650182e-09	4.780835e+00	5.645090e+02
2.430000e-06	5.482353e-07	7.929134e-09	3.908934e+00	5.170318e+02
2.440000e-06	4.257976e-07	7.178815e-09	3.035949e+00	4.676770e+02
2.450000e-06	3.032774e-07	6.401670e-09	2.162377e+00	4.167500e+02
2.460000e-06	1.806654e-07	5.605155e-09	1.288150e+00	3.646097e+02
2.470000e-06	5.793059e-08	4.793187e-09	4.130468e-01	3.116254e+02
2.480000e-06	-6.483278e-08	3.975031e-09	-4.622597e-01	2.581255e+02
2.490000e-06	-1.875468e-07	3.154179e-09	-1.337214e+00	2.043478e+02
2.500000e-06	-3.102628e-07	2.329877e-09	-2.212183e+00	1.504028e+02
2.510000e-06	-4.329133e-07	1.502535e-09	-3.086685e+00	9.625749e+01
2.520000e-06	-5.554236e-07	6.674422e-10	-3.960187e+00	4.174741e+01
2.530000e-06	-6.778274e-07	-1.776226e-10	-4.832929e+00	-1.338454e+01
2.540000e-06	-8.000446e-07	-1.035874e-09	-5.704342e+00	-6.942627e+01
2.550000e-06	-9.220439e-07	-1.910030e-09	-6.574201e+00	-1.266228e+02
2.560000e-06	-1.043752e-06	-2.800451e-09	-7.441986e+00	-1.851037e+02
2.570000e-06	-1.165114e-06	-3.709588e-09	-8.307296e+00	-2.448261e+02
2.580000e-06	-1.286089e-06	-4.636768e-09	-9.169854e+00	-3.055441e+02
2.590000e-06	-1.406654e-06	-5.575902e-09	-1.002949e+01	-3.668121e+02
2.600000e-06	-1.526663e-06	-6.514843e-09	-1.088515e+01	-4.280205e+02
2.610000e-06	-1.645931e-06	-7.441079e-09	-1.173554e+01	-4.884601e+02
2.620000e-06	-1.764482e-06	-8.344502e-09	-1.258081e+01	-5.474005e+02
2.630000e-06	-1.882377e-06	-9.214268e-09	-1.342141e+01	-6.041718e+02
2.640000e-06	-1.999616e-06	-1.004177e-08	-1.425732e+01	-6.582324e+02
2.650000e-06	-2.115940e-06	-1.081932e-08	-1.508672e+01	-7.092144e+02
2.660000e-06	-2.231282e-06	-1.154696e-08	-1.590911e+01	-7.569393e+02
2.670000e-06	-2.345647e-06	-1.222770e-08	-1.672453e+01	-8.014057e+02
2.680000e-06	-2.458917e-06	-1.286292e-08	-1.753215e+01	-8.427533e+02
2.690000e-06	-2.571184e-06	-1.345542e-08	-1.833262e+01	-8.812137e+02
2.700000e-06	-2.682449e-06	-1.400858e-08	-1.912594e+01	-9.170589e+02
2.710000e-06	-2.792601e-06	-1.452305e-08	-1.991133e+01	-9.505576e+02
2.720000e-06	-2.901757e-06	-1.500140e-08	-2.068962e+01	-9.819452e+02
2.730000e-06	-3.010028e-06	-1.544981e-08	-2.146159e+01	-1.011411e+03
2.740000e-06	-3.117354e-06	-1.587010e-08	-2.222683e+01	-1.039101e+03
2.750000e-06	-3.223699e-06	-1.626602e-08	-2.298507e+01	-1.065130e+03
2.760000e-06	-3.329006e-06	-1.663879e-08	-2.373591e+01	-1.089600e+03
2.770000e-06	-3.433160e-06	-1.698879e-08	-2.447853e+01	-1.112610e+03
2.780000e-06	-3.535922e-06	-1.731863e-08	-2.521123e+01	-1.134268e+03
2.790000e-06	-3.637268e-06	-1.763148e-08	-2.593383e+01	-1.154691e+03
2.800000e-06	-3.737330e-06	-1.792981e-08	-2.664728e+01	-1.173995e+03
2.810000e-06	-3.836159e-06	-1.821259e-08	-2.735193e+01	-1.192287e+03
2.820000e-06	-3.933763e-06	-1.847792e-08	-2.804785e+01	-1.209657e+03
2.830000e-06	-4.030088e-06	-1.872781e-08	-2.873465e+01	-1.226169e+03
2.840000e-06	-4.124941e-06	-1.896648e-08	-2.941095e+01	-1.241868e+03
2.850000e-06	-4.218251e-06	-1.919485e-08	-3.007626e+01	-1.256782e+03
2.860000e-06	-4.310076e-06	-1.941299e-08	-3.073097e+01	-1.270931e+03
2.870000e-06	-4.400371e-06	-1.961989e-08	-3.137478e+01	-1.284342e+03
2.880000e-06	-4.489137e-06	-1.981349e-08	-3.200768e+01	-1.297053e+03
2.890000e-06	-4.576240e-06	-1.999616e-08	-3.262873e+01	-1.309113e+03
2.900000e-06	-4.661609e-06	-2.017049e-08	-3.323741e+01	-1.320583e+03
2.910000e-06	-4.745291e-06	-2.033756e-08	-3.383406e+01	-1.331522e+03
2.920000e-06	-4.827361e-06	-2.049738e-08	-3.441923e+01	-1.341980e+03
2.930000e-06	-4.907875e-06	-2.064931e-08	-3.499330e+01	-1.351989e+03
2.940000e-06	-4.986462e-06	-2.079469e-08	-3.555362e+01	-1.361561e+03
