# Temperatura_=_74.53
# Concentracion g/m^3_=_28200.0
# C_Vs_to_Am_M_A/Vsm_=_65563218390.804596
# pendiente_HvsI_1/m_=_3716.3
# ordenada_HvsI_A/m_=_1297.0
# frecuencia_Hz_=_302116.63129802875

Tiempo_(s)	Campo_(V.s)	Magnetizacion_(V.s)	Campo_(kA/m)	Magnetizacion_(A/m)
0.000000e+00	-6.417768e-06	-2.283952e-08	-4.585570e+01	-1.497690e+03
1.000000e-08	-6.414159e-06	-2.283171e-08	-4.582991e+01	-1.497188e+03
2.000000e-08	-6.408468e-06	-2.281783e-08	-4.578925e+01	-1.496468e+03
3.000000e-08	-6.400935e-06	-2.280679e-08	-4.573543e+01	-1.495563e+03
4.000000e-08	-6.391316e-06	-2.279296e-08	-4.566670e+01	-1.494520e+03
5.000000e-08	-6.379241e-06	-2.277384e-08	-4.558042e+01	-1.493394e+03
6.000000e-08	-6.364744e-06	-2.274334e-08	-4.547684e+01	-1.492229e+03
7.000000e-08	-6.348012e-06	-2.270671e-08	-4.535728e+01	-1.491049e+03
8.000000e-08	-6.329347e-06	-2.272016e-08	-4.522392e+01	-1.489849e+03
9.000000e-08	-6.308483e-06	-2.278433e-08	-4.507484e+01	-1.488591e+03
1.000000e-07	-6.284984e-06	-2.272418e-08	-4.490694e+01	-1.487208e+03
1.100000e-07	-6.258932e-06	-2.264268e-08	-4.472080e+01	-1.485618e+03
1.200000e-07	-6.230634e-06	-2.264248e-08	-4.451860e+01	-1.483738e+03
1.300000e-07	-6.200425e-06	-2.254714e-08	-4.430276e+01	-1.481502e+03
1.400000e-07	-6.168716e-06	-2.238217e-08	-4.407620e+01	-1.478869e+03
1.500000e-07	-6.135139e-06	-2.255083e-08	-4.383628e+01	-1.475836e+03
1.600000e-07	-6.099422e-06	-2.248574e-08	-4.358108e+01	-1.472434e+03
1.700000e-07	-6.061940e-06	-2.233301e-08	-4.331326e+01	-1.468722e+03
1.800000e-07	-6.022346e-06	-2.246886e-08	-4.303036e+01	-1.464777e+03
1.900000e-07	-5.980314e-06	-2.227723e-08	-4.273004e+01	-1.460673e+03
2.000000e-07	-5.936172e-06	-2.222490e-08	-4.241464e+01	-1.456476e+03
2.100000e-07	-5.889964e-06	-2.223432e-08	-4.208447e+01	-1.452227e+03
2.200000e-07	-5.841330e-06	-2.208646e-08	-4.173698e+01	-1.447938e+03
2.300000e-07	-5.790163e-06	-2.205709e-08	-4.137139e+01	-1.443596e+03
2.400000e-07	-5.736549e-06	-2.195814e-08	-4.098831e+01	-1.439167e+03
2.500000e-07	-5.680768e-06	-2.188761e-08	-4.058975e+01	-1.434604e+03
2.600000e-07	-5.622795e-06	-2.185483e-08	-4.017552e+01	-1.429859e+03
2.700000e-07	-5.562678e-06	-2.173977e-08	-3.974598e+01	-1.424889e+03
2.800000e-07	-5.500631e-06	-2.166518e-08	-3.930265e+01	-1.419664e+03
2.900000e-07	-5.436670e-06	-2.155127e-08	-3.884564e+01	-1.414169e+03
3.000000e-07	-5.370620e-06	-2.148894e-08	-3.837371e+01	-1.408398e+03
3.100000e-07	-5.302409e-06	-2.141232e-08	-3.788633e+01	-1.402357e+03
3.200000e-07	-5.232258e-06	-2.133085e-08	-3.738509e+01	-1.396054e+03
3.300000e-07	-5.160445e-06	-2.122975e-08	-3.687198e+01	-1.389494e+03
3.400000e-07	-5.086706e-06	-2.107491e-08	-3.634510e+01	-1.382680e+03
3.500000e-07	-5.010769e-06	-2.099831e-08	-3.580253e+01	-1.375606e+03
3.600000e-07	-4.932768e-06	-2.087207e-08	-3.524520e+01	-1.368260e+03
3.700000e-07	-4.852641e-06	-2.076482e-08	-3.467268e+01	-1.360623e+03
3.800000e-07	-4.770669e-06	-2.066698e-08	-3.408698e+01	-1.352677e+03
3.900000e-07	-4.687280e-06	-2.052259e-08	-3.349116e+01	-1.344401e+03
4.000000e-07	-4.602507e-06	-2.037299e-08	-3.288545e+01	-1.335779e+03
4.100000e-07	-4.516191e-06	-2.022646e-08	-3.226871e+01	-1.326798e+03
4.200000e-07	-4.428611e-06	-2.010205e-08	-3.164294e+01	-1.317453e+03
4.300000e-07	-4.339545e-06	-1.995333e-08	-3.100656e+01	-1.307740e+03
4.400000e-07	-4.248681e-06	-1.980030e-08	-3.035732e+01	-1.297659e+03
4.500000e-07	-4.156246e-06	-1.964347e-08	-2.969686e+01	-1.287207e+03
4.600000e-07	-4.062348e-06	-1.947072e-08	-2.902595e+01	-1.276381e+03
4.700000e-07	-3.967171e-06	-1.929824e-08	-2.834590e+01	-1.265168e+03
4.800000e-07	-3.870618e-06	-1.912372e-08	-2.765602e+01	-1.253551e+03
4.900000e-07	-3.772463e-06	-1.894525e-08	-2.695468e+01	-1.241500e+03
5.000000e-07	-3.672831e-06	-1.874685e-08	-2.624281e+01	-1.228981e+03
5.100000e-07	-3.571925e-06	-1.854370e-08	-2.552182e+01	-1.215952e+03
5.200000e-07	-3.469770e-06	-1.833596e-08	-2.479191e+01	-1.202371e+03
5.300000e-07	-3.366470e-06	-1.811453e-08	-2.405382e+01	-1.188199e+03
5.400000e-07	-3.261985e-06	-1.788580e-08	-2.330726e+01	-1.173400e+03
5.500000e-07	-3.156063e-06	-1.764989e-08	-2.255044e+01	-1.157948e+03
5.600000e-07	-3.048815e-06	-1.740378e-08	-2.178414e+01	-1.141819e+03
5.700000e-07	-2.940440e-06	-1.714626e-08	-2.100978e+01	-1.124993e+03
5.800000e-07	-2.831050e-06	-1.688089e-08	-2.022818e+01	-1.107447e+03
5.900000e-07	-2.720743e-06	-1.660357e-08	-1.944003e+01	-1.089148e+03
6.000000e-07	-2.609561e-06	-1.630771e-08	-1.864562e+01	-1.070051e+03
6.100000e-07	-2.497401e-06	-1.599732e-08	-1.784422e+01	-1.050094e+03
6.200000e-07	-2.384182e-06	-1.567553e-08	-1.703526e+01	-1.029198e+03
6.300000e-07	-2.269886e-06	-1.533934e-08	-1.621860e+01	-1.007272e+03
6.400000e-07	-2.154544e-06	-1.498543e-08	-1.539447e+01	-9.842168e+02
6.500000e-07	-2.038309e-06	-1.461502e-08	-1.456396e+01	-9.599320e+02
6.600000e-07	-1.921319e-06	-1.422292e-08	-1.372805e+01	-9.343187e+02
6.700000e-07	-1.803696e-06	-1.380718e-08	-1.288761e+01	-9.072819e+02
6.800000e-07	-1.685498e-06	-1.337177e-08	-1.204308e+01	-8.787280e+02
6.900000e-07	-1.566765e-06	-1.291244e-08	-1.119472e+01	-8.485603e+02
7.000000e-07	-1.447586e-06	-1.242693e-08	-1.034317e+01	-8.166736e+02
7.100000e-07	-1.327963e-06	-1.190769e-08	-9.488448e+00	-7.829509e+02
7.200000e-07	-1.207908e-06	-1.135796e-08	-8.630643e+00	-7.472663e+02
7.300000e-07	-1.087461e-06	-1.077714e-08	-7.770037e+00	-7.094942e+02
7.400000e-07	-9.665830e-07	-1.016509e-08	-6.906348e+00	-6.695273e+02
7.500000e-07	-8.453325e-07	-9.524104e-09	-6.039999e+00	-6.273000e+02
7.600000e-07	-7.237612e-07	-8.850263e-09	-5.171358e+00	-5.828130e+02
7.700000e-07	-6.018534e-07	-8.140095e-09	-4.300313e+00	-5.361538e+02
7.800000e-07	-4.797107e-07	-7.397599e-09	-3.427588e+00	-4.875071e+02
7.900000e-07	-3.573875e-07	-6.628870e-09	-2.553575e+00	-4.371486e+02
8.000000e-07	-2.349222e-07	-5.833976e-09	-1.678546e+00	-3.854219e+02
8.100000e-07	-1.123408e-07	-5.028470e-09	-8.026878e-01	-3.326990e+02
8.200000e-07	1.036874e-08	-4.218006e-09	7.408582e-02	-2.793307e+02
8.300000e-07	1.331055e-07	-3.402586e-09	9.510545e-01	-2.255945e+02
8.400000e-07	2.558604e-07	-2.581716e-09	1.828152e+00	-1.716518e+02
8.500000e-07	3.784879e-07	-1.757678e-09	2.704340e+00	-1.175242e+02
8.600000e-07	5.009134e-07	-9.307256e-10	3.579085e+00	-6.309468e+01
8.700000e-07	6.232133e-07	-9.594528e-11	4.452932e+00	-8.136937e+00
8.800000e-07	7.452922e-07	7.519149e-10	5.325199e+00	4.763040e+01
8.900000e-07	8.670534e-07	1.617380e-09	6.195198e+00	1.044738e+02
9.000000e-07	9.884743e-07	2.500388e-09	7.062764e+00	1.625713e+02
9.100000e-07	1.109544e-06	3.403107e-09	7.927823e+00	2.219491e+02
9.200000e-07	1.230186e-06	4.325507e-09	8.789819e+00	2.824409e+02
9.300000e-07	1.350423e-06	5.261666e-09	9.648931e+00	3.436781e+02
9.400000e-07	1.470170e-06	6.199508e-09	1.050453e+01	4.051133e+02
9.500000e-07	1.589320e-06	7.128109e-09	1.135588e+01	4.660735e+02
9.600000e-07	1.707913e-06	8.036288e-09	1.220323e+01	5.258331e+02
9.700000e-07	1.825890e-06	8.912477e-09	1.304620e+01	5.836937e+02
9.800000e-07	1.943172e-06	9.749990e-09	1.388419e+01	6.390572e+02
9.900000e-07	2.059716e-06	1.054581e-08	1.471691e+01	6.914801e+02
1.000000e-06	2.175458e-06	1.129710e-08	1.554390e+01	7.407009e+02
1.010000e-06	2.290208e-06	1.199701e-08	1.636381e+01	7.866397e+02
1.020000e-06	2.403862e-06	1.264829e-08	1.717587e+01	8.293726e+02
1.030000e-06	2.516498e-06	1.325000e-08	1.798067e+01	8.690890e+02
1.040000e-06	2.628171e-06	1.381307e-08	1.877859e+01	9.060419e+02
1.050000e-06	2.738849e-06	1.433923e-08	1.956939e+01	9.405023e+02
1.060000e-06	2.848590e-06	1.483080e-08	2.035351e+01	9.727234e+02
1.070000e-06	2.957454e-06	1.528922e-08	2.113135e+01	1.002921e+03
1.080000e-06	3.065448e-06	1.571721e-08	2.190298e+01	1.031268e+03
1.090000e-06	3.172403e-06	1.611946e-08	2.266719e+01	1.057904e+03
1.100000e-06	3.278062e-06	1.649863e-08	2.342213e+01	1.082943e+03
1.110000e-06	3.382386e-06	1.685958e-08	2.416754e+01	1.106495e+03
1.120000e-06	3.485446e-06	1.720056e-08	2.490392e+01	1.128668e+03
1.130000e-06	3.587308e-06	1.752242e-08	2.563173e+01	1.149578e+03
1.140000e-06	3.688020e-06	1.782337e-08	2.635133e+01	1.169338e+03
1.150000e-06	3.787491e-06	1.810816e-08	2.706206e+01	1.188055e+03
1.160000e-06	3.885518e-06	1.837558e-08	2.776248e+01	1.205824e+03
1.170000e-06	3.982024e-06	1.862967e-08	2.845203e+01	1.222714e+03
1.180000e-06	4.077057e-06	1.887288e-08	2.913105e+01	1.238775e+03
1.190000e-06	4.170706e-06	1.910556e-08	2.980018e+01	1.254040e+03
1.200000e-06	4.263059e-06	1.932529e-08	3.046005e+01	1.268531e+03
1.210000e-06	4.354037e-06	1.953535e-08	3.111010e+01	1.282273e+03
1.220000e-06	4.443324e-06	1.973287e-08	3.174806e+01	1.295298e+03
1.230000e-06	4.530855e-06	1.991926e-08	3.237348e+01	1.307650e+03
1.240000e-06	4.616795e-06	2.009671e-08	3.298754e+01	1.319385e+03
1.250000e-06	4.701171e-06	2.026826e-08	3.359041e+01	1.330559e+03
1.260000e-06	4.784023e-06	2.043344e-08	3.418240e+01	1.341228e+03
1.270000e-06	4.865144e-06	2.059049e-08	3.476202e+01	1.351429e+03
1.280000e-06	4.944379e-06	2.073963e-08	3.532816e+01	1.361183e+03
1.290000e-06	5.021856e-06	2.088173e-08	3.588174e+01	1.370492e+03
1.300000e-06	5.097383e-06	2.101890e-08	3.642139e+01	1.379342e+03
1.310000e-06	5.170794e-06	2.114694e-08	3.694593e+01	1.387714e+03
1.320000e-06	5.242249e-06	2.126774e-08	3.745648e+01	1.395596e+03
1.330000e-06	5.311872e-06	2.138110e-08	3.795394e+01	1.402989e+03
1.340000e-06	5.379622e-06	2.148902e-08	3.843802e+01	1.409915e+03
1.350000e-06	5.445351e-06	2.158931e-08	3.890767e+01	1.416415e+03
1.360000e-06	5.509061e-06	2.168189e-08	3.936288e+01	1.422544e+03
1.370000e-06	5.570913e-06	2.177133e-08	3.980482e+01	1.428360e+03
1.380000e-06	5.630999e-06	2.185740e-08	4.023414e+01	1.433916e+03
1.390000e-06	5.689101e-06	2.193986e-08	4.064929e+01	1.439249e+03
1.400000e-06	5.745039e-06	2.202037e-08	4.104897e+01	1.444376e+03
1.410000e-06	5.798831e-06	2.209599e-08	4.143332e+01	1.449296e+03
1.420000e-06	5.850272e-06	2.216571e-08	4.180087e+01	1.453992e+03
1.430000e-06	5.899194e-06	2.223214e-08	4.215042e+01	1.458444e+03
1.440000e-06	5.945891e-06	2.229538e-08	4.248408e+01	1.462632e+03
1.450000e-06	5.990743e-06	2.235479e-08	4.280456e+01	1.466546e+03
1.460000e-06	6.033644e-06	2.241097e-08	4.311109e+01	1.470187e+03
1.470000e-06	6.074232e-06	2.246348e-08	4.340110e+01	1.473568e+03
1.480000e-06	6.112607e-06	2.251242e-08	4.367529e+01	1.476706e+03
1.490000e-06	6.149052e-06	2.255702e-08	4.393569e+01	1.479619e+03
1.500000e-06	6.183278e-06	2.259770e-08	4.418024e+01	1.482315e+03
1.510000e-06	6.215141e-06	2.263523e-08	4.440790e+01	1.484797e+03
1.520000e-06	6.244868e-06	2.266922e-08	4.462031e+01	1.487055e+03
1.530000e-06	6.272524e-06	2.269968e-08	4.481791e+01	1.489077e+03
1.540000e-06	6.297842e-06	2.272465e-08	4.499881e+01	1.490851e+03
1.550000e-06	6.320726e-06	2.274622e-08	4.516232e+01	1.492376e+03
1.560000e-06	6.341545e-06	2.276567e-08	4.531108e+01	1.493660e+03
1.570000e-06	6.360260e-06	2.278470e-08	4.544480e+01	1.494726e+03
1.580000e-06	6.376504e-06	2.280287e-08	4.556086e+01	1.495605e+03
1.590000e-06	6.390297e-06	2.281769e-08	4.565942e+01	1.496330e+03
1.600000e-06	6.401562e-06	2.282776e-08	4.573991e+01	1.496926e+03
1.610000e-06	6.410252e-06	2.283559e-08	4.580200e+01	1.497406e+03
1.620000e-06	6.416586e-06	2.284204e-08	4.584726e+01	1.497763e+03
1.630000e-06	6.420856e-06	2.284577e-08	4.587777e+01	1.497978e+03
1.640000e-06	6.422933e-06	2.284889e-08	4.589260e+01	1.498019e+03
1.650000e-06	6.422613e-06	2.284943e-08	4.589032e+01	1.497856e+03
1.660000e-06	6.420180e-06	2.283575e-08	4.587293e+01	1.497467e+03
1.670000e-06	6.415675e-06	2.282949e-08	4.584074e+01	1.496854e+03
1.680000e-06	6.408933e-06	2.282405e-08	4.579257e+01	1.496036e+03
1.690000e-06	6.400090e-06	2.281376e-08	4.572939e+01	1.495055e+03
1.700000e-06	6.389288e-06	2.280325e-08	4.565221e+01	1.493964e+03
1.710000e-06	6.376168e-06	2.279155e-08	4.555847e+01	1.492814e+03
1.720000e-06	6.360732e-06	2.280346e-08	4.544817e+01	1.491640e+03
1.730000e-06	6.343385e-06	2.272681e-08	4.532423e+01	1.490454e+03
1.740000e-06	6.323958e-06	2.262346e-08	4.518542e+01	1.489231e+03
1.750000e-06	6.301549e-06	2.266706e-08	4.502530e+01	1.487920e+03
1.760000e-06	6.275911e-06	2.266957e-08	4.484212e+01	1.486444e+03
1.770000e-06	6.248109e-06	2.258565e-08	4.464346e+01	1.484719e+03
1.780000e-06	6.218542e-06	2.271943e-08	4.443220e+01	1.482668e+03
1.790000e-06	6.187364e-06	2.265729e-08	4.420943e+01	1.480236e+03
1.800000e-06	6.154709e-06	2.254301e-08	4.397611e+01	1.477401e+03
1.810000e-06	6.120007e-06	2.263433e-08	4.372816e+01	1.474178e+03
1.820000e-06	6.083372e-06	2.230893e-08	4.346640e+01	1.470612e+03
1.830000e-06	6.044624e-06	2.230247e-08	4.318954e+01	1.466774e+03
1.840000e-06	6.003384e-06	2.238876e-08	4.289488e+01	1.462740e+03
1.850000e-06	5.960139e-06	2.209815e-08	4.258588e+01	1.458583e+03
1.860000e-06	5.914728e-06	2.219053e-08	4.226142e+01	1.454357e+03
1.870000e-06	5.867092e-06	2.207050e-08	4.192106e+01	1.450088e+03
1.880000e-06	5.817481e-06	2.200704e-08	4.156658e+01	1.445775e+03
1.890000e-06	5.765198e-06	2.207734e-08	4.119301e+01	1.441395e+03
1.900000e-06	5.710394e-06	2.179380e-08	4.080143e+01	1.436905e+03
1.910000e-06	5.653508e-06	2.184596e-08	4.039497e+01	1.432257e+03
1.920000e-06	5.594650e-06	2.176432e-08	3.997443e+01	1.427404e+03
1.930000e-06	5.533857e-06	2.165034e-08	3.954005e+01	1.422310e+03
1.940000e-06	5.470868e-06	2.166374e-08	3.908999e+01	1.416951e+03
1.950000e-06	5.405856e-06	2.147755e-08	3.862547e+01	1.411318e+03
1.960000e-06	5.338927e-06	2.147082e-08	3.814725e+01	1.405411e+03
1.970000e-06	5.269897e-06	2.128486e-08	3.765403e+01	1.399238e+03
1.980000e-06	5.198657e-06	2.119697e-08	3.714501e+01	1.392806e+03
1.990000e-06	5.125499e-06	2.114651e-08	3.662229e+01	1.386119e+03
2.000000e-06	5.050705e-06	2.100857e-08	3.608787e+01	1.379176e+03
2.010000e-06	4.973747e-06	2.097605e-08	3.553800e+01	1.371968e+03
2.020000e-06	4.894641e-06	2.076001e-08	3.497278e+01	1.364479e+03
2.030000e-06	4.813852e-06	2.067246e-08	3.439554e+01	1.356690e+03
2.040000e-06	4.731404e-06	2.054860e-08	3.380643e+01	1.348581e+03
2.050000e-06	4.647550e-06	2.042532e-08	3.320729e+01	1.340134e+03
2.060000e-06	4.561962e-06	2.031979e-08	3.259575e+01	1.331334e+03
2.070000e-06	4.474553e-06	2.015513e-08	3.197120e+01	1.322172e+03
2.080000e-06	4.385597e-06	2.003933e-08	3.133560e+01	1.312643e+03
2.090000e-06	4.295113e-06	1.984438e-08	3.068908e+01	1.302746e+03
2.100000e-06	4.203335e-06	1.970860e-08	3.003332e+01	1.292479e+03
2.110000e-06	4.110090e-06	1.954084e-08	2.936707e+01	1.281841e+03
2.120000e-06	4.015216e-06	1.938050e-08	2.868918e+01	1.270824e+03
2.130000e-06	3.918909e-06	1.920413e-08	2.800106e+01	1.259412e+03
2.140000e-06	3.821289e-06	1.901942e-08	2.730355e+01	1.247582e+03
2.150000e-06	3.722382e-06	1.884757e-08	2.659685e+01	1.235302e+03
2.160000e-06	3.622187e-06	1.864391e-08	2.588095e+01	1.222533e+03
2.170000e-06	3.520508e-06	1.845608e-08	2.515444e+01	1.209233e+03
2.180000e-06	3.417341e-06	1.823555e-08	2.441730e+01	1.195361e+03
2.190000e-06	3.312909e-06	1.801892e-08	2.367112e+01	1.180880e+03
2.200000e-06	3.207348e-06	1.778047e-08	2.291687e+01	1.165757e+03
2.210000e-06	3.100747e-06	1.754898e-08	2.215520e+01	1.149969e+03
2.220000e-06	2.993110e-06	1.729945e-08	2.138612e+01	1.133494e+03
2.230000e-06	2.884377e-06	1.703837e-08	2.060921e+01	1.116312e+03
2.240000e-06	2.774588e-06	1.676933e-08	1.982475e+01	1.098394e+03
2.250000e-06	2.663780e-06	1.648797e-08	1.903302e+01	1.079703e+03
2.260000e-06	2.551889e-06	1.619471e-08	1.823354e+01	1.060185e+03
2.270000e-06	2.438953e-06	1.587865e-08	1.742660e+01	1.039769e+03
2.280000e-06	2.325035e-06	1.555243e-08	1.661265e+01	1.018370e+03
2.290000e-06	2.210223e-06	1.520352e-08	1.579230e+01	9.958917e+02
2.300000e-06	2.094625e-06	1.484665e-08	1.496634e+01	9.722344e+02
2.310000e-06	1.978151e-06	1.447248e-08	1.413412e+01	9.472975e+02
2.320000e-06	1.860820e-06	1.408058e-08	1.329578e+01	9.209841e+02
2.330000e-06	1.742742e-06	1.366055e-08	1.245210e+01	8.932005e+02
2.340000e-06	1.623910e-06	1.321265e-08	1.160303e+01	8.638522e+02
2.350000e-06	1.504498e-06	1.273692e-08	1.074982e+01	8.328388e+02
2.360000e-06	1.384608e-06	1.223753e-08	9.893184e+00	8.000495e+02
2.370000e-06	1.264315e-06	1.171175e-08	9.033680e+00	7.653619e+02
2.380000e-06	1.143663e-06	1.115194e-08	8.171608e+00	7.286485e+02
2.390000e-06	1.022608e-06	1.056063e-08	7.306655e+00	6.897905e+02
2.400000e-06	9.012420e-07	9.931702e-09	6.439479e+00	6.486980e+02
2.410000e-06	7.795567e-07	9.269394e-09	5.570023e+00	6.053357e+02
2.420000e-06	6.575853e-07	8.576249e-09	4.698523e+00	5.597456e+02
2.430000e-06	5.354915e-07	7.854229e-09	3.826149e+00	5.120636e+02
2.440000e-06	4.132214e-07	7.101975e-09	2.952515e+00	4.625215e+02
2.450000e-06	2.907481e-07	6.322045e-09	2.077429e+00	4.114331e+02
2.460000e-06	1.682089e-07	5.523555e-09	1.201872e+00	3.591619e+02
2.470000e-06	4.565420e-08	4.708977e-09	3.262045e-01	3.060760e+02
2.480000e-06	-7.693117e-08	3.889178e-09	-5.496822e-01	2.524954e+02
2.490000e-06	-1.995315e-07	3.065538e-09	-1.425676e+00	1.986442e+02
2.500000e-06	-3.220868e-07	2.238516e-09	-2.301348e+00	1.446154e+02
2.510000e-06	-4.445403e-07	1.410381e-09	-3.176292e+00	9.035930e+01
2.520000e-06	-5.668592e-07	5.737773e-10	-4.050275e+00	3.569890e+01
2.530000e-06	-6.890290e-07	-2.724015e-10	-4.923192e+00	-1.962765e+01
2.540000e-06	-8.110203e-07	-1.133833e-09	-5.794835e+00	-7.590357e+01
2.550000e-06	-9.327320e-07	-2.011607e-09	-6.664479e+00	-1.333600e+02
2.560000e-06	-1.054077e-06	-2.906939e-09	-7.531499e+00	-1.921058e+02
2.570000e-06	-1.175038e-06	-3.821053e-09	-8.395786e+00	-2.520742e+02
2.580000e-06	-1.295644e-06	-4.750598e-09	-9.257528e+00	-3.129968e+02
2.590000e-06	-1.415882e-06	-5.690542e-09	-1.011664e+01	-3.744108e+02
2.600000e-06	-1.535655e-06	-6.629537e-09	-1.097243e+01	-4.356978e+02
2.610000e-06	-1.654741e-06	-7.557431e-09	-1.182332e+01	-4.961486e+02
2.620000e-06	-1.772990e-06	-8.460782e-09	-1.266822e+01	-5.550413e+02
2.630000e-06	-1.890455e-06	-9.327436e-09	-1.350752e+01	-6.117194e+02
2.640000e-06	-2.007166e-06	-1.015020e-08	-1.434143e+01	-6.656570e+02
2.650000e-06	-2.123024e-06	-1.092247e-08	-1.516926e+01	-7.164998e+02
2.660000e-06	-2.237997e-06	-1.164673e-08	-1.599075e+01	-7.640790e+02
2.670000e-06	-2.352054e-06	-1.232481e-08	-1.680570e+01	-8.083972e+02
2.680000e-06	-2.465009e-06	-1.295900e-08	-1.761278e+01	-8.495930e+02
2.690000e-06	-2.576805e-06	-1.355095e-08	-1.841157e+01	-8.878939e+02
2.700000e-06	-2.687520e-06	-1.409968e-08	-1.920264e+01	-9.235671e+02
2.710000e-06	-2.797261e-06	-1.460873e-08	-1.998675e+01	-9.568783e+02
2.720000e-06	-2.906132e-06	-1.508415e-08	-2.076465e+01	-9.880634e+02
2.730000e-06	-3.014127e-06	-1.552915e-08	-2.153629e+01	-1.017317e+03
2.740000e-06	-3.121184e-06	-1.594575e-08	-2.230122e+01	-1.044792e+03
2.750000e-06	-3.227188e-06	-1.633876e-08	-2.305863e+01	-1.070616e+03
2.760000e-06	-3.332110e-06	-1.671028e-08	-2.380831e+01	-1.094898e+03
2.770000e-06	-3.435826e-06	-1.706017e-08	-2.454938e+01	-1.117747e+03
2.780000e-06	-3.538219e-06	-1.738968e-08	-2.528099e+01	-1.139274e+03
2.790000e-06	-3.639283e-06	-1.770179e-08	-2.600310e+01	-1.159594e+03
2.800000e-06	-3.739017e-06	-1.799804e-08	-2.671571e+01	-1.178821e+03
2.810000e-06	-3.837474e-06	-1.827881e-08	-2.741920e+01	-1.197053e+03
2.820000e-06	-3.934729e-06	-1.854249e-08	-2.811410e+01	-1.214375e+03
2.830000e-06	-4.030668e-06	-1.879233e-08	-2.879959e+01	-1.230846e+03
2.840000e-06	-4.125153e-06	-1.903067e-08	-2.947470e+01	-1.246506e+03
2.850000e-06	-4.218206e-06	-1.925753e-08	-3.013957e+01	-1.261381e+03
2.860000e-06	-4.309769e-06	-1.947483e-08	-3.079380e+01	-1.275494e+03
2.870000e-06	-4.399717e-06	-1.968205e-08	-3.143649e+01	-1.288873e+03
2.880000e-06	-4.488038e-06	-1.987807e-08	-3.206755e+01	-1.301555e+03
2.890000e-06	-4.574762e-06	-2.006159e-08	-3.268721e+01	-1.313591e+03
2.900000e-06	-4.659724e-06	-2.023464e-08	-3.329427e+01	-1.325038e+03
2.910000e-06	-4.743071e-06	-2.040095e-08	-3.388980e+01	-1.335954e+03
2.920000e-06	-4.824896e-06	-2.056089e-08	-3.447445e+01	-1.346385e+03
2.930000e-06	-4.904971e-06	-2.071364e-08	-3.504659e+01	-1.356361e+03
2.940000e-06	-4.983085e-06	-2.085689e-08	-3.560472e+01	-1.365894e+03
