# Temperatura_=_57.76
# Concentracion g/m^3_=_28200.0
# C_Vs_to_Am_M_A/Vsm_=_65563218390.804596
# pendiente_HvsI_1/m_=_3716.3
# ordenada_HvsI_A/m_=_1297.0
# frecuencia_Hz_=_302119.7520239491

Tiempo_(s)	Campo_(V.s)	Magnetizacion_(V.s)	Campo_(kA/m)	Magnetizacion_(A/m)
0.000000e+00	-6.391922e-06	-2.097824e-08	-4.585973e+01	-1.373691e+03
1.000000e-08	-6.388721e-06	-2.097503e-08	-4.583677e+01	-1.373245e+03
2.000000e-08	-6.383380e-06	-2.096369e-08	-4.579845e+01	-1.372678e+03
3.000000e-08	-6.376177e-06	-2.095438e-08	-4.574677e+01	-1.372009e+03
4.000000e-08	-6.366935e-06	-2.094263e-08	-4.568046e+01	-1.371251e+03
5.000000e-08	-6.355259e-06	-2.092531e-08	-4.559669e+01	-1.370404e+03
6.000000e-08	-6.341202e-06	-2.090550e-08	-4.549583e+01	-1.369458e+03
7.000000e-08	-6.324858e-06	-2.087553e-08	-4.537857e+01	-1.368392e+03
8.000000e-08	-6.306433e-06	-2.085927e-08	-4.524638e+01	-1.367183e+03
9.000000e-08	-6.285977e-06	-2.092655e-08	-4.509962e+01	-1.365809e+03
1.000000e-07	-6.263065e-06	-2.089447e-08	-4.493523e+01	-1.364257e+03
1.100000e-07	-6.237459e-06	-2.080715e-08	-4.475152e+01	-1.362526e+03
1.200000e-07	-6.209474e-06	-2.079161e-08	-4.455074e+01	-1.360627e+03
1.300000e-07	-6.179570e-06	-2.073969e-08	-4.433618e+01	-1.358583e+03
1.400000e-07	-6.148082e-06	-2.058408e-08	-4.411027e+01	-1.356418e+03
1.500000e-07	-6.114946e-06	-2.068760e-08	-4.387253e+01	-1.354154e+03
1.600000e-07	-6.079797e-06	-2.073300e-08	-4.362035e+01	-1.351800e+03
1.700000e-07	-6.042759e-06	-2.051773e-08	-4.335461e+01	-1.349353e+03
1.800000e-07	-6.003714e-06	-2.065422e-08	-4.307448e+01	-1.346794e+03
1.900000e-07	-5.962223e-06	-2.055442e-08	-4.277679e+01	-1.344091e+03
2.000000e-07	-5.918518e-06	-2.039261e-08	-4.246323e+01	-1.341208e+03
2.100000e-07	-5.872793e-06	-2.046532e-08	-4.213517e+01	-1.338113e+03
2.200000e-07	-5.824792e-06	-2.033580e-08	-4.179078e+01	-1.334783e+03
2.300000e-07	-5.774349e-06	-2.028956e-08	-4.142887e+01	-1.331208e+03
2.400000e-07	-5.721364e-06	-2.026020e-08	-4.104872e+01	-1.327393e+03
2.500000e-07	-5.666187e-06	-2.016676e-08	-4.065285e+01	-1.323354e+03
2.600000e-07	-5.608865e-06	-2.013616e-08	-4.024158e+01	-1.319109e+03
2.700000e-07	-5.549280e-06	-2.004948e-08	-3.981408e+01	-1.314675e+03
2.800000e-07	-5.487729e-06	-1.997989e-08	-3.937248e+01	-1.310059e+03
2.900000e-07	-5.424288e-06	-1.989154e-08	-3.891731e+01	-1.305257e+03
3.000000e-07	-5.358800e-06	-1.983111e-08	-3.844746e+01	-1.300252e+03
3.100000e-07	-5.291157e-06	-1.976401e-08	-3.796214e+01	-1.295023e+03
3.200000e-07	-5.221491e-06	-1.965836e-08	-3.746231e+01	-1.289543e+03
3.300000e-07	-5.150123e-06	-1.959639e-08	-3.695028e+01	-1.283795e+03
3.400000e-07	-5.076931e-06	-1.946292e-08	-3.642515e+01	-1.277769e+03
3.500000e-07	-5.001610e-06	-1.937222e-08	-3.588475e+01	-1.271465e+03
3.600000e-07	-4.924225e-06	-1.929067e-08	-3.532953e+01	-1.264892e+03
3.700000e-07	-4.844799e-06	-1.917599e-08	-3.475968e+01	-1.258063e+03
3.800000e-07	-4.763416e-06	-1.908510e-08	-3.417579e+01	-1.250986e+03
3.900000e-07	-4.680504e-06	-1.895895e-08	-3.358093e+01	-1.243661e+03
4.000000e-07	-4.596246e-06	-1.882781e-08	-3.297640e+01	-1.236077e+03
4.100000e-07	-4.510396e-06	-1.869803e-08	-3.236046e+01	-1.228207e+03
4.200000e-07	-4.423209e-06	-1.858864e-08	-3.173492e+01	-1.220022e+03
4.300000e-07	-4.334631e-06	-1.846841e-08	-3.109941e+01	-1.211486e+03
4.400000e-07	-4.244408e-06	-1.832334e-08	-3.045209e+01	-1.202572e+03
4.500000e-07	-4.152535e-06	-1.818896e-08	-2.979294e+01	-1.193260e+03
4.600000e-07	-4.059078e-06	-1.803139e-08	-2.912242e+01	-1.183542e+03
4.700000e-07	-3.964393e-06	-1.787484e-08	-2.844309e+01	-1.173421e+03
4.800000e-07	-3.868350e-06	-1.771464e-08	-2.775401e+01	-1.162903e+03
4.900000e-07	-3.770789e-06	-1.755310e-08	-2.705405e+01	-1.151992e+03
5.000000e-07	-3.671817e-06	-1.737938e-08	-2.634396e+01	-1.140682e+03
5.100000e-07	-3.571486e-06	-1.719427e-08	-2.562412e+01	-1.128951e+03
5.200000e-07	-3.469861e-06	-1.700842e-08	-2.489500e+01	-1.116765e+03
5.300000e-07	-3.367092e-06	-1.681129e-08	-2.415767e+01	-1.104075e+03
5.400000e-07	-3.263135e-06	-1.661065e-08	-2.341181e+01	-1.090826e+03
5.500000e-07	-3.157880e-06	-1.639804e-08	-2.265665e+01	-1.076964e+03
5.600000e-07	-3.051400e-06	-1.618089e-08	-2.189270e+01	-1.062442e+03
5.700000e-07	-2.943630e-06	-1.594600e-08	-2.111948e+01	-1.047221e+03
5.800000e-07	-2.834720e-06	-1.569687e-08	-2.033809e+01	-1.031273e+03
5.900000e-07	-2.724909e-06	-1.543911e-08	-1.955024e+01	-1.014571e+03
6.000000e-07	-2.614212e-06	-1.517065e-08	-1.875603e+01	-9.970893e+02
6.100000e-07	-2.502616e-06	-1.489053e-08	-1.795537e+01	-9.787908e+02
6.200000e-07	-2.389978e-06	-1.459860e-08	-1.714723e+01	-9.596243e+02
6.300000e-07	-2.276286e-06	-1.429328e-08	-1.633153e+01	-9.395213e+02
6.400000e-07	-2.161723e-06	-1.396740e-08	-1.550958e+01	-9.183982e+02
6.500000e-07	-2.046226e-06	-1.362573e-08	-1.468094e+01	-8.961603e+02
6.600000e-07	-1.929841e-06	-1.326446e-08	-1.384591e+01	-8.727070e+02
6.700000e-07	-1.812729e-06	-1.288388e-08	-1.300568e+01	-8.479374e+02
6.800000e-07	-1.695036e-06	-1.248302e-08	-1.216127e+01	-8.217519e+02
6.900000e-07	-1.576795e-06	-1.205776e-08	-1.131294e+01	-7.940523e+02
7.000000e-07	-1.458022e-06	-1.160983e-08	-1.046078e+01	-7.647395e+02
7.100000e-07	-1.338871e-06	-1.113326e-08	-9.605914e+00	-7.337122e+02
7.200000e-07	-1.219322e-06	-1.063054e-08	-8.748198e+00	-7.008674e+02
7.300000e-07	-1.099314e-06	-1.010129e-08	-7.887184e+00	-6.661077e+02
7.400000e-07	-9.788862e-07	-9.542363e-09	-7.023155e+00	-6.293542e+02
7.500000e-07	-8.581457e-07	-8.954035e-09	-6.156886e+00	-5.905653e+02
7.600000e-07	-7.371158e-07	-8.332892e-09	-5.288540e+00	-5.497572e+02
7.700000e-07	-6.157543e-07	-7.675365e-09	-4.417815e+00	-5.070218e+02
7.800000e-07	-4.942063e-07	-6.991131e-09	-3.545752e+00	-4.625366e+02
7.900000e-07	-3.725484e-07	-6.289205e-09	-2.672900e+00	-4.165604e+02
8.000000e-07	-2.507205e-07	-5.572014e-09	-1.798829e+00	-3.694141e+02
8.100000e-07	-1.287704e-07	-4.844128e-09	-9.238812e-01	-3.214455e+02
8.200000e-07	-6.765773e-09	-4.110007e-09	-4.854198e-02	-2.729849e+02
8.300000e-07	1.152536e-07	-3.373151e-09	8.269033e-01	-2.242967e+02
8.400000e-07	2.372746e-07	-2.632346e-09	1.702360e+00	-1.755389e+02
8.500000e-07	3.592169e-07	-1.890055e-09	2.577251e+00	-1.267378e+02
8.600000e-07	4.810251e-07	-1.143554e-09	3.451182e+00	-7.778626e+01
8.700000e-07	6.026907e-07	-3.924560e-10	4.324088e+00	-2.846621e+01
8.800000e-07	7.241371e-07	3.691202e-10	5.195422e+00	2.150426e+01
8.900000e-07	8.453536e-07	1.146990e-09	6.065107e+00	7.240880e+01
9.000000e-07	9.662987e-07	1.939131e-09	6.932844e+00	1.244652e+02
9.100000e-07	1.086920e-06	2.748526e-09	7.798255e+00	1.777651e+02
9.200000e-07	1.207184e-06	3.574751e-09	8.661111e+00	2.322317e+02
9.300000e-07	1.326963e-06	4.414401e-09	9.520483e+00	2.876042e+02
9.400000e-07	1.446229e-06	5.261948e-09	1.037617e+01	3.434509e+02
9.500000e-07	1.564992e-06	6.108245e-09	1.122825e+01	3.992098e+02
9.600000e-07	1.683214e-06	6.946047e-09	1.207645e+01	4.542482e+02
9.700000e-07	1.800820e-06	7.765780e-09	1.292023e+01	5.079304e+02
9.800000e-07	1.917727e-06	8.556187e-09	1.375900e+01	5.596835e+02
9.900000e-07	2.033896e-06	9.305241e-09	1.459247e+01	6.090490e+02
1.000000e-06	2.149153e-06	1.000819e-08	1.541940e+01	6.557144e+02
1.010000e-06	2.263384e-06	1.066916e-08	1.623896e+01	6.995217e+02
1.020000e-06	2.376660e-06	1.128951e-08	1.705168e+01	7.404546e+02
1.030000e-06	2.488984e-06	1.186924e-08	1.785756e+01	7.786098e+02
1.040000e-06	2.600308e-06	1.241016e-08	1.865627e+01	8.141597e+02
1.050000e-06	2.710720e-06	1.291282e-08	1.944844e+01	8.473151e+02
1.060000e-06	2.820260e-06	1.338180e-08	2.023435e+01	8.782932e+02
1.070000e-06	2.928907e-06	1.382077e-08	2.101385e+01	9.072954e+02
1.080000e-06	3.036620e-06	1.423380e-08	2.178666e+01	9.344968e+02
1.090000e-06	3.143189e-06	1.462472e-08	2.255125e+01	9.600446e+02
1.100000e-06	3.248516e-06	1.499405e-08	2.330693e+01	9.840625e+02
1.110000e-06	3.352556e-06	1.534000e-08	2.405338e+01	1.006659e+03
1.120000e-06	3.455383e-06	1.566461e-08	2.479113e+01	1.027934e+03
1.130000e-06	3.557056e-06	1.596887e-08	2.552059e+01	1.047982e+03
1.140000e-06	3.657600e-06	1.625390e-08	2.624196e+01	1.066897e+03
1.150000e-06	3.756925e-06	1.652389e-08	2.695458e+01	1.084766e+03
1.160000e-06	3.854808e-06	1.678072e-08	2.765686e+01	1.101670e+03
1.170000e-06	3.951131e-06	1.702473e-08	2.834794e+01	1.117680e+03
1.180000e-06	4.045999e-06	1.725475e-08	2.902858e+01	1.132857e+03
1.190000e-06	4.139525e-06	1.747278e-08	2.969960e+01	1.147255e+03
1.200000e-06	4.231721e-06	1.767881e-08	3.036107e+01	1.160919e+03
1.210000e-06	4.322529e-06	1.787446e-08	3.101259e+01	1.173889e+03
1.220000e-06	4.411628e-06	1.806135e-08	3.165184e+01	1.186206e+03
1.230000e-06	4.499043e-06	1.824053e-08	3.227901e+01	1.197907e+03
1.240000e-06	4.584883e-06	1.841026e-08	3.289488e+01	1.209027e+03
1.250000e-06	4.669232e-06	1.857089e-08	3.350006e+01	1.219599e+03
1.260000e-06	4.752064e-06	1.872452e-08	3.409434e+01	1.229646e+03
1.270000e-06	4.833037e-06	1.887057e-08	3.467530e+01	1.239188e+03
1.280000e-06	4.912106e-06	1.900923e-08	3.524259e+01	1.248236e+03
1.290000e-06	4.989434e-06	1.914098e-08	3.579739e+01	1.256797e+03
1.300000e-06	5.064914e-06	1.926463e-08	3.633893e+01	1.264881e+03
1.310000e-06	5.138311e-06	1.938040e-08	3.686553e+01	1.272500e+03
1.320000e-06	5.209774e-06	1.948859e-08	3.737825e+01	1.279672e+03
1.330000e-06	5.279426e-06	1.959051e-08	3.787798e+01	1.286426e+03
1.340000e-06	5.347211e-06	1.968662e-08	3.836431e+01	1.292796e+03
1.350000e-06	5.412996e-06	1.977823e-08	3.883629e+01	1.298822e+03
1.360000e-06	5.476733e-06	1.986529e-08	3.929358e+01	1.304543e+03
1.370000e-06	5.538608e-06	1.994844e-08	3.973751e+01	1.309993e+03
1.380000e-06	5.598702e-06	2.002923e-08	4.016866e+01	1.315196e+03
1.390000e-06	5.656734e-06	2.010580e-08	4.058502e+01	1.320167e+03
1.400000e-06	5.712654e-06	2.017907e-08	4.098623e+01	1.324912e+03
1.410000e-06	5.766626e-06	2.024893e-08	4.137346e+01	1.329430e+03
1.420000e-06	5.818331e-06	2.031454e-08	4.174442e+01	1.333715e+03
1.430000e-06	5.867468e-06	2.037584e-08	4.209697e+01	1.337764e+03
1.440000e-06	5.914273e-06	2.043168e-08	4.243278e+01	1.341575e+03
1.450000e-06	5.959178e-06	2.048269e-08	4.275495e+01	1.345151e+03
1.460000e-06	6.002142e-06	2.053271e-08	4.306320e+01	1.348496e+03
1.470000e-06	6.042854e-06	2.058211e-08	4.335529e+01	1.351618e+03
1.480000e-06	6.081339e-06	2.062826e-08	4.363141e+01	1.354521e+03
1.490000e-06	6.117905e-06	2.066962e-08	4.389376e+01	1.357208e+03
1.500000e-06	6.152361e-06	2.070784e-08	4.414097e+01	1.359678e+03
1.510000e-06	6.184472e-06	2.074071e-08	4.437135e+01	1.361931e+03
1.520000e-06	6.214424e-06	2.076800e-08	4.458625e+01	1.363964e+03
1.530000e-06	6.242412e-06	2.079498e-08	4.478705e+01	1.365781e+03
1.540000e-06	6.268100e-06	2.081855e-08	4.497135e+01	1.367388e+03
1.550000e-06	6.291276e-06	2.083771e-08	4.513763e+01	1.368797e+03
1.560000e-06	6.312285e-06	2.085533e-08	4.528836e+01	1.370022e+03
1.570000e-06	6.331238e-06	2.087381e-08	4.542435e+01	1.371078e+03
1.580000e-06	6.347852e-06	2.089151e-08	4.554355e+01	1.371978e+03
1.590000e-06	6.362003e-06	2.090423e-08	4.564508e+01	1.372727e+03
1.600000e-06	6.373767e-06	2.091341e-08	4.572948e+01	1.373326e+03
1.610000e-06	6.382939e-06	2.092095e-08	4.579528e+01	1.373768e+03
1.620000e-06	6.389606e-06	2.092675e-08	4.584311e+01	1.374047e+03
1.630000e-06	6.394178e-06	2.092967e-08	4.587592e+01	1.374155e+03
1.640000e-06	6.396503e-06	2.092997e-08	4.589260e+01	1.374092e+03
1.650000e-06	6.396461e-06	2.093063e-08	4.589229e+01	1.373863e+03
1.660000e-06	6.394308e-06	2.091834e-08	4.587685e+01	1.373484e+03
1.670000e-06	6.390196e-06	2.091112e-08	4.584735e+01	1.372975e+03
1.680000e-06	6.383888e-06	2.090600e-08	4.580209e+01	1.372355e+03
1.690000e-06	6.375359e-06	2.089702e-08	4.574090e+01	1.371641e+03
1.700000e-06	6.364893e-06	2.088772e-08	4.566581e+01	1.370839e+03
1.710000e-06	6.352218e-06	2.087917e-08	4.557487e+01	1.369945e+03
1.720000e-06	6.337205e-06	2.088745e-08	4.546716e+01	1.368942e+03
1.730000e-06	6.320215e-06	2.085130e-08	4.534526e+01	1.367807e+03
1.740000e-06	6.301224e-06	2.072268e-08	4.520900e+01	1.366518e+03
1.750000e-06	6.279354e-06	2.073829e-08	4.505210e+01	1.365056e+03
1.760000e-06	6.254269e-06	2.076799e-08	4.487212e+01	1.363413e+03
1.770000e-06	6.226898e-06	2.070890e-08	4.467574e+01	1.361596e+03
1.780000e-06	6.197681e-06	2.081292e-08	4.446613e+01	1.359622e+03
1.790000e-06	6.166861e-06	2.078092e-08	4.424500e+01	1.357514e+03
1.800000e-06	6.134681e-06	2.055978e-08	4.401412e+01	1.355297e+03
1.810000e-06	6.100404e-06	2.065096e-08	4.376819e+01	1.352988e+03
1.820000e-06	6.064106e-06	2.049172e-08	4.350777e+01	1.350589e+03
1.830000e-06	6.025856e-06	2.042970e-08	4.323334e+01	1.348089e+03
1.840000e-06	5.985137e-06	2.065877e-08	4.294120e+01	1.345462e+03
1.850000e-06	5.942383e-06	2.041899e-08	4.263445e+01	1.342674e+03
1.860000e-06	5.897613e-06	2.044070e-08	4.231324e+01	1.339689e+03
1.870000e-06	5.850581e-06	2.042772e-08	4.197581e+01	1.336478e+03
1.880000e-06	5.801553e-06	2.024551e-08	4.162405e+01	1.333026e+03
1.890000e-06	5.749965e-06	2.034046e-08	4.125393e+01	1.329330e+03
1.900000e-06	5.695795e-06	2.015463e-08	4.086527e+01	1.325400e+03
1.910000e-06	5.639485e-06	2.013406e-08	4.046127e+01	1.321256e+03
1.920000e-06	5.581087e-06	2.015212e-08	4.004229e+01	1.316915e+03
1.930000e-06	5.520928e-06	1.998040e-08	3.961066e+01	1.312389e+03
1.940000e-06	5.458693e-06	2.000363e-08	3.916415e+01	1.307682e+03
1.950000e-06	5.394205e-06	1.983304e-08	3.870147e+01	1.302781e+03
1.960000e-06	5.327712e-06	1.981169e-08	3.822441e+01	1.297667e+03
1.970000e-06	5.259212e-06	1.971274e-08	3.773294e+01	1.292315e+03
1.980000e-06	5.188709e-06	1.958779e-08	3.722711e+01	1.286704e+03
1.990000e-06	5.116234e-06	1.959266e-08	3.670713e+01	1.280817e+03
2.000000e-06	5.041901e-06	1.942472e-08	3.617382e+01	1.274651e+03
2.010000e-06	4.965564e-06	1.937511e-08	3.562613e+01	1.268211e+03
2.020000e-06	4.887213e-06	1.922532e-08	3.506399e+01	1.261509e+03
2.030000e-06	4.807006e-06	1.912554e-08	3.448853e+01	1.254555e+03
2.040000e-06	4.725032e-06	1.906118e-08	3.390040e+01	1.247355e+03
2.050000e-06	4.641646e-06	1.892524e-08	3.330213e+01	1.239903e+03
2.060000e-06	4.556583e-06	1.883960e-08	3.269184e+01	1.232179e+03
2.070000e-06	4.469779e-06	1.868048e-08	3.206905e+01	1.224156e+03
2.080000e-06	4.381397e-06	1.857081e-08	3.143494e+01	1.215800e+03
2.090000e-06	4.291446e-06	1.841380e-08	3.078958e+01	1.207078e+03
2.100000e-06	4.200216e-06	1.827993e-08	3.013503e+01	1.197966e+03
2.110000e-06	4.107599e-06	1.815198e-08	2.947054e+01	1.188452e+03
2.120000e-06	4.013491e-06	1.799269e-08	2.879535e+01	1.178532e+03
2.130000e-06	3.917872e-06	1.784208e-08	2.810932e+01	1.168211e+03
2.140000e-06	3.820809e-06	1.766526e-08	2.741293e+01	1.157497e+03
2.150000e-06	3.722441e-06	1.751376e-08	2.670717e+01	1.146388e+03
2.160000e-06	3.622825e-06	1.733262e-08	2.599246e+01	1.134871e+03
2.170000e-06	3.521809e-06	1.715911e-08	2.526771e+01	1.122918e+03
2.180000e-06	3.419384e-06	1.696603e-08	2.453285e+01	1.110486e+03
2.190000e-06	3.315607e-06	1.676731e-08	2.378828e+01	1.097524e+03
2.200000e-06	3.210572e-06	1.655397e-08	2.303469e+01	1.083975e+03
2.210000e-06	3.104438e-06	1.633627e-08	2.227322e+01	1.069789e+03
2.220000e-06	2.997256e-06	1.611645e-08	2.150423e+01	1.054921e+03
2.230000e-06	2.889113e-06	1.588148e-08	2.072834e+01	1.039340e+03
2.240000e-06	2.779932e-06	1.564044e-08	1.994501e+01	1.023018e+03
2.250000e-06	2.669727e-06	1.538209e-08	1.915433e+01	1.005930e+03
2.260000e-06	2.558446e-06	1.511326e-08	1.835593e+01	9.880450e+02
2.270000e-06	2.446134e-06	1.482192e-08	1.755012e+01	9.693199e+02
2.280000e-06	2.332869e-06	1.452323e-08	1.673749e+01	9.496947e+02
2.290000e-06	2.218626e-06	1.420745e-08	1.591784e+01	9.290930e+02
2.300000e-06	2.103531e-06	1.387955e-08	1.509208e+01	9.074248e+02
2.310000e-06	1.987700e-06	1.353526e-08	1.426103e+01	8.845919e+02
2.320000e-06	1.871089e-06	1.317289e-08	1.342439e+01	8.604931e+02
2.330000e-06	1.753744e-06	1.278772e-08	1.258248e+01	8.350278e+02
2.340000e-06	1.635696e-06	1.237647e-08	1.173553e+01	8.080975e+02
2.350000e-06	1.516970e-06	1.194450e-08	1.088371e+01	7.796038e+02
2.360000e-06	1.397684e-06	1.148828e-08	1.002788e+01	7.494466e+02
2.370000e-06	1.277927e-06	1.100521e-08	9.168666e+00	7.175233e+02
2.380000e-06	1.157706e-06	1.048783e-08	8.306124e+00	6.837324e+02
2.390000e-06	1.037067e-06	9.939055e-09	7.440583e+00	6.479839e+02
2.400000e-06	9.161594e-07	9.359788e-09	6.573113e+00	6.102148e+02
2.410000e-06	7.949791e-07	8.754218e-09	5.703688e+00	5.704098e+02
2.420000e-06	6.734950e-07	8.121527e-09	4.832083e+00	5.286213e+02
2.430000e-06	5.518037e-07	7.459573e-09	3.958992e+00	4.849835e+02
2.440000e-06	4.300275e-07	6.769651e-09	3.085292e+00	4.397159e+02
2.450000e-06	3.081506e-07	6.056314e-09	2.210869e+00	3.931119e+02
2.460000e-06	1.861229e-07	5.326971e-09	1.335364e+00	3.455110e+02
2.470000e-06	6.397221e-08	4.586538e-09	4.589775e-01	2.972581e+02
2.480000e-06	-5.822949e-08	3.844560e-09	-4.177756e-01	2.486565e+02
2.490000e-06	-1.803197e-07	3.101273e-09	-1.293729e+00	1.999216e+02
2.500000e-06	-3.023953e-07	2.354592e-09	-2.169577e+00	1.511475e+02
2.510000e-06	-4.244558e-07	1.606401e-09	-3.045317e+00	1.022923e+02
2.520000e-06	-5.463437e-07	8.537518e-10	-3.919819e+00	5.318908e+01
2.530000e-06	-6.681074e-07	9.280239e-11	-4.793429e+00	3.580759e+00
2.540000e-06	-7.897005e-07	-6.786994e-10	-5.665816e+00	-4.682384e+01
2.550000e-06	-9.110483e-07	-1.463826e-09	-6.536443e+00	-9.828374e+01
2.560000e-06	-1.032077e-06	-2.265553e-09	-7.404782e+00	-1.509603e+02
2.570000e-06	-1.152749e-06	-3.087541e-09	-8.270555e+00	-2.048646e+02
2.580000e-06	-1.273054e-06	-3.927511e-09	-9.133705e+00	-2.598281e+02
2.590000e-06	-1.392940e-06	-4.779366e-09	-9.993840e+00	-3.155009e+02
2.600000e-06	-1.512211e-06	-5.638004e-09	-1.084957e+01	-3.713800e+02
2.610000e-06	-1.630765e-06	-6.492071e-09	-1.170015e+01	-4.268596e+02
2.620000e-06	-1.748670e-06	-7.327553e-09	-1.254607e+01	-4.812968e+02
2.630000e-06	-1.865856e-06	-8.133711e-09	-1.338684e+01	-5.340800e+02
2.640000e-06	-1.982234e-06	-8.906725e-09	-1.422181e+01	-5.846879e+02
2.650000e-06	-2.097773e-06	-9.640830e-09	-1.505076e+01	-6.327327e+02
2.660000e-06	-2.212440e-06	-1.033353e-08	-1.587345e+01	-6.779794e+02
2.670000e-06	-2.326045e-06	-1.098302e-08	-1.668853e+01	-7.203437e+02
2.680000e-06	-2.438505e-06	-1.159014e-08	-1.749539e+01	-7.598700e+02
2.690000e-06	-2.550015e-06	-1.215845e-08	-1.829544e+01	-7.966977e+02
2.700000e-06	-2.660512e-06	-1.268720e-08	-1.908821e+01	-8.310230e+02
2.710000e-06	-2.769969e-06	-1.317940e-08	-1.987353e+01	-8.630632e+02
2.720000e-06	-2.878616e-06	-1.363956e-08	-2.065303e+01	-8.930296e+02
2.730000e-06	-2.986364e-06	-1.406803e-08	-2.142608e+01	-9.211114e+02
2.740000e-06	-3.093135e-06	-1.446872e-08	-2.219212e+01	-9.474692e+02
2.750000e-06	-3.198893e-06	-1.484545e-08	-2.295090e+01	-9.722377e+02
2.760000e-06	-3.303568e-06	-1.519848e-08	-2.370191e+01	-9.955320e+02
2.770000e-06	-3.407090e-06	-1.553179e-08	-2.444464e+01	-1.017455e+03
2.780000e-06	-3.509229e-06	-1.584803e-08	-2.517745e+01	-1.038105e+03
2.790000e-06	-3.610047e-06	-1.614872e-08	-2.590078e+01	-1.057576e+03
2.800000e-06	-3.709596e-06	-1.643197e-08	-2.661501e+01	-1.075957e+03
2.810000e-06	-3.807925e-06	-1.669837e-08	-2.732048e+01	-1.093334e+03
2.820000e-06	-3.905063e-06	-1.694843e-08	-2.801742e+01	-1.109782e+03
2.830000e-06	-4.000851e-06	-1.718574e-08	-2.870466e+01	-1.125369e+03
2.840000e-06	-4.095199e-06	-1.741356e-08	-2.938157e+01	-1.140151e+03
2.850000e-06	-4.188001e-06	-1.763122e-08	-3.004740e+01	-1.154176e+03
2.860000e-06	-4.279310e-06	-1.783822e-08	-3.070251e+01	-1.167488e+03
2.870000e-06	-4.369111e-06	-1.803200e-08	-3.134679e+01	-1.180127e+03
2.880000e-06	-4.457375e-06	-1.821520e-08	-3.198005e+01	-1.192131e+03
2.890000e-06	-4.544062e-06	-1.838867e-08	-3.260200e+01	-1.203538e+03
2.900000e-06	-4.628948e-06	-1.855198e-08	-3.321103e+01	-1.214380e+03
2.910000e-06	-4.712208e-06	-1.870760e-08	-3.380839e+01	-1.224687e+03
2.920000e-06	-4.793954e-06	-1.885667e-08	-3.439489e+01	-1.234479e+03
2.930000e-06	-4.873996e-06	-1.899852e-08	-3.496916e+01	-1.243773e+03
2.940000e-06	-4.952129e-06	-1.913474e-08	-3.552973e+01	-1.252577e+03
