# Temperatura_=_49.36
# Concentracion g/m^3_=_28200.0
# C_Vs_to_Am_M_A/Vsm_=_65563218390.804596
# pendiente_HvsI_1/m_=_3716.3
# ordenada_HvsI_A/m_=_1297.0
# frecuencia_Hz_=_302121.23289761733

Tiempo_(s)	Campo_(V.s)	Magnetizacion_(V.s)	Campo_(kA/m)	Magnetizacion_(A/m)
0.000000e+00	-6.418765e-06	-2.060645e-08	-4.585346e+01	-1.347414e+03
1.000000e-08	-6.415492e-06	-2.060323e-08	-4.583008e+01	-1.346958e+03
2.000000e-08	-6.410137e-06	-2.059406e-08	-4.579182e+01	-1.346428e+03
3.000000e-08	-6.402844e-06	-2.058634e-08	-4.573973e+01	-1.345838e+03
4.000000e-08	-6.393399e-06	-2.057605e-08	-4.567225e+01	-1.345177e+03
5.000000e-08	-6.381506e-06	-2.056074e-08	-4.558729e+01	-1.344413e+03
6.000000e-08	-6.367241e-06	-2.053846e-08	-4.548539e+01	-1.343495e+03
7.000000e-08	-6.350660e-06	-2.050500e-08	-4.536694e+01	-1.342370e+03
8.000000e-08	-6.332019e-06	-2.049683e-08	-4.523378e+01	-1.341001e+03
9.000000e-08	-6.311262e-06	-2.054873e-08	-4.508550e+01	-1.339381e+03
1.000000e-07	-6.288055e-06	-2.049987e-08	-4.491971e+01	-1.337539e+03
1.100000e-07	-6.262234e-06	-2.042541e-08	-4.473525e+01	-1.335544e+03
1.200000e-07	-6.234085e-06	-2.042374e-08	-4.453417e+01	-1.333492e+03
1.300000e-07	-6.204108e-06	-2.037724e-08	-4.432002e+01	-1.331489e+03
1.400000e-07	-6.172532e-06	-2.025793e-08	-4.409445e+01	-1.329622e+03
1.500000e-07	-6.139181e-06	-2.036802e-08	-4.385621e+01	-1.327943e+03
1.600000e-07	-6.103775e-06	-2.034556e-08	-4.360328e+01	-1.326451e+03
1.700000e-07	-6.066430e-06	-2.017005e-08	-4.333650e+01	-1.325086e+03
1.800000e-07	-6.027010e-06	-2.028325e-08	-4.305490e+01	-1.323739e+03
1.900000e-07	-5.985167e-06	-2.016770e-08	-4.275598e+01	-1.322271e+03
2.000000e-07	-5.941151e-06	-2.009077e-08	-4.244155e+01	-1.320537e+03
2.100000e-07	-5.895080e-06	-2.014610e-08	-4.211243e+01	-1.318416e+03
2.200000e-07	-5.846699e-06	-2.003645e-08	-4.176682e+01	-1.315830e+03
2.300000e-07	-5.795833e-06	-1.999608e-08	-4.140345e+01	-1.312755e+03
2.400000e-07	-5.742442e-06	-1.992027e-08	-4.102204e+01	-1.309223e+03
2.500000e-07	-5.686843e-06	-1.984263e-08	-4.062486e+01	-1.305306e+03
2.600000e-07	-5.629042e-06	-1.982110e-08	-4.021195e+01	-1.301095e+03
2.700000e-07	-5.569149e-06	-1.974080e-08	-3.978409e+01	-1.296679e+03
2.800000e-07	-5.507402e-06	-1.969494e-08	-3.934299e+01	-1.292123e+03
2.900000e-07	-5.443659e-06	-1.960465e-08	-3.888764e+01	-1.287457e+03
3.000000e-07	-5.377790e-06	-1.952125e-08	-3.841709e+01	-1.282673e+03
3.100000e-07	-5.309843e-06	-1.944061e-08	-3.793170e+01	-1.277730e+03
3.200000e-07	-5.239915e-06	-1.936581e-08	-3.743216e+01	-1.272575e+03
3.300000e-07	-5.168129e-06	-1.931143e-08	-3.691934e+01	-1.267152e+03
3.400000e-07	-5.094445e-06	-1.919161e-08	-3.639297e+01	-1.261423e+03
3.500000e-07	-5.018699e-06	-1.911007e-08	-3.585187e+01	-1.255372e+03
3.600000e-07	-4.940812e-06	-1.900651e-08	-3.529547e+01	-1.249008e+03
3.700000e-07	-4.860907e-06	-1.890243e-08	-3.472466e+01	-1.242356e+03
3.800000e-07	-4.779218e-06	-1.882340e-08	-3.414109e+01	-1.235446e+03
3.900000e-07	-4.695929e-06	-1.870784e-08	-3.354611e+01	-1.228300e+03
4.000000e-07	-4.611213e-06	-1.858693e-08	-3.294093e+01	-1.220923e+03
4.100000e-07	-4.525045e-06	-1.846128e-08	-3.232537e+01	-1.213301e+03
4.200000e-07	-4.437449e-06	-1.834532e-08	-3.169962e+01	-1.205399e+03
4.300000e-07	-4.348394e-06	-1.821652e-08	-3.106344e+01	-1.197175e+03
4.400000e-07	-4.257671e-06	-1.808120e-08	-3.041534e+01	-1.188583e+03
4.500000e-07	-4.165355e-06	-1.795372e-08	-2.975587e+01	-1.179590e+03
4.600000e-07	-4.071609e-06	-1.780352e-08	-2.908618e+01	-1.170179e+03
4.700000e-07	-3.976490e-06	-1.765420e-08	-2.840668e+01	-1.160346e+03
4.800000e-07	-3.879961e-06	-1.750152e-08	-2.771711e+01	-1.150099e+03
4.900000e-07	-3.781982e-06	-1.734625e-08	-2.701718e+01	-1.139446e+03
5.000000e-07	-3.682540e-06	-1.717526e-08	-2.630681e+01	-1.128388e+03
5.100000e-07	-3.581757e-06	-1.699392e-08	-2.558684e+01	-1.116910e+03
5.200000e-07	-3.479780e-06	-1.681041e-08	-2.485836e+01	-1.104979e+03
5.300000e-07	-3.376606e-06	-1.661526e-08	-2.412132e+01	-1.092544e+03
5.400000e-07	-3.272109e-06	-1.641774e-08	-2.337482e+01	-1.079549e+03
5.500000e-07	-3.166303e-06	-1.620999e-08	-2.261898e+01	-1.065936e+03
5.600000e-07	-3.059229e-06	-1.599365e-08	-2.185408e+01	-1.051656e+03
5.700000e-07	-2.950928e-06	-1.576106e-08	-2.108042e+01	-1.036671e+03
5.800000e-07	-2.841584e-06	-1.551960e-08	-2.029930e+01	-1.020958e+03
5.900000e-07	-2.731318e-06	-1.527014e-08	-1.951160e+01	-1.004496e+03
6.000000e-07	-2.620248e-06	-1.500804e-08	-1.871816e+01	-9.872631e+02
6.100000e-07	-2.508147e-06	-1.473341e-08	-1.791734e+01	-9.692266e+02
6.200000e-07	-2.394905e-06	-1.444403e-08	-1.710838e+01	-9.503333e+02
6.300000e-07	-2.280649e-06	-1.413929e-08	-1.629218e+01	-9.305098e+02
6.400000e-07	-2.165413e-06	-1.381700e-08	-1.546897e+01	-9.096644e+02
6.500000e-07	-2.049262e-06	-1.348055e-08	-1.463922e+01	-8.876940e+02
6.600000e-07	-1.932296e-06	-1.312386e-08	-1.380366e+01	-8.644927e+02
6.700000e-07	-1.814704e-06	-1.274666e-08	-1.296362e+01	-8.399584e+02
6.800000e-07	-1.696546e-06	-1.234821e-08	-1.211955e+01	-8.139963e+02
6.900000e-07	-1.577842e-06	-1.192620e-08	-1.127156e+01	-7.865180e+02
7.000000e-07	-1.458746e-06	-1.148199e-08	-1.042078e+01	-7.574375e+02
7.100000e-07	-1.339152e-06	-1.101198e-08	-9.566443e+00	-7.266656e+02
7.200000e-07	-1.219003e-06	-1.051709e-08	-8.708143e+00	-6.941087e+02
7.300000e-07	-1.098441e-06	-9.992440e-09	-7.846884e+00	-6.596734e+02
7.400000e-07	-9.774564e-07	-9.436970e-09	-6.982614e+00	-6.232789e+02
7.500000e-07	-8.560616e-07	-8.851868e-09	-6.115411e+00	-5.848777e+02
7.600000e-07	-7.343312e-07	-8.237594e-09	-5.245811e+00	-5.444789e+02
7.700000e-07	-6.123437e-07	-7.590792e-09	-4.374374e+00	-5.021700e+02
7.800000e-07	-4.901583e-07	-6.917717e-09	-3.501523e+00	-4.581294e+02
7.900000e-07	-3.678734e-07	-6.225695e-09	-2.627962e+00	-4.126241e+02
8.000000e-07	-2.455226e-07	-5.515016e-09	-1.753929e+00	-3.659899e+02
8.100000e-07	-1.230377e-07	-4.795693e-09	-8.789394e-01	-3.185942e+02
8.200000e-07	-4.753150e-10	-4.071782e-09	-3.395488e-03	-2.707865e+02
8.300000e-07	1.220839e-07	-3.347018e-09	8.721258e-01	-2.228468e+02
8.400000e-07	2.446341e-07	-2.619796e-09	1.747582e+00	-1.749403e+02
8.500000e-07	3.671004e-07	-1.890018e-09	2.622440e+00	-1.270904e+02
8.600000e-07	4.894103e-07	-1.156895e-09	3.496180e+00	-7.917678e+01
8.700000e-07	6.115946e-07	-4.203854e-10	4.369023e+00	-3.096100e+01
8.800000e-07	7.336706e-07	3.221956e-10	5.241091e+00	1.786338e+01
8.900000e-07	8.555693e-07	1.077346e-09	6.111894e+00	6.760412e+01
9.000000e-07	9.771965e-07	1.850093e-09	6.980757e+00	1.184992e+02
9.100000e-07	1.098492e-06	2.643673e-09	7.847249e+00	1.706545e+02
9.200000e-07	1.219414e-06	3.454460e-09	8.711074e+00	2.240016e+02
9.300000e-07	1.339787e-06	4.279708e-09	9.570983e+00	2.782839e+02
9.400000e-07	1.459496e-06	5.112367e-09	1.042614e+01	3.330728e+02
9.500000e-07	1.578598e-06	5.943157e-09	1.127696e+01	3.878105e+02
9.600000e-07	1.697232e-06	6.763672e-09	1.212444e+01	4.418716e+02
9.700000e-07	1.815371e-06	7.566006e-09	1.296839e+01	4.946315e+02
9.800000e-07	1.932814e-06	8.339770e-09	1.380736e+01	5.455301e+02
9.900000e-07	2.049499e-06	9.075333e-09	1.464092e+01	5.941208e+02
1.000000e-06	2.165339e-06	9.769501e-09	1.546844e+01	6.400993e+02
1.010000e-06	2.280211e-06	1.042181e-08	1.628904e+01	6.833092e+02
1.020000e-06	2.394141e-06	1.103411e-08	1.710292e+01	7.237285e+02
1.030000e-06	2.507038e-06	1.160552e-08	1.790942e+01	7.614414e+02
1.040000e-06	2.618783e-06	1.213975e-08	1.870769e+01	7.966037e+02
1.050000e-06	2.729559e-06	1.263645e-08	1.949904e+01	8.294088e+02
1.060000e-06	2.839508e-06	1.310105e-08	2.028447e+01	8.600595e+02
1.070000e-06	2.948516e-06	1.353806e-08	2.106319e+01	8.887484e+02
1.080000e-06	3.056554e-06	1.394952e-08	2.183498e+01	9.156480e+02
1.090000e-06	3.163573e-06	1.433624e-08	2.259948e+01	9.409080e+02
1.100000e-06	3.269349e-06	1.469896e-08	2.335511e+01	9.646581e+02
1.110000e-06	3.373788e-06	1.503948e-08	2.410118e+01	9.870119e+02
1.120000e-06	3.477019e-06	1.535956e-08	2.483863e+01	1.008071e+03
1.130000e-06	3.579057e-06	1.566012e-08	2.556756e+01	1.027929e+03
1.140000e-06	3.679884e-06	1.594165e-08	2.628783e+01	1.046670e+03
1.150000e-06	3.779482e-06	1.620880e-08	2.699932e+01	1.064372e+03
1.160000e-06	3.877705e-06	1.646088e-08	2.770100e+01	1.081103e+03
1.170000e-06	3.974418e-06	1.669933e-08	2.839188e+01	1.096929e+03
1.180000e-06	4.069633e-06	1.692735e-08	2.907206e+01	1.111906e+03
1.190000e-06	4.163455e-06	1.714445e-08	2.974230e+01	1.126091e+03
1.200000e-06	4.255945e-06	1.734874e-08	3.040301e+01	1.139536e+03
1.210000e-06	4.347091e-06	1.754157e-08	3.105413e+01	1.152294e+03
1.220000e-06	4.436609e-06	1.772342e-08	3.169362e+01	1.164412e+03
1.230000e-06	4.524318e-06	1.789698e-08	3.232018e+01	1.175932e+03
1.240000e-06	4.610387e-06	1.806129e-08	3.293503e+01	1.186888e+03
1.250000e-06	4.695016e-06	1.822002e-08	3.353958e+01	1.197304e+03
1.260000e-06	4.778111e-06	1.837081e-08	3.413319e+01	1.207195e+03
1.270000e-06	4.859420e-06	1.851413e-08	3.471403e+01	1.216568e+03
1.280000e-06	4.938829e-06	1.865138e-08	3.528130e+01	1.225427e+03
1.290000e-06	5.016346e-06	1.877908e-08	3.583505e+01	1.233778e+03
1.300000e-06	5.091943e-06	1.889853e-08	3.637510e+01	1.241637e+03
1.310000e-06	5.165542e-06	1.900921e-08	3.690086e+01	1.249026e+03
1.320000e-06	5.237151e-06	1.911582e-08	3.741242e+01	1.255981e+03
1.330000e-06	5.306842e-06	1.921681e-08	3.791026e+01	1.262544e+03
1.340000e-06	5.374764e-06	1.930985e-08	3.839548e+01	1.268759e+03
1.350000e-06	5.440796e-06	1.939844e-08	3.886719e+01	1.274668e+03
1.360000e-06	5.504698e-06	1.948266e-08	3.932368e+01	1.280303e+03
1.370000e-06	5.566640e-06	1.956345e-08	3.976617e+01	1.285684e+03
1.380000e-06	5.626837e-06	1.964104e-08	4.019619e+01	1.290820e+03
1.390000e-06	5.685050e-06	1.971668e-08	4.061205e+01	1.295713e+03
1.400000e-06	5.741103e-06	1.979011e-08	4.101247e+01	1.300358e+03
1.410000e-06	5.795123e-06	1.985766e-08	4.139838e+01	1.304755e+03
1.420000e-06	5.846962e-06	1.991958e-08	4.176870e+01	1.308904e+03
1.430000e-06	5.896304e-06	1.997767e-08	4.212118e+01	1.312815e+03
1.440000e-06	5.943301e-06	2.003080e-08	4.245691e+01	1.316499e+03
1.450000e-06	5.988314e-06	2.008115e-08	4.277846e+01	1.319968e+03
1.460000e-06	6.031299e-06	2.013184e-08	4.308553e+01	1.323232e+03
1.470000e-06	6.072039e-06	2.018161e-08	4.337657e+01	1.326293e+03
1.480000e-06	6.110574e-06	2.022571e-08	4.365185e+01	1.329143e+03
1.490000e-06	6.147124e-06	2.026295e-08	4.391295e+01	1.331772e+03
1.500000e-06	6.181559e-06	2.029654e-08	4.415894e+01	1.334168e+03
1.510000e-06	6.213684e-06	2.032697e-08	4.438843e+01	1.336320e+03
1.520000e-06	6.243608e-06	2.035453e-08	4.460219e+01	1.338232e+03
1.530000e-06	6.271490e-06	2.037867e-08	4.480138e+01	1.339916e+03
1.540000e-06	6.297001e-06	2.040010e-08	4.498362e+01	1.341395e+03
1.550000e-06	6.320020e-06	2.041984e-08	4.514806e+01	1.342699e+03
1.560000e-06	6.340978e-06	2.043737e-08	4.529777e+01	1.343857e+03
1.570000e-06	6.359835e-06	2.045461e-08	4.543248e+01	1.344887e+03
1.580000e-06	6.376304e-06	2.047052e-08	4.555013e+01	1.345797e+03
1.590000e-06	6.390354e-06	2.048268e-08	4.565050e+01	1.346578e+03
1.600000e-06	6.401942e-06	2.048970e-08	4.573328e+01	1.347211e+03
1.610000e-06	6.410943e-06	2.049391e-08	4.579758e+01	1.347671e+03
1.620000e-06	6.417545e-06	2.049913e-08	4.584474e+01	1.347938e+03
1.630000e-06	6.422040e-06	2.050262e-08	4.587686e+01	1.348007e+03
1.640000e-06	6.424244e-06	2.050223e-08	4.589260e+01	1.347886e+03
1.650000e-06	6.424125e-06	2.050199e-08	4.589175e+01	1.347604e+03
1.660000e-06	6.421895e-06	2.049396e-08	4.587582e+01	1.347197e+03
1.670000e-06	6.417624e-06	2.048960e-08	4.584531e+01	1.346701e+03
1.680000e-06	6.411096e-06	2.048151e-08	4.579868e+01	1.346140e+03
1.690000e-06	6.402374e-06	2.046960e-08	4.573637e+01	1.345518e+03
1.700000e-06	6.391717e-06	2.045897e-08	4.566024e+01	1.344811e+03
1.710000e-06	6.378845e-06	2.044884e-08	4.556829e+01	1.343976e+03
1.720000e-06	6.363690e-06	2.045305e-08	4.546002e+01	1.342961e+03
1.730000e-06	6.346534e-06	2.040112e-08	4.533747e+01	1.341718e+03
1.740000e-06	6.327237e-06	2.029554e-08	4.519962e+01	1.340222e+03
1.750000e-06	6.304970e-06	2.032107e-08	4.504055e+01	1.338484e+03
1.760000e-06	6.279582e-06	2.033532e-08	4.485919e+01	1.336555e+03
1.770000e-06	6.251916e-06	2.028371e-08	4.466155e+01	1.334518e+03
1.780000e-06	6.222398e-06	2.037272e-08	4.445068e+01	1.332478e+03
1.790000e-06	6.191331e-06	2.028503e-08	4.422875e+01	1.330534e+03
1.800000e-06	6.158819e-06	2.008154e-08	4.399649e+01	1.328758e+03
1.810000e-06	6.124200e-06	2.016346e-08	4.374918e+01	1.327176e+03
1.820000e-06	6.087589e-06	2.006463e-08	4.348765e+01	1.325759e+03
1.830000e-06	6.048930e-06	2.014922e-08	4.321149e+01	1.324419e+03
1.840000e-06	6.007826e-06	2.033382e-08	4.291785e+01	1.323029e+03
1.850000e-06	5.964740e-06	2.011655e-08	4.261006e+01	1.321445e+03
1.860000e-06	5.919626e-06	2.016121e-08	4.228778e+01	1.319531e+03
1.870000e-06	5.872293e-06	2.009833e-08	4.194965e+01	1.317184e+03
1.880000e-06	5.822912e-06	2.000917e-08	4.159689e+01	1.314353e+03
1.890000e-06	5.770941e-06	2.010233e-08	4.122563e+01	1.311043e+03
1.900000e-06	5.716363e-06	1.991756e-08	4.083574e+01	1.307307e+03
1.910000e-06	5.659661e-06	1.992818e-08	4.043068e+01	1.303231e+03
1.920000e-06	5.600979e-06	1.986933e-08	4.001148e+01	1.298907e+03
1.930000e-06	5.540430e-06	1.972486e-08	3.957894e+01	1.294415e+03
1.940000e-06	5.477657e-06	1.975868e-08	3.913051e+01	1.289804e+03
1.950000e-06	5.412745e-06	1.961430e-08	3.866680e+01	1.285082e+03
1.960000e-06	5.345862e-06	1.960308e-08	3.818901e+01	1.280224e+03
1.970000e-06	5.276975e-06	1.948045e-08	3.769690e+01	1.275183e+03
1.980000e-06	5.206046e-06	1.937936e-08	3.719021e+01	1.269900e+03
1.990000e-06	5.133059e-06	1.934630e-08	3.666882e+01	1.264327e+03
2.000000e-06	5.058263e-06	1.920088e-08	3.613450e+01	1.258438e+03
2.010000e-06	4.981466e-06	1.916640e-08	3.558589e+01	1.252228e+03
2.020000e-06	4.902568e-06	1.901384e-08	3.502227e+01	1.245716e+03
2.030000e-06	4.821842e-06	1.892996e-08	3.444559e+01	1.238932e+03
2.040000e-06	4.739512e-06	1.883417e-08	3.385745e+01	1.231901e+03
2.050000e-06	4.655697e-06	1.870422e-08	3.325870e+01	1.224641e+03
2.060000e-06	4.570185e-06	1.861977e-08	3.264784e+01	1.217145e+03
2.070000e-06	4.482858e-06	1.847790e-08	3.202400e+01	1.209388e+03
2.080000e-06	4.393959e-06	1.837983e-08	3.138894e+01	1.201330e+03
2.090000e-06	4.303666e-06	1.822596e-08	3.074392e+01	1.192927e+03
2.100000e-06	4.211967e-06	1.810487e-08	3.008885e+01	1.184138e+03
2.110000e-06	4.118808e-06	1.796719e-08	2.942335e+01	1.174938e+03
2.120000e-06	4.024157e-06	1.781040e-08	2.874720e+01	1.165315e+03
2.130000e-06	3.928011e-06	1.765671e-08	2.806036e+01	1.155274e+03
2.140000e-06	3.830523e-06	1.748960e-08	2.736395e+01	1.144823e+03
2.150000e-06	3.731772e-06	1.734109e-08	2.665850e+01	1.133969e+03
2.160000e-06	3.631678e-06	1.716330e-08	2.594346e+01	1.122704e+03
2.170000e-06	3.530171e-06	1.699809e-08	2.521834e+01	1.111004e+03
2.180000e-06	3.427190e-06	1.681048e-08	2.448267e+01	1.098828e+03
2.190000e-06	3.322868e-06	1.661657e-08	2.373743e+01	1.086120e+03
2.200000e-06	3.217417e-06	1.640495e-08	2.298412e+01	1.072823e+03
2.210000e-06	3.110874e-06	1.619390e-08	2.222302e+01	1.058882e+03
2.220000e-06	3.003256e-06	1.597352e-08	2.145423e+01	1.044253e+03
2.230000e-06	2.894577e-06	1.573853e-08	2.067787e+01	1.028907e+03
2.240000e-06	2.784858e-06	1.549617e-08	1.989407e+01	1.012821e+03
2.250000e-06	2.674126e-06	1.524215e-08	1.910304e+01	9.959773e+02
2.260000e-06	2.562363e-06	1.498080e-08	1.830464e+01	9.783482e+02
2.270000e-06	2.449543e-06	1.469693e-08	1.749870e+01	9.598911e+02
2.280000e-06	2.335735e-06	1.440342e-08	1.668569e+01	9.405432e+02
2.290000e-06	2.221016e-06	1.409019e-08	1.586618e+01	9.202211e+02
2.300000e-06	2.105444e-06	1.376421e-08	1.504057e+01	8.988265e+02
2.310000e-06	1.989005e-06	1.342028e-08	1.420877e+01	8.762538e+02
2.320000e-06	1.871664e-06	1.306158e-08	1.337053e+01	8.523983e+02
2.330000e-06	1.753619e-06	1.268230e-08	1.252725e+01	8.271614e+02
2.340000e-06	1.634923e-06	1.227719e-08	1.167933e+01	8.004520e+02
2.350000e-06	1.515609e-06	1.184723e-08	1.082699e+01	7.721835e+02
2.360000e-06	1.395816e-06	1.139206e-08	9.971229e+00	7.422687e+02
2.370000e-06	1.275577e-06	1.091165e-08	9.112285e+00	7.106162e+02
2.380000e-06	1.154885e-06	1.040064e-08	8.250105e+00	6.771314e+02
2.390000e-06	1.033782e-06	9.860630e-09	7.384987e+00	6.417250e+02
2.400000e-06	9.123587e-07	9.286957e-09	6.517578e+00	6.043302e+02
2.410000e-06	7.906519e-07	8.684408e-09	5.648147e+00	5.649246e+02
2.420000e-06	6.687213e-07	8.053362e-09	4.777116e+00	5.235543e+02
2.430000e-06	5.466640e-07	7.393602e-09	3.905181e+00	4.803514e+02
2.440000e-06	4.244100e-07	6.708938e-09	3.031840e+00	4.355401e+02
2.450000e-06	3.019770e-07	6.003757e-09	2.157221e+00	3.894253e+02
2.460000e-06	1.794547e-07	5.284498e-09	1.281963e+00	3.423643e+02
2.470000e-06	5.686011e-08	4.555376e-09	4.061891e-01	2.947221e+02
2.480000e-06	-6.582715e-08	3.822716e-09	-4.702466e-01	2.468198e+02
2.490000e-06	-1.885892e-07	3.089935e-09	-1.347216e+00	1.988845e+02
2.500000e-06	-3.112253e-07	2.357833e-09	-2.223287e+00	1.510126e+02
2.510000e-06	-4.336811e-07	1.625982e-09	-3.098069e+00	1.031542e+02
2.520000e-06	-5.560534e-07	8.896152e-10	-3.972255e+00	5.512495e+01
2.530000e-06	-6.783653e-07	1.461792e-10	-4.846009e+00	6.644929e+00
2.540000e-06	-8.004929e-07	-6.069767e-10	-5.718447e+00	-4.260189e+01
2.550000e-06	-9.223082e-07	-1.376538e-09	-6.588654e+00	-9.289704e+01
2.560000e-06	-1.043825e-06	-2.162729e-09	-7.456728e+00	-1.444192e+02
2.570000e-06	-1.164999e-06	-2.966328e-09	-8.322356e+00	-1.971907e+02
2.580000e-06	-1.285764e-06	-3.787266e-09	-9.185056e+00	-2.510490e+02
2.590000e-06	-1.406056e-06	-4.622702e-09	-1.004439e+01	-3.056475e+02
2.600000e-06	-1.525777e-06	-5.465322e-09	-1.089963e+01	-3.604863e+02
2.610000e-06	-1.644871e-06	-6.302199e-09	-1.175040e+01	-4.149655e+02
2.620000e-06	-1.763322e-06	-7.124249e-09	-1.259657e+01	-4.684514e+02
2.630000e-06	-1.881052e-06	-7.920761e-09	-1.343759e+01	-5.203445e+02
2.640000e-06	-1.997869e-06	-8.683941e-09	-1.427210e+01	-5.701364e+02
2.650000e-06	-2.113747e-06	-9.408538e-09	-1.509989e+01	-6.174497e+02
2.660000e-06	-2.228747e-06	-1.009275e-08	-1.592140e+01	-6.620546e+02
2.670000e-06	-2.342788e-06	-1.073558e-08	-1.673607e+01	-7.038645e+02
2.680000e-06	-2.455797e-06	-1.133728e-08	-1.754338e+01	-7.429148e+02
2.690000e-06	-2.567763e-06	-1.189845e-08	-1.834322e+01	-7.793298e+02
2.700000e-06	-2.678587e-06	-1.241767e-08	-1.913491e+01	-8.132882e+02
2.710000e-06	-2.788380e-06	-1.290125e-08	-1.991923e+01	-8.449910e+02
2.720000e-06	-2.897332e-06	-1.335448e-08	-2.069755e+01	-8.746379e+02
2.730000e-06	-3.005365e-06	-1.377817e-08	-2.146930e+01	-9.024120e+02
2.740000e-06	-3.112464e-06	-1.417736e-08	-2.223438e+01	-9.284744e+02
2.750000e-06	-3.218535e-06	-1.455379e-08	-2.299211e+01	-9.529644e+02
2.760000e-06	-3.323550e-06	-1.490508e-08	-2.374231e+01	-9.760029e+02
2.770000e-06	-3.427417e-06	-1.523460e-08	-2.448430e+01	-9.976975e+02
2.780000e-06	-3.529920e-06	-1.554617e-08	-2.521654e+01	-1.018145e+03
2.790000e-06	-3.631067e-06	-1.584252e-08	-2.593910e+01	-1.037434e+03
2.800000e-06	-3.730926e-06	-1.612375e-08	-2.665246e+01	-1.055646e+03
2.810000e-06	-3.829562e-06	-1.638929e-08	-2.735708e+01	-1.072855e+03
2.820000e-06	-3.926932e-06	-1.663911e-08	-2.805266e+01	-1.089126e+03
2.830000e-06	-4.023055e-06	-1.687565e-08	-2.873932e+01	-1.104520e+03
2.840000e-06	-4.117787e-06	-1.709982e-08	-2.941606e+01	-1.119094e+03
2.850000e-06	-4.210957e-06	-1.731251e-08	-3.008163e+01	-1.132903e+03
2.860000e-06	-4.302606e-06	-1.751567e-08	-3.073634e+01	-1.145998e+03
2.870000e-06	-4.392695e-06	-1.770819e-08	-3.137991e+01	-1.158430e+03
2.880000e-06	-4.481219e-06	-1.789013e-08	-3.201230e+01	-1.170244e+03
2.890000e-06	-4.568056e-06	-1.806110e-08	-3.263263e+01	-1.181478e+03
2.900000e-06	-4.653156e-06	-1.822215e-08	-3.324056e+01	-1.192162e+03
2.910000e-06	-4.736678e-06	-1.837587e-08	-3.383721e+01	-1.202315e+03
2.920000e-06	-4.818584e-06	-1.852225e-08	-3.442231e+01	-1.211946e+03
2.930000e-06	-4.898822e-06	-1.866186e-08	-3.499551e+01	-1.221062e+03
2.940000e-06	-4.977092e-06	-1.879635e-08	-3.555464e+01	-1.229666e+03
