# Temperatura_=_44.19
# Concentracion g/m^3_=_28200.0
# C_Vs_to_Am_M_A/Vsm_=_65563218390.804596
# pendiente_HvsI_1/m_=_3716.3
# ordenada_HvsI_A/m_=_1297.0
# frecuencia_Hz_=_302122.22743137786

Tiempo_(s)	Campo_(V.s)	Magnetizacion_(V.s)	Campo_(kA/m)	Magnetizacion_(A/m)
0.000000e+00	-6.424952e-06	-2.024909e-08	-4.585572e+01	-1.325757e+03
1.000000e-08	-6.421848e-06	-2.025159e-08	-4.583357e+01	-1.325326e+03
2.000000e-08	-6.416598e-06	-2.024090e-08	-4.579610e+01	-1.324763e+03
3.000000e-08	-6.409425e-06	-2.023120e-08	-4.574490e+01	-1.324097e+03
4.000000e-08	-6.400158e-06	-2.022035e-08	-4.567876e+01	-1.323354e+03
5.000000e-08	-6.388527e-06	-2.020456e-08	-4.559575e+01	-1.322545e+03
6.000000e-08	-6.374465e-06	-2.018566e-08	-4.549539e+01	-1.321666e+03
7.000000e-08	-6.357982e-06	-2.015258e-08	-4.537775e+01	-1.320697e+03
8.000000e-08	-6.339463e-06	-2.013287e-08	-4.524558e+01	-1.319605e+03
9.000000e-08	-6.318905e-06	-2.020693e-08	-4.509885e+01	-1.318356e+03
1.000000e-07	-6.295911e-06	-2.017725e-08	-4.493473e+01	-1.316926e+03
1.100000e-07	-6.270273e-06	-2.008691e-08	-4.475176e+01	-1.315303e+03
1.200000e-07	-6.242269e-06	-2.008558e-08	-4.455189e+01	-1.313502e+03
1.300000e-07	-6.212417e-06	-2.006032e-08	-4.433883e+01	-1.311551e+03
1.400000e-07	-6.181005e-06	-1.989866e-08	-4.411464e+01	-1.309496e+03
1.500000e-07	-6.147826e-06	-1.997494e-08	-4.387783e+01	-1.307380e+03
1.600000e-07	-6.112595e-06	-2.004888e-08	-4.362639e+01	-1.305236e+03
1.700000e-07	-6.075427e-06	-1.980609e-08	-4.336111e+01	-1.303075e+03
1.800000e-07	-6.036133e-06	-1.993371e-08	-4.308067e+01	-1.300880e+03
1.900000e-07	-5.994409e-06	-1.989066e-08	-4.278288e+01	-1.298612e+03
2.000000e-07	-5.950547e-06	-1.972423e-08	-4.246983e+01	-1.296210e+03
2.100000e-07	-5.904689e-06	-1.981391e-08	-4.214253e+01	-1.293611e+03
2.200000e-07	-5.856499e-06	-1.970040e-08	-4.179860e+01	-1.290757e+03
2.300000e-07	-5.805782e-06	-1.962808e-08	-4.143662e+01	-1.287612e+03
2.400000e-07	-5.752562e-06	-1.958286e-08	-4.105678e+01	-1.284163e+03
2.500000e-07	-5.697189e-06	-1.950580e-08	-4.066158e+01	-1.280425e+03
2.600000e-07	-5.639588e-06	-1.947840e-08	-4.025047e+01	-1.276431e+03
2.700000e-07	-5.579809e-06	-1.938699e-08	-3.982383e+01	-1.272222e+03
2.800000e-07	-5.518191e-06	-1.934814e-08	-3.938405e+01	-1.267837e+03
2.900000e-07	-5.454561e-06	-1.925149e-08	-3.892991e+01	-1.263299e+03
3.000000e-07	-5.388794e-06	-1.915902e-08	-3.846053e+01	-1.258612e+03
3.100000e-07	-5.320952e-06	-1.912376e-08	-3.797633e+01	-1.253758e+03
3.200000e-07	-5.251068e-06	-1.904380e-08	-3.747756e+01	-1.248707e+03
3.300000e-07	-5.179423e-06	-1.898864e-08	-3.696622e+01	-1.243419e+03
3.400000e-07	-5.105961e-06	-1.886555e-08	-3.644191e+01	-1.237858e+03
3.500000e-07	-5.030342e-06	-1.877031e-08	-3.590221e+01	-1.232001e+03
3.600000e-07	-4.952534e-06	-1.868022e-08	-3.534688e+01	-1.225839e+03
3.700000e-07	-4.872577e-06	-1.857244e-08	-3.477622e+01	-1.219376e+03
3.800000e-07	-4.790831e-06	-1.850084e-08	-3.419278e+01	-1.212625e+03
3.900000e-07	-4.707640e-06	-1.838739e-08	-3.359904e+01	-1.205603e+03
4.000000e-07	-4.623055e-06	-1.827251e-08	-3.299534e+01	-1.198318e+03
4.100000e-07	-4.536974e-06	-1.814317e-08	-3.238097e+01	-1.190767e+03
4.200000e-07	-4.449468e-06	-1.802533e-08	-3.175643e+01	-1.182936e+03
4.300000e-07	-4.360464e-06	-1.790464e-08	-3.112120e+01	-1.174799e+03
4.400000e-07	-4.269774e-06	-1.776599e-08	-3.047393e+01	-1.166325e+03
4.500000e-07	-4.177518e-06	-1.764178e-08	-2.981549e+01	-1.157487e+03
4.600000e-07	-4.083763e-06	-1.749265e-08	-2.914635e+01	-1.148261e+03
4.700000e-07	-3.988689e-06	-1.734535e-08	-2.846779e+01	-1.138634e+03
4.800000e-07	-3.892273e-06	-1.719687e-08	-2.777966e+01	-1.128603e+03
4.900000e-07	-3.794335e-06	-1.704744e-08	-2.708066e+01	-1.118163e+03
5.000000e-07	-3.694951e-06	-1.687820e-08	-2.637135e+01	-1.107312e+03
5.100000e-07	-3.594206e-06	-1.669876e-08	-2.565231e+01	-1.096035e+03
5.200000e-07	-3.492210e-06	-1.651955e-08	-2.492436e+01	-1.084305e+03
5.300000e-07	-3.389090e-06	-1.632524e-08	-2.418838e+01	-1.072085e+03
5.400000e-07	-3.284725e-06	-1.613030e-08	-2.344351e+01	-1.059325e+03
5.500000e-07	-3.178969e-06	-1.592457e-08	-2.268871e+01	-1.045973e+03
5.600000e-07	-3.071951e-06	-1.571425e-08	-2.192492e+01	-1.031977e+03
5.700000e-07	-2.963774e-06	-1.548956e-08	-2.115284e+01	-1.017294e+03
5.800000e-07	-2.854476e-06	-1.525496e-08	-2.037277e+01	-1.001888e+03
5.900000e-07	-2.744190e-06	-1.500846e-08	-1.958565e+01	-9.857307e+02
6.000000e-07	-2.633079e-06	-1.474956e-08	-1.879263e+01	-9.687954e+02
6.100000e-07	-2.520984e-06	-1.447767e-08	-1.799259e+01	-9.510503e+02
6.200000e-07	-2.407722e-06	-1.419176e-08	-1.718423e+01	-9.324527e+02
6.300000e-07	-2.293353e-06	-1.389231e-08	-1.636796e+01	-9.129446e+02
6.400000e-07	-2.177984e-06	-1.357492e-08	-1.554456e+01	-8.924520e+02
6.500000e-07	-2.061760e-06	-1.324512e-08	-1.471505e+01	-8.708871e+02
6.600000e-07	-1.944796e-06	-1.289573e-08	-1.388026e+01	-8.481531e+02
6.700000e-07	-1.827184e-06	-1.252590e-08	-1.304085e+01	-8.241489e+02
6.800000e-07	-1.708999e-06	-1.213465e-08	-1.219735e+01	-7.987731e+02
6.900000e-07	-1.590293e-06	-1.172211e-08	-1.135013e+01	-7.719256e+02
7.000000e-07	-1.471081e-06	-1.129039e-08	-1.049930e+01	-7.435075e+02
7.100000e-07	-1.351384e-06	-1.083340e-08	-9.645004e+00	-7.134205e+02
7.200000e-07	-1.231239e-06	-1.034784e-08	-8.787516e+00	-6.815678e+02
7.300000e-07	-1.110644e-06	-9.833328e-09	-7.926812e+00	-6.478601e+02
7.400000e-07	-9.896423e-07	-9.288232e-09	-7.063206e+00	-6.122262e+02
7.500000e-07	-8.682954e-07	-8.712541e-09	-6.197137e+00	-5.746301e+02
7.600000e-07	-7.465945e-07	-8.111446e-09	-5.328543e+00	-5.350894e+02
7.700000e-07	-6.245990e-07	-7.479217e-09	-4.457845e+00	-4.936937e+02
7.800000e-07	-5.023406e-07	-6.819490e-09	-3.585270e+00	-4.506152e+02
7.900000e-07	-3.798633e-07	-6.141657e-09	-2.711134e+00	-4.061067e+02
8.000000e-07	-2.572584e-07	-5.447850e-09	-1.836087e+00	-3.604861e+02
8.100000e-07	-1.345512e-07	-4.742252e-09	-9.603091e-01	-3.141036e+02
8.200000e-07	-1.173289e-08	-4.031803e-09	-8.373918e-02	-2.672982e+02
8.300000e-07	1.110928e-07	-3.319717e-09	7.928840e-01	-2.203503e+02
8.400000e-07	2.339195e-07	-2.605373e-09	1.669514e+00	-1.734373e+02
8.500000e-07	3.567124e-07	-1.891332e-09	2.545903e+00	-1.266048e+02
8.600000e-07	4.793955e-07	-1.175268e-09	3.421508e+00	-7.975939e+01
8.700000e-07	6.018979e-07	-4.566371e-10	4.295824e+00	-3.268684e+01
8.800000e-07	7.241346e-07	2.690986e-10	5.168243e+00	1.490491e+01
8.900000e-07	8.461427e-07	1.004592e-09	6.039031e+00	6.332457e+01
9.000000e-07	9.678975e-07	1.755296e-09	6.908011e+00	1.128287e+02
9.100000e-07	1.089302e-06	2.527299e-09	7.774489e+00	1.635577e+02
9.200000e-07	1.210220e-06	3.318444e-09	8.637495e+00	2.154881e+02
9.300000e-07	1.330559e-06	4.125937e-09	9.496371e+00	2.684112e+02
9.400000e-07	1.450365e-06	4.942618e-09	1.035144e+01	3.219410e+02
9.500000e-07	1.569661e-06	5.760267e-09	1.120287e+01	3.755505e+02
9.600000e-07	1.688437e-06	6.570455e-09	1.205060e+01	4.286291e+02
9.700000e-07	1.806674e-06	7.362254e-09	1.289447e+01	4.805512e+02
9.800000e-07	1.924236e-06	8.124696e-09	1.373352e+01	5.307425e+02
9.900000e-07	2.041069e-06	8.848560e-09	1.456738e+01	5.787351e+02
1.000000e-06	2.157121e-06	9.533225e-09	1.539565e+01	6.242015e+02
1.010000e-06	2.272230e-06	1.018102e-08	1.621720e+01	6.669657e+02
1.020000e-06	2.386302e-06	1.079019e-08	1.703135e+01	7.069925e+02
1.030000e-06	2.499317e-06	1.136072e-08	1.783795e+01	7.443591e+02
1.040000e-06	2.611242e-06	1.189078e-08	1.863678e+01	7.792195e+02
1.050000e-06	2.722198e-06	1.238340e-08	1.942868e+01	8.117664e+02
1.060000e-06	2.832308e-06	1.284446e-08	2.021455e+01	8.422001e+02
1.070000e-06	2.941445e-06	1.327614e-08	2.099348e+01	8.707071e+02
1.080000e-06	3.049652e-06	1.368380e-08	2.176576e+01	8.974497e+02
1.090000e-06	3.156875e-06	1.406728e-08	2.253103e+01	9.225651e+02
1.100000e-06	3.262850e-06	1.442724e-08	2.328739e+01	9.461709e+02
1.110000e-06	3.367522e-06	1.476476e-08	2.403444e+01	9.683726e+02
1.120000e-06	3.470923e-06	1.508503e-08	2.477243e+01	9.892692e+02
1.130000e-06	3.573078e-06	1.538559e-08	2.550152e+01	1.008957e+03
1.140000e-06	3.674087e-06	1.566744e-08	2.622244e+01	1.027529e+03
1.150000e-06	3.773915e-06	1.593269e-08	2.693492e+01	1.045072e+03
1.160000e-06	3.872295e-06	1.618300e-08	2.763707e+01	1.061664e+03
1.170000e-06	3.969168e-06	1.642002e-08	2.832847e+01	1.077372e+03
1.180000e-06	4.064584e-06	1.664432e-08	2.900947e+01	1.092253e+03
1.190000e-06	4.158597e-06	1.685764e-08	2.968045e+01	1.106352e+03
1.200000e-06	4.251282e-06	1.705914e-08	3.034196e+01	1.119714e+03
1.210000e-06	4.342619e-06	1.725143e-08	3.099384e+01	1.132380e+03
1.220000e-06	4.432334e-06	1.743196e-08	3.163415e+01	1.144391e+03
1.230000e-06	4.520221e-06	1.760517e-08	3.226141e+01	1.155792e+03
1.240000e-06	4.606398e-06	1.777297e-08	3.287647e+01	1.166623e+03
1.250000e-06	4.691129e-06	1.793190e-08	3.348120e+01	1.176921e+03
1.260000e-06	4.774417e-06	1.808099e-08	3.407564e+01	1.186713e+03
1.270000e-06	4.856022e-06	1.822061e-08	3.465806e+01	1.196016e+03
1.280000e-06	4.935732e-06	1.835381e-08	3.522696e+01	1.204837e+03
1.290000e-06	5.013538e-06	1.848122e-08	3.578228e+01	1.213177e+03
1.300000e-06	5.089476e-06	1.860038e-08	3.632425e+01	1.221038e+03
1.310000e-06	5.163310e-06	1.871195e-08	3.685122e+01	1.228428e+03
1.320000e-06	5.235111e-06	1.881775e-08	3.736367e+01	1.235363e+03
1.330000e-06	5.305081e-06	1.891945e-08	3.786305e+01	1.241876e+03
1.340000e-06	5.373285e-06	1.901438e-08	3.834984e+01	1.248008e+03
1.350000e-06	5.439479e-06	1.910245e-08	3.882227e+01	1.253807e+03
1.360000e-06	5.503525e-06	1.918479e-08	3.927937e+01	1.259320e+03
1.370000e-06	5.565665e-06	1.926268e-08	3.972288e+01	1.264586e+03
1.380000e-06	5.626039e-06	1.933741e-08	4.015377e+01	1.269629e+03
1.390000e-06	5.684478e-06	1.941054e-08	4.057086e+01	1.274460e+03
1.400000e-06	5.740793e-06	1.948397e-08	4.097279e+01	1.279075e+03
1.410000e-06	5.795115e-06	1.955288e-08	4.136049e+01	1.283462e+03
1.420000e-06	5.847249e-06	1.961551e-08	4.173258e+01	1.287607e+03
1.430000e-06	5.896831e-06	1.967471e-08	4.208645e+01	1.291500e+03
1.440000e-06	5.944042e-06	1.972903e-08	4.242340e+01	1.295139e+03
1.450000e-06	5.989262e-06	1.977841e-08	4.274615e+01	1.298532e+03
1.460000e-06	6.032510e-06	1.982451e-08	4.305481e+01	1.301692e+03
1.470000e-06	6.073566e-06	1.986822e-08	4.334783e+01	1.304636e+03
1.480000e-06	6.112400e-06	1.990931e-08	4.362500e+01	1.307379e+03
1.490000e-06	6.149222e-06	1.994653e-08	4.388780e+01	1.309926e+03
1.500000e-06	6.183903e-06	1.998062e-08	4.413532e+01	1.312279e+03
1.510000e-06	6.216315e-06	2.001287e-08	4.436665e+01	1.314432e+03
1.520000e-06	6.246497e-06	2.004170e-08	4.458207e+01	1.316375e+03
1.530000e-06	6.274594e-06	2.006574e-08	4.478260e+01	1.318103e+03
1.540000e-06	6.300363e-06	2.008657e-08	4.496651e+01	1.319617e+03
1.550000e-06	6.323661e-06	2.010645e-08	4.513279e+01	1.320929e+03
1.560000e-06	6.344797e-06	2.012444e-08	4.528364e+01	1.322058e+03
1.570000e-06	6.363870e-06	2.013967e-08	4.541977e+01	1.323027e+03
1.580000e-06	6.380693e-06	2.015369e-08	4.553984e+01	1.323858e+03
1.590000e-06	6.395031e-06	2.016665e-08	4.564217e+01	1.324566e+03
1.600000e-06	6.406885e-06	2.017688e-08	4.572677e+01	1.325156e+03
1.610000e-06	6.416107e-06	2.018443e-08	4.579259e+01	1.325621e+03
1.620000e-06	6.422877e-06	2.019085e-08	4.584091e+01	1.325945e+03
1.630000e-06	6.427557e-06	2.019559e-08	4.587432e+01	1.326110e+03
1.640000e-06	6.430002e-06	2.019563e-08	4.589176e+01	1.326101e+03
1.650000e-06	6.430119e-06	2.019561e-08	4.589260e+01	1.325914e+03
1.660000e-06	6.428036e-06	2.018379e-08	4.587773e+01	1.325560e+03
1.670000e-06	6.423901e-06	2.017448e-08	4.584822e+01	1.325059e+03
1.680000e-06	6.417576e-06	2.016818e-08	4.580308e+01	1.324441e+03
1.690000e-06	6.409071e-06	2.015974e-08	4.574238e+01	1.323734e+03
1.700000e-06	6.398601e-06	2.015226e-08	4.566765e+01	1.322958e+03
1.710000e-06	6.386011e-06	2.014419e-08	4.557780e+01	1.322116e+03
1.720000e-06	6.371079e-06	2.015158e-08	4.547122e+01	1.321195e+03
1.730000e-06	6.354054e-06	2.012306e-08	4.534971e+01	1.320168e+03
1.740000e-06	6.335022e-06	1.998626e-08	4.521388e+01	1.319002e+03
1.750000e-06	6.313097e-06	2.000518e-08	4.505740e+01	1.317665e+03
1.760000e-06	6.287936e-06	2.004893e-08	4.487782e+01	1.316138e+03
1.770000e-06	6.260450e-06	1.998049e-08	4.468165e+01	1.314423e+03
1.780000e-06	6.231142e-06	2.006117e-08	4.447247e+01	1.312543e+03
1.790000e-06	6.200162e-06	2.005994e-08	4.425137e+01	1.310534e+03
1.800000e-06	6.167808e-06	1.983114e-08	4.402045e+01	1.308443e+03
1.810000e-06	6.133412e-06	1.991988e-08	4.377496e+01	1.306310e+03
1.820000e-06	6.096942e-06	1.979367e-08	4.351467e+01	1.304158e+03
1.830000e-06	6.058408e-06	1.969033e-08	4.323965e+01	1.301984e+03
1.840000e-06	6.017403e-06	1.995177e-08	4.294699e+01	1.299759e+03
1.850000e-06	5.974495e-06	1.973004e-08	4.264075e+01	1.297432e+03
1.860000e-06	5.929625e-06	1.971749e-08	4.232051e+01	1.294939e+03
1.870000e-06	5.882461e-06	1.973543e-08	4.198389e+01	1.292219e+03
1.880000e-06	5.833241e-06	1.956313e-08	4.163260e+01	1.289222e+03
1.890000e-06	5.781518e-06	1.969082e-08	4.126345e+01	1.285925e+03
1.900000e-06	5.727144e-06	1.952109e-08	4.087537e+01	1.282328e+03
1.910000e-06	5.670545e-06	1.948250e-08	4.047142e+01	1.278457e+03
1.920000e-06	5.611938e-06	1.949946e-08	4.005313e+01	1.274350e+03
1.930000e-06	5.551473e-06	1.931056e-08	3.962159e+01	1.270049e+03
1.940000e-06	5.488803e-06	1.938125e-08	3.917430e+01	1.265586e+03
1.950000e-06	5.424009e-06	1.921202e-08	3.871186e+01	1.260974e+03
1.960000e-06	5.357339e-06	1.918670e-08	3.823603e+01	1.256208e+03
1.970000e-06	5.288596e-06	1.911278e-08	3.774540e+01	1.251260e+03
1.980000e-06	5.217664e-06	1.896154e-08	3.723915e+01	1.246095e+03
1.990000e-06	5.144732e-06	1.897028e-08	3.671863e+01	1.240674e+03
2.000000e-06	5.070115e-06	1.881137e-08	3.618607e+01	1.234968e+03
2.010000e-06	4.993452e-06	1.878608e-08	3.563892e+01	1.228958e+03
2.020000e-06	4.914608e-06	1.864618e-08	3.507620e+01	1.222644e+03
2.030000e-06	4.833994e-06	1.853404e-08	3.450084e+01	1.216035e+03
2.040000e-06	4.751725e-06	1.846792e-08	3.391368e+01	1.209148e+03
2.050000e-06	4.667934e-06	1.832580e-08	3.331565e+01	1.201993e+03
2.060000e-06	4.582423e-06	1.825932e-08	3.270535e+01	1.194577e+03
2.070000e-06	4.495195e-06	1.810828e-08	3.208280e+01	1.186888e+03
2.080000e-06	4.406461e-06	1.801307e-08	3.144949e+01	1.178908e+03
2.090000e-06	4.316211e-06	1.786497e-08	3.080536e+01	1.170606e+03
2.100000e-06	4.224603e-06	1.773249e-08	3.015154e+01	1.161953e+03
2.110000e-06	4.131488e-06	1.760865e-08	2.948697e+01	1.152923e+03
2.120000e-06	4.036794e-06	1.745014e-08	2.881113e+01	1.143498e+03
2.130000e-06	3.940656e-06	1.730904e-08	2.812497e+01	1.133669e+03
2.140000e-06	3.843142e-06	1.713858e-08	2.742901e+01	1.123434e+03
2.150000e-06	3.744355e-06	1.699457e-08	2.672395e+01	1.112790e+03
2.160000e-06	3.644258e-06	1.681772e-08	2.600955e+01	1.101728e+03
2.170000e-06	3.542718e-06	1.665773e-08	2.528484e+01	1.090229e+03
2.180000e-06	3.439784e-06	1.647440e-08	2.455019e+01	1.078259e+03
2.190000e-06	3.335499e-06	1.628282e-08	2.380590e+01	1.065776e+03
2.200000e-06	3.229991e-06	1.607891e-08	2.305287e+01	1.052726e+03
2.210000e-06	3.123431e-06	1.586938e-08	2.229233e+01	1.039058e+03
2.220000e-06	3.015895e-06	1.565388e-08	2.152483e+01	1.024724e+03
2.230000e-06	2.907347e-06	1.542067e-08	2.075012e+01	1.009683e+03
2.240000e-06	2.797658e-06	1.518556e-08	1.996725e+01	9.939048e+02
2.250000e-06	2.686919e-06	1.493563e-08	1.917689e+01	9.773621e+02
2.260000e-06	2.575120e-06	1.467924e-08	1.837897e+01	9.600264e+02
2.270000e-06	2.462187e-06	1.439872e-08	1.757295e+01	9.418613e+02
2.280000e-06	2.348286e-06	1.411006e-08	1.676002e+01	9.228167e+02
2.290000e-06	2.233567e-06	1.380292e-08	1.594126e+01	9.028265e+02
2.300000e-06	2.117998e-06	1.348320e-08	1.511643e+01	8.818095e+02
2.310000e-06	2.001574e-06	1.314812e-08	1.428549e+01	8.596725e+02
2.320000e-06	1.884247e-06	1.279805e-08	1.344812e+01	8.363162e+02
2.330000e-06	1.766087e-06	1.242731e-08	1.260480e+01	8.116388e+02
2.340000e-06	1.647250e-06	1.203060e-08	1.175664e+01	7.855395e+02
2.350000e-06	1.527793e-06	1.160857e-08	1.090406e+01	7.579191e+02
2.360000e-06	1.407851e-06	1.116146e-08	1.004802e+01	7.286788e+02
2.370000e-06	1.287506e-06	1.069387e-08	9.189101e+00	6.977207e+02
2.380000e-06	1.166763e-06	1.019572e-08	8.327341e+00	6.649509e+02
2.390000e-06	1.045618e-06	9.666458e-09	7.462711e+00	6.302872e+02
2.400000e-06	9.241020e-07	9.104135e-09	6.595436e+00	5.936738e+02
2.410000e-06	8.023309e-07	8.513961e-09	5.726340e+00	5.550990e+02
2.420000e-06	6.803521e-07	7.897310e-09	4.855762e+00	5.146147e+02
2.430000e-06	5.581848e-07	7.255057e-09	3.983838e+00	4.723508e+02
2.440000e-06	4.358518e-07	6.588273e-09	3.110731e+00	4.285210e+02
2.450000e-06	3.133619e-07	5.899148e-09	2.236504e+00	3.834139e+02
2.460000e-06	1.906832e-07	5.195802e-09	1.360931e+00	3.373681e+02
2.470000e-06	6.790912e-08	4.481838e-09	4.846763e-01	2.907343e+02
2.480000e-06	-5.489636e-08	3.763972e-09	-3.918025e-01	2.438282e+02
2.490000e-06	-1.776962e-07	3.046716e-09	-1.268241e+00	1.968833e+02
2.500000e-06	-3.003467e-07	2.330073e-09	-2.143614e+00	1.500136e+02
2.510000e-06	-4.228772e-07	1.615338e-09	-3.018129e+00	1.031947e+02
2.520000e-06	-5.453694e-07	8.990446e-10	-3.892372e+00	5.626859e+01
2.530000e-06	-6.677356e-07	1.750518e-10	-4.765716e+00	8.975569e+00
2.540000e-06	-7.898663e-07	-5.598115e-10	-5.637379e+00	-3.899319e+01
2.550000e-06	-9.117413e-07	-1.307817e-09	-6.507217e+00	-8.792893e+01
2.560000e-06	-1.033363e-06	-2.070609e-09	-7.375250e+00	-1.380373e+02
2.570000e-06	-1.154663e-06	-2.852795e-09	-8.240977e+00	-1.893813e+02
2.580000e-06	-1.275493e-06	-3.652290e-09	-9.103362e+00	-2.418458e+02
2.590000e-06	-1.395876e-06	-4.464450e-09	-9.962547e+00	-2.951304e+02
2.600000e-06	-1.515794e-06	-5.285355e-09	-1.081842e+01	-3.487727e+02
2.610000e-06	-1.635100e-06	-6.103664e-09	-1.166992e+01	-4.021957e+02
2.620000e-06	-1.753773e-06	-6.909405e-09	-1.251690e+01	-4.547725e+02
2.630000e-06	-1.871708e-06	-7.692198e-09	-1.335862e+01	-5.058954e+02
2.640000e-06	-1.988730e-06	-8.443907e-09	-1.419383e+01	-5.550376e+02
2.650000e-06	-2.104814e-06	-9.158032e-09	-1.502233e+01	-6.017986e+02
2.660000e-06	-2.220061e-06	-9.833700e-09	-1.584486e+01	-6.459266e+02
2.670000e-06	-2.334373e-06	-1.047003e-08	-1.666072e+01	-6.873187e+02
2.680000e-06	-2.447583e-06	-1.106651e-08	-1.746872e+01	-7.260000e+02
2.690000e-06	-2.559740e-06	-1.162290e-08	-1.826920e+01	-7.620911e+02
2.700000e-06	-2.670858e-06	-1.213806e-08	-1.906226e+01	-7.957695e+02
2.710000e-06	-2.780896e-06	-1.261768e-08	-1.984761e+01	-8.272353e+02
2.720000e-06	-2.890003e-06	-1.306828e-08	-2.062633e+01	-8.566837e+02
2.730000e-06	-2.998282e-06	-1.349030e-08	-2.139913e+01	-8.842898e+02
2.740000e-06	-3.105624e-06	-1.388631e-08	-2.216524e+01	-9.102030e+02
2.750000e-06	-3.211933e-06	-1.425917e-08	-2.292399e+01	-9.345499e+02
2.760000e-06	-3.317125e-06	-1.460703e-08	-2.367475e+01	-9.574410e+02
2.770000e-06	-3.421180e-06	-1.493430e-08	-2.441741e+01	-9.789780e+02
2.780000e-06	-3.523938e-06	-1.524466e-08	-2.515081e+01	-9.992583e+02
2.790000e-06	-3.625350e-06	-1.553902e-08	-2.587460e+01	-1.018377e+03
2.800000e-06	-3.725486e-06	-1.581660e-08	-2.658928e+01	-1.036424e+03
2.810000e-06	-3.824344e-06	-1.607802e-08	-2.729484e+01	-1.053483e+03
2.820000e-06	-3.921935e-06	-1.632510e-08	-2.799136e+01	-1.069625e+03
2.830000e-06	-4.018229e-06	-1.655910e-08	-2.867862e+01	-1.084913e+03
2.840000e-06	-4.113187e-06	-1.678215e-08	-2.935635e+01	-1.099397e+03
2.850000e-06	-4.206571e-06	-1.699492e-08	-3.002285e+01	-1.113123e+03
2.860000e-06	-4.298338e-06	-1.719755e-08	-3.067780e+01	-1.126131e+03
2.870000e-06	-4.388587e-06	-1.738785e-08	-3.132192e+01	-1.138464e+03
2.880000e-06	-4.477340e-06	-1.756581e-08	-3.195536e+01	-1.150165e+03
2.890000e-06	-4.564526e-06	-1.773452e-08	-3.257762e+01	-1.161276e+03
2.900000e-06	-4.649900e-06	-1.789407e-08	-3.318694e+01	-1.171837e+03
2.910000e-06	-4.733595e-06	-1.804630e-08	-3.378429e+01	-1.181879e+03
2.920000e-06	-4.815735e-06	-1.819225e-08	-3.437053e+01	-1.191425e+03
2.930000e-06	-4.896166e-06	-1.833150e-08	-3.494457e+01	-1.200487e+03
2.940000e-06	-4.974671e-06	-1.846346e-08	-3.550488e+01	-1.209067e+03
