# Temperatura_=_41.15
# Concentracion g/m^3_=_28200.0
# C_Vs_to_Am_M_A/Vsm_=_65563218390.804596
# pendiente_HvsI_1/m_=_3716.3
# ordenada_HvsI_A/m_=_1297.0
# frecuencia_Hz_=_302122.1019157927

Tiempo_(s)	Campo_(V.s)	Magnetizacion_(V.s)	Campo_(kA/m)	Magnetizacion_(A/m)
0.000000e+00	-6.410191e-06	-2.018846e-08	-4.585581e+01	-1.319623e+03
1.000000e-08	-6.407250e-06	-2.019186e-08	-4.583477e+01	-1.319219e+03
2.000000e-08	-6.402193e-06	-2.018295e-08	-4.579860e+01	-1.318740e+03
3.000000e-08	-6.395212e-06	-2.017511e-08	-4.574866e+01	-1.318190e+03
4.000000e-08	-6.386120e-06	-2.016454e-08	-4.568362e+01	-1.317551e+03
5.000000e-08	-6.374674e-06	-2.014660e-08	-4.560174e+01	-1.316786e+03
6.000000e-08	-6.360861e-06	-2.013166e-08	-4.550292e+01	-1.315848e+03
7.000000e-08	-6.344675e-06	-2.010185e-08	-4.538714e+01	-1.314696e+03
8.000000e-08	-6.326367e-06	-2.005801e-08	-4.525617e+01	-1.313311e+03
9.000000e-08	-6.306086e-06	-2.013093e-08	-4.511109e+01	-1.311707e+03
1.000000e-07	-6.283477e-06	-2.011885e-08	-4.494935e+01	-1.309935e+03
1.100000e-07	-6.258083e-06	-2.001874e-08	-4.476769e+01	-1.308081e+03
1.200000e-07	-6.230283e-06	-1.999911e-08	-4.456883e+01	-1.306245e+03
1.300000e-07	-6.200678e-06	-2.000917e-08	-4.435705e+01	-1.304527e+03
1.400000e-07	-6.169489e-06	-1.986463e-08	-4.413393e+01	-1.302998e+03
1.500000e-07	-6.136579e-06	-1.986913e-08	-4.389850e+01	-1.301684e+03
1.600000e-07	-6.101602e-06	-2.003460e-08	-4.364830e+01	-1.300550e+03
1.700000e-07	-6.064762e-06	-1.976335e-08	-4.338476e+01	-1.299508e+03
1.800000e-07	-6.025981e-06	-1.985571e-08	-4.310734e+01	-1.298425e+03
1.900000e-07	-5.984640e-06	-1.988074e-08	-4.281160e+01	-1.297149e+03
2.000000e-07	-5.941026e-06	-1.963053e-08	-4.249960e+01	-1.295536e+03
2.100000e-07	-5.895454e-06	-1.973428e-08	-4.217360e+01	-1.293476e+03
2.200000e-07	-5.847651e-06	-1.963403e-08	-4.183164e+01	-1.290912e+03
2.300000e-07	-5.797329e-06	-1.957376e-08	-4.147165e+01	-1.287845e+03
2.400000e-07	-5.744401e-06	-1.957050e-08	-4.109303e+01	-1.284332e+03
2.500000e-07	-5.689328e-06	-1.946364e-08	-4.069906e+01	-1.280462e+03
2.600000e-07	-5.632045e-06	-1.945047e-08	-4.028928e+01	-1.276339e+03
2.700000e-07	-5.572615e-06	-1.936169e-08	-3.986414e+01	-1.272052e+03
2.800000e-07	-5.511305e-06	-1.930781e-08	-3.942556e+01	-1.267662e+03
2.900000e-07	-5.448082e-06	-1.924597e-08	-3.897329e+01	-1.263185e+03
3.000000e-07	-5.382643e-06	-1.913896e-08	-3.850516e+01	-1.258600e+03
3.100000e-07	-5.315041e-06	-1.908703e-08	-3.802157e+01	-1.253858e+03
3.200000e-07	-5.245540e-06	-1.898963e-08	-3.752439e+01	-1.248896e+03
3.300000e-07	-5.174277e-06	-1.895227e-08	-3.701460e+01	-1.243659e+03
3.400000e-07	-5.101231e-06	-1.883335e-08	-3.649206e+01	-1.238110e+03
3.500000e-07	-5.025999e-06	-1.873286e-08	-3.595389e+01	-1.232241e+03
3.600000e-07	-4.948610e-06	-1.867013e-08	-3.540028e+01	-1.226066e+03
3.700000e-07	-4.869086e-06	-1.854225e-08	-3.483139e+01	-1.219613e+03
3.800000e-07	-4.787708e-06	-1.846944e-08	-3.424925e+01	-1.212913e+03
3.900000e-07	-4.704857e-06	-1.835057e-08	-3.365657e+01	-1.205986e+03
4.000000e-07	-4.620581e-06	-1.823644e-08	-3.305370e+01	-1.198831e+03
4.100000e-07	-4.534841e-06	-1.811568e-08	-3.244035e+01	-1.191426e+03
4.200000e-07	-4.447667e-06	-1.800296e-08	-3.181674e+01	-1.183732e+03
4.300000e-07	-4.359092e-06	-1.789151e-08	-3.118311e+01	-1.175701e+03
4.400000e-07	-4.268834e-06	-1.774729e-08	-3.053744e+01	-1.167291e+03
4.500000e-07	-4.176897e-06	-1.763068e-08	-2.987976e+01	-1.158473e+03
4.600000e-07	-4.083458e-06	-1.748213e-08	-2.921134e+01	-1.149235e+03
4.700000e-07	-3.988607e-06	-1.733539e-08	-2.853282e+01	-1.139584e+03
4.800000e-07	-3.892455e-06	-1.718112e-08	-2.784499e+01	-1.129536e+03
4.900000e-07	-3.794821e-06	-1.703029e-08	-2.714655e+01	-1.119104e+03
5.000000e-07	-3.695626e-06	-1.686548e-08	-2.643695e+01	-1.108292e+03
5.100000e-07	-3.595098e-06	-1.668689e-08	-2.571782e+01	-1.097084e+03
5.200000e-07	-3.493429e-06	-1.651305e-08	-2.499052e+01	-1.085443e+03
5.300000e-07	-3.390510e-06	-1.632246e-08	-2.425428e+01	-1.073314e+03
5.400000e-07	-3.286378e-06	-1.613064e-08	-2.350937e+01	-1.060638e+03
5.500000e-07	-3.181069e-06	-1.592497e-08	-2.275603e+01	-1.047353e+03
5.600000e-07	-3.074356e-06	-1.571809e-08	-2.199265e+01	-1.033410e+03
5.700000e-07	-2.966445e-06	-1.549123e-08	-2.122070e+01	-1.018776e+03
5.800000e-07	-2.857472e-06	-1.525363e-08	-2.044116e+01	-1.003431e+03
5.900000e-07	-2.747498e-06	-1.500536e-08	-1.965445e+01	-9.873590e+02
6.000000e-07	-2.636637e-06	-1.474908e-08	-1.886139e+01	-9.705444e+02
6.100000e-07	-2.524838e-06	-1.448130e-08	-1.806163e+01	-9.529563e+02
6.200000e-07	-2.412059e-06	-1.420326e-08	-1.725485e+01	-9.345436e+02
6.300000e-07	-2.298134e-06	-1.391262e-08	-1.643989e+01	-9.152326e+02
6.400000e-07	-2.183051e-06	-1.359923e-08	-1.561663e+01	-8.949309e+02
6.500000e-07	-2.067089e-06	-1.327197e-08	-1.478708e+01	-8.735350e+02
6.600000e-07	-1.950416e-06	-1.292380e-08	-1.395246e+01	-8.509404e+02
6.700000e-07	-1.833140e-06	-1.255769e-08	-1.311351e+01	-8.270486e+02
6.800000e-07	-1.715262e-06	-1.216888e-08	-1.227026e+01	-8.017718e+02
6.900000e-07	-1.596836e-06	-1.175804e-08	-1.142309e+01	-7.750305e+02
7.000000e-07	-1.477929e-06	-1.132436e-08	-1.057248e+01	-7.467484e+02
7.100000e-07	-1.358481e-06	-1.086755e-08	-9.718001e+00	-7.168454e+02
7.200000e-07	-1.238558e-06	-1.038567e-08	-8.860125e+00	-6.852339e+02
7.300000e-07	-1.118236e-06	-9.878555e-09	-7.999392e+00	-6.518220e+02
7.400000e-07	-9.975782e-07	-9.343168e-09	-7.136255e+00	-6.165245e+02
7.500000e-07	-8.765945e-07	-8.775371e-09	-6.270789e+00	-5.792834e+02
7.600000e-07	-7.553041e-07	-8.181014e-09	-5.403128e+00	-5.400925e+02
7.700000e-07	-6.337156e-07	-7.549895e-09	-4.533335e+00	-4.990208e+02
7.800000e-07	-5.118641e-07	-6.891072e-09	-3.661660e+00	-4.562279e+02
7.900000e-07	-3.898397e-07	-6.214870e-09	-2.788749e+00	-4.119653e+02
8.000000e-07	-2.676482e-07	-5.526283e-09	-1.914643e+00	-3.665592e+02
8.100000e-07	-1.452617e-07	-4.827157e-09	-1.039141e+00	-3.203757e+02
8.200000e-07	-2.277459e-08	-4.123043e-09	-1.629199e-01	-2.737727e+02
8.300000e-07	9.974028e-08	-3.419498e-09	7.135000e-01	-2.270470e+02
8.400000e-07	2.222754e-07	-2.711819e-09	1.590065e+00	-1.803876e+02
8.500000e-07	3.447942e-07	-2.003538e-09	2.466513e+00	-1.338445e+02
8.600000e-07	4.671509e-07	-1.290497e-09	3.341801e+00	-8.732198e+01
8.700000e-07	5.893147e-07	-5.746124e-10	4.215710e+00	-4.059918e+01
8.800000e-07	7.113009e-07	1.472996e-10	5.088347e+00	6.624249e+00
8.900000e-07	8.330261e-07	8.791527e-10	5.959118e+00	5.466463e+01
9.000000e-07	9.544175e-07	1.624477e-09	6.827502e+00	1.037843e+02
9.100000e-07	1.075454e-06	2.389208e-09	7.693347e+00	1.541280e+02
9.200000e-07	1.196102e-06	3.172899e-09	8.556407e+00	2.056770e+02
9.300000e-07	1.316301e-06	3.973068e-09	9.416261e+00	2.582297e+02
9.400000e-07	1.436038e-06	4.784251e-09	1.027281e+01	3.114116e+02
9.500000e-07	1.555194e-06	5.595591e-09	1.112520e+01	3.647112e+02
9.600000e-07	1.673733e-06	6.401787e-09	1.197318e+01	4.175366e+02
9.700000e-07	1.791729e-06	7.193784e-09	1.281728e+01	4.692800e+02
9.800000e-07	1.909090e-06	7.957921e-09	1.365683e+01	5.193808e+02
9.900000e-07	2.025686e-06	8.685103e-09	1.449090e+01	5.673762e+02
1.000000e-06	2.141479e-06	9.367179e-09	1.531924e+01	6.129334e+02
1.010000e-06	2.256378e-06	1.001104e-08	1.614118e+01	6.558604e+02
1.020000e-06	2.370276e-06	1.061801e-08	1.695596e+01	6.960979e+02
1.030000e-06	2.483083e-06	1.119145e-08	1.776293e+01	7.336960e+02
1.040000e-06	2.594776e-06	1.172698e-08	1.856194e+01	7.687832e+02
1.050000e-06	2.705516e-06	1.222187e-08	1.935412e+01	8.015339e+02
1.060000e-06	2.815504e-06	1.268422e-08	2.014093e+01	8.321397e+02
1.070000e-06	2.924559e-06	1.311641e-08	2.092106e+01	8.607887e+02
1.080000e-06	3.032605e-06	1.352645e-08	2.169398e+01	8.876529e+02
1.090000e-06	3.139641e-06	1.391154e-08	2.245967e+01	9.128830e+02
1.100000e-06	3.245493e-06	1.427525e-08	2.321689e+01	9.366090e+02
1.110000e-06	3.350058e-06	1.461666e-08	2.396491e+01	9.589434e+02
1.120000e-06	3.453295e-06	1.493714e-08	2.470342e+01	9.799853e+02
1.130000e-06	3.555372e-06	1.523693e-08	2.543364e+01	9.998238e+02
1.140000e-06	3.656321e-06	1.551842e-08	2.615578e+01	1.018541e+03
1.150000e-06	3.756060e-06	1.578495e-08	2.686927e+01	1.036212e+03
1.160000e-06	3.854424e-06	1.603642e-08	2.757293e+01	1.052908e+03
1.170000e-06	3.951259e-06	1.627456e-08	2.826564e+01	1.068695e+03
1.180000e-06	4.046575e-06	1.650166e-08	2.894750e+01	1.083637e+03
1.190000e-06	4.140426e-06	1.671624e-08	2.961887e+01	1.097793e+03
1.200000e-06	4.232943e-06	1.691997e-08	3.028069e+01	1.111222e+03
1.210000e-06	4.324203e-06	1.711302e-08	3.093353e+01	1.123977e+03
1.220000e-06	4.413948e-06	1.729415e-08	3.157553e+01	1.136105e+03
1.230000e-06	4.501860e-06	1.746761e-08	3.220441e+01	1.147645e+03
1.240000e-06	4.588112e-06	1.763291e-08	3.282142e+01	1.158628e+03
1.250000e-06	4.672851e-06	1.779128e-08	3.342761e+01	1.169074e+03
1.260000e-06	4.756090e-06	1.794158e-08	3.402307e+01	1.178991e+03
1.270000e-06	4.837655e-06	1.808540e-08	3.460655e+01	1.188387e+03
1.280000e-06	4.917246e-06	1.822248e-08	3.517591e+01	1.197263e+03
1.290000e-06	4.994942e-06	1.835343e-08	3.573171e+01	1.205628e+03
1.300000e-06	5.070888e-06	1.847430e-08	3.627500e+01	1.213496e+03
1.310000e-06	5.144791e-06	1.858582e-08	3.680367e+01	1.220893e+03
1.320000e-06	5.216577e-06	1.868950e-08	3.731720e+01	1.227854e+03
1.330000e-06	5.286499e-06	1.878733e-08	3.781739e+01	1.234419e+03
1.340000e-06	5.354655e-06	1.887912e-08	3.830495e+01	1.240633e+03
1.350000e-06	5.420928e-06	1.896601e-08	3.877904e+01	1.246533e+03
1.360000e-06	5.485082e-06	1.905077e-08	3.923797e+01	1.252152e+03
1.370000e-06	5.547270e-06	1.913415e-08	3.968284e+01	1.257511e+03
1.380000e-06	5.607683e-06	1.921452e-08	4.011501e+01	1.262622e+03
1.390000e-06	5.666187e-06	1.928948e-08	4.053352e+01	1.267491e+03
1.400000e-06	5.722564e-06	1.936104e-08	4.093681e+01	1.272120e+03
1.410000e-06	5.776885e-06	1.942770e-08	4.132540e+01	1.276510e+03
1.420000e-06	5.829085e-06	1.948828e-08	4.169882e+01	1.280666e+03
1.430000e-06	5.878730e-06	1.954479e-08	4.205396e+01	1.284597e+03
1.440000e-06	5.926009e-06	1.959840e-08	4.239218e+01	1.288312e+03
1.450000e-06	5.971307e-06	1.964931e-08	4.271622e+01	1.291817e+03
1.460000e-06	6.014737e-06	1.969874e-08	4.302690e+01	1.295115e+03
1.470000e-06	6.055934e-06	1.974746e-08	4.332161e+01	1.298203e+03
1.480000e-06	6.094790e-06	1.979429e-08	4.359957e+01	1.301071e+03
1.490000e-06	6.131669e-06	1.983515e-08	4.386338e+01	1.303706e+03
1.500000e-06	6.166442e-06	1.986813e-08	4.411213e+01	1.306100e+03
1.510000e-06	6.198925e-06	1.989566e-08	4.434451e+01	1.308248e+03
1.520000e-06	6.229175e-06	1.992051e-08	4.456090e+01	1.310158e+03
1.530000e-06	6.257511e-06	1.994305e-08	4.476361e+01	1.311848e+03
1.540000e-06	6.283503e-06	1.996220e-08	4.494954e+01	1.313343e+03
1.550000e-06	6.306947e-06	1.997989e-08	4.511725e+01	1.314673e+03
1.560000e-06	6.328216e-06	1.999935e-08	4.526940e+01	1.315862e+03
1.570000e-06	6.347448e-06	2.001934e-08	4.540698e+01	1.316925e+03
1.580000e-06	6.364459e-06	2.003681e-08	4.552866e+01	1.317864e+03
1.590000e-06	6.378977e-06	2.004958e-08	4.563252e+01	1.318666e+03
1.600000e-06	6.391139e-06	2.005614e-08	4.571952e+01	1.319310e+03
1.610000e-06	6.400651e-06	2.006022e-08	4.578757e+01	1.319777e+03
1.620000e-06	6.407578e-06	2.006364e-08	4.583712e+01	1.320050e+03
1.630000e-06	6.412357e-06	2.006586e-08	4.587131e+01	1.320131e+03
1.640000e-06	6.414959e-06	2.006752e-08	4.588992e+01	1.320035e+03
1.650000e-06	6.415334e-06	2.007264e-08	4.589260e+01	1.319791e+03
1.660000e-06	6.413526e-06	2.006381e-08	4.587967e+01	1.319432e+03
1.670000e-06	6.409753e-06	2.005236e-08	4.585268e+01	1.318988e+03
1.680000e-06	6.403622e-06	2.004387e-08	4.580882e+01	1.318475e+03
1.690000e-06	6.395199e-06	2.003392e-08	4.574856e+01	1.317884e+03
1.700000e-06	6.384914e-06	2.002433e-08	4.567499e+01	1.317187e+03
1.710000e-06	6.372570e-06	2.001470e-08	4.558669e+01	1.316341e+03
1.720000e-06	6.357872e-06	2.001639e-08	4.548154e+01	1.315301e+03
1.730000e-06	6.340999e-06	2.001852e-08	4.536084e+01	1.314033e+03
1.740000e-06	6.322167e-06	1.985611e-08	4.522613e+01	1.312534e+03
1.750000e-06	6.300475e-06	1.984834e-08	4.507095e+01	1.310838e+03
1.760000e-06	6.275567e-06	1.991509e-08	4.489277e+01	1.309012e+03
1.770000e-06	6.248268e-06	1.986461e-08	4.469748e+01	1.307154e+03
1.780000e-06	6.219180e-06	1.990427e-08	4.448940e+01	1.305366e+03
1.790000e-06	6.188443e-06	1.995124e-08	4.426952e+01	1.303736e+03
1.800000e-06	6.156293e-06	1.964092e-08	4.403954e+01	1.302315e+03
1.810000e-06	6.122114e-06	1.972204e-08	4.379503e+01	1.301099e+03
1.820000e-06	6.085884e-06	1.977358e-08	4.353585e+01	1.300025e+03
1.830000e-06	6.047706e-06	1.962493e-08	4.326274e+01	1.298981e+03
1.840000e-06	6.007011e-06	1.999211e-08	4.297163e+01	1.297821e+03
1.850000e-06	5.964245e-06	1.982137e-08	4.266570e+01	1.296393e+03
1.860000e-06	5.919644e-06	1.974899e-08	4.234665e+01	1.294567e+03
1.870000e-06	5.872809e-06	1.984373e-08	4.201161e+01	1.292258e+03
1.880000e-06	5.823831e-06	1.954815e-08	4.166124e+01	1.289439e+03
1.890000e-06	5.772529e-06	1.969499e-08	4.129425e+01	1.286140e+03
1.900000e-06	5.718581e-06	1.959297e-08	4.090832e+01	1.282435e+03
1.910000e-06	5.662350e-06	1.948220e-08	4.050607e+01	1.278426e+03
1.920000e-06	5.604026e-06	1.959126e-08	4.008884e+01	1.274211e+03
1.930000e-06	5.543932e-06	1.932640e-08	3.965896e+01	1.269868e+03
1.940000e-06	5.481721e-06	1.939994e-08	3.921392e+01	1.265434e+03
1.950000e-06	5.417247e-06	1.923962e-08	3.875271e+01	1.260908e+03
1.960000e-06	5.350833e-06	1.918190e-08	3.827761e+01	1.256252e+03
1.970000e-06	5.282496e-06	1.918101e-08	3.778875e+01	1.251408e+03
1.980000e-06	5.212066e-06	1.899252e-08	3.728493e+01	1.246315e+03
1.990000e-06	5.139398e-06	1.903435e-08	3.676509e+01	1.240925e+03
2.000000e-06	5.065023e-06	1.883429e-08	3.623304e+01	1.235216e+03
2.010000e-06	4.988809e-06	1.879171e-08	3.568784e+01	1.229190e+03
2.020000e-06	4.910409e-06	1.869932e-08	3.512700e+01	1.222872e+03
2.030000e-06	4.830126e-06	1.856915e-08	3.455269e+01	1.216292e+03
2.040000e-06	4.748207e-06	1.854406e-08	3.396668e+01	1.209477e+03
2.050000e-06	4.664746e-06	1.836998e-08	3.336964e+01	1.202438e+03
2.060000e-06	4.579680e-06	1.830940e-08	3.276111e+01	1.195162e+03
2.070000e-06	4.492833e-06	1.814598e-08	3.213984e+01	1.187618e+03
2.080000e-06	4.404368e-06	1.804281e-08	3.150699e+01	1.179761e+03
2.090000e-06	4.314495e-06	1.791043e-08	3.086408e+01	1.171546e+03
2.100000e-06	4.223177e-06	1.776678e-08	3.021084e+01	1.162934e+03
2.110000e-06	4.130489e-06	1.766216e-08	2.954778e+01	1.153906e+03
2.120000e-06	4.036314e-06	1.749067e-08	2.887409e+01	1.144461e+03
2.130000e-06	3.940564e-06	1.735985e-08	2.818914e+01	1.134609e+03
2.140000e-06	3.843399e-06	1.718111e-08	2.749406e+01	1.124368e+03
2.150000e-06	3.744858e-06	1.704199e-08	2.678914e+01	1.113746e+03
2.160000e-06	3.645030e-06	1.686289e-08	2.607501e+01	1.102740e+03
2.170000e-06	3.543999e-06	1.669483e-08	2.535228e+01	1.091320e+03
2.180000e-06	3.441495e-06	1.651271e-08	2.461901e+01	1.079443e+03
2.190000e-06	3.337512e-06	1.631920e-08	2.387516e+01	1.067048e+03
2.200000e-06	3.232318e-06	1.611916e-08	2.312265e+01	1.054074e+03
2.210000e-06	3.126063e-06	1.590509e-08	2.236254e+01	1.040466e+03
2.220000e-06	3.018722e-06	1.569892e-08	2.159467e+01	1.026181e+03
2.230000e-06	2.910354e-06	1.547152e-08	2.081945e+01	1.011193e+03
2.240000e-06	2.801033e-06	1.524368e-08	2.003741e+01	9.954864e+02
2.250000e-06	2.690601e-06	1.499014e-08	1.924743e+01	9.790460e+02
2.260000e-06	2.579118e-06	1.473025e-08	1.844992e+01	9.618497e+02
2.270000e-06	2.466681e-06	1.444635e-08	1.764560e+01	9.438571e+02
2.280000e-06	2.353241e-06	1.415713e-08	1.683410e+01	9.250058e+02
2.290000e-06	2.238810e-06	1.385332e-08	1.601551e+01	9.052119e+02
2.300000e-06	2.123553e-06	1.353778e-08	1.519101e+01	8.843763e+02
2.310000e-06	2.007470e-06	1.320635e-08	1.436060e+01	8.623939e+02
2.320000e-06	1.890580e-06	1.285476e-08	1.352441e+01	8.391624e+02
2.330000e-06	1.773015e-06	1.248374e-08	1.268341e+01	8.145885e+02
2.340000e-06	1.654725e-06	1.208787e-08	1.183721e+01	7.885890e+02
2.350000e-06	1.535665e-06	1.167255e-08	1.098550e+01	7.610869e+02
2.360000e-06	1.415983e-06	1.123088e-08	1.012935e+01	7.320048e+02
2.370000e-06	1.295862e-06	1.076487e-08	9.270050e+00	7.012590e+02
2.380000e-06	1.175357e-06	1.026599e-08	8.408007e+00	6.687587e+02
2.390000e-06	1.054542e-06	9.739321e-09	7.543749e+00	6.344135e+02
2.400000e-06	9.334141e-07	9.182365e-09	6.677252e+00	5.981488e+02
2.410000e-06	8.119579e-07	8.598259e-09	5.808406e+00	5.599294e+02
2.420000e-06	6.902263e-07	7.989157e-09	4.937589e+00	5.197840e+02
2.430000e-06	5.682982e-07	7.353220e-09	4.065366e+00	4.778258e+02
2.440000e-06	4.462494e-07	6.690115e-09	3.192280e+00	4.342613e+02
2.450000e-06	3.240710e-07	6.001705e-09	2.318268e+00	3.893827e+02
2.460000e-06	2.017708e-07	5.298363e-09	1.443384e+00	3.435415e+02
2.470000e-06	7.937903e-08	4.585677e-09	5.678442e-01	2.971061e+02
2.480000e-06	-4.310050e-08	3.869728e-09	-3.083228e-01	2.504104e+02
2.490000e-06	-1.655794e-07	3.154401e-09	-1.184486e+00	2.037025e+02
2.500000e-06	-2.879753e-07	2.440122e-09	-2.060055e+00	1.571042e+02
2.510000e-06	-4.103233e-07	1.729752e-09	-2.935280e+00	1.105920e+02
2.520000e-06	-5.325871e-07	1.018983e-09	-3.809904e+00	6.400320e+01
2.530000e-06	-6.547218e-07	3.020315e-10	-4.683605e+00	1.707026e+01
2.540000e-06	-7.766966e-07	-4.251300e-10	-5.556161e+00	-3.052385e+01
2.550000e-06	-8.984344e-07	-1.168894e-09	-6.427022e+00	-7.907711e+01
2.560000e-06	-1.019849e-06	-1.927768e-09	-7.295573e+00	-1.288001e+02
2.570000e-06	-1.140867e-06	-2.703561e-09	-8.161281e+00	-1.797601e+02
2.580000e-06	-1.261496e-06	-3.495972e-09	-9.024212e+00	-2.318475e+02
2.590000e-06	-1.381718e-06	-4.302399e-09	-9.884231e+00	-2.847713e+02
2.600000e-06	-1.501476e-06	-5.117681e-09	-1.074093e+01	-3.380825e+02
2.610000e-06	-1.620723e-06	-5.930185e-09	-1.159397e+01	-3.912215e+02
2.620000e-06	-1.739157e-06	-6.732332e-09	-1.244120e+01	-4.435803e+02
2.630000e-06	-1.856730e-06	-7.513989e-09	-1.328227e+01	-4.945674e+02
2.640000e-06	-1.973560e-06	-8.267507e-09	-1.411802e+01	-5.436658e+02
2.650000e-06	-2.089513e-06	-8.985963e-09	-1.494749e+01	-5.904749e+02
2.660000e-06	-2.204523e-06	-9.664901e-09	-1.577023e+01	-6.347323e+02
2.670000e-06	-2.318583e-06	-1.030304e-08	-1.658617e+01	-6.763144e+02
2.680000e-06	-2.431564e-06	-1.090251e-08	-1.739438e+01	-7.152203e+02
2.690000e-06	-2.543481e-06	-1.146485e-08	-1.819499e+01	-7.515433e+02
2.700000e-06	-2.654412e-06	-1.198592e-08	-1.898855e+01	-7.854388e+02
2.710000e-06	-2.764295e-06	-1.246919e-08	-1.977460e+01	-8.170928e+02
2.720000e-06	-2.873281e-06	-1.292271e-08	-2.055424e+01	-8.466975e+02
2.730000e-06	-2.981405e-06	-1.334691e-08	-2.132772e+01	-8.744339e+02
2.740000e-06	-3.088618e-06	-1.374452e-08	-2.209468e+01	-9.004636e+02
2.750000e-06	-3.194851e-06	-1.411999e-08	-2.285462e+01	-9.249266e+02
2.760000e-06	-3.299923e-06	-1.447096e-08	-2.360626e+01	-9.479437e+02
2.770000e-06	-3.403820e-06	-1.480109e-08	-2.434950e+01	-9.696201e+02
2.780000e-06	-3.506478e-06	-1.511433e-08	-2.508387e+01	-9.900497e+02
2.790000e-06	-3.607788e-06	-1.541101e-08	-2.580860e+01	-1.009318e+03
2.800000e-06	-3.707729e-06	-1.569089e-08	-2.652353e+01	-1.027503e+03
2.810000e-06	-3.806460e-06	-1.595295e-08	-2.722982e+01	-1.044677e+03
2.820000e-06	-3.903996e-06	-1.619949e-08	-2.792754e+01	-1.060911e+03
2.830000e-06	-4.000202e-06	-1.643536e-08	-2.861576e+01	-1.076268e+03
2.840000e-06	-4.095014e-06	-1.666263e-08	-2.929401e+01	-1.090810e+03
2.850000e-06	-4.188320e-06	-1.687867e-08	-2.996148e+01	-1.104595e+03
2.860000e-06	-4.280134e-06	-1.708345e-08	-3.061828e+01	-1.117681e+03
2.870000e-06	-4.370469e-06	-1.727694e-08	-3.126450e+01	-1.130117e+03
2.880000e-06	-4.459193e-06	-1.745823e-08	-3.189919e+01	-1.141946e+03
2.890000e-06	-4.546265e-06	-1.762739e-08	-3.252207e+01	-1.153205e+03
2.900000e-06	-4.631609e-06	-1.778720e-08	-3.313258e+01	-1.163917e+03
2.910000e-06	-4.715330e-06	-1.794083e-08	-3.373149e+01	-1.174098e+03
2.920000e-06	-4.797454e-06	-1.808984e-08	-3.431897e+01	-1.183754e+03
2.930000e-06	-4.877829e-06	-1.823121e-08	-3.489394e+01	-1.192889e+03
2.940000e-06	-4.956319e-06	-1.836389e-08	-3.545542e+01	-1.201508e+03
