# Temperatura_=_59.12
# Concentracion g/m^3_=_28200.0
# C_Vs_to_Am_M_A/Vsm_=_65563218390.804596
# pendiente_HvsI_1/m_=_3716.3
# ordenada_HvsI_A/m_=_1297.0
# frecuencia_Hz_=_302119.914282992

Tiempo_(s)	Campo_(V.s)	Magnetizacion_(V.s)	Campo_(kA/m)	Magnetizacion_(A/m)
0.000000e+00	-6.393103e-06	-2.114984e-08	-4.585553e+01	-1.386429e+03
1.000000e-08	-6.389793e-06	-2.114582e-08	-4.583179e+01	-1.385965e+03
2.000000e-08	-6.384432e-06	-2.113287e-08	-4.579334e+01	-1.385307e+03
3.000000e-08	-6.377159e-06	-2.112093e-08	-4.574118e+01	-1.384486e+03
4.000000e-08	-6.367797e-06	-2.110787e-08	-4.567402e+01	-1.383544e+03
5.000000e-08	-6.356059e-06	-2.109077e-08	-4.558983e+01	-1.382526e+03
6.000000e-08	-6.341995e-06	-2.106914e-08	-4.548895e+01	-1.381467e+03
7.000000e-08	-6.325602e-06	-2.103611e-08	-4.537137e+01	-1.380378e+03
8.000000e-08	-6.307064e-06	-2.102363e-08	-4.523840e+01	-1.379246e+03
9.000000e-08	-6.286431e-06	-2.109072e-08	-4.509041e+01	-1.378033e+03
1.000000e-07	-6.263366e-06	-2.105200e-08	-4.492498e+01	-1.376683e+03
1.100000e-07	-6.237641e-06	-2.096620e-08	-4.474046e+01	-1.375131e+03
1.200000e-07	-6.209600e-06	-2.095515e-08	-4.453933e+01	-1.373323e+03
1.300000e-07	-6.179734e-06	-2.089370e-08	-4.432511e+01	-1.371222e+03
1.400000e-07	-6.148306e-06	-2.074559e-08	-4.409969e+01	-1.368818e+03
1.500000e-07	-6.115123e-06	-2.087600e-08	-4.386168e+01	-1.366132e+03
1.600000e-07	-6.079877e-06	-2.088908e-08	-4.360887e+01	-1.363206e+03
1.700000e-07	-6.042781e-06	-2.069132e-08	-4.334279e+01	-1.360099e+03
1.800000e-07	-6.003640e-06	-2.081719e-08	-4.306205e+01	-1.356867e+03
1.900000e-07	-5.962039e-06	-2.068253e-08	-4.276366e+01	-1.353558e+03
2.000000e-07	-5.918265e-06	-2.054176e-08	-4.244969e+01	-1.350198e+03
2.100000e-07	-5.872456e-06	-2.060347e-08	-4.212111e+01	-1.346791e+03
2.200000e-07	-5.824429e-06	-2.050065e-08	-4.177663e+01	-1.343317e+03
2.300000e-07	-5.773886e-06	-2.046775e-08	-4.141410e+01	-1.339740e+03
2.400000e-07	-5.720746e-06	-2.041699e-08	-4.103295e+01	-1.336018e+03
2.500000e-07	-5.665512e-06	-2.032854e-08	-4.063677e+01	-1.332110e+03
2.600000e-07	-5.608153e-06	-2.028539e-08	-4.022536e+01	-1.327983e+03
2.700000e-07	-5.548571e-06	-2.018033e-08	-3.979800e+01	-1.323617e+03
2.800000e-07	-5.486998e-06	-2.012926e-08	-3.935635e+01	-1.319005e+03
2.900000e-07	-5.423506e-06	-2.004731e-08	-3.890095e+01	-1.314148e+03
3.000000e-07	-5.357942e-06	-1.997667e-08	-3.843068e+01	-1.309051e+03
3.100000e-07	-5.290276e-06	-1.990186e-08	-3.794533e+01	-1.303721e+03
3.200000e-07	-5.220669e-06	-1.980007e-08	-3.744607e+01	-1.298159e+03
3.300000e-07	-5.149256e-06	-1.973552e-08	-3.693385e+01	-1.292360e+03
3.400000e-07	-5.076039e-06	-1.961130e-08	-3.640869e+01	-1.286317e+03
3.500000e-07	-5.000732e-06	-1.952768e-08	-3.586853e+01	-1.280018e+03
3.600000e-07	-4.923274e-06	-1.943188e-08	-3.531295e+01	-1.273450e+03
3.700000e-07	-4.843775e-06	-1.931558e-08	-3.474273e+01	-1.266605e+03
3.800000e-07	-4.762415e-06	-1.921585e-08	-3.415917e+01	-1.259473e+03
3.900000e-07	-4.679401e-06	-1.909027e-08	-3.356373e+01	-1.252051e+03
4.000000e-07	-4.594957e-06	-1.897132e-08	-3.295805e+01	-1.244330e+03
4.100000e-07	-4.509127e-06	-1.884261e-08	-3.234242e+01	-1.236306e+03
4.200000e-07	-4.421871e-06	-1.872619e-08	-3.171656e+01	-1.227968e+03
4.300000e-07	-4.333261e-06	-1.859913e-08	-3.108099e+01	-1.219304e+03
4.400000e-07	-4.243005e-06	-1.845584e-08	-3.043362e+01	-1.210298e+03
4.500000e-07	-4.151031e-06	-1.832104e-08	-2.977392e+01	-1.200933e+03
4.600000e-07	-4.057576e-06	-1.816511e-08	-2.910360e+01	-1.191192e+03
4.700000e-07	-3.962856e-06	-1.800747e-08	-2.842421e+01	-1.181060e+03
4.800000e-07	-3.866792e-06	-1.784541e-08	-2.773517e+01	-1.170522e+03
4.900000e-07	-3.769221e-06	-1.768309e-08	-2.703533e+01	-1.159562e+03
5.000000e-07	-3.670191e-06	-1.750839e-08	-2.632502e+01	-1.148160e+03
5.100000e-07	-3.569754e-06	-1.732287e-08	-2.560462e+01	-1.136294e+03
5.200000e-07	-3.468037e-06	-1.713402e-08	-2.487504e+01	-1.123936e+03
5.300000e-07	-3.365210e-06	-1.693085e-08	-2.413750e+01	-1.111052e+03
5.400000e-07	-3.261247e-06	-1.672477e-08	-2.339180e+01	-1.097604e+03
5.500000e-07	-3.156006e-06	-1.651112e-08	-2.263694e+01	-1.083552e+03
5.600000e-07	-3.049405e-06	-1.629184e-08	-2.187234e+01	-1.068857e+03
5.700000e-07	-2.941521e-06	-1.605529e-08	-2.109852e+01	-1.053480e+03
5.800000e-07	-2.832654e-06	-1.580165e-08	-2.031765e+01	-1.037385e+03
5.900000e-07	-2.722811e-06	-1.553859e-08	-1.952979e+01	-1.020536e+03
6.000000e-07	-2.612030e-06	-1.526891e-08	-1.873520e+01	-1.002894e+03
6.100000e-07	-2.500315e-06	-1.498950e-08	-1.793390e+01	-9.844131e+02
6.200000e-07	-2.387650e-06	-1.469546e-08	-1.712580e+01	-9.650386e+02
6.300000e-07	-2.274072e-06	-1.438631e-08	-1.631114e+01	-9.447053e+02
6.400000e-07	-2.159453e-06	-1.405592e-08	-1.548902e+01	-9.233372e+02
6.500000e-07	-2.043792e-06	-1.371015e-08	-1.465942e+01	-9.008492e+02
6.600000e-07	-1.927292e-06	-1.334630e-08	-1.382381e+01	-8.771491e+02
6.700000e-07	-1.810148e-06	-1.296340e-08	-1.298357e+01	-8.521401e+02
6.800000e-07	-1.692391e-06	-1.255872e-08	-1.213894e+01	-8.257216e+02
6.900000e-07	-1.574088e-06	-1.212776e-08	-1.129039e+01	-7.977894e+02
7.000000e-07	-1.455358e-06	-1.167279e-08	-1.043878e+01	-7.682351e+02
7.100000e-07	-1.336169e-06	-1.119108e-08	-9.583881e+00	-7.369473e+02
7.200000e-07	-1.216472e-06	-1.068529e-08	-8.725335e+00	-7.038149e+02
7.300000e-07	-1.096372e-06	-1.015261e-08	-7.863899e+00	-6.687362e+02
7.400000e-07	-9.759262e-07	-9.588974e-09	-6.999984e+00	-6.316320e+02
7.500000e-07	-8.551663e-07	-8.992952e-09	-6.133814e+00	-5.924635e+02
7.600000e-07	-7.341169e-07	-8.365428e-09	-5.265569e+00	-5.512516e+02
7.700000e-07	-6.128220e-07	-7.704848e-09	-4.395562e+00	-5.080927e+02
7.800000e-07	-4.913758e-07	-7.016768e-09	-3.524470e+00	-4.631671e+02
7.900000e-07	-3.697822e-07	-6.306902e-09	-2.652321e+00	-4.167343e+02
8.000000e-07	-2.479852e-07	-5.579166e-09	-1.778713e+00	-3.691143e+02
8.100000e-07	-1.260832e-07	-4.842020e-09	-9.043514e-01	-3.206540e+02
8.200000e-07	-4.099352e-09	-4.099764e-09	-2.940325e-02	-2.716839e+02
8.300000e-07	1.179555e-07	-3.355270e-09	8.460543e-01	-2.224713e+02
8.400000e-07	2.399467e-07	-2.607518e-09	1.721055e+00	-1.731793e+02
8.500000e-07	3.618592e-07	-1.857769e-09	2.595492e+00	-1.238406e+02
8.600000e-07	4.836628e-07	-1.103538e-09	3.469147e+00	-7.435387e+01
8.700000e-07	6.052575e-07	-3.435825e-10	4.341305e+00	-2.450489e+01
8.800000e-07	7.266878e-07	4.254192e-10	5.212282e+00	2.598838e+01
8.900000e-07	8.479332e-07	1.210748e-09	6.081934e+00	7.741333e+01
9.000000e-07	9.688973e-07	2.012549e-09	6.949568e+00	1.299937e+02
9.100000e-07	1.089594e-06	2.831023e-09	7.815285e+00	1.838266e+02
9.200000e-07	1.209947e-06	3.668060e-09	8.678534e+00	2.388367e+02
9.300000e-07	1.329808e-06	4.519108e-09	9.538256e+00	2.947581e+02
9.400000e-07	1.449130e-06	5.376101e-09	1.039411e+01	3.511464e+02
9.500000e-07	1.567929e-06	6.231137e-09	1.124622e+01	4.074197e+02
9.600000e-07	1.686184e-06	7.076808e-09	1.209442e+01	4.629213e+02
9.700000e-07	1.803794e-06	7.902406e-09	1.293799e+01	5.169924e+02
9.800000e-07	1.920751e-06	8.695986e-09	1.377688e+01	5.690432e+02
9.900000e-07	2.037007e-06	9.448142e-09	1.461075e+01	6.186084e+02
1.000000e-06	2.152344e-06	1.015332e-08	1.543802e+01	6.653818e+02
1.010000e-06	2.266619e-06	1.081448e-08	1.625768e+01	7.092236e+02
1.020000e-06	2.379865e-06	1.143369e-08	1.706995e+01	7.501449e+02
1.030000e-06	2.492140e-06	1.201273e-08	1.787527e+01	7.882728e+02
1.040000e-06	2.603481e-06	1.255504e-08	1.867388e+01	8.238079e+02
1.050000e-06	2.713942e-06	1.305903e-08	1.946618e+01	8.569806e+02
1.060000e-06	2.823557e-06	1.352979e-08	2.025240e+01	8.880162e+02
1.070000e-06	2.932302e-06	1.397031e-08	2.103239e+01	9.171132e+02
1.080000e-06	3.040095e-06	1.438672e-08	2.180555e+01	9.444341e+02
1.090000e-06	3.146694e-06	1.477958e-08	2.257015e+01	9.701091e+02
1.100000e-06	3.252004e-06	1.515005e-08	2.332551e+01	9.942465e+02
1.110000e-06	3.356051e-06	1.549739e-08	2.407180e+01	1.016945e+03
1.120000e-06	3.458871e-06	1.582362e-08	2.480929e+01	1.038301e+03
1.130000e-06	3.560557e-06	1.612973e-08	2.553866e+01	1.058419e+03
1.140000e-06	3.661149e-06	1.641751e-08	2.626016e+01	1.077400e+03
1.150000e-06	3.760450e-06	1.669003e-08	2.697242e+01	1.095346e+03
1.160000e-06	3.858249e-06	1.694700e-08	2.767390e+01	1.112346e+03
1.170000e-06	3.954569e-06	1.719108e-08	2.836477e+01	1.128473e+03
1.180000e-06	4.049490e-06	1.742450e-08	2.904560e+01	1.143781e+03
1.190000e-06	4.143043e-06	1.764536e-08	2.971663e+01	1.158310e+03
1.200000e-06	4.235302e-06	1.785426e-08	3.037836e+01	1.172090e+03
1.210000e-06	4.326123e-06	1.805309e-08	3.102979e+01	1.185150e+03
1.220000e-06	4.415221e-06	1.823864e-08	3.166887e+01	1.197522e+03
1.230000e-06	4.502629e-06	1.841616e-08	3.229581e+01	1.209247e+03
1.240000e-06	4.588435e-06	1.858480e-08	3.291127e+01	1.220372e+03
1.250000e-06	4.672773e-06	1.874639e-08	3.351620e+01	1.230946e+03
1.260000e-06	4.755540e-06	1.890087e-08	3.410985e+01	1.241015e+03
1.270000e-06	4.836519e-06	1.904944e-08	3.469069e+01	1.250610e+03
1.280000e-06	4.915697e-06	1.919152e-08	3.525860e+01	1.259750e+03
1.290000e-06	4.993058e-06	1.932681e-08	3.581349e+01	1.268438e+03
1.300000e-06	5.068456e-06	1.945440e-08	3.635429e+01	1.276669e+03
1.310000e-06	5.141831e-06	1.957383e-08	3.688059e+01	1.284435e+03
1.320000e-06	5.213270e-06	1.968548e-08	3.739299e+01	1.291734e+03
1.330000e-06	5.282825e-06	1.978864e-08	3.789189e+01	1.298580e+03
1.340000e-06	5.350581e-06	1.988410e-08	3.837788e+01	1.305000e+03
1.350000e-06	5.416352e-06	1.997437e-08	3.884963e+01	1.311040e+03
1.360000e-06	5.480016e-06	2.006160e-08	3.930628e+01	1.316752e+03
1.370000e-06	5.541799e-06	2.014681e-08	3.974942e+01	1.322191e+03
1.380000e-06	5.601843e-06	2.022954e-08	4.018010e+01	1.327400e+03
1.390000e-06	5.659922e-06	2.030797e-08	4.059668e+01	1.332405e+03
1.400000e-06	5.715837e-06	2.038306e-08	4.099774e+01	1.337217e+03
1.410000e-06	5.769701e-06	2.045358e-08	4.138409e+01	1.341826e+03
1.420000e-06	5.821292e-06	2.051834e-08	4.175413e+01	1.346212e+03
1.430000e-06	5.870388e-06	2.057855e-08	4.210628e+01	1.350352e+03
1.440000e-06	5.917256e-06	2.063566e-08	4.244245e+01	1.354229e+03
1.450000e-06	5.962280e-06	2.069031e-08	4.276539e+01	1.357837e+03
1.460000e-06	6.005251e-06	2.074190e-08	4.307360e+01	1.361181e+03
1.470000e-06	6.045853e-06	2.079032e-08	4.336483e+01	1.364277e+03
1.480000e-06	6.084322e-06	2.083610e-08	4.364075e+01	1.367147e+03
1.490000e-06	6.120868e-06	2.087849e-08	4.390288e+01	1.369808e+03
1.500000e-06	6.155262e-06	2.091601e-08	4.414958e+01	1.372272e+03
1.510000e-06	6.187352e-06	2.094856e-08	4.437975e+01	1.374540e+03
1.520000e-06	6.217302e-06	2.097750e-08	4.459457e+01	1.376605e+03
1.530000e-06	6.245171e-06	2.100295e-08	4.479447e+01	1.378454e+03
1.540000e-06	6.270706e-06	2.102644e-08	4.497762e+01	1.380077e+03
1.550000e-06	6.293803e-06	2.104847e-08	4.514329e+01	1.381474e+03
1.560000e-06	6.314795e-06	2.106686e-08	4.529385e+01	1.382653e+03
1.570000e-06	6.333690e-06	2.108550e-08	4.542938e+01	1.383637e+03
1.580000e-06	6.350186e-06	2.110311e-08	4.554771e+01	1.384454e+03
1.590000e-06	6.364280e-06	2.111589e-08	4.564880e+01	1.385133e+03
1.600000e-06	6.375876e-06	2.112433e-08	4.573197e+01	1.385697e+03
1.610000e-06	6.384825e-06	2.113024e-08	4.579616e+01	1.386153e+03
1.620000e-06	6.391420e-06	2.113604e-08	4.584346e+01	1.386493e+03
1.630000e-06	6.395970e-06	2.113909e-08	4.587610e+01	1.386697e+03
1.640000e-06	6.398271e-06	2.114088e-08	4.589260e+01	1.386736e+03
1.650000e-06	6.398208e-06	2.114391e-08	4.589215e+01	1.386582e+03
1.660000e-06	6.396038e-06	2.113387e-08	4.587658e+01	1.386222e+03
1.670000e-06	6.391823e-06	2.112695e-08	4.584635e+01	1.385659e+03
1.680000e-06	6.385348e-06	2.111892e-08	4.579991e+01	1.384914e+03
1.690000e-06	6.376688e-06	2.110787e-08	4.573779e+01	1.384027e+03
1.700000e-06	6.366117e-06	2.109936e-08	4.566198e+01	1.383042e+03
1.710000e-06	6.353432e-06	2.109139e-08	4.557098e+01	1.382000e+03
1.720000e-06	6.338430e-06	2.109925e-08	4.546339e+01	1.380926e+03
1.730000e-06	6.321397e-06	2.105289e-08	4.534121e+01	1.379819e+03
1.740000e-06	6.302308e-06	2.093034e-08	4.520429e+01	1.378653e+03
1.750000e-06	6.280308e-06	2.095443e-08	4.504650e+01	1.377379e+03
1.760000e-06	6.255137e-06	2.097985e-08	4.486595e+01	1.375936e+03
1.770000e-06	6.227711e-06	2.092030e-08	4.466923e+01	1.374262e+03
1.780000e-06	6.198411e-06	2.103497e-08	4.445907e+01	1.372310e+03
1.790000e-06	6.167477e-06	2.097465e-08	4.423719e+01	1.370057e+03
1.800000e-06	6.135205e-06	2.078832e-08	4.400572e+01	1.367508e+03
1.810000e-06	6.100868e-06	2.089533e-08	4.375944e+01	1.364696e+03
1.820000e-06	6.064523e-06	2.066822e-08	4.349874e+01	1.361671e+03
1.830000e-06	6.026147e-06	2.057689e-08	4.322348e+01	1.358495e+03
1.840000e-06	5.985272e-06	2.076634e-08	4.293030e+01	1.355220e+03
1.850000e-06	5.942416e-06	2.054342e-08	4.262291e+01	1.351883e+03
1.860000e-06	5.897509e-06	2.057491e-08	4.230081e+01	1.348501e+03
1.870000e-06	5.850349e-06	2.051463e-08	4.196254e+01	1.345064e+03
1.880000e-06	5.801177e-06	2.035508e-08	4.160985e+01	1.341544e+03
1.890000e-06	5.749476e-06	2.044505e-08	4.123902e+01	1.337900e+03
1.900000e-06	5.695150e-06	2.026567e-08	4.084936e+01	1.334090e+03
1.910000e-06	5.638665e-06	2.029320e-08	4.044421e+01	1.330075e+03
1.920000e-06	5.580184e-06	2.026703e-08	4.002474e+01	1.325831e+03
1.930000e-06	5.519935e-06	2.008427e-08	3.959260e+01	1.321342e+03
1.940000e-06	5.457585e-06	2.011168e-08	3.914538e+01	1.316607e+03
1.950000e-06	5.393029e-06	1.994756e-08	3.868235e+01	1.311629e+03
1.960000e-06	5.326479e-06	1.994375e-08	3.820500e+01	1.306415e+03
1.970000e-06	5.257964e-06	1.983756e-08	3.771357e+01	1.300969e+03
1.980000e-06	5.187382e-06	1.971924e-08	3.720731e+01	1.295289e+03
1.990000e-06	5.114761e-06	1.970716e-08	3.668642e+01	1.289370e+03
2.000000e-06	5.040417e-06	1.953448e-08	3.615318e+01	1.283200e+03
2.010000e-06	4.964089e-06	1.949464e-08	3.560571e+01	1.276768e+03
2.020000e-06	4.885647e-06	1.934819e-08	3.504307e+01	1.270063e+03
2.030000e-06	4.805351e-06	1.926164e-08	3.446714e+01	1.263075e+03
2.040000e-06	4.723393e-06	1.917510e-08	3.387928e+01	1.255799e+03
2.050000e-06	4.639963e-06	1.902655e-08	3.328086e+01	1.248228e+03
2.060000e-06	4.554936e-06	1.894146e-08	3.267099e+01	1.240357e+03
2.070000e-06	4.468133e-06	1.878455e-08	3.204839e+01	1.232177e+03
2.080000e-06	4.379718e-06	1.868368e-08	3.141422e+01	1.223678e+03
2.090000e-06	4.289819e-06	1.852146e-08	3.076940e+01	1.214845e+03
2.100000e-06	4.198494e-06	1.838786e-08	3.011436e+01	1.205661e+03
2.110000e-06	4.105817e-06	1.825423e-08	2.944961e+01	1.196110e+03
2.120000e-06	4.011634e-06	1.809382e-08	2.877407e+01	1.186176e+03
2.130000e-06	3.915892e-06	1.794219e-08	2.808735e+01	1.175843e+03
2.140000e-06	3.818769e-06	1.776487e-08	2.739072e+01	1.165096e+03
2.150000e-06	3.720279e-06	1.761302e-08	2.668428e+01	1.153917e+03
2.160000e-06	3.620517e-06	1.742581e-08	2.596872e+01	1.142286e+03
2.170000e-06	3.519482e-06	1.725066e-08	2.524404e+01	1.130179e+03
2.180000e-06	3.417002e-06	1.705629e-08	2.450898e+01	1.117562e+03
2.190000e-06	3.313127e-06	1.686085e-08	2.376393e+01	1.104401e+03
2.200000e-06	3.208114e-06	1.664700e-08	2.301070e+01	1.090656e+03
2.210000e-06	3.102007e-06	1.642536e-08	2.224963e+01	1.076287e+03
2.220000e-06	2.994762e-06	1.620218e-08	2.148040e+01	1.061256e+03
2.230000e-06	2.886503e-06	1.596833e-08	2.070390e+01	1.045525e+03
2.240000e-06	2.777300e-06	1.572517e-08	1.992062e+01	1.029057e+03
2.250000e-06	2.667032e-06	1.545874e-08	1.912971e+01	1.011817e+03
2.260000e-06	2.555638e-06	1.518292e-08	1.833071e+01	9.937617e+02
2.270000e-06	2.443266e-06	1.488688e-08	1.752471e+01	9.748414e+02
2.280000e-06	2.329968e-06	1.458738e-08	1.671206e+01	9.549963e+02
2.290000e-06	2.215738e-06	1.427205e-08	1.589273e+01	9.341558e+02
2.300000e-06	2.100686e-06	1.394383e-08	1.506750e+01	9.122388e+02
2.310000e-06	1.984808e-06	1.359613e-08	1.423635e+01	8.891566e+02
2.320000e-06	1.868113e-06	1.322642e-08	1.339933e+01	8.648144e+02
2.330000e-06	1.750714e-06	1.283441e-08	1.255727e+01	8.391134e+02
2.340000e-06	1.632640e-06	1.242191e-08	1.171037e+01	8.119514e+02
2.350000e-06	1.513864e-06	1.198879e-08	1.085843e+01	7.832219e+02
2.360000e-06	1.394424e-06	1.152896e-08	1.000173e+01	7.528149e+02
2.370000e-06	1.274461e-06	1.103990e-08	9.141272e+00	7.206184e+02
2.380000e-06	1.154155e-06	1.051631e-08	8.278359e+00	6.865246e+02
2.390000e-06	1.033584e-06	9.963906e-09	7.413544e+00	6.504409e+02
2.400000e-06	9.127298e-07	9.381356e-09	6.546697e+00	6.123061e+02
2.410000e-06	7.915982e-07	8.771976e-09	5.677862e+00	5.721088e+02
2.420000e-06	6.702128e-07	8.132167e-09	4.807206e+00	5.299062e+02
2.430000e-06	5.486189e-07	7.461765e-09	3.935055e+00	4.858362e+02
2.440000e-06	4.268284e-07	6.763914e-09	3.061493e+00	4.401202e+02
2.450000e-06	3.048365e-07	6.042587e-09	2.186487e+00	3.930512e+02
2.460000e-06	1.826786e-07	5.305183e-09	1.310291e+00	3.449676e+02
2.470000e-06	6.053062e-08	4.556284e-09	4.341654e-01	2.962140e+02
2.480000e-06	-6.161562e-08	3.806703e-09	-4.419477e-01	2.470949e+02
2.490000e-06	-1.837752e-07	3.056964e-09	-1.318156e+00	1.978300e+02
2.500000e-06	-3.058461e-07	2.304326e-09	-2.193729e+00	1.485191e+02
2.510000e-06	-4.278504e-07	1.549337e-09	-3.068824e+00	9.912689e+01
2.520000e-06	-5.497497e-07	7.890083e-10	-3.943166e+00	4.949137e+01
2.530000e-06	-6.715284e-07	1.966387e-11	-4.816643e+00	-6.425661e-01
2.540000e-06	-7.931110e-07	-7.624786e-10	-5.688713e+00	-5.156811e+01
2.550000e-06	-9.143989e-07	-1.557727e-09	-6.558670e+00	-1.035494e+02
2.560000e-06	-1.035379e-06	-2.366964e-09	-7.426419e+00	-1.567539e+02
2.570000e-06	-1.156037e-06	-3.194183e-09	-8.291853e+00	-2.111966e+02
2.580000e-06	-1.276343e-06	-4.039750e-09	-9.154770e+00	-2.667074e+02
2.590000e-06	-1.396235e-06	-4.898004e-09	-1.001472e+01	-3.229277e+02
2.600000e-06	-1.515603e-06	-5.760925e-09	-1.087090e+01	-3.793375e+02
2.610000e-06	-1.634286e-06	-6.620220e-09	-1.172217e+01	-4.353089e+02
2.620000e-06	-1.752185e-06	-7.462136e-09	-1.256782e+01	-4.901749e+02
2.630000e-06	-1.869298e-06	-8.276115e-09	-1.340783e+01	-5.433029e+02
2.640000e-06	-1.985669e-06	-9.055581e-09	-1.424252e+01	-5.941596e+02
2.650000e-06	-2.101242e-06	-9.791982e-09	-1.507149e+01	-6.423567e+02
2.660000e-06	-2.215903e-06	-1.048457e-08	-1.589391e+01	-6.876717e+02
2.670000e-06	-2.329499e-06	-1.113322e-08	-1.670870e+01	-7.300436e+02
2.680000e-06	-2.442078e-06	-1.174025e-08	-1.751619e+01	-7.695467e+02
2.690000e-06	-2.553739e-06	-1.230879e-08	-1.831709e+01	-8.063503e+02
2.700000e-06	-2.664295e-06	-1.283782e-08	-1.911007e+01	-8.406750e+02
2.710000e-06	-2.773810e-06	-1.332908e-08	-1.989559e+01	-8.727523e+02
2.720000e-06	-2.882492e-06	-1.378822e-08	-2.067512e+01	-9.027961e+02
2.730000e-06	-2.990230e-06	-1.421661e-08	-2.144789e+01	-9.309869e+02
2.740000e-06	-3.097018e-06	-1.461878e-08	-2.221385e+01	-9.574702e+02
2.750000e-06	-3.202807e-06	-1.499980e-08	-2.297263e+01	-9.823638e+02
2.760000e-06	-3.307508e-06	-1.535573e-08	-2.372362e+01	-1.005769e+03
2.770000e-06	-3.411007e-06	-1.568920e-08	-2.446598e+01	-1.027784e+03
2.780000e-06	-3.513080e-06	-1.600500e-08	-2.519811e+01	-1.048509e+03
2.790000e-06	-3.613875e-06	-1.630502e-08	-2.592109e+01	-1.068045e+03
2.800000e-06	-3.713456e-06	-1.658892e-08	-2.663535e+01	-1.086497e+03
2.810000e-06	-3.811731e-06	-1.685617e-08	-2.734023e+01	-1.103960e+03
2.820000e-06	-3.908793e-06	-1.710820e-08	-2.803643e+01	-1.120515e+03
2.830000e-06	-4.004629e-06	-1.734800e-08	-2.872383e+01	-1.136226e+03
2.840000e-06	-4.098964e-06	-1.757807e-08	-2.940046e+01	-1.151141e+03
2.850000e-06	-4.191697e-06	-1.779823e-08	-3.006560e+01	-1.165292e+03
2.860000e-06	-4.282980e-06	-1.800691e-08	-3.072034e+01	-1.178708e+03
2.870000e-06	-4.372714e-06	-1.820134e-08	-3.136398e+01	-1.191419e+03
2.880000e-06	-4.460905e-06	-1.838270e-08	-3.199654e+01	-1.203462e+03
2.890000e-06	-4.547485e-06	-1.855494e-08	-3.261755e+01	-1.214881e+03
2.900000e-06	-4.632335e-06	-1.871941e-08	-3.322615e+01	-1.225725e+03
2.910000e-06	-4.715598e-06	-1.887648e-08	-3.382336e+01	-1.236041e+03
2.920000e-06	-4.797219e-06	-1.902719e-08	-3.440881e+01	-1.245870e+03
2.930000e-06	-4.877174e-06	-1.917110e-08	-3.498230e+01	-1.255236e+03
2.940000e-06	-4.955262e-06	-1.930708e-08	-3.554239e+01	-1.264151e+03
