# Temperatura_=_76.62
# Concentracion g/m^3_=_28200.0
# C_Vs_to_Am_M_A/Vsm_=_65563218390.804596
# pendiente_HvsI_1/m_=_3716.3
# ordenada_HvsI_A/m_=_1297.0
# frecuencia_Hz_=_302116.2508447983

Tiempo_(s)	Campo_(V.s)	Magnetizacion_(V.s)	Campo_(kA/m)	Magnetizacion_(A/m)
0.000000e+00	-6.444585e-06	-2.287566e-08	-4.585208e+01	-1.497732e+03
1.000000e-08	-6.441205e-06	-2.287475e-08	-4.582803e+01	-1.497132e+03
2.000000e-08	-6.435743e-06	-2.286142e-08	-4.578916e+01	-1.496376e+03
3.000000e-08	-6.428308e-06	-2.285105e-08	-4.573626e+01	-1.495513e+03
4.000000e-08	-6.418757e-06	-2.283819e-08	-4.566831e+01	-1.494578e+03
5.000000e-08	-6.406827e-06	-2.281874e-08	-4.558343e+01	-1.493583e+03
6.000000e-08	-6.392520e-06	-2.279560e-08	-4.548164e+01	-1.492510e+03
7.000000e-08	-6.375850e-06	-2.275664e-08	-4.536304e+01	-1.491317e+03
8.000000e-08	-6.357084e-06	-2.273874e-08	-4.522952e+01	-1.489948e+03
9.000000e-08	-6.336238e-06	-2.282555e-08	-4.508120e+01	-1.488351e+03
1.000000e-07	-6.312886e-06	-2.276768e-08	-4.491506e+01	-1.486495e+03
1.100000e-07	-6.286809e-06	-2.266283e-08	-4.472952e+01	-1.484386e+03
1.200000e-07	-6.258403e-06	-2.267274e-08	-4.452742e+01	-1.482068e+03
1.300000e-07	-6.228254e-06	-2.263939e-08	-4.431291e+01	-1.479618e+03
1.400000e-07	-6.196575e-06	-2.245643e-08	-4.408752e+01	-1.477127e+03
1.500000e-07	-6.163011e-06	-2.258400e-08	-4.384872e+01	-1.474680e+03
1.600000e-07	-6.127358e-06	-2.263400e-08	-4.359506e+01	-1.472333e+03
1.700000e-07	-6.089907e-06	-2.234045e-08	-4.332860e+01	-1.470092e+03
1.800000e-07	-6.050363e-06	-2.251594e-08	-4.304726e+01	-1.467910e+03
1.900000e-07	-6.008213e-06	-2.240860e-08	-4.274736e+01	-1.465692e+03
2.000000e-07	-5.963876e-06	-2.224128e-08	-4.243191e+01	-1.463312e+03
2.100000e-07	-5.917561e-06	-2.235693e-08	-4.210239e+01	-1.460636e+03
2.200000e-07	-5.868845e-06	-2.220333e-08	-4.175579e+01	-1.457554e+03
2.300000e-07	-5.817618e-06	-2.214933e-08	-4.139132e+01	-1.453996e+03
2.400000e-07	-5.763945e-06	-2.208742e-08	-4.100944e+01	-1.449944e+03
2.500000e-07	-5.708133e-06	-2.198246e-08	-4.061235e+01	-1.445432e+03
2.600000e-07	-5.650064e-06	-2.195233e-08	-4.019920e+01	-1.440532e+03
2.700000e-07	-5.589796e-06	-2.184892e-08	-3.977040e+01	-1.435333e+03
2.800000e-07	-5.527703e-06	-2.180299e-08	-3.932862e+01	-1.429916e+03
2.900000e-07	-5.463745e-06	-2.168635e-08	-3.887357e+01	-1.424337e+03
3.000000e-07	-5.397550e-06	-2.159175e-08	-3.840260e+01	-1.418616e+03
3.100000e-07	-5.329158e-06	-2.152166e-08	-3.791600e+01	-1.412735e+03
3.200000e-07	-5.258874e-06	-2.141554e-08	-3.741595e+01	-1.406648e+03
3.300000e-07	-5.186814e-06	-2.135870e-08	-3.690325e+01	-1.400295e+03
3.400000e-07	-5.112747e-06	-2.120719e-08	-3.637628e+01	-1.393624e+03
3.500000e-07	-5.036512e-06	-2.111047e-08	-3.583388e+01	-1.386601e+03
3.600000e-07	-4.958128e-06	-2.100446e-08	-3.527620e+01	-1.379213e+03
3.700000e-07	-4.877672e-06	-2.087363e-08	-3.470376e+01	-1.371476e+03
3.800000e-07	-4.795560e-06	-2.078334e-08	-3.411955e+01	-1.363417e+03
3.900000e-07	-4.712054e-06	-2.064279e-08	-3.352542e+01	-1.355065e+03
4.000000e-07	-4.627101e-06	-2.050599e-08	-3.292100e+01	-1.346438e+03
4.100000e-07	-4.540592e-06	-2.035757e-08	-3.230551e+01	-1.337536e+03
4.200000e-07	-4.452679e-06	-2.022796e-08	-3.168002e+01	-1.328336e+03
4.300000e-07	-4.363201e-06	-2.008396e-08	-3.104339e+01	-1.318799e+03
4.400000e-07	-4.272025e-06	-1.992203e-08	-3.039470e+01	-1.308880e+03
4.500000e-07	-4.179254e-06	-1.977774e-08	-2.973465e+01	-1.298537e+03
4.600000e-07	-4.085054e-06	-1.960090e-08	-2.906443e+01	-1.287740e+03
4.700000e-07	-3.989533e-06	-1.943030e-08	-2.838482e+01	-1.276477e+03
4.800000e-07	-3.892605e-06	-1.925665e-08	-2.769519e+01	-1.264749e+03
4.900000e-07	-3.794097e-06	-1.908340e-08	-2.699432e+01	-1.252564e+03
5.000000e-07	-3.694156e-06	-1.888623e-08	-2.628326e+01	-1.239929e+03
5.100000e-07	-3.592958e-06	-1.867843e-08	-2.556325e+01	-1.226833e+03
5.200000e-07	-3.490479e-06	-1.847409e-08	-2.483414e+01	-1.213253e+03
5.300000e-07	-3.386874e-06	-1.825380e-08	-2.409701e+01	-1.199143e+03
5.400000e-07	-3.282003e-06	-1.802947e-08	-2.335086e+01	-1.184446e+03
5.500000e-07	-3.175702e-06	-1.779166e-08	-2.259455e+01	-1.169101e+03
5.600000e-07	-3.068139e-06	-1.754986e-08	-2.182926e+01	-1.153052e+03
5.700000e-07	-2.959455e-06	-1.728953e-08	-2.105599e+01	-1.136254e+03
5.800000e-07	-2.849734e-06	-1.702012e-08	-2.027535e+01	-1.118676e+03
5.900000e-07	-2.739052e-06	-1.674126e-08	-1.948787e+01	-1.100297e+03
6.000000e-07	-2.627390e-06	-1.645166e-08	-1.869341e+01	-1.081093e+03
6.100000e-07	-2.514721e-06	-1.614642e-08	-1.789179e+01	-1.061033e+03
6.200000e-07	-2.400980e-06	-1.582407e-08	-1.708254e+01	-1.040065e+03
6.300000e-07	-2.286105e-06	-1.548732e-08	-1.626523e+01	-1.018112e+03
6.400000e-07	-2.170267e-06	-1.513032e-08	-1.544106e+01	-9.950770e+02
6.500000e-07	-2.053629e-06	-1.475904e-08	-1.461121e+01	-9.708434e+02
6.600000e-07	-1.936243e-06	-1.436580e-08	-1.377602e+01	-9.452893e+02
6.700000e-07	-1.818226e-06	-1.395253e-08	-1.293635e+01	-9.182947e+02
6.800000e-07	-1.699684e-06	-1.351799e-08	-1.209295e+01	-8.897475e+02
6.900000e-07	-1.580617e-06	-1.305971e-08	-1.124581e+01	-8.595439e+02
7.000000e-07	-1.460973e-06	-1.257487e-08	-1.039456e+01	-8.275848e+02
7.100000e-07	-1.340814e-06	-1.205688e-08	-9.539652e+00	-7.937690e+02
7.200000e-07	-1.220193e-06	-1.150812e-08	-8.681459e+00	-7.579895e+02
7.300000e-07	-1.099117e-06	-1.092752e-08	-7.820023e+00	-7.201349e+02
7.400000e-07	-9.776571e-07	-1.031529e-08	-6.955856e+00	-6.801016e+02
7.500000e-07	-8.558031e-07	-9.671302e-09	-6.088886e+00	-6.378134e+02
7.600000e-07	-7.335761e-07	-8.996323e-09	-5.219263e+00	-5.932490e+02
7.700000e-07	-6.110712e-07	-8.283138e-09	-4.347663e+00	-5.464678e+02
7.800000e-07	-4.883461e-07	-7.536364e-09	-3.474496e+00	-4.976284e+02
7.900000e-07	-3.654689e-07	-6.762769e-09	-2.600246e+00	-4.469911e+02
8.000000e-07	-2.424774e-07	-5.965049e-09	-1.725184e+00	-3.949001e+02
8.100000e-07	-1.193608e-07	-5.153353e-09	-8.492308e-01	-3.417451e+02
8.200000e-07	3.853886e-09	-4.334028e-09	2.741971e-02	-2.879076e+02
8.300000e-07	1.271030e-07	-3.510907e-09	9.043151e-01	-2.337006e+02
8.400000e-07	2.503008e-07	-2.684317e-09	1.780846e+00	-1.793169e+02
8.500000e-07	3.734077e-07	-1.857697e-09	2.656729e+00	-1.247955e+02
8.600000e-07	4.963833e-07	-1.026528e-09	3.531679e+00	-7.001866e+01
8.700000e-07	6.192114e-07	-1.872653e-10	4.405579e+00	-1.474112e+01
8.800000e-07	7.418817e-07	6.661324e-10	5.278356e+00	4.135010e+01
8.900000e-07	8.643421e-07	1.537837e-09	6.149640e+00	9.855628e+01
9.000000e-07	9.865080e-07	2.428437e-09	7.018829e+00	1.570827e+02
9.100000e-07	1.108278e-06	3.339740e-09	7.885197e+00	2.169664e+02
9.200000e-07	1.229572e-06	4.269381e-09	8.748185e+00	2.780305e+02
9.300000e-07	1.350254e-06	5.211233e-09	9.606815e+00	3.398753e+02
9.400000e-07	1.470341e-06	6.154268e-09	1.046121e+01	4.019087e+02
9.500000e-07	1.589903e-06	7.090903e-09	1.131188e+01	4.634087e+02
9.600000e-07	1.708882e-06	8.006968e-09	1.215839e+01	5.236079e+02
9.700000e-07	1.827252e-06	8.890208e-09	1.300058e+01	5.817833e+02
9.800000e-07	1.945024e-06	9.733714e-09	1.383850e+01	6.373334e+02
9.900000e-07	2.062103e-06	1.052735e-08	1.467149e+01	6.898331e+02
1.000000e-06	2.178376e-06	1.126792e-08	1.549875e+01	7.390550e+02
1.010000e-06	2.293727e-06	1.195983e-08	1.631946e+01	7.849603e+02
1.020000e-06	2.408096e-06	1.260950e-08	1.713318e+01	8.276633e+02
1.030000e-06	2.521371e-06	1.321633e-08	1.793910e+01	8.673806e+02
1.040000e-06	2.633476e-06	1.378086e-08	1.873671e+01	9.043770e+02
1.050000e-06	2.744588e-06	1.430392e-08	1.952725e+01	9.389198e+02
1.060000e-06	2.854808e-06	1.479164e-08	2.031145e+01	9.712475e+02
1.070000e-06	2.964173e-06	1.524950e-08	2.108956e+01	1.001557e+03
1.080000e-06	3.072624e-06	1.568222e-08	2.186117e+01	1.030004e+03
1.090000e-06	3.180022e-06	1.608981e-08	2.262529e+01	1.056718e+03
1.100000e-06	3.286294e-06	1.647413e-08	2.338140e+01	1.081815e+03
1.110000e-06	3.391223e-06	1.683607e-08	2.412795e+01	1.105411e+03
1.120000e-06	3.494788e-06	1.717650e-08	2.486479e+01	1.127628e+03
1.130000e-06	3.597087e-06	1.749570e-08	2.559263e+01	1.148590e+03
1.140000e-06	3.698177e-06	1.779773e-08	2.631187e+01	1.168417e+03
1.150000e-06	3.798128e-06	1.808326e-08	2.702300e+01	1.187215e+03
1.160000e-06	3.896885e-06	1.835484e-08	2.772564e+01	1.205066e+03
1.170000e-06	3.993999e-06	1.861423e-08	2.841659e+01	1.222029e+03
1.180000e-06	4.089489e-06	1.885861e-08	2.909598e+01	1.238142e+03
1.190000e-06	4.183652e-06	1.908958e-08	2.976594e+01	1.253431e+03
1.200000e-06	4.276407e-06	1.930798e-08	3.042588e+01	1.267923e+03
1.210000e-06	4.367787e-06	1.951597e-08	3.107602e+01	1.281650e+03
1.220000e-06	4.457567e-06	1.971092e-08	3.171479e+01	1.294660e+03
1.230000e-06	4.545567e-06	1.989797e-08	3.234090e+01	1.307013e+03
1.240000e-06	4.631932e-06	2.007708e-08	3.295537e+01	1.318772e+03
1.250000e-06	4.716790e-06	2.024968e-08	3.355912e+01	1.329998e+03
1.260000e-06	4.800104e-06	2.041445e-08	3.415188e+01	1.340736e+03
1.270000e-06	4.881646e-06	2.057117e-08	3.473204e+01	1.351012e+03
1.280000e-06	4.961287e-06	2.072076e-08	3.529867e+01	1.360829e+03
1.290000e-06	5.039094e-06	2.086345e-08	3.585226e+01	1.370174e+03
1.300000e-06	5.115068e-06	2.099908e-08	3.639279e+01	1.379028e+03
1.310000e-06	5.188888e-06	2.112720e-08	3.691801e+01	1.387377e+03
1.320000e-06	5.260625e-06	2.124717e-08	3.742840e+01	1.395223e+03
1.330000e-06	5.330609e-06	2.136119e-08	3.792633e+01	1.402586e+03
1.340000e-06	5.398783e-06	2.146869e-08	3.841138e+01	1.409504e+03
1.350000e-06	5.465025e-06	2.156774e-08	3.888268e+01	1.416031e+03
1.360000e-06	5.529182e-06	2.166253e-08	3.933914e+01	1.422221e+03
1.370000e-06	5.591325e-06	2.175267e-08	3.978128e+01	1.428121e+03
1.380000e-06	5.651650e-06	2.183790e-08	4.021048e+01	1.433764e+03
1.390000e-06	5.710038e-06	2.191959e-08	4.062590e+01	1.439164e+03
1.400000e-06	5.766341e-06	2.199917e-08	4.102649e+01	1.444321e+03
1.410000e-06	5.820539e-06	2.207421e-08	4.141210e+01	1.449224e+03
1.420000e-06	5.872461e-06	2.214365e-08	4.178151e+01	1.453863e+03
1.430000e-06	5.921804e-06	2.220901e-08	4.213258e+01	1.458235e+03
1.440000e-06	5.968814e-06	2.227128e-08	4.246705e+01	1.462345e+03
1.450000e-06	6.013893e-06	2.232999e-08	4.278778e+01	1.466209e+03
1.460000e-06	6.057021e-06	2.238520e-08	4.309462e+01	1.469848e+03
1.470000e-06	6.097866e-06	2.243848e-08	4.338523e+01	1.473279e+03
1.480000e-06	6.136396e-06	2.248918e-08	4.365936e+01	1.476509e+03
1.490000e-06	6.172956e-06	2.253382e-08	4.391948e+01	1.479535e+03
1.500000e-06	6.207370e-06	2.257352e-08	4.416433e+01	1.482338e+03
1.510000e-06	6.239549e-06	2.260998e-08	4.439328e+01	1.484893e+03
1.520000e-06	6.269639e-06	2.264334e-08	4.460736e+01	1.487178e+03
1.530000e-06	6.297685e-06	2.267366e-08	4.480690e+01	1.489180e+03
1.540000e-06	6.323284e-06	2.269848e-08	4.498903e+01	1.490903e+03
1.550000e-06	6.346333e-06	2.272010e-08	4.515303e+01	1.492371e+03
1.560000e-06	6.367219e-06	2.273980e-08	4.530162e+01	1.493621e+03
1.570000e-06	6.385981e-06	2.275777e-08	4.543512e+01	1.494696e+03
1.580000e-06	6.402425e-06	2.277490e-08	4.555211e+01	1.495633e+03
1.590000e-06	6.416471e-06	2.278846e-08	4.565204e+01	1.496452e+03
1.600000e-06	6.428134e-06	2.279790e-08	4.573503e+01	1.497154e+03
1.610000e-06	6.437143e-06	2.280521e-08	4.579912e+01	1.497718e+03
1.620000e-06	6.443646e-06	2.281058e-08	4.584539e+01	1.498110e+03
1.630000e-06	6.448118e-06	2.281388e-08	4.587721e+01	1.498294e+03
1.640000e-06	6.450281e-06	2.281402e-08	4.589260e+01	1.498246e+03
1.650000e-06	6.450035e-06	2.281684e-08	4.589085e+01	1.497959e+03
1.660000e-06	6.447730e-06	2.280308e-08	4.587445e+01	1.497454e+03
1.670000e-06	6.443454e-06	2.279287e-08	4.584403e+01	1.496770e+03
1.680000e-06	6.436860e-06	2.278283e-08	4.579711e+01	1.495955e+03
1.690000e-06	6.427983e-06	2.276904e-08	4.573396e+01	1.495053e+03
1.700000e-06	6.417181e-06	2.275733e-08	4.565709e+01	1.494088e+03
1.710000e-06	6.404193e-06	2.274618e-08	4.556469e+01	1.493058e+03
1.720000e-06	6.388913e-06	2.275856e-08	4.545598e+01	1.491932e+03
1.730000e-06	6.371584e-06	2.271438e-08	4.533268e+01	1.490658e+03
1.740000e-06	6.352049e-06	2.255097e-08	4.519370e+01	1.489181e+03
1.750000e-06	6.329488e-06	2.258459e-08	4.503318e+01	1.487456e+03
1.760000e-06	6.303835e-06	2.262390e-08	4.485066e+01	1.485471e+03
1.770000e-06	6.276104e-06	2.253313e-08	4.465336e+01	1.483249e+03
1.780000e-06	6.246457e-06	2.264257e-08	4.444243e+01	1.480854e+03
1.790000e-06	6.215124e-06	2.263680e-08	4.421950e+01	1.478372e+03
1.800000e-06	6.182532e-06	2.235251e-08	4.398761e+01	1.475894e+03
1.810000e-06	6.147787e-06	2.243771e-08	4.374041e+01	1.473493e+03
1.820000e-06	6.110872e-06	2.225419e-08	4.347776e+01	1.471201e+03
1.830000e-06	6.071948e-06	2.220728e-08	4.320083e+01	1.468999e+03
1.840000e-06	6.030556e-06	2.256771e-08	4.290633e+01	1.466813e+03
1.850000e-06	5.987170e-06	2.228934e-08	4.259765e+01	1.464531e+03
1.860000e-06	5.941755e-06	2.231390e-08	4.227453e+01	1.462018e+03
1.870000e-06	5.894133e-06	2.230529e-08	4.193570e+01	1.459151e+03
1.880000e-06	5.844525e-06	2.209964e-08	4.158275e+01	1.455837e+03
1.890000e-06	5.792289e-06	2.226894e-08	4.121110e+01	1.452030e+03
1.900000e-06	5.737385e-06	2.205615e-08	4.082047e+01	1.447742e+03
1.910000e-06	5.680332e-06	2.203327e-08	4.041455e+01	1.443025e+03
1.920000e-06	5.621340e-06	2.202168e-08	3.999483e+01	1.437964e+03
1.930000e-06	5.560527e-06	2.179905e-08	3.956216e+01	1.432647e+03
1.940000e-06	5.497464e-06	2.188383e-08	3.911347e+01	1.427144e+03
1.950000e-06	5.432209e-06	2.166788e-08	3.864920e+01	1.421495e+03
1.960000e-06	5.365019e-06	2.165763e-08	3.817115e+01	1.415698e+03
1.970000e-06	5.295761e-06	2.154822e-08	3.767840e+01	1.409721e+03
1.980000e-06	5.224388e-06	2.138823e-08	3.717059e+01	1.403508e+03
1.990000e-06	5.151068e-06	2.138811e-08	3.664893e+01	1.397002e+03
2.000000e-06	5.076002e-06	2.118255e-08	3.611485e+01	1.390158e+03
2.010000e-06	4.998841e-06	2.116428e-08	3.556586e+01	1.382952e+03
2.020000e-06	4.919534e-06	2.098952e-08	3.500161e+01	1.375387e+03
2.030000e-06	4.838416e-06	2.087464e-08	3.442447e+01	1.367485e+03
2.040000e-06	4.755737e-06	2.078201e-08	3.383622e+01	1.359276e+03
2.050000e-06	4.671609e-06	2.061506e-08	3.323766e+01	1.350786e+03
2.060000e-06	4.585647e-06	2.053273e-08	3.262606e+01	1.342023e+03
2.070000e-06	4.497956e-06	2.034783e-08	3.200215e+01	1.332975e+03
2.080000e-06	4.408737e-06	2.024159e-08	3.136738e+01	1.323613e+03
2.090000e-06	4.318046e-06	2.006032e-08	3.072213e+01	1.313890e+03
2.100000e-06	4.226032e-06	1.991701e-08	3.006747e+01	1.303763e+03
2.110000e-06	4.132495e-06	1.976839e-08	2.940196e+01	1.293196e+03
2.120000e-06	4.037338e-06	1.958502e-08	2.872494e+01	1.282167e+03
2.130000e-06	3.940740e-06	1.941618e-08	2.803767e+01	1.270670e+03
2.140000e-06	3.842866e-06	1.921476e-08	2.734131e+01	1.258713e+03
2.150000e-06	3.743666e-06	1.904749e-08	2.663552e+01	1.246303e+03
2.160000e-06	3.643166e-06	1.883837e-08	2.592047e+01	1.233440e+03
2.170000e-06	3.541160e-06	1.865306e-08	2.519472e+01	1.220106e+03
2.180000e-06	3.437639e-06	1.843560e-08	2.445819e+01	1.206267e+03
2.190000e-06	3.332896e-06	1.821755e-08	2.371296e+01	1.191872e+03
2.200000e-06	3.226979e-06	1.798169e-08	2.295938e+01	1.176858e+03
2.210000e-06	3.119976e-06	1.774270e-08	2.219808e+01	1.161168e+03
2.220000e-06	3.011974e-06	1.749678e-08	2.142966e+01	1.144749e+03
2.230000e-06	2.902879e-06	1.723448e-08	2.065347e+01	1.127564e+03
2.240000e-06	2.792601e-06	1.696669e-08	1.986885e+01	1.109588e+03
2.250000e-06	2.681283e-06	1.667792e-08	1.907685e+01	1.090800e+03
2.260000e-06	2.569007e-06	1.638428e-08	1.827802e+01	1.071173e+03
2.270000e-06	2.455640e-06	1.606602e-08	1.747144e+01	1.050667e+03
2.280000e-06	2.341281e-06	1.574330e-08	1.665780e+01	1.029217e+03
2.290000e-06	2.226063e-06	1.539791e-08	1.583804e+01	1.006737e+03
2.300000e-06	2.109889e-06	1.503949e-08	1.501148e+01	9.831176e+02
2.310000e-06	1.992816e-06	1.466031e-08	1.417853e+01	9.582391e+02
2.320000e-06	1.874959e-06	1.426247e-08	1.334000e+01	9.319793e+02
2.330000e-06	1.756304e-06	1.384311e-08	1.249579e+01	9.042218e+02
2.340000e-06	1.636944e-06	1.339672e-08	1.164656e+01	8.748590e+02
2.350000e-06	1.517034e-06	1.292430e-08	1.079343e+01	8.437900e+02
2.360000e-06	1.396678e-06	1.242333e-08	9.937116e+00	8.109155e+02
2.370000e-06	1.275952e-06	1.189344e-08	9.078171e+00	7.761317e+02
2.380000e-06	1.154821e-06	1.132958e-08	8.216347e+00	7.393284e+02
2.390000e-06	1.033239e-06	1.073671e-08	7.351308e+00	7.003963e+02
2.400000e-06	9.112742e-07	1.010744e-08	6.483553e+00	6.592423e+02
2.410000e-06	7.890578e-07	9.443976e-09	5.614005e+00	6.158142e+02
2.420000e-06	6.666628e-07	8.748235e-09	4.743187e+00	5.701281e+02
2.430000e-06	5.441177e-07	8.021818e-09	3.871300e+00	5.222914e+02
2.440000e-06	4.214236e-07	7.265111e-09	2.998354e+00	4.725146e+02
2.450000e-06	2.985782e-07	6.481106e-09	2.124331e+00	4.211034e+02
2.460000e-06	1.755863e-07	5.677894e-09	1.249265e+00	3.684309e+02
2.470000e-06	5.256183e-08	4.857284e-09	3.739681e-01	3.148898e+02
2.480000e-06	-7.047381e-08	4.031150e-09	-5.014086e-01	2.608349e+02
2.490000e-06	-1.934892e-07	3.203286e-09	-1.376641e+00	2.065246e+02
2.500000e-06	-3.164581e-07	2.370239e-09	-2.251543e+00	1.520773e+02
2.510000e-06	-4.393668e-07	1.533656e-09	-3.126016e+00	9.745192e+01
2.520000e-06	-5.621363e-07	6.883919e-10	-3.999499e+00	4.246131e+01
2.530000e-06	-6.848012e-07	-1.667953e-10	-4.872238e+00	-1.318267e+01
2.540000e-06	-8.072976e-07	-1.034074e-09	-5.743778e+00	-6.979779e+01
2.550000e-06	-9.295436e-07	-1.917478e-09	-6.613537e+00	-1.276475e+02
2.560000e-06	-1.051504e-06	-2.818634e-09	-7.481262e+00	-1.868607e+02
2.570000e-06	-1.173069e-06	-3.740119e-09	-8.346177e+00	-2.473708e+02
2.580000e-06	-1.294167e-06	-4.679502e-09	-9.207768e+00	-3.088884e+02
2.590000e-06	-1.414771e-06	-5.628186e-09	-1.006584e+01	-3.709115e+02
2.600000e-06	-1.534822e-06	-6.574980e-09	-1.091998e+01	-4.327733e+02
2.610000e-06	-1.654323e-06	-7.509757e-09	-1.177021e+01	-4.937181e+02
2.620000e-06	-1.773290e-06	-8.420692e-09	-1.261664e+01	-5.529898e+02
2.630000e-06	-1.891606e-06	-9.294210e-09	-1.345844e+01	-6.099176e+02
2.640000e-06	-2.008974e-06	-1.012255e-08	-1.429349e+01	-6.639835e+02
2.650000e-06	-2.125317e-06	-1.090087e-08	-1.512125e+01	-7.148603e+02
2.660000e-06	-2.240857e-06	-1.162947e-08	-1.594330e+01	-7.624181e+02
2.670000e-06	-2.355490e-06	-1.230969e-08	-1.675889e+01	-8.067003e+02
2.680000e-06	-2.469140e-06	-1.294401e-08	-1.756749e+01	-8.478791e+02
2.690000e-06	-2.581763e-06	-1.353497e-08	-1.836878e+01	-8.862018e+02
2.700000e-06	-2.693135e-06	-1.408400e-08	-1.916118e+01	-9.219393e+02
2.710000e-06	-2.803355e-06	-1.459487e-08	-1.994537e+01	-9.553472e+02
2.720000e-06	-2.912642e-06	-1.507331e-08	-2.072293e+01	-9.866439e+02
2.730000e-06	-3.021003e-06	-1.552216e-08	-2.149389e+01	-1.016005e+03
2.740000e-06	-3.128449e-06	-1.594206e-08	-2.225836e+01	-1.043570e+03
2.750000e-06	-3.234957e-06	-1.633656e-08	-2.301614e+01	-1.069461e+03
2.760000e-06	-3.340370e-06	-1.670705e-08	-2.376614e+01	-1.093793e+03
2.770000e-06	-3.444532e-06	-1.705514e-08	-2.450723e+01	-1.116684e+03
2.780000e-06	-3.547507e-06	-1.738397e-08	-2.523988e+01	-1.138258e+03
2.790000e-06	-3.649086e-06	-1.769616e-08	-2.596260e+01	-1.158638e+03
2.800000e-06	-3.749230e-06	-1.799221e-08	-2.667511e+01	-1.177939e+03
2.810000e-06	-3.848221e-06	-1.827385e-08	-2.737941e+01	-1.196254e+03
2.820000e-06	-3.945981e-06	-1.853910e-08	-2.807495e+01	-1.213656e+03
2.830000e-06	-4.042359e-06	-1.878779e-08	-2.876066e+01	-1.230190e+03
2.840000e-06	-4.137430e-06	-1.902681e-08	-2.943708e+01	-1.245888e+03
2.850000e-06	-4.230953e-06	-1.925634e-08	-3.010248e+01	-1.260775e+03
2.860000e-06	-4.322838e-06	-1.947509e-08	-3.075622e+01	-1.274879e+03
2.870000e-06	-4.413311e-06	-1.968340e-08	-3.139992e+01	-1.288241e+03
2.880000e-06	-4.502104e-06	-1.987997e-08	-3.203167e+01	-1.300915e+03
2.890000e-06	-4.589297e-06	-2.006452e-08	-3.265203e+01	-1.312962e+03
2.900000e-06	-4.674750e-06	-2.023887e-08	-3.326001e+01	-1.324448e+03
2.910000e-06	-4.758468e-06	-2.040583e-08	-3.385565e+01	-1.335426e+03
2.920000e-06	-4.840701e-06	-2.056469e-08	-3.444073e+01	-1.345931e+03
2.930000e-06	-4.921197e-06	-2.071659e-08	-3.501344e+01	-1.355978e+03
2.940000e-06	-4.999811e-06	-2.086221e-08	-3.557276e+01	-1.365561e+03
