# Temperatura_=_55.84
# Concentracion g/m^3_=_28200.0
# C_Vs_to_Am_M_A/Vsm_=_65563218390.804596
# pendiente_HvsI_1/m_=_3716.3
# ordenada_HvsI_A/m_=_1297.0
# frecuencia_Hz_=_302119.1979405439

Tiempo_(s)	Campo_(V.s)	Magnetizacion_(V.s)	Campo_(kA/m)	Magnetizacion_(A/m)
0.000000e+00	-6.403582e-06	-2.082118e-08	-4.585840e+01	-1.364536e+03
1.000000e-08	-6.400372e-06	-2.081698e-08	-4.583541e+01	-1.364119e+03
2.000000e-08	-6.395076e-06	-2.080385e-08	-4.579748e+01	-1.363555e+03
3.000000e-08	-6.387884e-06	-2.079487e-08	-4.574598e+01	-1.362858e+03
4.000000e-08	-6.378568e-06	-2.078477e-08	-4.567927e+01	-1.362045e+03
5.000000e-08	-6.366822e-06	-2.076745e-08	-4.559515e+01	-1.361126e+03
6.000000e-08	-6.352657e-06	-2.074530e-08	-4.549371e+01	-1.360104e+03
7.000000e-08	-6.336175e-06	-2.071158e-08	-4.537568e+01	-1.358970e+03
8.000000e-08	-6.317687e-06	-2.068890e-08	-4.524328e+01	-1.357709e+03
9.000000e-08	-6.297104e-06	-2.078056e-08	-4.509587e+01	-1.356297e+03
1.000000e-07	-6.274126e-06	-2.073224e-08	-4.493132e+01	-1.354711e+03
1.100000e-07	-6.248486e-06	-2.062024e-08	-4.474770e+01	-1.352936e+03
1.200000e-07	-6.220372e-06	-2.061178e-08	-4.454637e+01	-1.350964e+03
1.300000e-07	-6.190396e-06	-2.056565e-08	-4.433170e+01	-1.348801e+03
1.400000e-07	-6.158953e-06	-2.038736e-08	-4.410653e+01	-1.346463e+03
1.500000e-07	-6.125796e-06	-2.053352e-08	-4.386907e+01	-1.343972e+03
1.600000e-07	-6.090549e-06	-2.057468e-08	-4.361666e+01	-1.341354e+03
1.700000e-07	-6.053434e-06	-2.029327e-08	-4.335086e+01	-1.338626e+03
1.800000e-07	-6.014323e-06	-2.046085e-08	-4.307078e+01	-1.335798e+03
1.900000e-07	-5.972730e-06	-2.033949e-08	-4.277291e+01	-1.332868e+03
2.000000e-07	-5.928916e-06	-2.019930e-08	-4.245914e+01	-1.329824e+03
2.100000e-07	-5.883038e-06	-2.031824e-08	-4.213060e+01	-1.326644e+03
2.200000e-07	-5.834858e-06	-2.018586e-08	-4.178556e+01	-1.323306e+03
2.300000e-07	-5.784241e-06	-2.015633e-08	-4.142307e+01	-1.319789e+03
2.400000e-07	-5.731044e-06	-2.009297e-08	-4.104211e+01	-1.316077e+03
2.500000e-07	-5.675729e-06	-1.999041e-08	-4.064598e+01	-1.312163e+03
2.600000e-07	-5.618329e-06	-1.997748e-08	-4.023492e+01	-1.308045e+03
2.700000e-07	-5.558718e-06	-1.986680e-08	-3.980802e+01	-1.303725e+03
2.800000e-07	-5.497155e-06	-1.983185e-08	-3.936714e+01	-1.299205e+03
2.900000e-07	-5.433643e-06	-1.974745e-08	-3.891231e+01	-1.294483e+03
3.000000e-07	-5.367998e-06	-1.966473e-08	-3.844220e+01	-1.289554e+03
3.100000e-07	-5.300283e-06	-1.959729e-08	-3.795727e+01	-1.284407e+03
3.200000e-07	-5.230662e-06	-1.950042e-08	-3.745869e+01	-1.279028e+03
3.300000e-07	-5.159229e-06	-1.945144e-08	-3.694713e+01	-1.273404e+03
3.400000e-07	-5.085913e-06	-1.931616e-08	-3.642209e+01	-1.267523e+03
3.500000e-07	-5.010471e-06	-1.924060e-08	-3.588182e+01	-1.261378e+03
3.600000e-07	-4.932900e-06	-1.914549e-08	-3.532631e+01	-1.254966e+03
3.700000e-07	-4.853203e-06	-1.902587e-08	-3.475557e+01	-1.248287e+03
3.800000e-07	-4.771655e-06	-1.894942e-08	-3.417157e+01	-1.241341e+03
3.900000e-07	-4.688586e-06	-1.882393e-08	-3.357668e+01	-1.234125e+03
4.000000e-07	-4.604113e-06	-1.870242e-08	-3.297174e+01	-1.226631e+03
4.100000e-07	-4.518190e-06	-1.857482e-08	-3.235642e+01	-1.218846e+03
4.200000e-07	-4.430907e-06	-1.846598e-08	-3.173135e+01	-1.210750e+03
4.300000e-07	-4.342275e-06	-1.834169e-08	-3.109663e+01	-1.202324e+03
4.400000e-07	-4.251890e-06	-1.819412e-08	-3.044935e+01	-1.193547e+03
4.500000e-07	-4.159808e-06	-1.806311e-08	-2.978991e+01	-1.184399e+03
4.600000e-07	-4.066264e-06	-1.790470e-08	-2.912001e+01	-1.174868e+03
4.700000e-07	-3.971322e-06	-1.775346e-08	-2.844010e+01	-1.164942e+03
4.800000e-07	-3.875131e-06	-1.759766e-08	-2.775123e+01	-1.154611e+03
4.900000e-07	-3.777533e-06	-1.744438e-08	-2.705230e+01	-1.143865e+03
5.000000e-07	-3.678336e-06	-1.727296e-08	-2.634191e+01	-1.132685e+03
5.100000e-07	-3.577764e-06	-1.708581e-08	-2.562168e+01	-1.121050e+03
5.200000e-07	-3.475954e-06	-1.689936e-08	-2.489258e+01	-1.108927e+03
5.300000e-07	-3.372932e-06	-1.669930e-08	-2.415480e+01	-1.096280e+03
5.400000e-07	-3.268797e-06	-1.650049e-08	-2.340905e+01	-1.083071e+03
5.500000e-07	-3.163441e-06	-1.628785e-08	-2.265456e+01	-1.069262e+03
5.600000e-07	-3.056611e-06	-1.606990e-08	-2.188952e+01	-1.054815e+03
5.700000e-07	-2.948581e-06	-1.583482e-08	-2.111587e+01	-1.039698e+03
5.800000e-07	-2.839571e-06	-1.558859e-08	-2.033521e+01	-1.023880e+03
5.900000e-07	-2.729536e-06	-1.533439e-08	-1.954721e+01	-1.007326e+03
6.000000e-07	-2.618613e-06	-1.507164e-08	-1.875285e+01	-9.899987e+02
6.100000e-07	-2.506765e-06	-1.479725e-08	-1.795186e+01	-9.718476e+02
6.200000e-07	-2.393971e-06	-1.450561e-08	-1.714411e+01	-9.528121e+02
6.300000e-07	-2.280122e-06	-1.419981e-08	-1.632879e+01	-9.328199e+02
6.400000e-07	-2.165162e-06	-1.387196e-08	-1.550552e+01	-9.117901e+02
6.500000e-07	-2.049242e-06	-1.353127e-08	-1.467538e+01	-8.896359e+02
6.600000e-07	-1.932528e-06	-1.317149e-08	-1.383954e+01	-8.662686e+02
6.700000e-07	-1.815174e-06	-1.279278e-08	-1.299913e+01	-8.415993e+02
6.800000e-07	-1.697244e-06	-1.239235e-08	-1.215459e+01	-8.155378e+02
6.900000e-07	-1.578803e-06	-1.196668e-08	-1.130639e+01	-7.879905e+02
7.000000e-07	-1.459882e-06	-1.152109e-08	-1.045475e+01	-7.588576e+02
7.100000e-07	-1.340498e-06	-1.104837e-08	-9.599799e+00	-7.280311e+02
7.200000e-07	-1.220686e-06	-1.055326e-08	-8.741780e+00	-6.953987e+02
7.300000e-07	-1.100494e-06	-1.002935e-08	-7.881039e+00	-6.608526e+02
7.400000e-07	-9.799205e-07	-9.472729e-09	-7.017570e+00	-6.243054e+02
7.500000e-07	-8.590150e-07	-8.884902e-09	-6.151722e+00	-5.857108e+02
7.600000e-07	-7.378100e-07	-8.265726e-09	-5.283729e+00	-5.450853e+02
7.700000e-07	-6.163180e-07	-7.612277e-09	-4.413680e+00	-5.025258e+02
7.800000e-07	-4.946442e-07	-6.931900e-09	-3.542328e+00	-4.582181e+02
7.900000e-07	-3.727793e-07	-6.234840e-09	-2.669609e+00	-4.124311e+02
8.000000e-07	-2.507471e-07	-5.521596e-09	-1.795692e+00	-3.654949e+02
8.100000e-07	-1.286585e-07	-4.796820e-09	-9.213709e-01	-3.177642e+02
8.200000e-07	-6.438861e-09	-4.065860e-09	-4.611104e-02	-2.695727e+02
8.300000e-07	1.158676e-07	-3.332531e-09	8.297702e-01	-2.211844e+02
8.400000e-07	2.381438e-07	-2.594649e-09	1.705435e+00	-1.727536e+02
8.500000e-07	3.603392e-07	-1.855658e-09	2.580521e+00	-1.243011e+02
8.600000e-07	4.823537e-07	-1.114663e-09	3.454312e+00	-7.571270e+01
8.700000e-07	6.041931e-07	-3.708301e-10	4.326849e+00	-2.676448e+01
8.800000e-07	7.258544e-07	3.836402e-10	5.198110e+00	2.283041e+01
8.900000e-07	8.473019e-07	1.154100e-09	6.067840e+00	7.335873e+01
9.000000e-07	9.684770e-07	1.941289e-09	6.935619e+00	1.250398e+02
9.100000e-07	1.089317e-06	2.747442e-09	7.800998e+00	1.779655e+02
9.200000e-07	1.209797e-06	3.568131e-09	8.663798e+00	2.320587e+02
9.300000e-07	1.329819e-06	4.403146e-09	9.523320e+00	2.870584e+02
9.400000e-07	1.449332e-06	5.246848e-09	1.037920e+01	3.425335e+02
9.500000e-07	1.568321e-06	6.088503e-09	1.123132e+01	3.979236e+02
9.600000e-07	1.686753e-06	6.919958e-09	1.207946e+01	4.525982e+02
9.700000e-07	1.804586e-06	7.732945e-09	1.292330e+01	5.059252e+02
9.800000e-07	1.921718e-06	8.517046e-09	1.376213e+01	5.573356e+02
9.900000e-07	2.038136e-06	9.261095e-09	1.459584e+01	6.063749e+02
1.000000e-06	2.153664e-06	9.959951e-09	1.542318e+01	6.527341e+02
1.010000e-06	2.268129e-06	1.061553e-08	1.624290e+01	6.962577e+02
1.020000e-06	2.381556e-06	1.123060e-08	1.705520e+01	7.369307e+02
1.030000e-06	2.494038e-06	1.180577e-08	1.786072e+01	7.748495e+02
1.040000e-06	2.605574e-06	1.234446e-08	1.865947e+01	8.101846e+02
1.050000e-06	2.716191e-06	1.284577e-08	1.945164e+01	8.431439e+02
1.060000e-06	2.825971e-06	1.331412e-08	2.023781e+01	8.739409e+02
1.070000e-06	2.934846e-06	1.375031e-08	2.101751e+01	9.027737e+02
1.080000e-06	3.042815e-06	1.416231e-08	2.179072e+01	9.298147e+02
1.090000e-06	3.149707e-06	1.454953e-08	2.255621e+01	9.552093e+02
1.100000e-06	3.255218e-06	1.491311e-08	2.331181e+01	9.790814e+02
1.110000e-06	3.359461e-06	1.525392e-08	2.405834e+01	1.001541e+03
1.120000e-06	3.462535e-06	1.557625e-08	2.479649e+01	1.022688e+03
1.130000e-06	3.564385e-06	1.588108e-08	2.552587e+01	1.042622e+03
1.140000e-06	3.665079e-06	1.616591e-08	2.624698e+01	1.061433e+03
1.150000e-06	3.764631e-06	1.643539e-08	2.695991e+01	1.079209e+03
1.160000e-06	3.862687e-06	1.668990e-08	2.766212e+01	1.096026e+03
1.170000e-06	3.959123e-06	1.693110e-08	2.835273e+01	1.111951e+03
1.180000e-06	4.054139e-06	1.715994e-08	2.903318e+01	1.127039e+03
1.190000e-06	4.147795e-06	1.737819e-08	2.970388e+01	1.141336e+03
1.200000e-06	4.240217e-06	1.758319e-08	3.036575e+01	1.154886e+03
1.210000e-06	4.331315e-06	1.777793e-08	3.101814e+01	1.167729e+03
1.220000e-06	4.420715e-06	1.796076e-08	3.165836e+01	1.179908e+03
1.230000e-06	4.508323e-06	1.813577e-08	3.228576e+01	1.191469e+03
1.240000e-06	4.594328e-06	1.830299e-08	3.290167e+01	1.202454e+03
1.250000e-06	4.678813e-06	1.846313e-08	3.350670e+01	1.212904e+03
1.260000e-06	4.761718e-06	1.861593e-08	3.410041e+01	1.222849e+03
1.270000e-06	4.842851e-06	1.876199e-08	3.468143e+01	1.232310e+03
1.280000e-06	4.922077e-06	1.890100e-08	3.524880e+01	1.241296e+03
1.290000e-06	4.999500e-06	1.903278e-08	3.580325e+01	1.249808e+03
1.300000e-06	5.075064e-06	1.915599e-08	3.634440e+01	1.257845e+03
1.310000e-06	5.148521e-06	1.926999e-08	3.687045e+01	1.265410e+03
1.320000e-06	5.219940e-06	1.937699e-08	3.738191e+01	1.272513e+03
1.330000e-06	5.289528e-06	1.947846e-08	3.788025e+01	1.279180e+03
1.340000e-06	5.357388e-06	1.957384e-08	3.836622e+01	1.285446e+03
1.350000e-06	5.423258e-06	1.966408e-08	3.883794e+01	1.291355e+03
1.360000e-06	5.487049e-06	1.975139e-08	3.929477e+01	1.296956e+03
1.370000e-06	5.549001e-06	1.983527e-08	3.973843e+01	1.302292e+03
1.380000e-06	5.609228e-06	1.991349e-08	4.016974e+01	1.307396e+03
1.390000e-06	5.667468e-06	1.998704e-08	4.058682e+01	1.312285e+03
1.400000e-06	5.723507e-06	2.006030e-08	4.098813e+01	1.316965e+03
1.410000e-06	5.777518e-06	2.012969e-08	4.137493e+01	1.321427e+03
1.420000e-06	5.829298e-06	2.019305e-08	4.174575e+01	1.325658e+03
1.430000e-06	5.878543e-06	2.025225e-08	4.209840e+01	1.329645e+03
1.440000e-06	5.925517e-06	2.030827e-08	4.243480e+01	1.333380e+03
1.450000e-06	5.970576e-06	2.036008e-08	4.275748e+01	1.336862e+03
1.460000e-06	6.013575e-06	2.040972e-08	4.306542e+01	1.340100e+03
1.470000e-06	6.054291e-06	2.046026e-08	4.335700e+01	1.343106e+03
1.480000e-06	6.092894e-06	2.050809e-08	4.363345e+01	1.345897e+03
1.490000e-06	6.129603e-06	2.054857e-08	4.389634e+01	1.348484e+03
1.500000e-06	6.164096e-06	2.058317e-08	4.414336e+01	1.350875e+03
1.510000e-06	6.196245e-06	2.061412e-08	4.437358e+01	1.353071e+03
1.520000e-06	6.226225e-06	2.064147e-08	4.458829e+01	1.355067e+03
1.530000e-06	6.254167e-06	2.066715e-08	4.478838e+01	1.356857e+03
1.540000e-06	6.279821e-06	2.069117e-08	4.497211e+01	1.358440e+03
1.550000e-06	6.302974e-06	2.071370e-08	4.513791e+01	1.359816e+03
1.560000e-06	6.323964e-06	2.073309e-08	4.528823e+01	1.360995e+03
1.570000e-06	6.342932e-06	2.075053e-08	4.542407e+01	1.361992e+03
1.580000e-06	6.359597e-06	2.076671e-08	4.554341e+01	1.362824e+03
1.590000e-06	6.373762e-06	2.077876e-08	4.564485e+01	1.363507e+03
1.600000e-06	6.385413e-06	2.078695e-08	4.572828e+01	1.364054e+03
1.610000e-06	6.394544e-06	2.079444e-08	4.579368e+01	1.364468e+03
1.620000e-06	6.401295e-06	2.080074e-08	4.584202e+01	1.364747e+03
1.630000e-06	6.405953e-06	2.080385e-08	4.587538e+01	1.364882e+03
1.640000e-06	6.408357e-06	2.080422e-08	4.589260e+01	1.364864e+03
1.650000e-06	6.408332e-06	2.080835e-08	4.589242e+01	1.364685e+03
1.660000e-06	6.406161e-06	2.079616e-08	4.587687e+01	1.364347e+03
1.670000e-06	6.402060e-06	2.079075e-08	4.584750e+01	1.363854e+03
1.680000e-06	6.395745e-06	2.078560e-08	4.580228e+01	1.363222e+03
1.690000e-06	6.387188e-06	2.077523e-08	4.574100e+01	1.362465e+03
1.700000e-06	6.376680e-06	2.076559e-08	4.566574e+01	1.361598e+03
1.710000e-06	6.363922e-06	2.075498e-08	4.557438e+01	1.360628e+03
1.720000e-06	6.348905e-06	2.076914e-08	4.546684e+01	1.359552e+03
1.730000e-06	6.331938e-06	2.073559e-08	4.534534e+01	1.358357e+03
1.740000e-06	6.312961e-06	2.058031e-08	4.520943e+01	1.357023e+03
1.750000e-06	6.291074e-06	2.061411e-08	4.505269e+01	1.355527e+03
1.760000e-06	6.265904e-06	2.065247e-08	4.487244e+01	1.353848e+03
1.770000e-06	6.238484e-06	2.056859e-08	4.467607e+01	1.351975e+03
1.780000e-06	6.209189e-06	2.071841e-08	4.446628e+01	1.349906e+03
1.790000e-06	6.178194e-06	2.066238e-08	4.424432e+01	1.347652e+03
1.800000e-06	6.145873e-06	2.036101e-08	4.401285e+01	1.345235e+03
1.810000e-06	6.111529e-06	2.053683e-08	4.376690e+01	1.342678e+03
1.820000e-06	6.075181e-06	2.039864e-08	4.350660e+01	1.340002e+03
1.830000e-06	6.036771e-06	2.033530e-08	4.323153e+01	1.337224e+03
1.840000e-06	5.995852e-06	2.055402e-08	4.293850e+01	1.334347e+03
1.850000e-06	5.952974e-06	2.018261e-08	4.263143e+01	1.331362e+03
1.860000e-06	5.908048e-06	2.024678e-08	4.230970e+01	1.328253e+03
1.870000e-06	5.860948e-06	2.022571e-08	4.197240e+01	1.324997e+03
1.880000e-06	5.811825e-06	2.003181e-08	4.162061e+01	1.321571e+03
1.890000e-06	5.760097e-06	2.020276e-08	4.125017e+01	1.317958e+03
1.900000e-06	5.705726e-06	1.996455e-08	4.086080e+01	1.314146e+03
1.910000e-06	5.649178e-06	1.999312e-08	4.045584e+01	1.310130e+03
1.920000e-06	5.590646e-06	1.999098e-08	4.003667e+01	1.305910e+03
1.930000e-06	5.530374e-06	1.976242e-08	3.960504e+01	1.301490e+03
1.940000e-06	5.467933e-06	1.984822e-08	3.915788e+01	1.296869e+03
1.950000e-06	5.403251e-06	1.963669e-08	3.869466e+01	1.292045e+03
1.960000e-06	5.336657e-06	1.965776e-08	3.821776e+01	1.287008e+03
1.970000e-06	5.268076e-06	1.954630e-08	3.772663e+01	1.281747e+03
1.980000e-06	5.197356e-06	1.941686e-08	3.722017e+01	1.276248e+03
1.990000e-06	5.124570e-06	1.944793e-08	3.669893e+01	1.270496e+03
2.000000e-06	5.050157e-06	1.924471e-08	3.616603e+01	1.264484e+03
2.010000e-06	4.973679e-06	1.923655e-08	3.561834e+01	1.258206e+03
2.020000e-06	4.894986e-06	1.905399e-08	3.505479e+01	1.251660e+03
2.030000e-06	4.814568e-06	1.897016e-08	3.447889e+01	1.244848e+03
2.040000e-06	4.732556e-06	1.890297e-08	3.389157e+01	1.237767e+03
2.050000e-06	4.649060e-06	1.874840e-08	3.329362e+01	1.230413e+03
2.060000e-06	4.563912e-06	1.868384e-08	3.268385e+01	1.222776e+03
2.070000e-06	4.476959e-06	1.851278e-08	3.206115e+01	1.214838e+03
2.080000e-06	4.388393e-06	1.843028e-08	3.142690e+01	1.206580e+03
2.090000e-06	4.298372e-06	1.826082e-08	3.078222e+01	1.197981e+03
2.100000e-06	4.206959e-06	1.813975e-08	3.012758e+01	1.189020e+03
2.110000e-06	4.114214e-06	1.801423e-08	2.946340e+01	1.179682e+03
2.120000e-06	4.019906e-06	1.785192e-08	2.878802e+01	1.169955e+03
2.130000e-06	3.924034e-06	1.770343e-08	2.810145e+01	1.159828e+03
2.140000e-06	3.826797e-06	1.751888e-08	2.740510e+01	1.149291e+03
2.150000e-06	3.728191e-06	1.737965e-08	2.669894e+01	1.138330e+03
2.160000e-06	3.628405e-06	1.719510e-08	2.598434e+01	1.126926e+03
2.170000e-06	3.527344e-06	1.703279e-08	2.526061e+01	1.115051e+03
2.180000e-06	3.424681e-06	1.683597e-08	2.452540e+01	1.102671e+03
2.190000e-06	3.320579e-06	1.664128e-08	2.377989e+01	1.089749e+03
2.200000e-06	3.215364e-06	1.642818e-08	2.302640e+01	1.076244e+03
2.210000e-06	3.109069e-06	1.621503e-08	2.226518e+01	1.062120e+03
2.220000e-06	3.001724e-06	1.599884e-08	2.149645e+01	1.047342e+03
2.230000e-06	2.893396e-06	1.576470e-08	2.072067e+01	1.031878e+03
2.240000e-06	2.784108e-06	1.552342e-08	1.993802e+01	1.015697e+03
2.250000e-06	2.673706e-06	1.525841e-08	1.914739e+01	9.987621e+02
2.260000e-06	2.562221e-06	1.499247e-08	1.834901e+01	9.810296e+02
2.270000e-06	2.449821e-06	1.470536e-08	1.754407e+01	9.624447e+02
2.280000e-06	2.336346e-06	1.441571e-08	1.673143e+01	9.429405e+02
2.290000e-06	2.221902e-06	1.410207e-08	1.591185e+01	9.224401e+02
2.300000e-06	2.106683e-06	1.377601e-08	1.508673e+01	9.008590e+02
2.310000e-06	1.990633e-06	1.342917e-08	1.425565e+01	8.781094e+02
2.320000e-06	1.873820e-06	1.306661e-08	1.341911e+01	8.541023e+02
2.330000e-06	1.756257e-06	1.268505e-08	1.257720e+01	8.287483e+02
2.340000e-06	1.637883e-06	1.228116e-08	1.172948e+01	8.019559e+02
2.350000e-06	1.518748e-06	1.185437e-08	1.087631e+01	7.736288e+02
2.360000e-06	1.399048e-06	1.139778e-08	1.001910e+01	7.436630e+02
2.370000e-06	1.278940e-06	1.091538e-08	9.158960e+00	7.119476e+02
2.380000e-06	1.158461e-06	1.039953e-08	8.296164e+00	6.783710e+02
2.390000e-06	1.037686e-06	9.855888e-09	7.431252e+00	6.428332e+02
2.400000e-06	9.166524e-07	9.279428e-09	6.564484e+00	6.052647e+02
2.410000e-06	7.953185e-07	8.676550e-09	5.695567e+00	5.656479e+02
2.420000e-06	6.737802e-07	8.045022e-09	4.825187e+00	5.240378e+02
2.430000e-06	5.519968e-07	7.382980e-09	3.953052e+00	4.805754e+02
2.440000e-06	4.299692e-07	6.695111e-09	3.079167e+00	4.354900e+02
2.450000e-06	3.078383e-07	5.985847e-09	2.204543e+00	3.890845e+02
2.460000e-06	1.855451e-07	5.262686e-09	1.328756e+00	3.417069e+02
2.470000e-06	6.316004e-08	4.527995e-09	4.523122e-01	2.937074e+02
2.480000e-06	-5.925924e-08	3.790516e-09	-4.243771e-01	2.453905e+02
2.490000e-06	-1.816317e-07	3.050768e-09	-1.300731e+00	1.969697e+02
2.500000e-06	-3.039400e-07	2.308643e-09	-2.176626e+00	1.485342e+02
2.510000e-06	-4.261841e-07	1.565643e-09	-3.052061e+00	1.000357e+02
2.520000e-06	-5.482738e-07	8.179867e-10	-3.926390e+00	5.130071e+01
2.530000e-06	-6.702284e-07	6.410616e-11	-4.799752e+00	2.066590e+00
2.540000e-06	-7.919561e-07	-7.001751e-10	-5.671488e+00	-4.796183e+01
2.550000e-06	-9.133684e-07	-1.479654e-09	-6.540967e+00	-9.904585e+01
2.560000e-06	-1.034495e-06	-2.275764e-09	-7.408402e+00	-1.513476e+02
2.570000e-06	-1.155345e-06	-3.090819e-09	-8.273846e+00	-2.048782e+02
2.580000e-06	-1.275848e-06	-3.925135e-09	-9.136818e+00	-2.594685e+02
2.590000e-06	-1.395966e-06	-4.772538e-09	-9.997025e+00	-3.147691e+02
2.600000e-06	-1.515600e-06	-5.623916e-09	-1.085377e+01	-3.702777e+02
2.610000e-06	-1.634547e-06	-6.469428e-09	-1.170559e+01	-4.253906e+02
2.620000e-06	-1.752663e-06	-7.298934e-09	-1.255146e+01	-4.794679e+02
2.630000e-06	-1.869970e-06	-8.101973e-09	-1.339154e+01	-5.319016e+02
2.640000e-06	-1.986498e-06	-8.872728e-09	-1.422604e+01	-5.821746e+02
2.650000e-06	-2.102197e-06	-9.603855e-09	-1.505461e+01	-6.299027e+02
2.660000e-06	-2.217041e-06	-1.029117e-08	-1.587705e+01	-6.748543e+02
2.670000e-06	-2.330925e-06	-1.093537e-08	-1.669261e+01	-7.169467e+02
2.680000e-06	-2.443705e-06	-1.153879e-08	-1.750027e+01	-7.562250e+02
2.690000e-06	-2.555384e-06	-1.210260e-08	-1.830005e+01	-7.928275e+02
2.700000e-06	-2.666075e-06	-1.262707e-08	-1.909274e+01	-8.269477e+02
2.710000e-06	-2.775729e-06	-1.311482e-08	-1.987801e+01	-8.587998e+02
2.720000e-06	-2.884444e-06	-1.357266e-08	-2.065657e+01	-8.885914e+02
2.730000e-06	-2.992348e-06	-1.400098e-08	-2.142930e+01	-9.165085e+02
2.740000e-06	-3.099326e-06	-1.440090e-08	-2.219541e+01	-9.427096e+02
2.750000e-06	-3.205300e-06	-1.477803e-08	-2.295433e+01	-9.673285e+02
2.760000e-06	-3.310134e-06	-1.512954e-08	-2.370509e+01	-9.904811e+02
2.770000e-06	-3.413780e-06	-1.545923e-08	-2.444734e+01	-1.012272e+03
2.780000e-06	-3.516075e-06	-1.577094e-08	-2.517990e+01	-1.032801e+03
2.790000e-06	-3.617030e-06	-1.606722e-08	-2.590288e+01	-1.052162e+03
2.800000e-06	-3.716780e-06	-1.634954e-08	-2.661722e+01	-1.070445e+03
2.810000e-06	-3.815265e-06	-1.661586e-08	-2.732252e+01	-1.087733e+03
2.820000e-06	-3.912467e-06	-1.686779e-08	-2.801861e+01	-1.104097e+03
2.830000e-06	-4.008389e-06	-1.710623e-08	-2.870555e+01	-1.119597e+03
2.840000e-06	-4.102911e-06	-1.733327e-08	-2.938245e+01	-1.134284e+03
2.850000e-06	-4.195876e-06	-1.754979e-08	-3.004821e+01	-1.148202e+03
2.860000e-06	-4.287358e-06	-1.775205e-08	-3.070335e+01	-1.161393e+03
2.870000e-06	-4.377322e-06	-1.794008e-08	-3.134761e+01	-1.173899e+03
2.880000e-06	-4.465798e-06	-1.811751e-08	-3.198122e+01	-1.185763e+03
2.890000e-06	-4.552650e-06	-1.828865e-08	-3.260320e+01	-1.197031e+03
2.900000e-06	-4.637726e-06	-1.845291e-08	-3.321246e+01	-1.207744e+03
2.910000e-06	-4.721109e-06	-1.860936e-08	-3.380960e+01	-1.217938e+03
2.920000e-06	-4.802849e-06	-1.875901e-08	-3.439496e+01	-1.227639e+03
2.930000e-06	-4.883042e-06	-1.890135e-08	-3.496926e+01	-1.236862e+03
2.940000e-06	-4.961324e-06	-1.903576e-08	-3.552987e+01	-1.245611e+03
