# Temperatura_=_50.22
# Concentracion g/m^3_=_28200.0
# C_Vs_to_Am_M_A/Vsm_=_65563218390.804596
# pendiente_HvsI_1/m_=_3716.3
# ordenada_HvsI_A/m_=_1297.0
# frecuencia_Hz_=_302120.1194870094

Tiempo_(s)	Campo_(V.s)	Magnetizacion_(V.s)	Campo_(kA/m)	Magnetizacion_(A/m)
0.000000e+00	-6.403540e-06	-2.059718e-08	-4.585671e+01	-1.348769e+03
1.000000e-08	-6.400322e-06	-2.059607e-08	-4.583367e+01	-1.348372e+03
2.000000e-08	-6.395026e-06	-2.058585e-08	-4.579575e+01	-1.347847e+03
3.000000e-08	-6.387844e-06	-2.057769e-08	-4.574431e+01	-1.347201e+03
4.000000e-08	-6.378508e-06	-2.056748e-08	-4.567746e+01	-1.346437e+03
5.000000e-08	-6.366756e-06	-2.055045e-08	-4.559330e+01	-1.345556e+03
6.000000e-08	-6.352623e-06	-2.052957e-08	-4.549209e+01	-1.344553e+03
7.000000e-08	-6.336093e-06	-2.049676e-08	-4.537372e+01	-1.343424e+03
8.000000e-08	-6.317566e-06	-2.047712e-08	-4.524104e+01	-1.342164e+03
9.000000e-08	-6.296999e-06	-2.054019e-08	-4.509376e+01	-1.340772e+03
1.000000e-07	-6.273939e-06	-2.050723e-08	-4.492862e+01	-1.339256e+03
1.100000e-07	-6.248210e-06	-2.042306e-08	-4.474437e+01	-1.337628e+03
1.200000e-07	-6.220145e-06	-2.041315e-08	-4.454340e+01	-1.335905e+03
1.300000e-07	-6.190220e-06	-2.037462e-08	-4.432910e+01	-1.334105e+03
1.400000e-07	-6.158800e-06	-2.023320e-08	-4.410409e+01	-1.332240e+03
1.500000e-07	-6.125668e-06	-2.031568e-08	-4.386683e+01	-1.330313e+03
1.600000e-07	-6.090402e-06	-2.035139e-08	-4.361429e+01	-1.328314e+03
1.700000e-07	-6.053242e-06	-2.014432e-08	-4.334818e+01	-1.326218e+03
1.800000e-07	-6.014085e-06	-2.025508e-08	-4.306777e+01	-1.323990e+03
1.900000e-07	-5.972470e-06	-2.017854e-08	-4.276975e+01	-1.321586e+03
2.000000e-07	-5.928678e-06	-2.005359e-08	-4.245615e+01	-1.318965e+03
2.100000e-07	-5.882881e-06	-2.013796e-08	-4.212820e+01	-1.316094e+03
2.200000e-07	-5.834781e-06	-2.003085e-08	-4.178375e+01	-1.312953e+03
2.300000e-07	-5.784176e-06	-1.997518e-08	-4.142135e+01	-1.309540e+03
2.400000e-07	-5.731025e-06	-1.991381e-08	-4.104073e+01	-1.305867e+03
2.500000e-07	-5.675728e-06	-1.982047e-08	-4.064474e+01	-1.301958e+03
2.600000e-07	-5.618233e-06	-1.980591e-08	-4.023301e+01	-1.297841e+03
2.700000e-07	-5.558593e-06	-1.972040e-08	-3.980592e+01	-1.293542e+03
2.800000e-07	-5.497082e-06	-1.966258e-08	-3.936543e+01	-1.289077e+03
2.900000e-07	-5.433674e-06	-1.957334e-08	-3.891136e+01	-1.284448e+03
3.000000e-07	-5.368129e-06	-1.948649e-08	-3.844198e+01	-1.279647e+03
3.100000e-07	-5.300419e-06	-1.942469e-08	-3.795710e+01	-1.274653e+03
3.200000e-07	-5.230730e-06	-1.934270e-08	-3.745804e+01	-1.269441e+03
3.300000e-07	-5.159238e-06	-1.929241e-08	-3.694608e+01	-1.263987e+03
3.400000e-07	-5.085900e-06	-1.917396e-08	-3.642090e+01	-1.258273e+03
3.500000e-07	-5.010432e-06	-1.908398e-08	-3.588045e+01	-1.252285e+03
3.600000e-07	-4.932822e-06	-1.898973e-08	-3.532468e+01	-1.246020e+03
3.700000e-07	-4.853138e-06	-1.887730e-08	-3.475405e+01	-1.239477e+03
3.800000e-07	-4.771671e-06	-1.879988e-08	-3.417065e+01	-1.232657e+03
3.900000e-07	-4.688672e-06	-1.868280e-08	-3.357629e+01	-1.225557e+03
4.000000e-07	-4.604229e-06	-1.856110e-08	-3.297157e+01	-1.218171e+03
4.100000e-07	-4.518317e-06	-1.843501e-08	-3.235635e+01	-1.210486e+03
4.200000e-07	-4.430988e-06	-1.832141e-08	-3.173097e+01	-1.202483e+03
4.300000e-07	-4.342181e-06	-1.819809e-08	-3.109501e+01	-1.194143e+03
4.400000e-07	-4.251731e-06	-1.805591e-08	-3.044729e+01	-1.185451e+03
4.500000e-07	-4.159682e-06	-1.792680e-08	-2.978811e+01	-1.176391e+03
4.600000e-07	-4.066137e-06	-1.777543e-08	-2.911822e+01	-1.166955e+03
4.700000e-07	-3.971300e-06	-1.762580e-08	-2.843908e+01	-1.157137e+03
4.800000e-07	-3.875103e-06	-1.747445e-08	-2.775020e+01	-1.146930e+03
4.900000e-07	-3.777336e-06	-1.732101e-08	-2.705007e+01	-1.136322e+03
5.000000e-07	-3.678116e-06	-1.714983e-08	-2.633955e+01	-1.125293e+03
5.100000e-07	-3.577544e-06	-1.696558e-08	-2.561933e+01	-1.113817e+03
5.200000e-07	-3.475703e-06	-1.678034e-08	-2.489003e+01	-1.101858e+03
5.300000e-07	-3.372781e-06	-1.658251e-08	-2.415299e+01	-1.089374e+03
5.400000e-07	-3.268717e-06	-1.638504e-08	-2.340777e+01	-1.076325e+03
5.500000e-07	-3.163287e-06	-1.617800e-08	-2.265277e+01	-1.062671e+03
5.600000e-07	-3.056509e-06	-1.596288e-08	-2.188812e+01	-1.048378e+03
5.700000e-07	-2.948537e-06	-1.573102e-08	-2.111492e+01	-1.033418e+03
5.800000e-07	-2.839527e-06	-1.548945e-08	-2.033428e+01	-1.017762e+03
5.900000e-07	-2.729541e-06	-1.524176e-08	-1.954665e+01	-1.001380e+03
6.000000e-07	-2.618678e-06	-1.498057e-08	-1.875275e+01	-9.842338e+02
6.100000e-07	-2.506920e-06	-1.470439e-08	-1.795243e+01	-9.662730e+02
6.200000e-07	-2.394060e-06	-1.441528e-08	-1.714422e+01	-9.474335e+02
6.300000e-07	-2.280115e-06	-1.411211e-08	-1.632825e+01	-9.276387e+02
6.400000e-07	-2.165174e-06	-1.378888e-08	-1.550514e+01	-9.068033e+02
6.500000e-07	-2.049286e-06	-1.345206e-08	-1.467524e+01	-8.848381e+02
6.600000e-07	-1.932651e-06	-1.309743e-08	-1.384000e+01	-8.616546e+02
6.700000e-07	-1.815375e-06	-1.272217e-08	-1.300017e+01	-8.371665e+02
6.800000e-07	-1.697476e-06	-1.232361e-08	-1.215588e+01	-8.112893e+02
6.900000e-07	-1.579020e-06	-1.190083e-08	-1.130760e+01	-7.839367e+02
7.000000e-07	-1.460158e-06	-1.145876e-08	-1.045641e+01	-7.550158e+02
7.100000e-07	-1.340984e-06	-1.099109e-08	-9.602989e+00	-7.244251e+02
7.200000e-07	-1.221324e-06	-1.049678e-08	-8.746088e+00	-6.920561e+02
7.300000e-07	-1.101154e-06	-9.975775e-09	-7.885532e+00	-6.578026e+02
7.400000e-07	-9.805586e-07	-9.423618e-09	-7.021927e+00	-6.215761e+02
7.500000e-07	-8.595218e-07	-8.842313e-09	-6.155165e+00	-5.833278e+02
7.600000e-07	-7.381547e-07	-8.230585e-09	-5.286037e+00	-5.430712e+02
7.700000e-07	-6.165163e-07	-7.585345e-09	-4.414966e+00	-5.009013e+02
7.800000e-07	-4.946418e-07	-6.914840e-09	-3.542204e+00	-4.570035e+02
7.900000e-07	-3.726678e-07	-6.224535e-09	-2.668730e+00	-4.116488e+02
8.000000e-07	-2.505650e-07	-5.516630e-09	-1.794334e+00	-3.651716e+02
8.100000e-07	-1.283136e-07	-4.796021e-09	-9.188727e-01	-3.179337e+02
8.200000e-07	-5.960766e-09	-4.070054e-09	-4.268594e-02	-2.702765e+02
8.300000e-07	1.164404e-07	-3.344378e-09	8.338469e-01	-2.224726e+02
8.400000e-07	2.388319e-07	-2.618137e-09	1.710311e+00	-1.746838e+02
8.500000e-07	3.611135e-07	-1.893713e-09	2.585988e+00	-1.269363e+02
8.600000e-07	4.832855e-07	-1.166182e-09	3.460880e+00	-7.911881e+01
8.700000e-07	6.053584e-07	-4.330144e-10	4.335063e+00	-3.100561e+01
8.800000e-07	7.272346e-07	3.081182e-10	5.207837e+00	1.769655e+01
8.900000e-07	8.488596e-07	1.062945e-09	6.078812e+00	6.728636e+01
9.000000e-07	9.701710e-07	1.834719e-09	6.947541e+00	1.180004e+02
9.100000e-07	1.091125e-06	2.627540e-09	7.813710e+00	1.699525e+02
9.200000e-07	1.211590e-06	3.438390e-09	8.676382e+00	2.230910e+02
9.300000e-07	1.331466e-06	4.261956e-09	9.534827e+00	2.771816e+02
9.400000e-07	1.450789e-06	5.091366e-09	1.038932e+01	3.318183e+02
9.500000e-07	1.569657e-06	5.918971e-09	1.124055e+01	3.864619e+02
9.600000e-07	1.688097e-06	6.739033e-09	1.208872e+01	4.404967e+02
9.700000e-07	1.805970e-06	7.543184e-09	1.293282e+01	4.932968e+02
9.800000e-07	1.923122e-06	8.318426e-09	1.377177e+01	5.442909e+02
9.900000e-07	2.039508e-06	9.055535e-09	1.460523e+01	5.930142e+02
1.000000e-06	2.155104e-06	9.752577e-09	1.543302e+01	6.391419e+02
1.010000e-06	2.269701e-06	1.040852e-08	1.625367e+01	6.824993e+02
1.020000e-06	2.383263e-06	1.102332e-08	1.706691e+01	7.230528e+02
1.030000e-06	2.495779e-06	1.159872e-08	1.787265e+01	7.608827e+02
1.040000e-06	2.607187e-06	1.213524e-08	1.867046e+01	7.961486e+02
1.050000e-06	2.717688e-06	1.263240e-08	1.946177e+01	8.290523e+02
1.060000e-06	2.827356e-06	1.309617e-08	2.024712e+01	8.598055e+02
1.070000e-06	2.936175e-06	1.353332e-08	2.102639e+01	8.886073e+02
1.080000e-06	3.044056e-06	1.394747e-08	2.179895e+01	9.156310e+02
1.090000e-06	3.150801e-06	1.433664e-08	2.256336e+01	9.410214e+02
1.100000e-06	3.256336e-06	1.470137e-08	2.331911e+01	9.648988e+02
1.110000e-06	3.360565e-06	1.504362e-08	2.406551e+01	9.873660e+02
1.120000e-06	3.463527e-06	1.536671e-08	2.480284e+01	1.008516e+03
1.130000e-06	3.565298e-06	1.566849e-08	2.553164e+01	1.028439e+03
1.140000e-06	3.665945e-06	1.595142e-08	2.625239e+01	1.047221e+03
1.150000e-06	3.765508e-06	1.621987e-08	2.696537e+01	1.064946e+03
1.160000e-06	3.863627e-06	1.647264e-08	2.766802e+01	1.081697e+03
1.170000e-06	3.960097e-06	1.671128e-08	2.835885e+01	1.097545e+03
1.180000e-06	4.055102e-06	1.693953e-08	2.903920e+01	1.112556e+03
1.190000e-06	4.148723e-06	1.715552e-08	2.970963e+01	1.126788e+03
1.200000e-06	4.241040e-06	1.736007e-08	3.037073e+01	1.140290e+03
1.210000e-06	4.332011e-06	1.755522e-08	3.102218e+01	1.153103e+03
1.220000e-06	4.421363e-06	1.773827e-08	3.166205e+01	1.165269e+03
1.230000e-06	4.509002e-06	1.791289e-08	3.228964e+01	1.176822e+03
1.240000e-06	4.594976e-06	1.807863e-08	3.290532e+01	1.187795e+03
1.250000e-06	4.679425e-06	1.823850e-08	3.351007e+01	1.198216e+03
1.260000e-06	4.762366e-06	1.839092e-08	3.410402e+01	1.208107e+03
1.270000e-06	4.843539e-06	1.853624e-08	3.468531e+01	1.217486e+03
1.280000e-06	4.922792e-06	1.867402e-08	3.525285e+01	1.226366e+03
1.290000e-06	5.000231e-06	1.880334e-08	3.580741e+01	1.234758e+03
1.300000e-06	5.075809e-06	1.892362e-08	3.634863e+01	1.242672e+03
1.310000e-06	5.149309e-06	1.903532e-08	3.687497e+01	1.250126e+03
1.320000e-06	5.220782e-06	1.914087e-08	3.738681e+01	1.257140e+03
1.330000e-06	5.290409e-06	1.924073e-08	3.788542e+01	1.263744e+03
1.340000e-06	5.358307e-06	1.933579e-08	3.837165e+01	1.269976e+03
1.350000e-06	5.424246e-06	1.942629e-08	3.884384e+01	1.275873e+03
1.360000e-06	5.488071e-06	1.951206e-08	3.930090e+01	1.281476e+03
1.370000e-06	5.549995e-06	1.959295e-08	3.974435e+01	1.286817e+03
1.380000e-06	5.610113e-06	1.966989e-08	4.017486e+01	1.291920e+03
1.390000e-06	5.668215e-06	1.974444e-08	4.059094e+01	1.296802e+03
1.400000e-06	5.724224e-06	1.981777e-08	4.099203e+01	1.301466e+03
1.410000e-06	5.778253e-06	1.988612e-08	4.137894e+01	1.305910e+03
1.420000e-06	5.830032e-06	1.994959e-08	4.174974e+01	1.310126e+03
1.430000e-06	5.879259e-06	2.000943e-08	4.210226e+01	1.314107e+03
1.440000e-06	5.926213e-06	2.006505e-08	4.243851e+01	1.317848e+03
1.450000e-06	5.971248e-06	2.011753e-08	4.276100e+01	1.321349e+03
1.460000e-06	6.014286e-06	2.016728e-08	4.306921e+01	1.324612e+03
1.470000e-06	6.055045e-06	2.021564e-08	4.336109e+01	1.327645e+03
1.480000e-06	6.093556e-06	2.026096e-08	4.363687e+01	1.330454e+03
1.490000e-06	6.130116e-06	2.030051e-08	4.389868e+01	1.333046e+03
1.500000e-06	6.164555e-06	2.033493e-08	4.414530e+01	1.335425e+03
1.510000e-06	6.196697e-06	2.036461e-08	4.437548e+01	1.337594e+03
1.520000e-06	6.226647e-06	2.039408e-08	4.458995e+01	1.339554e+03
1.530000e-06	6.254595e-06	2.042255e-08	4.479009e+01	1.341307e+03
1.540000e-06	6.280231e-06	2.044593e-08	4.497368e+01	1.342857e+03
1.550000e-06	6.303378e-06	2.046463e-08	4.513944e+01	1.344212e+03
1.560000e-06	6.324404e-06	2.048079e-08	4.529001e+01	1.345382e+03
1.570000e-06	6.343393e-06	2.049719e-08	4.542600e+01	1.346378e+03
1.580000e-06	6.360011e-06	2.051203e-08	4.554499e+01	1.347213e+03
1.590000e-06	6.374139e-06	2.052397e-08	4.564617e+01	1.347894e+03
1.600000e-06	6.385834e-06	2.053295e-08	4.572992e+01	1.348427e+03
1.610000e-06	6.394955e-06	2.053960e-08	4.579523e+01	1.348816e+03
1.620000e-06	6.401682e-06	2.054425e-08	4.584341e+01	1.349060e+03
1.630000e-06	6.406265e-06	2.054730e-08	4.587623e+01	1.349157e+03
1.640000e-06	6.408551e-06	2.054876e-08	4.589260e+01	1.349109e+03
1.650000e-06	6.408482e-06	2.055051e-08	4.589210e+01	1.348917e+03
1.660000e-06	6.406309e-06	2.053916e-08	4.587655e+01	1.348587e+03
1.670000e-06	6.402211e-06	2.053081e-08	4.584720e+01	1.348125e+03
1.680000e-06	6.395817e-06	2.052485e-08	4.580141e+01	1.347539e+03
1.690000e-06	6.387140e-06	2.051616e-08	4.573927e+01	1.346834e+03
1.700000e-06	6.376568e-06	2.050740e-08	4.566356e+01	1.346011e+03
1.710000e-06	6.363909e-06	2.049668e-08	4.557291e+01	1.345070e+03
1.720000e-06	6.348991e-06	2.050192e-08	4.546608e+01	1.344005e+03
1.730000e-06	6.331974e-06	2.047101e-08	4.534422e+01	1.342810e+03
1.740000e-06	6.312863e-06	2.034706e-08	4.520736e+01	1.341484e+03
1.750000e-06	6.290846e-06	2.036202e-08	4.504970e+01	1.340029e+03
1.760000e-06	6.265627e-06	2.039420e-08	4.486910e+01	1.338455e+03
1.770000e-06	6.238118e-06	2.033504e-08	4.467210e+01	1.336778e+03
1.780000e-06	6.208842e-06	2.042015e-08	4.446245e+01	1.335014e+03
1.790000e-06	6.177924e-06	2.039315e-08	4.424104e+01	1.333180e+03
1.800000e-06	6.145599e-06	2.017541e-08	4.400956e+01	1.331284e+03
1.810000e-06	6.111249e-06	2.028652e-08	4.376357e+01	1.329324e+03
1.820000e-06	6.074853e-06	2.021928e-08	4.350294e+01	1.327280e+03
1.830000e-06	6.036445e-06	2.015704e-08	4.322789e+01	1.325123e+03
1.840000e-06	5.995566e-06	2.032416e-08	4.293515e+01	1.322813e+03
1.850000e-06	5.952642e-06	2.006642e-08	4.262777e+01	1.320305e+03
1.860000e-06	5.907722e-06	2.006505e-08	4.230609e+01	1.317563e+03
1.870000e-06	5.860604e-06	2.006912e-08	4.196867e+01	1.314558e+03
1.880000e-06	5.811389e-06	1.991499e-08	4.161623e+01	1.311280e+03
1.890000e-06	5.759750e-06	2.003324e-08	4.124643e+01	1.307734e+03
1.900000e-06	5.705560e-06	1.986193e-08	4.085838e+01	1.303940e+03
1.910000e-06	5.649109e-06	1.981588e-08	4.045412e+01	1.299924e+03
1.920000e-06	5.590571e-06	1.982385e-08	4.003492e+01	1.295713e+03
1.930000e-06	5.530260e-06	1.965054e-08	3.960303e+01	1.291330e+03
1.940000e-06	5.467851e-06	1.969114e-08	3.915610e+01	1.286783e+03
1.950000e-06	5.403192e-06	1.953741e-08	3.869307e+01	1.282070e+03
1.960000e-06	5.336537e-06	1.951345e-08	3.821575e+01	1.277175e+03
1.970000e-06	5.267955e-06	1.942325e-08	3.772462e+01	1.272075e+03
1.980000e-06	5.197293e-06	1.928737e-08	3.721860e+01	1.266746e+03
1.990000e-06	5.124533e-06	1.929261e-08	3.669755e+01	1.261164e+03
2.000000e-06	5.050098e-06	1.913477e-08	3.616451e+01	1.255314e+03
2.010000e-06	4.973664e-06	1.909717e-08	3.561715e+01	1.249187e+03
2.020000e-06	4.895039e-06	1.895598e-08	3.505411e+01	1.242783e+03
2.030000e-06	4.814601e-06	1.884798e-08	3.447808e+01	1.236101e+03
2.040000e-06	4.732504e-06	1.877885e-08	3.389018e+01	1.229142e+03
2.050000e-06	4.648930e-06	1.863533e-08	3.329169e+01	1.221901e+03
2.060000e-06	4.563659e-06	1.856170e-08	3.268105e+01	1.214367e+03
2.070000e-06	4.476651e-06	1.841305e-08	3.205797e+01	1.206525e+03
2.080000e-06	4.388122e-06	1.831168e-08	3.142400e+01	1.198356e+03
2.090000e-06	4.298031e-06	1.816176e-08	3.077885e+01	1.189842e+03
2.100000e-06	4.206592e-06	1.802917e-08	3.012404e+01	1.180967e+03
2.110000e-06	4.113784e-06	1.790193e-08	2.945942e+01	1.171721e+03
2.120000e-06	4.019382e-06	1.773807e-08	2.878340e+01	1.162095e+03
2.130000e-06	3.923430e-06	1.759127e-08	2.809627e+01	1.152083e+03
2.140000e-06	3.826098e-06	1.741766e-08	2.739926e+01	1.141677e+03
2.150000e-06	3.727495e-06	1.727192e-08	2.669315e+01	1.130861e+03
2.160000e-06	3.627732e-06	1.709590e-08	2.597874e+01	1.119613e+03
2.170000e-06	3.526534e-06	1.693053e-08	2.525404e+01	1.107900e+03
2.180000e-06	3.423874e-06	1.674271e-08	2.451888e+01	1.095684e+03
2.190000e-06	3.319937e-06	1.654640e-08	2.377457e+01	1.082923e+03
2.200000e-06	3.214770e-06	1.633981e-08	2.302145e+01	1.069576e+03
2.210000e-06	3.108467e-06	1.612701e-08	2.226020e+01	1.055606e+03
2.220000e-06	3.001132e-06	1.590894e-08	2.149156e+01	1.040983e+03
2.230000e-06	2.892835e-06	1.567198e-08	2.071603e+01	1.025678e+03
2.240000e-06	2.783453e-06	1.543242e-08	1.993273e+01	1.009664e+03
2.250000e-06	2.673042e-06	1.517756e-08	1.914206e+01	9.929052e+02
2.260000e-06	2.561560e-06	1.491540e-08	1.834372e+01	9.753589e+02
2.270000e-06	2.448993e-06	1.463250e-08	1.753761e+01	9.569677e+02
2.280000e-06	2.335498e-06	1.434098e-08	1.672486e+01	9.376607e+02
2.290000e-06	2.221101e-06	1.402836e-08	1.590564e+01	9.173566e+02
2.300000e-06	2.105855e-06	1.370168e-08	1.508034e+01	8.959675e+02
2.310000e-06	1.989874e-06	1.336034e-08	1.424979e+01	8.734041e+02
2.320000e-06	1.873000e-06	1.300574e-08	1.341284e+01	8.495789e+02
2.330000e-06	1.755297e-06	1.262943e-08	1.256994e+01	8.244068e+02
2.340000e-06	1.636951e-06	1.222465e-08	1.172245e+01	7.978030e+02
2.350000e-06	1.518013e-06	1.179524e-08	1.087072e+01	7.696784e+02
2.360000e-06	1.398549e-06	1.134059e-08	1.001522e+01	7.399358e+02
2.370000e-06	1.278561e-06	1.086367e-08	9.155966e+00	7.084697e+02
2.380000e-06	1.158127e-06	1.035585e-08	8.293520e+00	6.751711e+02
2.390000e-06	1.037358e-06	9.819212e-09	7.428677e+00	6.399402e+02
2.400000e-06	9.163323e-07	9.248849e-09	6.561993e+00	6.027055e+02
2.410000e-06	7.950089e-07	8.647737e-09	5.693179e+00	5.634467e+02
2.420000e-06	6.733976e-07	8.019344e-09	4.822302e+00	5.222160e+02
2.430000e-06	5.516118e-07	7.363575e-09	3.950175e+00	4.791533e+02
2.440000e-06	4.296234e-07	6.681723e-09	3.076598e+00	4.344885e+02
2.450000e-06	3.074576e-07	5.978245e-09	2.201750e+00	3.885280e+02
2.460000e-06	1.851832e-07	5.261874e-09	1.326125e+00	3.416254e+02
2.470000e-06	6.277109e-08	4.536935e-09	4.495132e-01	2.941383e+02
2.480000e-06	-5.974397e-08	3.808960e-09	-4.278356e-01	2.463798e+02
2.490000e-06	-1.821808e-07	3.079337e-09	-1.304624e+00	1.985713e+02
2.500000e-06	-3.045025e-07	2.347939e-09	-2.180588e+00	1.508088e+02
2.510000e-06	-4.267911e-07	1.615969e-09	-3.056316e+00	1.030482e+02
2.520000e-06	-5.489809e-07	8.799548e-10	-3.931335e+00	5.511659e+01
2.530000e-06	-6.710173e-07	1.385792e-10	-4.805256e+00	6.747487e+00
2.540000e-06	-7.928070e-07	-6.118346e-10	-5.677411e+00	-4.236349e+01
2.550000e-06	-9.143167e-07	-1.377536e-09	-6.547560e+00	-9.249224e+01
2.560000e-06	-1.035559e-06	-2.159776e-09	-7.415793e+00	-1.438207e+02
2.570000e-06	-1.156491e-06	-2.959413e-09	-8.281808e+00	-1.963838e+02
2.580000e-06	-1.277030e-06	-3.775379e-09	-9.145005e+00	-2.500390e+02
2.590000e-06	-1.397042e-06	-4.606701e-09	-1.000443e+01	-3.044628e+02
2.600000e-06	-1.516433e-06	-5.448076e-09	-1.085940e+01	-3.591767e+02
2.610000e-06	-1.635264e-06	-6.285185e-09	-1.171037e+01	-4.135951e+02
2.620000e-06	-1.753505e-06	-7.107111e-09	-1.255711e+01	-4.670887e+02
2.630000e-06	-1.870955e-06	-7.904098e-09	-1.339819e+01	-5.190516e+02
2.640000e-06	-1.987456e-06	-8.669172e-09	-1.423247e+01	-5.689602e+02
2.650000e-06	-2.103063e-06	-9.395198e-09	-1.506035e+01	-6.164169e+02
2.660000e-06	-2.217827e-06	-1.007922e-08	-1.588219e+01	-6.611720e+02
2.670000e-06	-2.331580e-06	-1.072281e-08	-1.669679e+01	-7.031238e+02
2.680000e-06	-2.444345e-06	-1.132558e-08	-1.750432e+01	-7.422996e+02
2.690000e-06	-2.556117e-06	-1.188884e-08	-1.830474e+01	-7.788241e+02
2.700000e-06	-2.666758e-06	-1.241162e-08	-1.909706e+01	-8.128824e+02
2.710000e-06	-2.776400e-06	-1.289796e-08	-1.988222e+01	-8.446848e+02
2.720000e-06	-2.885201e-06	-1.335540e-08	-2.066136e+01	-8.744389e+02
2.730000e-06	-2.993115e-06	-1.378170e-08	-2.143415e+01	-9.023317e+02
2.740000e-06	-3.100089e-06	-1.418014e-08	-2.220021e+01	-9.285224e+02
2.750000e-06	-3.205998e-06	-1.455577e-08	-2.295863e+01	-9.531425e+02
2.760000e-06	-3.310806e-06	-1.490730e-08	-2.370918e+01	-9.763027e+02
2.770000e-06	-3.414451e-06	-1.523913e-08	-2.445140e+01	-9.981002e+02
2.780000e-06	-3.516804e-06	-1.555246e-08	-2.518436e+01	-1.018626e+03
2.790000e-06	-3.617843e-06	-1.585073e-08	-2.590792e+01	-1.037967e+03
2.800000e-06	-3.717599e-06	-1.613250e-08	-2.662229e+01	-1.056210e+03
2.810000e-06	-3.816055e-06	-1.639697e-08	-2.732735e+01	-1.073439e+03
2.820000e-06	-3.913259e-06	-1.664624e-08	-2.802343e+01	-1.089729e+03
2.830000e-06	-4.009200e-06	-1.688268e-08	-2.871048e+01	-1.105151e+03
2.840000e-06	-4.103637e-06	-1.710919e-08	-2.938676e+01	-1.119767e+03
2.850000e-06	-4.196593e-06	-1.732413e-08	-3.005243e+01	-1.133627e+03
2.860000e-06	-4.288135e-06	-1.752816e-08	-3.070798e+01	-1.146780e+03
2.870000e-06	-4.378188e-06	-1.772013e-08	-3.135286e+01	-1.159265e+03
2.880000e-06	-4.466697e-06	-1.789920e-08	-3.198669e+01	-1.171120e+03
2.890000e-06	-4.553488e-06	-1.806797e-08	-3.260821e+01	-1.182379e+03
2.900000e-06	-4.638529e-06	-1.822939e-08	-3.321721e+01	-1.193073e+03
2.910000e-06	-4.721994e-06	-1.838373e-08	-3.381491e+01	-1.203226e+03
2.920000e-06	-4.803840e-06	-1.853200e-08	-3.440102e+01	-1.212860e+03
2.930000e-06	-4.883959e-06	-1.867334e-08	-3.497476e+01	-1.221988e+03
2.940000e-06	-4.962134e-06	-1.880625e-08	-3.553459e+01	-1.230622e+03
