# Temperatura_=_70.47
# Concentracion g/m^3_=_28200.0
# C_Vs_to_Am_M_A/Vsm_=_65563218390.804596
# pendiente_HvsI_1/m_=_3716.3
# ordenada_HvsI_A/m_=_1297.0
# frecuencia_Hz_=_302115.16573374363

Tiempo_(s)	Campo_(V.s)	Magnetizacion_(V.s)	Campo_(kA/m)	Magnetizacion_(A/m)
0.000000e+00	-6.387196e-06	-2.213105e-08	-4.585826e+01	-1.448915e+03
1.000000e-08	-6.383739e-06	-2.213034e-08	-4.583344e+01	-1.448403e+03
2.000000e-08	-6.378214e-06	-2.211925e-08	-4.579377e+01	-1.447760e+03
3.000000e-08	-6.370764e-06	-2.210754e-08	-4.574029e+01	-1.447012e+03
4.000000e-08	-6.361208e-06	-2.209246e-08	-4.567167e+01	-1.446171e+03
5.000000e-08	-6.349331e-06	-2.207169e-08	-4.558640e+01	-1.445229e+03
6.000000e-08	-6.335049e-06	-2.204944e-08	-4.548386e+01	-1.444160e+03
7.000000e-08	-6.318403e-06	-2.201607e-08	-4.536434e+01	-1.442921e+03
8.000000e-08	-6.299726e-06	-2.199853e-08	-4.523025e+01	-1.441469e+03
9.000000e-08	-6.279003e-06	-2.204751e-08	-4.508147e+01	-1.439772e+03
1.000000e-07	-6.255840e-06	-2.200941e-08	-4.491516e+01	-1.437824e+03
1.100000e-07	-6.229952e-06	-2.192964e-08	-4.472929e+01	-1.435648e+03
1.200000e-07	-6.201765e-06	-2.191574e-08	-4.452692e+01	-1.433296e+03
1.300000e-07	-6.171795e-06	-2.187107e-08	-4.431174e+01	-1.430843e+03
1.400000e-07	-6.140251e-06	-2.174026e-08	-4.408527e+01	-1.428365e+03
1.500000e-07	-6.106960e-06	-2.181208e-08	-4.384625e+01	-1.425924e+03
1.600000e-07	-6.071567e-06	-2.183519e-08	-4.359213e+01	-1.423552e+03
1.700000e-07	-6.034356e-06	-2.164806e-08	-4.332497e+01	-1.421236e+03
1.800000e-07	-5.995125e-06	-2.174808e-08	-4.304330e+01	-1.418925e+03
1.900000e-07	-5.953375e-06	-2.166737e-08	-4.274355e+01	-1.416528e+03
2.000000e-07	-5.909443e-06	-2.152141e-08	-4.242813e+01	-1.413942e+03
2.100000e-07	-5.863484e-06	-2.156619e-08	-4.209816e+01	-1.411066e+03
2.200000e-07	-5.815291e-06	-2.146032e-08	-4.175215e+01	-1.407824e+03
2.300000e-07	-5.764585e-06	-2.140809e-08	-4.138809e+01	-1.404176e+03
2.400000e-07	-5.711312e-06	-2.135026e-08	-4.100561e+01	-1.400126e+03
2.500000e-07	-5.655870e-06	-2.126039e-08	-4.060754e+01	-1.395713e+03
2.600000e-07	-5.598301e-06	-2.122976e-08	-4.019422e+01	-1.391000e+03
2.700000e-07	-5.538588e-06	-2.113159e-08	-3.976550e+01	-1.386055e+03
2.800000e-07	-5.476926e-06	-2.106449e-08	-3.932278e+01	-1.380930e+03
2.900000e-07	-5.413319e-06	-2.097458e-08	-3.886610e+01	-1.375655e+03
3.000000e-07	-5.347614e-06	-2.087864e-08	-3.839435e+01	-1.370226e+03
3.100000e-07	-5.279851e-06	-2.080616e-08	-3.790784e+01	-1.364614e+03
3.200000e-07	-5.210168e-06	-2.071306e-08	-3.740753e+01	-1.358771e+03
3.300000e-07	-5.138690e-06	-2.063950e-08	-3.689434e+01	-1.352648e+03
3.400000e-07	-5.065472e-06	-2.050877e-08	-3.636865e+01	-1.346207e+03
3.500000e-07	-4.990114e-06	-2.040963e-08	-3.582761e+01	-1.339429e+03
3.600000e-07	-4.912572e-06	-2.030561e-08	-3.527088e+01	-1.332314e+03
3.700000e-07	-4.833047e-06	-2.018236e-08	-3.469991e+01	-1.324883e+03
3.800000e-07	-4.751592e-06	-2.009003e-08	-3.411509e+01	-1.317162e+03
3.900000e-07	-4.668524e-06	-1.995632e-08	-3.351868e+01	-1.309171e+03
4.000000e-07	-4.584061e-06	-1.982184e-08	-3.291226e+01	-1.300918e+03
4.100000e-07	-4.498201e-06	-1.968745e-08	-3.229581e+01	-1.292391e+03
4.200000e-07	-4.410905e-06	-1.955709e-08	-3.166905e+01	-1.283558e+03
4.300000e-07	-4.322163e-06	-1.941802e-08	-3.103191e+01	-1.274380e+03
4.400000e-07	-4.231832e-06	-1.926695e-08	-3.038336e+01	-1.264813e+03
4.500000e-07	-4.139852e-06	-1.912377e-08	-2.972297e+01	-1.254822e+03
4.600000e-07	-4.046394e-06	-1.895654e-08	-2.905196e+01	-1.244386e+03
4.700000e-07	-3.951626e-06	-1.879154e-08	-2.837156e+01	-1.233502e+03
4.800000e-07	-3.855516e-06	-1.862259e-08	-2.768151e+01	-1.222176e+03
4.900000e-07	-3.757994e-06	-1.844966e-08	-2.698133e+01	-1.210420e+03
5.000000e-07	-3.658930e-06	-1.825915e-08	-2.627008e+01	-1.198236e+03
5.100000e-07	-3.558467e-06	-1.805973e-08	-2.554879e+01	-1.185615e+03
5.200000e-07	-3.456824e-06	-1.785976e-08	-2.481902e+01	-1.172526e+03
5.300000e-07	-3.353953e-06	-1.764502e-08	-2.408044e+01	-1.158922e+03
5.400000e-07	-3.249831e-06	-1.742819e-08	-2.333286e+01	-1.144744e+03
5.500000e-07	-3.144537e-06	-1.720305e-08	-2.257689e+01	-1.129932e+03
5.600000e-07	-3.037950e-06	-1.697156e-08	-2.181162e+01	-1.114430e+03
5.700000e-07	-2.930045e-06	-1.672236e-08	-2.103689e+01	-1.098196e+03
5.800000e-07	-2.821129e-06	-1.646033e-08	-2.025491e+01	-1.081202e+03
5.900000e-07	-2.711254e-06	-1.618733e-08	-1.946604e+01	-1.063426e+03
6.000000e-07	-2.600444e-06	-1.590228e-08	-1.867045e+01	-1.044847e+03
6.100000e-07	-2.488725e-06	-1.560511e-08	-1.786834e+01	-1.025431e+03
6.200000e-07	-2.376062e-06	-1.529482e-08	-1.705945e+01	-1.005128e+03
6.300000e-07	-2.262461e-06	-1.496895e-08	-1.624383e+01	-9.838629e+02
6.400000e-07	-2.147825e-06	-1.462377e-08	-1.542077e+01	-9.615393e+02
6.500000e-07	-2.032163e-06	-1.426315e-08	-1.459036e+01	-9.380462e+02
6.600000e-07	-1.915713e-06	-1.388230e-08	-1.375428e+01	-9.132663e+02
6.700000e-07	-1.798657e-06	-1.348063e-08	-1.291385e+01	-8.870844e+02
6.800000e-07	-1.681020e-06	-1.305768e-08	-1.206925e+01	-8.593933e+02
6.900000e-07	-1.562756e-06	-1.261085e-08	-1.122014e+01	-8.300943e+02
7.000000e-07	-1.443962e-06	-1.213712e-08	-1.036724e+01	-7.990944e+02
7.100000e-07	-1.324771e-06	-1.163437e-08	-9.511484e+00	-7.663006e+02
7.200000e-07	-1.205143e-06	-1.110396e-08	-8.652588e+00	-7.316171e+02
7.300000e-07	-1.085027e-06	-1.054462e-08	-7.790188e+00	-6.949478e+02
7.400000e-07	-9.645938e-07	-9.954132e-09	-6.925511e+00	-6.562066e+02
7.500000e-07	-8.438949e-07	-9.331444e-09	-6.058927e+00	-6.153358e+02
7.600000e-07	-7.229072e-07	-8.676897e-09	-5.190269e+00	-5.723298e+02
7.700000e-07	-6.016926e-07	-7.986448e-09	-4.319982e+00	-5.272575e+02
7.800000e-07	-4.802665e-07	-7.266994e-09	-3.448178e+00	-4.802777e+02
7.900000e-07	-3.587128e-07	-6.525620e-09	-2.575457e+00	-4.316401e+02
8.000000e-07	-2.370290e-07	-5.765172e-09	-1.701801e+00	-3.816684e+02
8.100000e-07	-1.152548e-07	-4.988004e-09	-8.274972e-01	-3.307255e+02
8.200000e-07	6.568729e-09	-4.203569e-09	4.716161e-02	-2.791644e+02
8.300000e-07	1.284750e-07	-3.416562e-09	9.224142e-01	-2.272754e+02
8.400000e-07	2.503559e-07	-2.623713e-09	1.797485e+00	-1.752385e+02
8.500000e-07	3.721567e-07	-1.828509e-09	2.671980e+00	-1.230938e+02
8.600000e-07	4.938560e-07	-1.028024e-09	3.545747e+00	-7.073792e+01
8.700000e-07	6.153921e-07	-2.216101e-10	4.418341e+00	-1.794926e+01
8.800000e-07	7.367725e-07	5.937814e-10	5.289818e+00	3.555991e+01
8.900000e-07	8.579764e-07	1.422820e-09	6.160028e+00	9.007309e+01
9.000000e-07	9.789198e-07	2.269482e-09	7.028368e+00	1.457942e+02
9.100000e-07	1.099506e-06	3.136055e-09	7.894144e+00	2.027815e+02
9.200000e-07	1.219674e-06	4.020725e-09	8.756912e+00	2.609042e+02
9.300000e-07	1.339338e-06	4.918429e-09	9.616069e+00	3.198301e+02
9.400000e-07	1.458516e-06	5.818410e-09	1.047174e+01	3.790478e+02
9.500000e-07	1.577220e-06	6.711798e-09	1.132399e+01	4.379180e+02
9.600000e-07	1.695293e-06	7.591330e-09	1.217172e+01	4.957452e+02
9.700000e-07	1.812736e-06	8.445396e-09	1.301493e+01	5.518560e+02
9.800000e-07	1.929533e-06	9.264596e-09	1.385350e+01	6.056699e+02
9.900000e-07	2.045559e-06	1.003769e-08	1.468653e+01	6.567516e+02
1.000000e-06	2.160649e-06	1.075973e-08	1.551285e+01	7.048367e+02
1.010000e-06	2.274681e-06	1.143785e-08	1.633156e+01	7.498306e+02
1.020000e-06	2.387761e-06	1.207458e-08	1.714345e+01	7.917842e+02
1.030000e-06	2.499900e-06	1.267079e-08	1.794857e+01	8.308546e+02
1.040000e-06	2.611028e-06	1.322631e-08	1.874644e+01	8.672597e+02
1.050000e-06	2.721222e-06	1.374223e-08	1.953760e+01	9.012373e+02
1.060000e-06	2.830559e-06	1.422224e-08	2.032261e+01	9.330146e+02
1.070000e-06	2.939076e-06	1.467215e-08	2.110174e+01	9.627909e+02
1.080000e-06	3.046673e-06	1.509697e-08	2.187425e+01	9.907336e+02
1.090000e-06	3.153038e-06	1.549738e-08	2.263792e+01	1.016983e+03
1.100000e-06	3.258090e-06	1.587564e-08	2.339216e+01	1.041663e+03
1.110000e-06	3.361935e-06	1.623105e-08	2.413774e+01	1.064887e+03
1.120000e-06	3.464537e-06	1.656638e-08	2.487440e+01	1.086769e+03
1.130000e-06	3.565970e-06	1.688045e-08	2.560265e+01	1.107417e+03
1.140000e-06	3.666341e-06	1.717678e-08	2.632329e+01	1.126935e+03
1.150000e-06	3.765431e-06	1.745635e-08	2.703473e+01	1.145417e+03
1.160000e-06	3.862984e-06	1.771996e-08	2.773514e+01	1.162941e+03
1.170000e-06	3.959046e-06	1.797143e-08	2.842483e+01	1.179567e+03
1.180000e-06	4.053742e-06	1.821054e-08	2.910472e+01	1.195343e+03
1.190000e-06	4.147103e-06	1.843714e-08	2.977502e+01	1.210308e+03
1.200000e-06	4.239197e-06	1.865125e-08	3.043624e+01	1.224498e+03
1.210000e-06	4.329795e-06	1.885424e-08	3.108670e+01	1.237955e+03
1.220000e-06	4.418613e-06	1.904697e-08	3.172439e+01	1.250726e+03
1.230000e-06	4.505767e-06	1.923182e-08	3.235014e+01	1.262863e+03
1.240000e-06	4.591397e-06	1.940779e-08	3.296493e+01	1.274421e+03
1.250000e-06	4.675575e-06	1.957588e-08	3.356931e+01	1.285447e+03
1.260000e-06	4.758118e-06	1.973527e-08	3.416194e+01	1.295975e+03
1.270000e-06	4.838858e-06	1.988721e-08	3.474163e+01	1.306027e+03
1.280000e-06	4.917772e-06	2.003378e-08	3.530821e+01	1.315607e+03
1.290000e-06	4.994858e-06	2.017466e-08	3.586167e+01	1.324709e+03
1.300000e-06	5.070077e-06	2.030731e-08	3.640172e+01	1.333324e+03
1.310000e-06	5.143205e-06	2.043217e-08	3.692676e+01	1.341449e+03
1.320000e-06	5.214297e-06	2.055045e-08	3.743718e+01	1.349090e+03
1.330000e-06	5.283600e-06	2.065972e-08	3.793475e+01	1.356271e+03
1.340000e-06	5.351133e-06	2.076063e-08	3.841962e+01	1.363027e+03
1.350000e-06	5.416613e-06	2.085670e-08	3.888975e+01	1.369404e+03
1.360000e-06	5.480082e-06	2.094965e-08	3.934544e+01	1.375448e+03
1.370000e-06	5.541754e-06	2.103746e-08	3.978822e+01	1.381200e+03
1.380000e-06	5.601602e-06	2.112107e-08	4.021792e+01	1.386690e+03
1.390000e-06	5.659454e-06	2.120183e-08	4.063328e+01	1.391934e+03
1.400000e-06	5.715151e-06	2.127910e-08	4.103317e+01	1.396938e+03
1.410000e-06	5.768795e-06	2.135149e-08	4.141832e+01	1.401698e+03
1.420000e-06	5.820095e-06	2.141930e-08	4.178664e+01	1.406210e+03
1.430000e-06	5.868874e-06	2.148451e-08	4.213685e+01	1.410472e+03
1.440000e-06	5.915461e-06	2.154469e-08	4.247133e+01	1.414489e+03
1.450000e-06	5.960222e-06	2.159961e-08	4.279271e+01	1.418270e+03
1.460000e-06	6.003021e-06	2.165255e-08	4.309999e+01	1.421827e+03
1.470000e-06	6.043451e-06	2.170520e-08	4.339027e+01	1.425168e+03
1.480000e-06	6.081658e-06	2.175395e-08	4.366458e+01	1.428298e+03
1.490000e-06	6.117933e-06	2.179766e-08	4.392503e+01	1.431210e+03
1.500000e-06	6.152078e-06	2.183733e-08	4.417018e+01	1.433895e+03
1.510000e-06	6.183929e-06	2.187233e-08	4.439886e+01	1.436339e+03
1.520000e-06	6.213693e-06	2.190367e-08	4.461256e+01	1.438531e+03
1.530000e-06	6.241388e-06	2.193144e-08	4.481140e+01	1.440468e+03
1.540000e-06	6.266603e-06	2.195520e-08	4.499244e+01	1.442160e+03
1.550000e-06	6.289362e-06	2.197556e-08	4.515584e+01	1.443627e+03
1.560000e-06	6.310054e-06	2.199446e-08	4.530440e+01	1.444895e+03
1.570000e-06	6.328700e-06	2.201353e-08	4.543828e+01	1.445993e+03
1.580000e-06	6.344997e-06	2.203250e-08	4.555529e+01	1.446944e+03
1.590000e-06	6.358858e-06	2.204635e-08	4.565480e+01	1.447757e+03
1.600000e-06	6.370294e-06	2.205481e-08	4.573691e+01	1.448429e+03
1.610000e-06	6.379107e-06	2.206082e-08	4.580018e+01	1.448945e+03
1.620000e-06	6.385534e-06	2.206550e-08	4.584633e+01	1.449285e+03
1.630000e-06	6.389887e-06	2.207008e-08	4.587758e+01	1.449429e+03
1.640000e-06	6.391979e-06	2.207296e-08	4.589260e+01	1.449369e+03
1.650000e-06	6.391681e-06	2.207382e-08	4.589046e+01	1.449112e+03
1.660000e-06	6.389310e-06	2.206330e-08	4.587344e+01	1.448677e+03
1.670000e-06	6.384987e-06	2.205230e-08	4.584240e+01	1.448096e+03
1.680000e-06	6.378375e-06	2.204230e-08	4.579493e+01	1.447398e+03
1.690000e-06	6.369573e-06	2.203172e-08	4.573173e+01	1.446603e+03
1.700000e-06	6.358881e-06	2.202289e-08	4.565496e+01	1.445714e+03
1.710000e-06	6.346073e-06	2.201415e-08	4.556301e+01	1.444713e+03
1.720000e-06	6.330966e-06	2.201571e-08	4.545454e+01	1.443564e+03
1.730000e-06	6.313778e-06	2.197735e-08	4.533114e+01	1.442224e+03
1.740000e-06	6.294455e-06	2.185679e-08	4.519240e+01	1.440652e+03
1.750000e-06	6.272212e-06	2.186183e-08	4.503271e+01	1.438829e+03
1.760000e-06	6.246847e-06	2.188488e-08	4.485060e+01	1.436762e+03
1.770000e-06	6.219263e-06	2.183537e-08	4.465255e+01	1.434490e+03
1.780000e-06	6.189871e-06	2.189629e-08	4.444153e+01	1.432077e+03
1.790000e-06	6.158900e-06	2.185086e-08	4.421916e+01	1.429602e+03
1.800000e-06	6.126517e-06	2.160896e-08	4.398666e+01	1.427137e+03
1.810000e-06	6.091990e-06	2.165330e-08	4.373876e+01	1.424729e+03
1.820000e-06	6.055439e-06	2.159497e-08	4.347634e+01	1.422389e+03
1.830000e-06	6.016948e-06	2.154207e-08	4.319998e+01	1.420085e+03
1.840000e-06	5.976024e-06	2.173182e-08	4.290616e+01	1.417743e+03
1.850000e-06	5.932963e-06	2.155998e-08	4.259699e+01	1.415265e+03
1.860000e-06	5.887874e-06	2.153823e-08	4.227327e+01	1.412546e+03
1.870000e-06	5.840666e-06	2.152350e-08	4.193433e+01	1.409494e+03
1.880000e-06	5.791363e-06	2.136273e-08	4.158035e+01	1.406051e+03
1.890000e-06	5.739557e-06	2.143951e-08	4.120839e+01	1.402200e+03
1.900000e-06	5.685217e-06	2.128703e-08	4.081825e+01	1.397961e+03
1.910000e-06	5.628747e-06	2.123818e-08	4.041281e+01	1.393390e+03
1.920000e-06	5.570280e-06	2.124787e-08	3.999304e+01	1.388553e+03
1.930000e-06	5.509948e-06	2.106855e-08	3.955987e+01	1.383512e+03
1.940000e-06	5.447396e-06	2.107829e-08	3.911077e+01	1.378311e+03
1.950000e-06	5.382673e-06	2.092378e-08	3.864607e+01	1.372961e+03
1.960000e-06	5.316038e-06	2.086880e-08	3.816765e+01	1.367446e+03
1.970000e-06	5.247449e-06	2.079196e-08	3.767520e+01	1.361724e+03
1.980000e-06	5.176727e-06	2.065149e-08	3.716743e+01	1.355747e+03
1.990000e-06	5.103902e-06	2.063244e-08	3.664457e+01	1.349469e+03
2.000000e-06	5.029398e-06	2.047234e-08	3.610965e+01	1.342861e+03
2.010000e-06	4.952927e-06	2.040555e-08	3.556061e+01	1.335912e+03
2.020000e-06	4.874307e-06	2.026639e-08	3.499615e+01	1.328637e+03
2.030000e-06	4.793880e-06	2.014526e-08	3.441870e+01	1.321057e+03
2.040000e-06	4.711891e-06	2.006982e-08	3.383004e+01	1.313199e+03
2.050000e-06	4.628366e-06	1.991448e-08	3.323036e+01	1.305078e+03
2.060000e-06	4.543206e-06	1.981952e-08	3.261894e+01	1.296690e+03
2.070000e-06	4.456322e-06	1.965858e-08	3.199513e+01	1.288015e+03
2.080000e-06	4.367794e-06	1.953380e-08	3.135953e+01	1.279015e+03
2.090000e-06	4.277816e-06	1.937675e-08	3.071351e+01	1.269648e+03
2.100000e-06	4.186401e-06	1.922626e-08	3.005718e+01	1.259872e+03
2.110000e-06	4.093600e-06	1.908801e-08	2.939089e+01	1.249660e+03
2.120000e-06	3.999430e-06	1.891067e-08	2.871478e+01	1.239000e+03
2.130000e-06	3.903712e-06	1.875039e-08	2.802755e+01	1.227894e+03
2.140000e-06	3.806563e-06	1.856458e-08	2.733005e+01	1.216351e+03
2.150000e-06	3.708132e-06	1.839677e-08	2.662334e+01	1.204382e+03
2.160000e-06	3.608335e-06	1.820200e-08	2.590682e+01	1.191982e+03
2.170000e-06	3.507194e-06	1.801476e-08	2.518066e+01	1.179132e+03
2.180000e-06	3.404708e-06	1.781143e-08	2.444484e+01	1.165792e+03
2.190000e-06	3.300807e-06	1.759723e-08	2.369886e+01	1.151909e+03
2.200000e-06	3.195753e-06	1.737329e-08	2.294461e+01	1.137421e+03
2.210000e-06	3.089715e-06	1.713915e-08	2.218328e+01	1.122270e+03
2.220000e-06	2.982541e-06	1.690064e-08	2.141380e+01	1.106407e+03
2.230000e-06	2.874287e-06	1.664816e-08	2.063657e+01	1.089796e+03
2.240000e-06	2.765143e-06	1.639436e-08	1.985294e+01	1.072413e+03
2.250000e-06	2.655014e-06	1.611899e-08	1.906225e+01	1.054239e+03
2.260000e-06	2.543750e-06	1.583084e-08	1.826340e+01	1.035246e+03
2.270000e-06	2.431480e-06	1.552355e-08	1.745734e+01	1.015395e+03
2.280000e-06	2.318222e-06	1.520738e-08	1.664418e+01	9.946214e+02
2.290000e-06	2.204015e-06	1.487395e-08	1.582421e+01	9.728401e+02
2.300000e-06	2.088989e-06	1.452665e-08	1.499835e+01	9.499462e+02
2.310000e-06	1.973131e-06	1.416316e-08	1.416652e+01	9.258244e+02
2.320000e-06	1.856452e-06	1.378055e-08	1.332880e+01	9.003575e+02
2.330000e-06	1.739089e-06	1.337445e-08	1.248617e+01	8.734338e+02
2.340000e-06	1.621137e-06	1.293929e-08	1.163931e+01	8.449507e+02
2.350000e-06	1.502527e-06	1.248032e-08	1.078772e+01	8.148128e+02
2.360000e-06	1.383285e-06	1.199589e-08	9.931597e+00	7.829277e+02
2.370000e-06	1.263461e-06	1.148437e-08	9.071295e+00	7.492011e+02
2.380000e-06	1.143171e-06	1.093794e-08	8.207643e+00	7.135365e+02
2.390000e-06	1.022566e-06	1.036060e-08	7.341734e+00	6.758407e+02
2.400000e-06	9.016916e-07	9.752007e-09	6.473891e+00	6.360393e+02
2.410000e-06	7.805779e-07	9.113890e-09	5.604329e+00	5.940974e+02
2.420000e-06	6.592318e-07	8.444190e-09	4.733098e+00	5.500443e+02
2.430000e-06	5.377135e-07	7.743560e-09	3.860631e+00	5.039925e+02
2.440000e-06	4.160509e-07	7.016524e-09	2.987128e+00	4.561473e+02
2.450000e-06	2.942605e-07	6.264088e-09	2.112707e+00	4.067987e+02
2.460000e-06	1.723257e-07	5.491583e-09	1.237250e+00	3.562954e+02
2.470000e-06	5.028997e-08	4.704931e-09	3.610678e-01	3.050020e+02
2.480000e-06	-7.171276e-08	3.914118e-09	-5.148773e-01	2.532466e+02
2.490000e-06	-1.936989e-07	3.120961e-09	-1.390703e+00	2.012695e+02
2.500000e-06	-3.156922e-07	2.325357e-09	-2.266581e+00	1.491828e+02
2.510000e-06	-4.375965e-07	1.529662e-09	-3.141819e+00	9.695383e+01
2.520000e-06	-5.593411e-07	7.283360e-10	-4.015911e+00	4.441489e+01
2.530000e-06	-6.809000e-07	-8.259660e-11	-4.888670e+00	-8.696549e+00
2.540000e-06	-8.022979e-07	-9.060375e-10	-5.760272e+00	-6.267553e+01
2.550000e-06	-9.234858e-07	-1.750499e-09	-6.630367e+00	-1.177749e+02
2.560000e-06	-1.044399e-06	-2.612654e-09	-7.498488e+00	-1.741330e+02
2.570000e-06	-1.165033e-06	-3.491094e-09	-8.364607e+00	-2.317170e+02
2.580000e-06	-1.285270e-06	-4.385259e-09	-9.227872e+00	-2.902950e+02
2.590000e-06	-1.404989e-06	-5.288766e-09	-1.008743e+01	-3.494402e+02
2.600000e-06	-1.524127e-06	-6.194959e-09	-1.094280e+01	-4.085694e+02
2.610000e-06	-1.642598e-06	-7.089742e-09	-1.179339e+01	-4.670055e+02
2.620000e-06	-1.760351e-06	-7.965456e-09	-1.263882e+01	-5.240543e+02
2.630000e-06	-1.877300e-06	-8.810392e-09	-1.347848e+01	-5.790811e+02
2.640000e-06	-1.993398e-06	-9.615792e-09	-1.431203e+01	-6.315730e+02
2.650000e-06	-2.108704e-06	-1.037553e-08	-1.513990e+01	-6.811784e+02
2.660000e-06	-2.223134e-06	-1.108828e-08	-1.596147e+01	-7.277198e+02
2.670000e-06	-2.336573e-06	-1.175500e-08	-1.677593e+01	-7.711796e+02
2.680000e-06	-2.448944e-06	-1.237765e-08	-1.758273e+01	-8.116671e+02
2.690000e-06	-2.560173e-06	-1.295989e-08	-1.838132e+01	-8.493755e+02
2.700000e-06	-2.670394e-06	-1.350198e-08	-1.917267e+01	-8.845372e+02
2.710000e-06	-2.779728e-06	-1.400434e-08	-1.995766e+01	-9.173877e+02
2.720000e-06	-2.888126e-06	-1.447215e-08	-2.073593e+01	-9.481416e+02
2.730000e-06	-2.995677e-06	-1.491099e-08	-2.150811e+01	-9.769821e+02
2.740000e-06	-3.102318e-06	-1.532374e-08	-2.227377e+01	-1.004062e+03
2.750000e-06	-3.207846e-06	-1.571332e-08	-2.303143e+01	-1.029512e+03
2.760000e-06	-3.312261e-06	-1.607933e-08	-2.378110e+01	-1.053450e+03
2.770000e-06	-3.415517e-06	-1.642365e-08	-2.452245e+01	-1.075989e+03
2.780000e-06	-3.517470e-06	-1.674722e-08	-2.525444e+01	-1.097240e+03
2.790000e-06	-3.618090e-06	-1.705439e-08	-2.597686e+01	-1.117311e+03
2.800000e-06	-3.717445e-06	-1.734646e-08	-2.669020e+01	-1.136300e+03
2.810000e-06	-3.815565e-06	-1.762377e-08	-2.739468e+01	-1.154295e+03
2.820000e-06	-3.912453e-06	-1.788439e-08	-2.809031e+01	-1.171363e+03
2.830000e-06	-4.008059e-06	-1.812964e-08	-2.877673e+01	-1.187559e+03
2.840000e-06	-4.102203e-06	-1.836533e-08	-2.945265e+01	-1.202925e+03
2.850000e-06	-4.194801e-06	-1.859147e-08	-3.011749e+01	-1.217498e+03
2.860000e-06	-4.285886e-06	-1.880796e-08	-3.077145e+01	-1.231316e+03
2.870000e-06	-4.375452e-06	-1.901229e-08	-3.141451e+01	-1.244423e+03
2.880000e-06	-4.463529e-06	-1.920434e-08	-3.204687e+01	-1.256871e+03
2.890000e-06	-4.549941e-06	-1.938464e-08	-3.266729e+01	-1.268712e+03
2.900000e-06	-4.634554e-06	-1.955488e-08	-3.327479e+01	-1.279998e+03
2.910000e-06	-4.717557e-06	-1.971691e-08	-3.387073e+01	-1.290771e+03
2.920000e-06	-4.799075e-06	-1.987246e-08	-3.445600e+01	-1.301060e+03
2.930000e-06	-4.878918e-06	-2.002229e-08	-3.502925e+01	-1.310876e+03
2.940000e-06	-4.956669e-06	-2.016545e-08	-3.558748e+01	-1.320218e+03
