# Temperatura_=_56.81
# Concentracion g/m^3_=_28200.0
# C_Vs_to_Am_M_A/Vsm_=_65563218390.804596
# pendiente_HvsI_1/m_=_3716.3
# ordenada_HvsI_A/m_=_1297.0
# frecuencia_Hz_=_302119.7265027541

Tiempo_(s)	Campo_(V.s)	Magnetizacion_(V.s)	Campo_(kA/m)	Magnetizacion_(A/m)
0.000000e+00	-6.440906e-06	-2.099815e-08	-4.585372e+01	-1.376967e+03
1.000000e-08	-6.437554e-06	-2.099529e-08	-4.582986e+01	-1.376565e+03
2.000000e-08	-6.432122e-06	-2.098325e-08	-4.579118e+01	-1.375972e+03
3.000000e-08	-6.424797e-06	-2.097340e-08	-4.573903e+01	-1.375215e+03
4.000000e-08	-6.415402e-06	-2.096118e-08	-4.567215e+01	-1.374330e+03
5.000000e-08	-6.403555e-06	-2.094311e-08	-4.558781e+01	-1.373359e+03
6.000000e-08	-6.389343e-06	-2.091956e-08	-4.548663e+01	-1.372338e+03
7.000000e-08	-6.372809e-06	-2.088889e-08	-4.536893e+01	-1.371284e+03
8.000000e-08	-6.354177e-06	-2.088260e-08	-4.523628e+01	-1.370194e+03
9.000000e-08	-6.333432e-06	-2.097585e-08	-4.508860e+01	-1.369037e+03
1.000000e-07	-6.310253e-06	-2.092186e-08	-4.492358e+01	-1.367761e+03
1.100000e-07	-6.284443e-06	-2.081739e-08	-4.473983e+01	-1.366303e+03
1.200000e-07	-6.256247e-06	-2.081468e-08	-4.453911e+01	-1.364601e+03
1.300000e-07	-6.226122e-06	-2.075529e-08	-4.432464e+01	-1.362605e+03
1.400000e-07	-6.194481e-06	-2.056676e-08	-4.409939e+01	-1.360288e+03
1.500000e-07	-6.161092e-06	-2.071994e-08	-4.386168e+01	-1.357651e+03
1.600000e-07	-6.125570e-06	-2.075366e-08	-4.360880e+01	-1.354725e+03
1.700000e-07	-6.088220e-06	-2.048951e-08	-4.334290e+01	-1.351558e+03
1.800000e-07	-6.048842e-06	-2.066865e-08	-4.306256e+01	-1.348210e+03
1.900000e-07	-6.006960e-06	-2.053168e-08	-4.276439e+01	-1.344741e+03
2.000000e-07	-5.962856e-06	-2.039941e-08	-4.245041e+01	-1.341196e+03
2.100000e-07	-5.916705e-06	-2.051013e-08	-4.212186e+01	-1.337601e+03
2.200000e-07	-5.868200e-06	-2.036328e-08	-4.177654e+01	-1.333959e+03
2.300000e-07	-5.817169e-06	-2.032487e-08	-4.141324e+01	-1.330251e+03
2.400000e-07	-5.763580e-06	-2.026038e-08	-4.103173e+01	-1.326446e+03
2.500000e-07	-5.707886e-06	-2.016309e-08	-4.063525e+01	-1.322502e+03
2.600000e-07	-5.650036e-06	-2.014103e-08	-4.022340e+01	-1.318382e+03
2.700000e-07	-5.589923e-06	-2.004695e-08	-3.979545e+01	-1.314056e+03
2.800000e-07	-5.527941e-06	-2.000815e-08	-3.935419e+01	-1.309504e+03
2.900000e-07	-5.464097e-06	-1.990926e-08	-3.889968e+01	-1.304718e+03
3.000000e-07	-5.398119e-06	-1.983489e-08	-3.842997e+01	-1.299698e+03
3.100000e-07	-5.330007e-06	-1.975676e-08	-3.794507e+01	-1.294449e+03
3.200000e-07	-5.259856e-06	-1.966257e-08	-3.744565e+01	-1.288976e+03
3.300000e-07	-5.187965e-06	-1.962163e-08	-3.693385e+01	-1.283277e+03
3.400000e-07	-5.114166e-06	-1.948105e-08	-3.640847e+01	-1.277346e+03
3.500000e-07	-5.038116e-06	-1.940155e-08	-3.586706e+01	-1.271173e+03
3.600000e-07	-4.959979e-06	-1.930706e-08	-3.531079e+01	-1.264739e+03
3.700000e-07	-4.879758e-06	-1.918909e-08	-3.473968e+01	-1.258029e+03
3.800000e-07	-4.797719e-06	-1.910678e-08	-3.415564e+01	-1.251023e+03
3.900000e-07	-4.714235e-06	-1.898744e-08	-3.356131e+01	-1.243711e+03
4.000000e-07	-4.629360e-06	-1.886374e-08	-3.295707e+01	-1.236083e+03
4.100000e-07	-4.542987e-06	-1.872654e-08	-3.234216e+01	-1.228134e+03
4.200000e-07	-4.455233e-06	-1.861385e-08	-3.171743e+01	-1.219862e+03
4.300000e-07	-4.365964e-06	-1.848518e-08	-3.108191e+01	-1.211266e+03
4.400000e-07	-4.274951e-06	-1.834158e-08	-3.043398e+01	-1.202341e+03
4.500000e-07	-4.182368e-06	-1.821264e-08	-2.977487e+01	-1.193079e+03
4.600000e-07	-4.088388e-06	-1.805384e-08	-2.910581e+01	-1.183469e+03
4.700000e-07	-3.993066e-06	-1.789759e-08	-2.842720e+01	-1.173491e+03
4.800000e-07	-3.896324e-06	-1.773655e-08	-2.773848e+01	-1.163121e+03
4.900000e-07	-3.797996e-06	-1.758070e-08	-2.703847e+01	-1.152333e+03
5.000000e-07	-3.698183e-06	-1.740997e-08	-2.632788e+01	-1.141093e+03
5.100000e-07	-3.597015e-06	-1.722452e-08	-2.560765e+01	-1.129372e+03
5.200000e-07	-3.494613e-06	-1.703623e-08	-2.487864e+01	-1.117138e+03
5.300000e-07	-3.391029e-06	-1.683456e-08	-2.414121e+01	-1.104360e+03
5.400000e-07	-3.286217e-06	-1.663198e-08	-2.339504e+01	-1.091011e+03
5.500000e-07	-3.180109e-06	-1.641655e-08	-2.263965e+01	-1.077064e+03
5.600000e-07	-3.072629e-06	-1.619758e-08	-2.187448e+01	-1.062491e+03
5.700000e-07	-2.964022e-06	-1.596138e-08	-2.110129e+01	-1.047263e+03
5.800000e-07	-2.854389e-06	-1.571293e-08	-2.032080e+01	-1.031346e+03
5.900000e-07	-2.743761e-06	-1.545578e-08	-1.953322e+01	-1.014698e+03
6.000000e-07	-2.632313e-06	-1.518899e-08	-1.873980e+01	-9.972687e+02
6.100000e-07	-2.519964e-06	-1.491203e-08	-1.793998e+01	-9.789998e+02
6.200000e-07	-2.406430e-06	-1.461954e-08	-1.713171e+01	-9.598240e+02
6.300000e-07	-2.291647e-06	-1.431097e-08	-1.631456e+01	-9.396680e+02
6.400000e-07	-2.175876e-06	-1.398062e-08	-1.549037e+01	-9.184546e+02
6.500000e-07	-2.059339e-06	-1.363821e-08	-1.466073e+01	-8.961046e+02
6.600000e-07	-1.942028e-06	-1.327631e-08	-1.382557e+01	-8.725367e+02
6.700000e-07	-1.824020e-06	-1.289356e-08	-1.298545e+01	-8.476665e+02
6.800000e-07	-1.705483e-06	-1.249061e-08	-1.214157e+01	-8.214038e+02
6.900000e-07	-1.586446e-06	-1.206469e-08	-1.129413e+01	-7.936488e+02
7.000000e-07	-1.466915e-06	-1.161598e-08	-1.044317e+01	-7.642906e+02
7.100000e-07	-1.346935e-06	-1.113862e-08	-9.589023e+00	-7.332082e+02
7.200000e-07	-1.226486e-06	-1.063656e-08	-8.731526e+00	-7.002766e+02
7.300000e-07	-1.105579e-06	-1.010429e-08	-7.870775e+00	-6.653795e+02
7.400000e-07	-9.842161e-07	-9.539783e-09	-7.006773e+00	-6.284270e+02
7.500000e-07	-8.624644e-07	-8.945283e-09	-6.140006e+00	-5.893764e+02
7.600000e-07	-7.404016e-07	-8.319856e-09	-5.271023e+00	-5.482532e+02
7.700000e-07	-6.179944e-07	-7.660969e-09	-4.399589e+00	-5.051663e+02
7.800000e-07	-4.953327e-07	-6.976816e-09	-3.526343e+00	-4.603127e+02
7.900000e-07	-3.724960e-07	-6.270800e-09	-2.651852e+00	-4.139695e+02
8.000000e-07	-2.495031e-07	-5.545961e-09	-1.776248e+00	-3.664701e+02
8.100000e-07	-1.263743e-07	-4.809374e-09	-8.996767e-01	-3.181674e+02
8.200000e-07	-3.187514e-09	-4.067324e-09	-2.269236e-02	-2.693892e+02
8.300000e-07	1.200003e-07	-3.325790e-09	8.542992e-01	-2.203918e+02
8.400000e-07	2.431939e-07	-2.580251e-09	1.731332e+00	-1.713224e+02
8.500000e-07	3.663324e-07	-1.835300e-09	2.607972e+00	-1.221973e+02
8.600000e-07	4.893488e-07	-1.085776e-09	3.483743e+00	-7.290212e+01
8.700000e-07	6.121980e-07	-3.307675e-10	4.358324e+00	-2.321643e+01
8.800000e-07	7.348479e-07	4.368596e-10	5.231485e+00	2.713977e+01
8.900000e-07	8.572206e-07	1.220404e-09	6.102675e+00	7.844468e+01
9.000000e-07	9.792900e-07	2.018326e-09	6.971703e+00	1.309086e+02
9.100000e-07	1.100941e-06	2.837007e-09	7.837754e+00	1.846147e+02
9.200000e-07	1.222099e-06	3.673859e-09	8.700294e+00	2.394773e+02
9.300000e-07	1.342716e-06	4.524561e-09	9.558986e+00	2.952267e+02
9.400000e-07	1.462758e-06	5.376907e-09	1.041358e+01	3.514213e+02
9.500000e-07	1.582246e-06	6.226335e-09	1.126423e+01	4.074879e+02
9.600000e-07	1.701231e-06	7.067150e-09	1.211130e+01	4.627813e+02
9.700000e-07	1.819717e-06	7.886607e-09	1.295482e+01	5.166536e+02
9.800000e-07	1.937514e-06	8.676938e-09	1.379343e+01	5.685211e+02
9.900000e-07	2.054555e-06	9.429158e-09	1.462666e+01	6.179186e+02
1.000000e-06	2.170807e-06	1.013856e-08	1.545428e+01	6.645332e+02
1.010000e-06	2.286121e-06	1.080059e-08	1.627522e+01	7.082138e+02
1.020000e-06	2.400448e-06	1.141759e-08	1.708913e+01	7.489586e+02
1.030000e-06	2.513700e-06	1.199233e-08	1.789539e+01	7.868839e+02
1.040000e-06	2.625756e-06	1.253050e-08	1.869313e+01	8.221848e+02
1.050000e-06	2.736840e-06	1.303016e-08	1.948395e+01	8.550930e+02
1.060000e-06	2.847143e-06	1.349652e-08	2.026922e+01	8.858423e+02
1.070000e-06	2.956558e-06	1.393403e-08	2.104815e+01	9.146439e+02
1.080000e-06	3.064978e-06	1.434810e-08	2.182001e+01	9.416745e+02
1.090000e-06	3.172404e-06	1.473739e-08	2.258479e+01	9.670764e+02
1.100000e-06	3.278670e-06	1.510273e-08	2.334131e+01	9.909647e+02
1.110000e-06	3.383501e-06	1.544653e-08	2.408762e+01	1.013438e+03
1.120000e-06	3.487033e-06	1.576855e-08	2.482468e+01	1.034589e+03
1.130000e-06	3.589395e-06	1.607011e-08	2.555341e+01	1.054509e+03
1.140000e-06	3.690528e-06	1.635388e-08	2.627339e+01	1.073291e+03
1.150000e-06	3.790445e-06	1.662449e-08	2.698471e+01	1.091028e+03
1.160000e-06	3.889092e-06	1.687963e-08	2.768700e+01	1.107806e+03
1.170000e-06	3.986178e-06	1.712140e-08	2.837816e+01	1.123699e+03
1.180000e-06	4.081697e-06	1.734949e-08	2.905817e+01	1.138770e+03
1.190000e-06	4.175823e-06	1.756633e-08	2.972827e+01	1.153069e+03
1.200000e-06	4.268548e-06	1.777079e-08	3.038839e+01	1.166634e+03
1.210000e-06	4.359943e-06	1.796566e-08	3.103905e+01	1.179501e+03
1.220000e-06	4.449808e-06	1.814987e-08	3.167881e+01	1.191703e+03
1.230000e-06	4.537907e-06	1.832510e-08	3.230600e+01	1.203278e+03
1.240000e-06	4.624275e-06	1.849227e-08	3.292086e+01	1.214263e+03
1.250000e-06	4.709082e-06	1.865359e-08	3.352462e+01	1.224697e+03
1.260000e-06	4.792469e-06	1.880764e-08	3.411826e+01	1.234614e+03
1.270000e-06	4.874069e-06	1.895405e-08	3.469918e+01	1.244040e+03
1.280000e-06	4.953708e-06	1.909214e-08	3.526614e+01	1.252992e+03
1.290000e-06	5.031574e-06	1.922343e-08	3.582048e+01	1.261477e+03
1.300000e-06	5.107541e-06	1.934645e-08	3.636131e+01	1.269498e+03
1.310000e-06	5.181471e-06	1.946020e-08	3.688762e+01	1.277057e+03
1.320000e-06	5.253375e-06	1.956729e-08	3.739952e+01	1.284163e+03
1.330000e-06	5.323336e-06	1.966962e-08	3.789758e+01	1.290836e+03
1.340000e-06	5.391464e-06	1.976522e-08	3.838259e+01	1.297108e+03
1.350000e-06	5.457673e-06	1.985456e-08	3.885394e+01	1.303024e+03
1.360000e-06	5.521814e-06	1.994185e-08	3.931057e+01	1.308631e+03
1.370000e-06	5.584026e-06	2.002573e-08	3.975346e+01	1.313978e+03
1.380000e-06	5.644478e-06	2.010574e-08	4.018383e+01	1.319101e+03
1.390000e-06	5.702940e-06	2.018282e-08	4.060003e+01	1.324024e+03
1.400000e-06	5.759264e-06	2.025799e-08	4.100101e+01	1.328752e+03
1.410000e-06	5.813527e-06	2.032664e-08	4.138732e+01	1.333275e+03
1.420000e-06	5.865566e-06	2.038793e-08	4.175779e+01	1.337574e+03
1.430000e-06	5.915111e-06	2.044697e-08	4.211051e+01	1.341626e+03
1.440000e-06	5.962294e-06	2.050481e-08	4.244641e+01	1.345416e+03
1.450000e-06	6.007521e-06	2.055842e-08	4.276839e+01	1.348935e+03
1.460000e-06	6.050790e-06	2.060912e-08	4.307643e+01	1.352188e+03
1.470000e-06	6.091778e-06	2.065782e-08	4.336823e+01	1.355190e+03
1.480000e-06	6.130458e-06	2.070199e-08	4.364359e+01	1.357961e+03
1.490000e-06	6.167199e-06	2.074124e-08	4.390516e+01	1.360523e+03
1.500000e-06	6.201809e-06	2.077732e-08	4.415155e+01	1.362890e+03
1.510000e-06	6.234019e-06	2.080978e-08	4.438086e+01	1.365068e+03
1.520000e-06	6.264107e-06	2.083827e-08	4.459506e+01	1.367056e+03
1.530000e-06	6.292211e-06	2.086394e-08	4.479514e+01	1.368846e+03
1.540000e-06	6.317989e-06	2.088685e-08	4.497865e+01	1.370432e+03
1.550000e-06	6.341301e-06	2.090703e-08	4.514462e+01	1.371810e+03
1.560000e-06	6.362409e-06	2.092441e-08	4.529489e+01	1.372989e+03
1.570000e-06	6.381365e-06	2.094312e-08	4.542984e+01	1.373983e+03
1.580000e-06	6.397961e-06	2.096214e-08	4.554799e+01	1.374815e+03
1.590000e-06	6.412134e-06	2.097645e-08	4.564889e+01	1.375510e+03
1.600000e-06	6.423818e-06	2.098553e-08	4.573207e+01	1.376087e+03
1.610000e-06	6.432896e-06	2.099366e-08	4.579669e+01	1.376554e+03
1.620000e-06	6.439529e-06	2.100082e-08	4.584392e+01	1.376909e+03
1.630000e-06	6.444071e-06	2.100443e-08	4.587625e+01	1.377133e+03
1.640000e-06	6.446368e-06	2.100398e-08	4.589260e+01	1.377203e+03
1.650000e-06	6.446246e-06	2.100523e-08	4.589173e+01	1.377094e+03
1.660000e-06	6.444008e-06	2.099310e-08	4.587580e+01	1.376791e+03
1.670000e-06	6.439780e-06	2.098903e-08	4.584570e+01	1.376291e+03
1.680000e-06	6.433315e-06	2.098543e-08	4.579968e+01	1.375612e+03
1.690000e-06	6.424619e-06	2.097549e-08	4.573777e+01	1.374786e+03
1.700000e-06	6.413993e-06	2.096547e-08	4.566212e+01	1.373853e+03
1.710000e-06	6.401159e-06	2.095647e-08	4.557076e+01	1.372853e+03
1.720000e-06	6.385981e-06	2.097135e-08	4.546270e+01	1.371815e+03
1.730000e-06	6.368787e-06	2.092275e-08	4.534029e+01	1.370745e+03
1.740000e-06	6.349612e-06	2.077761e-08	4.520378e+01	1.369627e+03
1.750000e-06	6.327575e-06	2.082345e-08	4.504690e+01	1.368417e+03
1.760000e-06	6.302243e-06	2.085428e-08	4.486656e+01	1.367059e+03
1.770000e-06	6.274629e-06	2.076441e-08	4.466997e+01	1.365486e+03
1.780000e-06	6.245047e-06	2.092154e-08	4.445937e+01	1.363642e+03
1.790000e-06	6.213803e-06	2.087614e-08	4.423694e+01	1.361487e+03
1.800000e-06	6.181325e-06	2.063717e-08	4.400572e+01	1.359008e+03
1.810000e-06	6.146766e-06	2.083478e-08	4.375970e+01	1.356222e+03
1.820000e-06	6.110036e-06	2.060662e-08	4.349821e+01	1.353168e+03
1.830000e-06	6.071252e-06	2.048957e-08	4.322210e+01	1.349903e+03
1.840000e-06	6.030024e-06	2.068196e-08	4.292859e+01	1.346488e+03
1.850000e-06	5.986815e-06	2.032673e-08	4.262098e+01	1.342976e+03
1.860000e-06	5.941573e-06	2.040766e-08	4.229889e+01	1.339404e+03
1.870000e-06	5.894036e-06	2.036867e-08	4.196047e+01	1.335787e+03
1.880000e-06	5.844481e-06	2.021093e-08	4.160769e+01	1.332115e+03
1.890000e-06	5.792330e-06	2.036438e-08	4.123641e+01	1.328363e+03
1.900000e-06	5.737586e-06	2.010853e-08	4.084668e+01	1.324493e+03
1.910000e-06	5.680676e-06	2.013784e-08	4.044154e+01	1.320466e+03
1.920000e-06	5.621794e-06	2.009643e-08	4.002235e+01	1.316247e+03
1.930000e-06	5.561050e-06	1.990814e-08	3.958990e+01	1.311809e+03
1.940000e-06	5.498048e-06	1.998971e-08	3.914138e+01	1.307140e+03
1.950000e-06	5.432961e-06	1.979223e-08	3.867802e+01	1.302237e+03
1.960000e-06	5.365948e-06	1.982203e-08	3.820094e+01	1.297102e+03
1.970000e-06	5.296852e-06	1.967282e-08	3.770904e+01	1.291741e+03
1.980000e-06	5.225682e-06	1.955656e-08	3.720237e+01	1.286155e+03
1.990000e-06	5.152514e-06	1.956589e-08	3.668147e+01	1.280341e+03
2.000000e-06	5.077587e-06	1.938302e-08	3.614806e+01	1.274291e+03
2.010000e-06	5.000598e-06	1.938269e-08	3.559996e+01	1.267990e+03
2.020000e-06	4.921474e-06	1.919407e-08	3.503667e+01	1.261420e+03
2.030000e-06	4.840559e-06	1.911236e-08	3.446062e+01	1.254564e+03
2.040000e-06	4.758002e-06	1.901819e-08	3.387289e+01	1.247406e+03
2.050000e-06	4.673989e-06	1.888132e-08	3.327478e+01	1.239937e+03
2.060000e-06	4.588227e-06	1.881144e-08	3.266424e+01	1.232149e+03
2.070000e-06	4.500705e-06	1.864884e-08	3.204116e+01	1.224039e+03
2.080000e-06	4.411596e-06	1.856126e-08	3.140677e+01	1.215605e+03
2.090000e-06	4.321007e-06	1.838072e-08	3.076186e+01	1.206845e+03
2.100000e-06	4.229093e-06	1.825887e-08	3.010751e+01	1.197753e+03
2.110000e-06	4.135661e-06	1.812143e-08	2.944235e+01	1.188319e+03
2.120000e-06	4.040647e-06	1.797306e-08	2.876593e+01	1.178527e+03
2.130000e-06	3.944243e-06	1.782524e-08	2.807962e+01	1.168357e+03
2.140000e-06	3.846469e-06	1.764602e-08	2.738355e+01	1.157781e+03
2.150000e-06	3.747386e-06	1.749808e-08	2.667817e+01	1.146771e+03
2.160000e-06	3.647022e-06	1.730972e-08	2.596367e+01	1.135295e+03
2.170000e-06	3.545103e-06	1.714357e-08	2.523809e+01	1.123321e+03
2.180000e-06	3.441710e-06	1.694556e-08	2.450202e+01	1.110819e+03
2.190000e-06	3.337028e-06	1.675395e-08	2.375677e+01	1.097759e+03
2.200000e-06	3.231176e-06	1.653787e-08	2.300319e+01	1.084114e+03
2.210000e-06	3.124260e-06	1.632462e-08	2.224205e+01	1.069857e+03
2.220000e-06	3.016349e-06	1.610395e-08	2.147381e+01	1.054961e+03
2.230000e-06	2.907431e-06	1.587113e-08	2.069841e+01	1.039393e+03
2.240000e-06	2.797371e-06	1.562789e-08	1.991488e+01	1.023116e+03
2.250000e-06	2.686189e-06	1.536531e-08	1.912336e+01	1.006084e+03
2.260000e-06	2.573888e-06	1.509653e-08	1.832387e+01	9.882433e+02
2.270000e-06	2.460585e-06	1.480517e-08	1.751725e+01	9.695297e+02
2.280000e-06	2.346382e-06	1.451082e-08	1.670422e+01	9.498732e+02
2.290000e-06	2.231223e-06	1.419420e-08	1.588439e+01	9.291984e+02
2.300000e-06	2.115152e-06	1.386691e-08	1.505807e+01	9.074267e+02
2.310000e-06	1.998281e-06	1.351839e-08	1.422604e+01	8.844781e+02
2.320000e-06	1.880553e-06	1.315536e-08	1.338792e+01	8.602699e+02
2.330000e-06	1.761993e-06	1.277072e-08	1.254387e+01	8.347152e+02
2.340000e-06	1.642743e-06	1.236239e-08	1.169492e+01	8.077195e+02
2.350000e-06	1.522919e-06	1.192892e-08	1.084187e+01	7.791775e+02
2.360000e-06	1.402687e-06	1.146756e-08	9.985928e+00	7.489727e+02
2.370000e-06	1.282065e-06	1.097905e-08	9.127198e+00	7.169812e+02
2.380000e-06	1.161018e-06	1.045889e-08	8.265448e+00	6.830802e+02
2.390000e-06	1.039625e-06	9.912826e-09	7.401237e+00	6.471642e+02
2.400000e-06	9.179120e-07	9.332997e-09	6.534745e+00	6.091641e+02
2.410000e-06	7.958368e-07	8.723710e-09	5.665674e+00	5.690691e+02
2.420000e-06	6.734781e-07	8.082962e-09	4.794585e+00	5.269449e+02
2.430000e-06	5.509401e-07	7.412559e-09	3.922220e+00	4.829447e+02
2.440000e-06	4.283195e-07	6.717158e-09	3.049267e+00	4.373074e+02
2.450000e-06	3.055858e-07	5.999557e-09	2.175509e+00	3.903422e+02
2.460000e-06	1.826340e-07	5.265715e-09	1.300197e+00	3.423975e+02
2.470000e-06	5.958288e-08	4.518440e-09	4.241789e-01	2.938196e+02
2.480000e-06	-6.348112e-08	3.769612e-09	-4.519310e-01	2.449058e+02
2.490000e-06	-1.864854e-07	3.020168e-09	-1.327616e+00	1.958619e+02
2.500000e-06	-3.094112e-07	2.270204e-09	-2.202742e+00	1.467711e+02
2.510000e-06	-4.323169e-07	1.520472e-09	-3.077725e+00	9.758272e+01
2.520000e-06	-5.550924e-07	7.629405e-10	-3.951781e+00	4.812486e+01
2.530000e-06	-6.776837e-07	-3.667476e-12	-4.824526e+00	-1.859649e+00
2.540000e-06	-8.001186e-07	-7.829224e-10	-5.696157e+00	-5.265814e+01
2.550000e-06	-9.222861e-07	-1.576280e-09	-6.565885e+00	-1.045230e+02
2.560000e-06	-1.044106e-06	-2.384159e-09	-7.433138e+00	-1.576074e+02
2.570000e-06	-1.165569e-06	-3.210708e-09	-8.297847e+00	-2.119140e+02
2.580000e-06	-1.286626e-06	-4.053766e-09	-9.159671e+00	-2.672651e+02
2.590000e-06	-1.407246e-06	-4.909716e-09	-1.001838e+01	-3.233017e+02
2.600000e-06	-1.527372e-06	-5.771325e-09	-1.087358e+01	-3.795100e+02
2.610000e-06	-1.646959e-06	-6.628592e-09	-1.172493e+01	-4.352725e+02
2.620000e-06	-1.765925e-06	-7.467284e-09	-1.257187e+01	-4.899338e+02
2.630000e-06	-1.884183e-06	-8.275280e-09	-1.341376e+01	-5.428703e+02
2.640000e-06	-2.001592e-06	-9.049663e-09	-1.424961e+01	-5.935520e+02
2.650000e-06	-2.117990e-06	-9.783143e-09	-1.507827e+01	-6.415869e+02
2.660000e-06	-2.233464e-06	-1.047407e-08	-1.590035e+01	-6.867436e+02
2.670000e-06	-2.348062e-06	-1.112098e-08	-1.671619e+01	-7.289483e+02
2.680000e-06	-2.461569e-06	-1.172341e-08	-1.752426e+01	-7.682628e+02
2.690000e-06	-2.574061e-06	-1.228585e-08	-1.832510e+01	-8.048483e+02
2.700000e-06	-2.685460e-06	-1.280825e-08	-1.911817e+01	-8.389230e+02
2.710000e-06	-2.795654e-06	-1.329296e-08	-1.990266e+01	-8.707236e+02
2.720000e-06	-2.904923e-06	-1.374764e-08	-2.068056e+01	-9.004747e+02
2.730000e-06	-3.013306e-06	-1.417404e-08	-2.145215e+01	-9.283709e+02
2.740000e-06	-3.120833e-06	-1.457467e-08	-2.221765e+01	-9.545713e+02
2.750000e-06	-3.227383e-06	-1.495215e-08	-2.297620e+01	-9.792033e+02
2.760000e-06	-3.332790e-06	-1.530347e-08	-2.372660e+01	-1.002372e+03
2.770000e-06	-3.437022e-06	-1.563289e-08	-2.446865e+01	-1.024173e+03
2.780000e-06	-3.540030e-06	-1.594411e-08	-2.520197e+01	-1.044697e+03
2.790000e-06	-3.641694e-06	-1.624046e-08	-2.592573e+01	-1.064036e+03
2.800000e-06	-3.741903e-06	-1.652227e-08	-2.663913e+01	-1.082285e+03
2.810000e-06	-3.840846e-06	-1.678698e-08	-2.734352e+01	-1.099532e+03
2.820000e-06	-3.938581e-06	-1.703567e-08	-2.803931e+01	-1.115859e+03
2.830000e-06	-4.034952e-06	-1.727255e-08	-2.872539e+01	-1.131334e+03
2.840000e-06	-4.129958e-06	-1.750091e-08	-2.940175e+01	-1.146013e+03
2.850000e-06	-4.223425e-06	-1.771813e-08	-3.006716e+01	-1.159941e+03
2.860000e-06	-4.315330e-06	-1.792272e-08	-3.072144e+01	-1.173152e+03
2.870000e-06	-4.405769e-06	-1.811347e-08	-3.136529e+01	-1.185683e+03
2.880000e-06	-4.494618e-06	-1.829235e-08	-3.199782e+01	-1.197567e+03
2.890000e-06	-4.581911e-06	-1.846104e-08	-3.261927e+01	-1.208842e+03
2.900000e-06	-4.667440e-06	-1.862118e-08	-3.322816e+01	-1.219547e+03
2.910000e-06	-4.751252e-06	-1.877594e-08	-3.382483e+01	-1.229718e+03
2.920000e-06	-4.833496e-06	-1.892457e-08	-3.441034e+01	-1.239387e+03
2.930000e-06	-4.914046e-06	-1.906582e-08	-3.498378e+01	-1.248575e+03
2.940000e-06	-4.992722e-06	-1.920037e-08	-3.554389e+01	-1.257293e+03
