# Temperatura_=_27.89
# Concentracion g/m^3_=_28200.0
# C_Vs_to_Am_M_A/Vsm_=_65563218390.804596
# pendiente_HvsI_1/m_=_3716.3
# ordenada_HvsI_A/m_=_1297.0
# frecuencia_Hz_=_302118.62925033853

Tiempo_(s)	Campo_(V.s)	Magnetizacion_(V.s)	Campo_(kA/m)	Magnetizacion_(A/m)
0.000000e+00	-6.375210e-06	-1.875974e-08	-4.585712e+01	-1.225673e+03
1.000000e-08	-6.372249e-06	-1.876233e-08	-4.583583e+01	-1.225356e+03
2.000000e-08	-6.367189e-06	-1.875121e-08	-4.579943e+01	-1.224969e+03
3.000000e-08	-6.360224e-06	-1.874280e-08	-4.574933e+01	-1.224501e+03
4.000000e-08	-6.351142e-06	-1.873379e-08	-4.568400e+01	-1.223919e+03
5.000000e-08	-6.339663e-06	-1.871676e-08	-4.560143e+01	-1.223183e+03
6.000000e-08	-6.325797e-06	-1.870047e-08	-4.550169e+01	-1.222253e+03
7.000000e-08	-6.309553e-06	-1.866926e-08	-4.538486e+01	-1.221105e+03
8.000000e-08	-6.291224e-06	-1.863250e-08	-4.525301e+01	-1.219741e+03
9.000000e-08	-6.270938e-06	-1.871236e-08	-4.510709e+01	-1.218195e+03
1.000000e-07	-6.248305e-06	-1.869646e-08	-4.494429e+01	-1.216530e+03
1.100000e-07	-6.222992e-06	-1.859489e-08	-4.476222e+01	-1.214829e+03
1.200000e-07	-6.195260e-06	-1.857909e-08	-4.456274e+01	-1.213178e+03
1.300000e-07	-6.165667e-06	-1.856564e-08	-4.434987e+01	-1.211646e+03
1.400000e-07	-6.134493e-06	-1.840067e-08	-4.412564e+01	-1.210268e+03
1.500000e-07	-6.101658e-06	-1.846693e-08	-4.388946e+01	-1.209034e+03
1.600000e-07	-6.066732e-06	-1.858739e-08	-4.363823e+01	-1.207884e+03
1.700000e-07	-6.029896e-06	-1.831461e-08	-4.337327e+01	-1.206720e+03
1.800000e-07	-5.991155e-06	-1.844560e-08	-4.309460e+01	-1.205422e+03
1.900000e-07	-5.949946e-06	-1.841436e-08	-4.279819e+01	-1.203866e+03
2.000000e-07	-5.906499e-06	-1.819594e-08	-4.248567e+01	-1.201952e+03
2.100000e-07	-5.860980e-06	-1.831664e-08	-4.215825e+01	-1.199615e+03
2.200000e-07	-5.813275e-06	-1.821625e-08	-4.181511e+01	-1.196841e+03
2.300000e-07	-5.763120e-06	-1.815879e-08	-4.145434e+01	-1.193660e+03
2.400000e-07	-5.710362e-06	-1.813495e-08	-4.107485e+01	-1.190139e+03
2.500000e-07	-5.655457e-06	-1.803265e-08	-4.067992e+01	-1.186360e+03
2.600000e-07	-5.598454e-06	-1.802253e-08	-4.026989e+01	-1.182402e+03
2.700000e-07	-5.539224e-06	-1.793336e-08	-3.984384e+01	-1.178324e+03
2.800000e-07	-5.478057e-06	-1.788499e-08	-3.940387e+01	-1.174154e+03
2.900000e-07	-5.415079e-06	-1.781279e-08	-3.895087e+01	-1.169883e+03
3.000000e-07	-5.350011e-06	-1.772136e-08	-3.848283e+01	-1.165476e+03
3.100000e-07	-5.282744e-06	-1.767386e-08	-3.799897e+01	-1.160883e+03
3.200000e-07	-5.213465e-06	-1.758461e-08	-3.750065e+01	-1.156051e+03
3.300000e-07	-5.142379e-06	-1.754925e-08	-3.698933e+01	-1.150942e+03
3.400000e-07	-5.069604e-06	-1.742722e-08	-3.646585e+01	-1.145537e+03
3.500000e-07	-4.994781e-06	-1.733468e-08	-3.592765e+01	-1.139840e+03
3.600000e-07	-4.917718e-06	-1.726320e-08	-3.537333e+01	-1.133873e+03
3.700000e-07	-4.838597e-06	-1.714330e-08	-3.480421e+01	-1.127663e+03
3.800000e-07	-4.757533e-06	-1.708165e-08	-3.422111e+01	-1.121235e+03
3.900000e-07	-4.674819e-06	-1.697122e-08	-3.362615e+01	-1.114598e+03
4.000000e-07	-4.590752e-06	-1.685384e-08	-3.302145e+01	-1.107745e+03
4.100000e-07	-4.505324e-06	-1.673131e-08	-3.240696e+01	-1.100647e+03
4.200000e-07	-4.418387e-06	-1.662500e-08	-3.178162e+01	-1.093265e+03
4.300000e-07	-4.330084e-06	-1.651894e-08	-3.114646e+01	-1.085557e+03
4.400000e-07	-4.240273e-06	-1.638200e-08	-3.050044e+01	-1.077484e+03
4.500000e-07	-4.148739e-06	-1.627091e-08	-2.984203e+01	-1.069024e+03
4.600000e-07	-4.055668e-06	-1.612912e-08	-2.917258e+01	-1.060167e+03
4.700000e-07	-3.961342e-06	-1.598681e-08	-2.849408e+01	-1.050919e+03
4.800000e-07	-3.865733e-06	-1.583933e-08	-2.780636e+01	-1.041292e+03
4.900000e-07	-3.768681e-06	-1.569473e-08	-2.710827e+01	-1.031294e+03
5.000000e-07	-3.670094e-06	-1.553594e-08	-2.639912e+01	-1.020927e+03
5.100000e-07	-3.570065e-06	-1.536035e-08	-2.567961e+01	-1.010175e+03
5.200000e-07	-3.468803e-06	-1.519042e-08	-2.495123e+01	-9.990056e+02
5.300000e-07	-3.366359e-06	-1.500936e-08	-2.421435e+01	-9.873752e+02
5.400000e-07	-3.262739e-06	-1.482770e-08	-2.346900e+01	-9.752319e+02
5.500000e-07	-3.157923e-06	-1.462978e-08	-2.271506e+01	-9.625249e+02
5.600000e-07	-3.051835e-06	-1.442999e-08	-2.195197e+01	-9.492094e+02
5.700000e-07	-2.944389e-06	-1.421435e-08	-2.117910e+01	-9.352504e+02
5.800000e-07	-2.835827e-06	-1.398628e-08	-2.039821e+01	-9.206209e+02
5.900000e-07	-2.726322e-06	-1.375050e-08	-1.961053e+01	-9.052982e+02
6.000000e-07	-2.615901e-06	-1.350729e-08	-1.881627e+01	-8.892572e+02
6.100000e-07	-2.504623e-06	-1.325173e-08	-1.801584e+01	-8.724647e+02
6.200000e-07	-2.392471e-06	-1.298297e-08	-1.720914e+01	-8.548747e+02
6.300000e-07	-2.279349e-06	-1.270275e-08	-1.639544e+01	-8.364278e+02
6.400000e-07	-2.165146e-06	-1.240350e-08	-1.557398e+01	-8.170533e+02
6.500000e-07	-2.049824e-06	-1.209035e-08	-1.474446e+01	-7.966735e+02
6.600000e-07	-1.933605e-06	-1.175899e-08	-1.390849e+01	-7.752088e+02
6.700000e-07	-1.816822e-06	-1.141287e-08	-1.306847e+01	-7.525813e+02
6.800000e-07	-1.699489e-06	-1.104722e-08	-1.222449e+01	-7.287160e+02
6.900000e-07	-1.581553e-06	-1.066213e-08	-1.137617e+01	-7.035399e+02
7.000000e-07	-1.463067e-06	-1.025761e-08	-1.052390e+01	-6.769799e+02
7.100000e-07	-1.344201e-06	-9.829073e-09	-9.668885e+00	-6.489605e+02
7.200000e-07	-1.224999e-06	-9.376532e-09	-8.811468e+00	-6.194065e+02
7.300000e-07	-1.105304e-06	-8.900852e-09	-7.950493e+00	-5.882493e+02
7.400000e-07	-9.852052e-07	-8.402241e-09	-7.086618e+00	-5.554397e+02
7.500000e-07	-8.647854e-07	-7.878949e-09	-6.220434e+00	-5.209643e+02
7.600000e-07	-7.441056e-07	-7.331906e-09	-5.352380e+00	-4.848630e+02
7.700000e-07	-6.232334e-07	-6.754645e-09	-4.482941e+00	-4.472437e+02
7.800000e-07	-5.021445e-07	-6.156435e-09	-3.611944e+00	-4.082880e+02
7.900000e-07	-3.808746e-07	-5.545161e-09	-2.739645e+00	-3.682459e+02
8.000000e-07	-2.594887e-07	-4.925034e-09	-1.866512e+00	-3.274171e+02
8.100000e-07	-1.379913e-07	-4.298614e-09	-9.925766e-01	-2.861204e+02
8.200000e-07	-1.633935e-08	-3.670762e-09	-1.175296e-01	-2.446547e+02
8.300000e-07	1.053013e-07	-3.045939e-09	7.574364e-01	-2.032599e+02
8.400000e-07	2.269248e-07	-2.420302e-09	1.632278e+00	-1.620821e+02
8.500000e-07	3.485447e-07	-1.796761e-09	2.507095e+00	-1.211526e+02
8.600000e-07	4.700217e-07	-1.173871e-09	3.380884e+00	-8.038474e+01
8.700000e-07	5.913474e-07	-5.530876e-10	4.253584e+00	-3.958978e+01
8.800000e-07	7.125062e-07	7.149955e-11	5.125084e+00	1.489147e+00
8.900000e-07	8.334628e-07	7.056495e-10	5.995130e+00	4.313065e+01
9.000000e-07	9.541960e-07	1.351453e-09	6.863568e+00	8.558369e+01
9.100000e-07	1.074610e-06	2.012331e-09	7.729708e+00	1.290196e+02
9.200000e-07	1.194551e-06	2.687027e-09	8.592454e+00	1.734955e+02
9.300000e-07	1.314024e-06	3.376114e-09	9.451825e+00	2.189338e+02
9.400000e-07	1.433040e-06	4.076950e-09	1.030791e+01	2.651219e+02
9.500000e-07	1.551600e-06	4.784522e-09	1.116072e+01	3.117299e+02
9.600000e-07	1.669615e-06	5.493598e-09	1.200960e+01	3.583424e+02
9.700000e-07	1.786926e-06	6.195786e-09	1.285343e+01	4.045006e+02
9.800000e-07	1.903602e-06	6.884049e-09	1.369268e+01	4.497449e+02
9.900000e-07	2.019556e-06	7.551122e-09	1.452674e+01	4.936550e+02
1.000000e-06	2.134598e-06	8.187543e-09	1.535424e+01	5.358803e+02
1.010000e-06	2.248660e-06	8.794727e-09	1.617469e+01	5.761595e+02
1.020000e-06	2.361716e-06	9.372878e-09	1.698791e+01	6.143276e+02
1.030000e-06	2.473757e-06	9.923767e-09	1.779383e+01	6.503123e+02
1.040000e-06	2.584894e-06	1.043886e-08	1.859324e+01	6.841221e+02
1.050000e-06	2.695182e-06	1.091713e-08	1.938655e+01	7.158290e+02
1.060000e-06	2.804545e-06	1.136492e-08	2.017319e+01	7.455490e+02
1.070000e-06	2.913049e-06	1.178389e-08	2.095367e+01	7.734237e+02
1.080000e-06	3.020670e-06	1.218453e-08	2.172779e+01	7.996028e+02
1.090000e-06	3.127071e-06	1.256265e-08	2.249314e+01	8.242323e+02
1.100000e-06	3.232149e-06	1.291818e-08	2.324897e+01	8.474446e+02
1.110000e-06	3.335977e-06	1.325158e-08	2.399581e+01	8.693543e+02
1.120000e-06	3.438581e-06	1.356695e-08	2.473385e+01	8.900567e+02
1.130000e-06	3.540104e-06	1.386290e-08	2.546410e+01	9.096299e+02
1.140000e-06	3.640605e-06	1.414024e-08	2.618701e+01	9.281387e+02
1.150000e-06	3.739842e-06	1.440382e-08	2.690082e+01	9.456393e+02
1.160000e-06	3.837535e-06	1.465413e-08	2.760353e+01	9.621847e+02
1.170000e-06	3.933703e-06	1.488949e-08	2.829527e+01	9.778284e+02
1.180000e-06	4.028485e-06	1.511173e-08	2.897705e+01	9.926268e+02
1.190000e-06	4.121924e-06	1.532266e-08	2.964915e+01	1.006639e+03
1.200000e-06	4.214033e-06	1.552470e-08	3.031170e+01	1.019924e+03
1.210000e-06	4.304664e-06	1.571634e-08	3.096361e+01	1.032540e+03
1.220000e-06	4.393594e-06	1.589607e-08	3.160329e+01	1.044537e+03
1.230000e-06	4.480926e-06	1.606807e-08	3.223147e+01	1.055955e+03
1.240000e-06	4.566698e-06	1.623327e-08	3.284843e+01	1.066823e+03
1.250000e-06	4.650997e-06	1.638962e-08	3.345480e+01	1.077158e+03
1.260000e-06	4.733778e-06	1.653550e-08	3.405025e+01	1.086972e+03
1.270000e-06	4.814684e-06	1.667652e-08	3.463221e+01	1.096268e+03
1.280000e-06	4.893679e-06	1.681108e-08	3.520042e+01	1.105054e+03
1.290000e-06	4.970967e-06	1.693951e-08	3.575635e+01	1.113342e+03
1.300000e-06	5.046325e-06	1.705985e-08	3.629840e+01	1.121149e+03
1.310000e-06	5.119524e-06	1.717224e-08	3.682493e+01	1.128504e+03
1.320000e-06	5.190839e-06	1.727704e-08	3.733790e+01	1.135439e+03
1.330000e-06	5.260392e-06	1.737435e-08	3.783820e+01	1.141991e+03
1.340000e-06	5.328153e-06	1.746601e-08	3.832561e+01	1.148194e+03
1.350000e-06	5.393918e-06	1.755330e-08	3.879866e+01	1.154081e+03
1.360000e-06	5.457636e-06	1.763669e-08	3.925698e+01	1.159675e+03
1.370000e-06	5.519487e-06	1.771530e-08	3.970188e+01	1.164994e+03
1.380000e-06	5.579604e-06	1.779154e-08	4.013430e+01	1.170053e+03
1.390000e-06	5.637758e-06	1.786531e-08	4.055261e+01	1.174861e+03
1.400000e-06	5.693796e-06	1.793771e-08	4.095569e+01	1.179426e+03
1.410000e-06	5.747801e-06	1.800535e-08	4.134415e+01	1.183759e+03
1.420000e-06	5.799515e-06	1.806647e-08	4.171613e+01	1.187869e+03
1.430000e-06	5.848773e-06	1.812362e-08	4.207044e+01	1.191762e+03
1.440000e-06	5.895725e-06	1.817757e-08	4.240818e+01	1.195444e+03
1.450000e-06	5.940687e-06	1.822684e-08	4.273159e+01	1.198914e+03
1.460000e-06	5.983729e-06	1.827362e-08	4.304119e+01	1.202166e+03
1.470000e-06	6.024554e-06	1.831950e-08	4.333485e+01	1.205190e+03
1.480000e-06	6.063125e-06	1.836215e-08	4.361229e+01	1.207974e+03
1.490000e-06	6.099712e-06	1.840105e-08	4.387546e+01	1.210512e+03
1.500000e-06	6.134170e-06	1.843517e-08	4.412331e+01	1.212799e+03
1.510000e-06	6.166344e-06	1.846522e-08	4.435475e+01	1.214845e+03
1.520000e-06	6.196372e-06	1.849060e-08	4.457074e+01	1.216666e+03
1.530000e-06	6.224433e-06	1.851286e-08	4.477258e+01	1.218287e+03
1.540000e-06	6.250161e-06	1.853244e-08	4.495764e+01	1.219734e+03
1.550000e-06	6.273422e-06	1.855142e-08	4.512496e+01	1.221031e+03
1.560000e-06	6.294534e-06	1.856852e-08	4.527682e+01	1.222194e+03
1.570000e-06	6.313574e-06	1.858442e-08	4.541377e+01	1.223225e+03
1.580000e-06	6.330366e-06	1.860037e-08	4.553456e+01	1.224119e+03
1.590000e-06	6.344728e-06	1.861160e-08	4.563787e+01	1.224860e+03
1.600000e-06	6.356686e-06	1.861935e-08	4.572388e+01	1.225432e+03
1.610000e-06	6.366025e-06	1.862548e-08	4.579106e+01	1.225826e+03
1.620000e-06	6.372852e-06	1.862929e-08	4.584016e+01	1.226041e+03
1.630000e-06	6.377586e-06	1.863211e-08	4.587422e+01	1.226092e+03
1.640000e-06	6.380058e-06	1.863327e-08	4.589200e+01	1.226004e+03
1.650000e-06	6.380142e-06	1.863687e-08	4.589260e+01	1.225805e+03
1.660000e-06	6.378057e-06	1.862714e-08	4.587760e+01	1.225523e+03
1.670000e-06	6.374070e-06	1.861975e-08	4.584892e+01	1.225172e+03
1.680000e-06	6.367884e-06	1.861476e-08	4.580443e+01	1.224747e+03
1.690000e-06	6.359450e-06	1.860558e-08	4.574376e+01	1.224227e+03
1.700000e-06	6.349116e-06	1.859672e-08	4.566943e+01	1.223573e+03
1.710000e-06	6.336677e-06	1.858783e-08	4.557996e+01	1.222744e+03
1.720000e-06	6.321882e-06	1.859637e-08	4.547353e+01	1.221707e+03
1.730000e-06	6.305035e-06	1.858931e-08	4.535235e+01	1.220448e+03
1.740000e-06	6.286286e-06	1.843162e-08	4.521749e+01	1.218987e+03
1.750000e-06	6.264717e-06	1.843584e-08	4.506235e+01	1.217372e+03
1.760000e-06	6.239922e-06	1.849182e-08	4.488400e+01	1.215679e+03
1.770000e-06	6.212732e-06	1.842674e-08	4.468841e+01	1.213993e+03
1.780000e-06	6.183768e-06	1.851612e-08	4.448007e+01	1.212394e+03
1.790000e-06	6.153177e-06	1.852435e-08	4.426004e+01	1.210938e+03
1.800000e-06	6.121212e-06	1.822462e-08	4.403011e+01	1.209636e+03
1.810000e-06	6.087151e-06	1.837972e-08	4.378511e+01	1.208453e+03
1.820000e-06	6.051034e-06	1.838610e-08	4.352532e+01	1.207311e+03
1.830000e-06	6.013016e-06	1.827681e-08	4.325185e+01	1.206096e+03
1.840000e-06	5.972500e-06	1.859574e-08	4.296042e+01	1.204683e+03
1.850000e-06	5.929917e-06	1.834310e-08	4.265412e+01	1.202959e+03
1.860000e-06	5.885424e-06	1.831070e-08	4.233408e+01	1.200838e+03
1.870000e-06	5.838718e-06	1.837388e-08	4.199812e+01	1.198281e+03
1.880000e-06	5.789959e-06	1.813039e-08	4.164740e+01	1.195298e+03
1.890000e-06	5.738794e-06	1.828769e-08	4.127936e+01	1.191937e+03
1.900000e-06	5.684983e-06	1.812607e-08	4.089230e+01	1.188276e+03
1.910000e-06	5.628968e-06	1.805501e-08	4.048938e+01	1.184399e+03
1.920000e-06	5.570885e-06	1.813723e-08	4.007159e+01	1.180376e+03
1.930000e-06	5.510991e-06	1.790027e-08	3.964077e+01	1.176250e+03
1.940000e-06	5.448954e-06	1.798249e-08	3.919453e+01	1.172033e+03
1.950000e-06	5.384717e-06	1.780809e-08	3.873247e+01	1.167699e+03
1.960000e-06	5.318553e-06	1.777775e-08	3.825655e+01	1.163206e+03
1.970000e-06	5.250444e-06	1.774150e-08	3.776664e+01	1.158500e+03
1.980000e-06	5.180314e-06	1.756118e-08	3.726219e+01	1.153533e+03
1.990000e-06	5.108026e-06	1.761098e-08	3.674223e+01	1.148277e+03
2.000000e-06	5.034022e-06	1.742825e-08	3.620991e+01	1.142724e+03
2.010000e-06	4.958058e-06	1.740198e-08	3.566350e+01	1.136888e+03
2.020000e-06	4.879908e-06	1.727722e-08	3.510136e+01	1.130796e+03
2.030000e-06	4.799975e-06	1.715340e-08	3.452640e+01	1.124475e+03
2.040000e-06	4.718342e-06	1.712709e-08	3.393922e+01	1.117942e+03
2.050000e-06	4.635198e-06	1.697055e-08	3.334115e+01	1.111200e+03
2.060000e-06	4.550559e-06	1.691807e-08	3.273234e+01	1.104228e+03
2.070000e-06	4.464243e-06	1.676300e-08	3.211147e+01	1.096994e+03
2.080000e-06	4.376229e-06	1.667321e-08	3.147838e+01	1.089454e+03
2.090000e-06	4.286659e-06	1.653332e-08	3.083410e+01	1.081568e+03
2.100000e-06	4.195689e-06	1.639465e-08	3.017975e+01	1.073304e+03
2.110000e-06	4.103398e-06	1.629426e-08	2.951590e+01	1.064645e+03
2.120000e-06	4.009665e-06	1.613393e-08	2.884167e+01	1.055592e+03
2.130000e-06	3.914309e-06	1.600615e-08	2.815577e+01	1.046152e+03
2.140000e-06	3.817558e-06	1.583041e-08	2.745984e+01	1.036339e+03
2.150000e-06	3.719512e-06	1.569833e-08	2.675459e+01	1.026158e+03
2.160000e-06	3.620134e-06	1.553114e-08	2.603976e+01	1.015601e+03
2.170000e-06	3.519510e-06	1.537565e-08	2.531596e+01	1.004645e+03
2.180000e-06	3.417564e-06	1.520458e-08	2.458267e+01	9.932512e+02
2.190000e-06	3.314098e-06	1.501952e-08	2.383843e+01	9.813710e+02
2.200000e-06	3.209356e-06	1.482426e-08	2.308502e+01	9.689519e+02
2.210000e-06	3.103632e-06	1.461745e-08	2.232454e+01	9.559456e+02
2.220000e-06	2.996827e-06	1.442083e-08	2.155629e+01	9.423122e+02
2.230000e-06	2.888991e-06	1.420419e-08	2.078062e+01	9.280209e+02
2.240000e-06	2.780209e-06	1.398502e-08	1.999815e+01	9.130476e+02
2.250000e-06	2.670448e-06	1.374544e-08	1.920863e+01	8.973693e+02
2.260000e-06	2.559593e-06	1.350122e-08	1.841125e+01	8.809574e+02
2.270000e-06	2.447692e-06	1.323216e-08	1.760634e+01	8.637728e+02
2.280000e-06	2.334897e-06	1.295664e-08	1.679500e+01	8.457626e+02
2.290000e-06	2.221141e-06	1.266728e-08	1.597675e+01	8.268613e+02
2.300000e-06	2.106482e-06	1.236616e-08	1.515200e+01	8.069941e+02
2.310000e-06	1.991068e-06	1.204915e-08	1.432183e+01	7.860817e+02
2.320000e-06	1.874856e-06	1.171577e-08	1.348591e+01	7.640452e+02
2.330000e-06	1.757898e-06	1.136771e-08	1.264463e+01	7.408079e+02
2.340000e-06	1.640285e-06	1.099349e-08	1.179863e+01	7.162963e+02
2.350000e-06	1.521986e-06	1.059873e-08	1.094770e+01	6.904376e+02
2.360000e-06	1.403031e-06	1.018283e-08	1.009206e+01	6.631573e+02
2.370000e-06	1.283546e-06	9.748078e-09	9.232592e+00	6.343799e+02
2.380000e-06	1.163635e-06	9.285685e-09	8.370069e+00	6.040320e+02
2.390000e-06	1.043334e-06	8.797862e-09	7.504743e+00	5.720530e+02
2.400000e-06	9.227004e-07	8.280164e-09	6.637018e+00	5.384092e+02
2.410000e-06	8.018181e-07	7.739138e-09	5.767508e+00	5.031118e+02
2.420000e-06	6.807472e-07	7.177668e-09	4.896640e+00	4.662335e+02
2.430000e-06	5.595006e-07	6.594438e-09	4.024509e+00	4.279187e+02
2.440000e-06	4.380521e-07	5.992317e-09	3.150925e+00	3.883849e+02
2.450000e-06	3.164970e-07	5.373608e-09	2.276575e+00	3.479100e+02
2.460000e-06	1.948341e-07	4.745249e-09	1.401449e+00	3.068076e+02
2.470000e-06	7.301559e-08	4.110328e-09	5.252039e-01	2.653918e+02
2.480000e-06	-4.886368e-08	3.475446e-09	-3.514783e-01	2.239368e+02
2.490000e-06	-1.706870e-07	2.842676e-09	-1.227758e+00	1.826391e+02
2.500000e-06	-2.924781e-07	2.213918e-09	-2.103806e+00	1.415891e+02
2.510000e-06	-4.142082e-07	1.591050e-09	-2.979416e+00	1.007582e+02
2.520000e-06	-5.358048e-07	9.675867e-10	-3.854064e+00	6.000560e+01
2.530000e-06	-6.572600e-07	3.395564e-10	-4.727696e+00	1.910331e+01
2.540000e-06	-7.784974e-07	-2.947329e-10	-5.599761e+00	-2.222272e+01
2.550000e-06	-8.995187e-07	-9.376401e-10	-6.470272e+00	-6.424269e+01
2.560000e-06	-1.020268e-06	-1.591775e-09	-7.338827e+00	-1.071722e+02
2.570000e-06	-1.140716e-06	-2.263868e-09	-8.205210e+00	-1.511292e+02
2.580000e-06	-1.260840e-06	-2.951177e-09	-9.069269e+00	-1.961046e+02
2.590000e-06	-1.380498e-06	-3.650982e-09	-9.929972e+00	-2.419523e+02
2.600000e-06	-1.499535e-06	-4.361477e-09	-1.078621e+01	-2.883978e+02
2.610000e-06	-1.617846e-06	-5.076911e-09	-1.163723e+01	-3.350637e+02
2.620000e-06	-1.735376e-06	-5.790904e-09	-1.248263e+01	-3.815075e+02
2.630000e-06	-1.852126e-06	-6.493942e-09	-1.332241e+01	-4.272645e+02
2.640000e-06	-1.968095e-06	-7.181947e-09	-1.415658e+01	-4.718905e+02
2.650000e-06	-2.083276e-06	-7.842800e-09	-1.498508e+01	-5.149968e+02
2.660000e-06	-2.197586e-06	-8.473366e-09	-1.580732e+01	-5.562758e+02
2.670000e-06	-2.310852e-06	-9.074460e-09	-1.662205e+01	-5.955140e+02
2.680000e-06	-2.423056e-06	-9.643507e-09	-1.742913e+01	-6.325941e+02
2.690000e-06	-2.534315e-06	-1.017968e-08	-1.822943e+01	-6.674858e+02
2.700000e-06	-2.644552e-06	-1.067849e-08	-1.902237e+01	-7.002319e+02
2.710000e-06	-2.753812e-06	-1.114764e-08	-1.980827e+01	-7.309289e+02
2.720000e-06	-2.862300e-06	-1.159222e-08	-2.058863e+01	-7.597077e+02
2.730000e-06	-2.969908e-06	-1.200832e-08	-2.136266e+01	-7.867158e+02
2.740000e-06	-3.076570e-06	-1.239834e-08	-2.212989e+01	-8.121026e+02
2.750000e-06	-3.182174e-06	-1.276543e-08	-2.288950e+01	-8.360080e+02
2.760000e-06	-3.286666e-06	-1.310758e-08	-2.364112e+01	-8.585559e+02
2.770000e-06	-3.389968e-06	-1.342994e-08	-2.438417e+01	-8.798512e+02
2.780000e-06	-3.491929e-06	-1.373693e-08	-2.511758e+01	-8.999802e+02
2.790000e-06	-3.592595e-06	-1.403038e-08	-2.584167e+01	-9.190137e+02
2.800000e-06	-3.692032e-06	-1.430835e-08	-2.655692e+01	-9.370117e+02
2.810000e-06	-3.790202e-06	-1.456934e-08	-2.726307e+01	-9.540281e+02
2.820000e-06	-3.887148e-06	-1.481598e-08	-2.796040e+01	-9.701158e+02
2.830000e-06	-3.982866e-06	-1.505055e-08	-2.864891e+01	-9.853296e+02
2.840000e-06	-4.077062e-06	-1.527521e-08	-2.932646e+01	-9.997274e+02
2.850000e-06	-4.169695e-06	-1.548904e-08	-2.999277e+01	-1.013369e+03
2.860000e-06	-4.260927e-06	-1.569212e-08	-3.064901e+01	-1.026313e+03
2.870000e-06	-4.350715e-06	-1.588303e-08	-3.129486e+01	-1.038613e+03
2.880000e-06	-4.438959e-06	-1.606143e-08	-3.192960e+01	-1.050316e+03
2.890000e-06	-4.525469e-06	-1.622836e-08	-3.255187e+01	-1.061456e+03
2.900000e-06	-4.610178e-06	-1.638719e-08	-3.316119e+01	-1.072056e+03
2.910000e-06	-4.693363e-06	-1.654024e-08	-3.375953e+01	-1.082130e+03
2.920000e-06	-4.775058e-06	-1.668742e-08	-3.434717e+01	-1.091684e+03
2.930000e-06	-4.855068e-06	-1.682849e-08	-3.492269e+01	-1.100725e+03
2.940000e-06	-4.933079e-06	-1.696323e-08	-3.548382e+01	-1.109259e+03
