# Temperatura_=_28.23
# Concentracion g/m^3_=_28200.0
# C_Vs_to_Am_M_A/Vsm_=_65563218390.804596
# pendiente_HvsI_1/m_=_3716.3
# ordenada_HvsI_A/m_=_1297.0
# frecuencia_Hz_=_302123.013264787

Tiempo_(s)	Campo_(V.s)	Magnetizacion_(V.s)	Campo_(kA/m)	Magnetizacion_(A/m)
0.000000e+00	-6.400786e-06	-1.878645e-08	-4.585408e+01	-1.228953e+03
1.000000e-08	-6.397638e-06	-1.878541e-08	-4.583153e+01	-1.228554e+03
2.000000e-08	-6.392378e-06	-1.877229e-08	-4.579385e+01	-1.228061e+03
3.000000e-08	-6.385206e-06	-1.876364e-08	-4.574247e+01	-1.227484e+03
4.000000e-08	-6.375965e-06	-1.875534e-08	-4.567627e+01	-1.226821e+03
5.000000e-08	-6.364270e-06	-1.874025e-08	-4.559249e+01	-1.226058e+03
6.000000e-08	-6.350166e-06	-1.871970e-08	-4.549145e+01	-1.225172e+03
7.000000e-08	-6.333735e-06	-1.868500e-08	-4.537374e+01	-1.224139e+03
8.000000e-08	-6.315300e-06	-1.866021e-08	-4.524167e+01	-1.222943e+03
9.000000e-08	-6.294812e-06	-1.876164e-08	-4.509490e+01	-1.221582e+03
1.000000e-07	-6.271918e-06	-1.871931e-08	-4.493089e+01	-1.220068e+03
1.100000e-07	-6.246350e-06	-1.861111e-08	-4.474773e+01	-1.218433e+03
1.200000e-07	-6.218377e-06	-1.862282e-08	-4.454733e+01	-1.216717e+03
1.300000e-07	-6.188612e-06	-1.858985e-08	-4.433411e+01	-1.214963e+03
1.400000e-07	-6.157314e-06	-1.838623e-08	-4.410990e+01	-1.213203e+03
1.500000e-07	-6.124172e-06	-1.851212e-08	-4.387247e+01	-1.211453e+03
1.600000e-07	-6.088950e-06	-1.859724e-08	-4.362014e+01	-1.209703e+03
1.700000e-07	-6.051959e-06	-1.831532e-08	-4.335515e+01	-1.207915e+03
1.800000e-07	-6.013001e-06	-1.852514e-08	-4.307606e+01	-1.206036e+03
1.900000e-07	-5.971521e-06	-1.842683e-08	-4.277890e+01	-1.204000e+03
2.000000e-07	-5.927838e-06	-1.821456e-08	-4.246597e+01	-1.201744e+03
2.100000e-07	-5.882120e-06	-1.833327e-08	-4.213845e+01	-1.199217e+03
2.200000e-07	-5.834049e-06	-1.820752e-08	-4.179408e+01	-1.196395e+03
2.300000e-07	-5.783511e-06	-1.818894e-08	-4.143203e+01	-1.193274e+03
2.400000e-07	-5.730390e-06	-1.815527e-08	-4.105148e+01	-1.189878e+03
2.500000e-07	-5.675113e-06	-1.804486e-08	-4.065549e+01	-1.186242e+03
2.600000e-07	-5.617706e-06	-1.803254e-08	-4.024424e+01	-1.182408e+03
2.700000e-07	-5.558152e-06	-1.793586e-08	-3.981760e+01	-1.178411e+03
2.800000e-07	-5.496735e-06	-1.790631e-08	-3.937762e+01	-1.174272e+03
2.900000e-07	-5.433367e-06	-1.784136e-08	-3.892366e+01	-1.169991e+03
3.000000e-07	-5.367872e-06	-1.776905e-08	-3.845447e+01	-1.165553e+03
3.100000e-07	-5.300271e-06	-1.768615e-08	-3.797019e+01	-1.160929e+03
3.200000e-07	-5.230716e-06	-1.758139e-08	-3.747191e+01	-1.156085e+03
3.300000e-07	-5.159341e-06	-1.756912e-08	-3.696059e+01	-1.150992e+03
3.400000e-07	-5.086065e-06	-1.743989e-08	-3.643565e+01	-1.145631e+03
3.500000e-07	-5.010715e-06	-1.735688e-08	-3.589586e+01	-1.139995e+03
3.600000e-07	-4.933220e-06	-1.728347e-08	-3.534070e+01	-1.134089e+03
3.700000e-07	-4.853597e-06	-1.716162e-08	-3.477030e+01	-1.127925e+03
3.800000e-07	-4.772176e-06	-1.708943e-08	-3.418701e+01	-1.121516e+03
3.900000e-07	-4.689190e-06	-1.699324e-08	-3.359251e+01	-1.114867e+03
4.000000e-07	-4.604822e-06	-1.689453e-08	-3.298812e+01	-1.107976e+03
4.100000e-07	-4.519062e-06	-1.675772e-08	-3.237375e+01	-1.100826e+03
4.200000e-07	-4.431830e-06	-1.663956e-08	-3.174884e+01	-1.093393e+03
4.300000e-07	-4.343156e-06	-1.652849e-08	-3.111359e+01	-1.085650e+03
4.400000e-07	-4.252808e-06	-1.639932e-08	-3.046635e+01	-1.077570e+03
4.500000e-07	-4.160825e-06	-1.629415e-08	-2.980741e+01	-1.069133e+03
4.600000e-07	-4.067411e-06	-1.615518e-08	-2.913820e+01	-1.060325e+03
4.700000e-07	-3.972638e-06	-1.601043e-08	-2.845927e+01	-1.051142e+03
4.800000e-07	-3.876507e-06	-1.585312e-08	-2.777060e+01	-1.041583e+03
4.900000e-07	-3.778885e-06	-1.570574e-08	-2.707125e+01	-1.031647e+03
5.000000e-07	-3.679757e-06	-1.555366e-08	-2.636112e+01	-1.021324e+03
5.100000e-07	-3.579272e-06	-1.538745e-08	-2.564126e+01	-1.010596e+03
5.200000e-07	-3.477589e-06	-1.521620e-08	-2.491283e+01	-9.994339e+02
5.300000e-07	-3.374661e-06	-1.502963e-08	-2.417547e+01	-9.877989e+02
5.400000e-07	-3.270510e-06	-1.484523e-08	-2.342935e+01	-9.756467e+02
5.500000e-07	-3.165153e-06	-1.464924e-08	-2.267459e+01	-9.629325e+02
5.600000e-07	-3.058479e-06	-1.445738e-08	-2.191039e+01	-9.496151e+02
5.700000e-07	-2.950595e-06	-1.424362e-08	-2.113754e+01	-9.356592e+02
5.800000e-07	-2.841627e-06	-1.401119e-08	-2.035691e+01	-9.210350e+02
5.900000e-07	-2.731727e-06	-1.376921e-08	-1.956960e+01	-9.057150e+02
6.000000e-07	-2.620931e-06	-1.352145e-08	-1.877588e+01	-8.896703e+02
6.100000e-07	-2.509080e-06	-1.326682e-08	-1.797460e+01	-8.728649e+02
6.200000e-07	-2.396266e-06	-1.300030e-08	-1.716642e+01	-8.552529e+02
6.300000e-07	-2.282475e-06	-1.272538e-08	-1.635124e+01	-8.367769e+02
6.400000e-07	-2.167582e-06	-1.242810e-08	-1.552817e+01	-8.173687e+02
6.500000e-07	-2.051727e-06	-1.211433e-08	-1.469820e+01	-7.969520e+02
6.600000e-07	-1.935180e-06	-1.178124e-08	-1.386328e+01	-7.754460e+02
6.700000e-07	-1.818035e-06	-1.143207e-08	-1.302407e+01	-7.527682e+02
6.800000e-07	-1.700257e-06	-1.106534e-08	-1.218034e+01	-7.288365e+02
6.900000e-07	-1.581977e-06	-1.067674e-08	-1.133300e+01	-7.035688e+02
7.000000e-07	-1.463159e-06	-1.026995e-08	-1.048181e+01	-6.768837e+02
7.100000e-07	-1.343816e-06	-9.839368e-09	-9.626857e+00	-6.487009e+02
7.200000e-07	-1.224016e-06	-9.385337e-09	-8.768632e+00	-6.189447e+02
7.300000e-07	-1.103780e-06	-8.907975e-09	-7.907281e+00	-5.875513e+02
7.400000e-07	-9.831999e-07	-8.404900e-09	-7.043467e+00	-5.544809e+02
7.500000e-07	-8.623057e-07	-7.874391e-09	-6.177403e+00	-5.197316e+02
7.600000e-07	-7.411175e-07	-7.320115e-09	-5.309233e+00	-4.833546e+02
7.700000e-07	-6.196840e-07	-6.739530e-09	-4.439305e+00	-4.454657e+02
7.800000e-07	-4.980953e-07	-6.141383e-09	-3.568266e+00	-4.062497e+02
7.900000e-07	-3.763344e-07	-5.529299e-09	-2.695992e+00	-3.659533e+02
8.000000e-07	-2.544350e-07	-4.902954e-09	-1.822727e+00	-3.248682e+02
8.100000e-07	-1.324235e-07	-4.270393e-09	-9.486579e-01	-2.833013e+02
8.200000e-07	-1.025153e-08	-3.636980e-09	-7.344011e-02	-2.415396e+02
8.300000e-07	1.120309e-07	-3.006429e-09	8.025692e-01	-1.998121e+02
8.400000e-07	2.342902e-07	-2.374837e-09	1.678413e+00	-1.582584e+02
8.500000e-07	3.563878e-07	-1.745402e-09	2.553098e+00	-1.169077e+02
8.600000e-07	4.783332e-07	-1.113509e-09	3.426693e+00	-7.567559e+01
8.700000e-07	6.001769e-07	-4.820934e-10	4.299559e+00	-3.437895e+01
8.800000e-07	7.218653e-07	1.512775e-10	5.171313e+00	7.231870e+00
8.900000e-07	8.433161e-07	7.948370e-10	6.041365e+00	4.942788e+01
9.000000e-07	9.644819e-07	1.448183e-09	6.909375e+00	9.245076e+01
9.100000e-07	1.085341e-06	2.115723e-09	7.775186e+00	1.364647e+02
9.200000e-07	1.205841e-06	2.801437e-09	8.638430e+00	1.815185e+02
9.300000e-07	1.325839e-06	3.503158e-09	9.498071e+00	2.275244e+02
9.400000e-07	1.445282e-06	4.212262e-09	1.035374e+01	2.742561e+02
9.500000e-07	1.564195e-06	4.924894e-09	1.120561e+01	3.213663e+02
9.600000e-07	1.682535e-06	5.640154e-09	1.205338e+01	3.684196e+02
9.700000e-07	1.800256e-06	6.348918e-09	1.289671e+01	4.149364e+02
9.800000e-07	1.917378e-06	7.041512e-09	1.373575e+01	4.604386e+02
9.900000e-07	2.033831e-06	7.712964e-09	1.457000e+01	5.044928e+02
1.000000e-06	2.149410e-06	8.354483e-09	1.539799e+01	5.467432e+02
1.010000e-06	2.263969e-06	8.962017e-09	1.621866e+01	5.869328e+02
1.020000e-06	2.377534e-06	9.535920e-09	1.703223e+01	6.249102e+02
1.030000e-06	2.490086e-06	1.007800e-08	1.783853e+01	6.606242e+02
1.040000e-06	2.601574e-06	1.058764e-08	1.863721e+01	6.941085e+02
1.050000e-06	2.712139e-06	1.106088e-08	1.942928e+01	7.254611e+02
1.060000e-06	2.821891e-06	1.150455e-08	2.021552e+01	7.548210e+02
1.070000e-06	2.930769e-06	1.192004e-08	2.099550e+01	7.823465e+02
1.080000e-06	3.038725e-06	1.231606e-08	2.176888e+01	8.081978e+02
1.090000e-06	3.145571e-06	1.269145e-08	2.253431e+01	8.325237e+02
1.100000e-06	3.251121e-06	1.304445e-08	2.329044e+01	8.554545e+02
1.110000e-06	3.355369e-06	1.337512e-08	2.403726e+01	8.770998e+02
1.120000e-06	3.458391e-06	1.368539e-08	2.477529e+01	8.975490e+02
1.130000e-06	3.560203e-06	1.397641e-08	2.550465e+01	9.168762e+02
1.140000e-06	3.660869e-06	1.424764e-08	2.622581e+01	9.351447e+02
1.150000e-06	3.760371e-06	1.450509e-08	2.693862e+01	9.524123e+02
1.160000e-06	3.858433e-06	1.475313e-08	2.764112e+01	9.687356e+02
1.170000e-06	3.954982e-06	1.499010e-08	2.833278e+01	9.841730e+02
1.180000e-06	4.050047e-06	1.521421e-08	2.901381e+01	9.987848e+02
1.190000e-06	4.143712e-06	1.542525e-08	2.968481e+01	1.012632e+03
1.200000e-06	4.236108e-06	1.562427e-08	3.034671e+01	1.025775e+03
1.210000e-06	4.327056e-06	1.581432e-08	3.099825e+01	1.038268e+03
1.220000e-06	4.416335e-06	1.599194e-08	3.163783e+01	1.050156e+03
1.230000e-06	4.503951e-06	1.616124e-08	3.226549e+01	1.061473e+03
1.240000e-06	4.589966e-06	1.632272e-08	3.288169e+01	1.072241e+03
1.250000e-06	4.674476e-06	1.647768e-08	3.348711e+01	1.082472e+03
1.260000e-06	4.757460e-06	1.662711e-08	3.408159e+01	1.092171e+03
1.270000e-06	4.838662e-06	1.677064e-08	3.466330e+01	1.101339e+03
1.280000e-06	4.917986e-06	1.690422e-08	3.523157e+01	1.109981e+03
1.290000e-06	4.995528e-06	1.702852e-08	3.578707e+01	1.118112e+03
1.300000e-06	5.071114e-06	1.714378e-08	3.632855e+01	1.125753e+03
1.310000e-06	5.144598e-06	1.725138e-08	3.685498e+01	1.132939e+03
1.320000e-06	5.216136e-06	1.735278e-08	3.736746e+01	1.139711e+03
1.330000e-06	5.285853e-06	1.745007e-08	3.786690e+01	1.146114e+03
1.340000e-06	5.353808e-06	1.754299e-08	3.835372e+01	1.152192e+03
1.350000e-06	5.419779e-06	1.762994e-08	3.882633e+01	1.157983e+03
1.360000e-06	5.483564e-06	1.771169e-08	3.928327e+01	1.163513e+03
1.370000e-06	5.545451e-06	1.779019e-08	3.972662e+01	1.168798e+03
1.380000e-06	5.605684e-06	1.786727e-08	4.015811e+01	1.173844e+03
1.390000e-06	5.663967e-06	1.794168e-08	4.057564e+01	1.178650e+03
1.400000e-06	5.720077e-06	1.801328e-08	4.097760e+01	1.183214e+03
1.410000e-06	5.774116e-06	1.808021e-08	4.136473e+01	1.187531e+03
1.420000e-06	5.825928e-06	1.814101e-08	4.173591e+01	1.191602e+03
1.430000e-06	5.875223e-06	1.819671e-08	4.208905e+01	1.195433e+03
1.440000e-06	5.922229e-06	1.824965e-08	4.242579e+01	1.199031e+03
1.450000e-06	5.967350e-06	1.829952e-08	4.274902e+01	1.202404e+03
1.460000e-06	6.010460e-06	1.834709e-08	4.305785e+01	1.205561e+03
1.470000e-06	6.051227e-06	1.839270e-08	4.334991e+01	1.208504e+03
1.480000e-06	6.089762e-06	1.843462e-08	4.362596e+01	1.211232e+03
1.490000e-06	6.126385e-06	1.847138e-08	4.388832e+01	1.213743e+03
1.500000e-06	6.160928e-06	1.850328e-08	4.413578e+01	1.216033e+03
1.510000e-06	6.193156e-06	1.853282e-08	4.436666e+01	1.218101e+03
1.520000e-06	6.223183e-06	1.855979e-08	4.458177e+01	1.219954e+03
1.530000e-06	6.251243e-06	1.858316e-08	4.478278e+01	1.221602e+03
1.540000e-06	6.277022e-06	1.860456e-08	4.496746e+01	1.223061e+03
1.550000e-06	6.300251e-06	1.862478e-08	4.513387e+01	1.224352e+03
1.560000e-06	6.321249e-06	1.864176e-08	4.528429e+01	1.225491e+03
1.570000e-06	6.340235e-06	1.865716e-08	4.542030e+01	1.226490e+03
1.580000e-06	6.356958e-06	1.867107e-08	4.554011e+01	1.227355e+03
1.590000e-06	6.371223e-06	1.868222e-08	4.564230e+01	1.228082e+03
1.600000e-06	6.383043e-06	1.869030e-08	4.572697e+01	1.228661e+03
1.610000e-06	6.392276e-06	1.869568e-08	4.579312e+01	1.229080e+03
1.620000e-06	6.399037e-06	1.870111e-08	4.584155e+01	1.229332e+03
1.630000e-06	6.403695e-06	1.870553e-08	4.587492e+01	1.229414e+03
1.640000e-06	6.406125e-06	1.870615e-08	4.589233e+01	1.229335e+03
1.650000e-06	6.406163e-06	1.871005e-08	4.589260e+01	1.229112e+03
1.660000e-06	6.404035e-06	1.869831e-08	4.587735e+01	1.228766e+03
1.670000e-06	6.400012e-06	1.869300e-08	4.584853e+01	1.228318e+03
1.680000e-06	6.393735e-06	1.868773e-08	4.580357e+01	1.227783e+03
1.690000e-06	6.385200e-06	1.867608e-08	4.574243e+01	1.227164e+03
1.700000e-06	6.374743e-06	1.866581e-08	4.566751e+01	1.226453e+03
1.710000e-06	6.362151e-06	1.865754e-08	4.557731e+01	1.225632e+03
1.720000e-06	6.347269e-06	1.867457e-08	4.547070e+01	1.224675e+03
1.730000e-06	6.330325e-06	1.864963e-08	4.534931e+01	1.223562e+03
1.740000e-06	6.311432e-06	1.848680e-08	4.521397e+01	1.222283e+03
1.750000e-06	6.289631e-06	1.852735e-08	4.505779e+01	1.220843e+03
1.760000e-06	6.264540e-06	1.857501e-08	4.487804e+01	1.219263e+03
1.770000e-06	6.237137e-06	1.847233e-08	4.468173e+01	1.217582e+03
1.780000e-06	6.207889e-06	1.861252e-08	4.447221e+01	1.215842e+03
1.790000e-06	6.176970e-06	1.859556e-08	4.425070e+01	1.214082e+03
1.800000e-06	6.144729e-06	1.830722e-08	4.401974e+01	1.212327e+03
1.810000e-06	6.110400e-06	1.850645e-08	4.377381e+01	1.210580e+03
1.820000e-06	6.074059e-06	1.835099e-08	4.351347e+01	1.208817e+03
1.830000e-06	6.035813e-06	1.823178e-08	4.323948e+01	1.206991e+03
1.840000e-06	5.995008e-06	1.856896e-08	4.294716e+01	1.205042e+03
1.850000e-06	5.952170e-06	1.828808e-08	4.264028e+01	1.202903e+03
1.860000e-06	5.907424e-06	1.835475e-08	4.231973e+01	1.200516e+03
1.870000e-06	5.860431e-06	1.834940e-08	4.198308e+01	1.197844e+03
1.880000e-06	5.811323e-06	1.810046e-08	4.163127e+01	1.194871e+03
1.890000e-06	5.759694e-06	1.827120e-08	4.126142e+01	1.191608e+03
1.900000e-06	5.705515e-06	1.805766e-08	4.087328e+01	1.188087e+03
1.910000e-06	5.649203e-06	1.808130e-08	4.046988e+01	1.184347e+03
1.920000e-06	5.590785e-06	1.811518e-08	4.005138e+01	1.180428e+03
1.930000e-06	5.530514e-06	1.787603e-08	3.961961e+01	1.176359e+03
1.940000e-06	5.468083e-06	1.796726e-08	3.917236e+01	1.172150e+03
1.950000e-06	5.403455e-06	1.776554e-08	3.870938e+01	1.167794e+03
1.960000e-06	5.336919e-06	1.779693e-08	3.823273e+01	1.163267e+03
1.970000e-06	5.268472e-06	1.770527e-08	3.774239e+01	1.158537e+03
1.980000e-06	5.197870e-06	1.756093e-08	3.723661e+01	1.153571e+03
1.990000e-06	5.125070e-06	1.759860e-08	3.671508e+01	1.148346e+03
2.000000e-06	5.050660e-06	1.738925e-08	3.618202e+01	1.142847e+03
2.010000e-06	4.974301e-06	1.740809e-08	3.563500e+01	1.137075e+03
2.020000e-06	4.895724e-06	1.726270e-08	3.507209e+01	1.131038e+03
2.030000e-06	4.815380e-06	1.716541e-08	3.449652e+01	1.124750e+03
2.040000e-06	4.733388e-06	1.709328e-08	3.390914e+01	1.118221e+03
2.050000e-06	4.649875e-06	1.694606e-08	3.331087e+01	1.111453e+03
2.060000e-06	4.564819e-06	1.690770e-08	3.270154e+01	1.104434e+03
2.070000e-06	4.477994e-06	1.674567e-08	3.207954e+01	1.097146e+03
2.080000e-06	4.389454e-06	1.667266e-08	3.144526e+01	1.089562e+03
2.090000e-06	4.299483e-06	1.650753e-08	3.080073e+01	1.081654e+03
2.100000e-06	4.208139e-06	1.637742e-08	3.014635e+01	1.073397e+03
2.110000e-06	4.115332e-06	1.626231e-08	2.948150e+01	1.064776e+03
2.120000e-06	4.021058e-06	1.612287e-08	2.880614e+01	1.055781e+03
2.130000e-06	3.925288e-06	1.600749e-08	2.812006e+01	1.046410e+03
2.140000e-06	3.828073e-06	1.583137e-08	2.742363e+01	1.036663e+03
2.150000e-06	3.729542e-06	1.569295e-08	2.671777e+01	1.026534e+03
2.160000e-06	3.629733e-06	1.551256e-08	2.600276e+01	1.016012e+03
2.170000e-06	3.528600e-06	1.536162e-08	2.527826e+01	1.005071e+03
2.180000e-06	3.426060e-06	1.519015e-08	2.454368e+01	9.936782e+02
2.190000e-06	3.322109e-06	1.501886e-08	2.379899e+01	9.817903e+02
2.200000e-06	3.216989e-06	1.481707e-08	2.304593e+01	9.693625e+02
2.210000e-06	3.110818e-06	1.460551e-08	2.228534e+01	9.563515e+02
2.220000e-06	3.003541e-06	1.440439e-08	2.151683e+01	9.427189e+02
2.230000e-06	2.895220e-06	1.419609e-08	2.074084e+01	9.284323e+02
2.240000e-06	2.785946e-06	1.398147e-08	1.995802e+01	9.134637e+02
2.250000e-06	2.675687e-06	1.374093e-08	1.916814e+01	8.977853e+02
2.260000e-06	2.564319e-06	1.349522e-08	1.837032e+01	8.813653e+02
2.270000e-06	2.451912e-06	1.321926e-08	1.756506e+01	8.641630e+02
2.280000e-06	2.338511e-06	1.294311e-08	1.675267e+01	8.461270e+02
2.290000e-06	2.224161e-06	1.265394e-08	1.593349e+01	8.271939e+02
2.300000e-06	2.108987e-06	1.235724e-08	1.510841e+01	8.072914e+02
2.310000e-06	1.992970e-06	1.204020e-08	1.427728e+01	7.863403e+02
2.320000e-06	1.876137e-06	1.170453e-08	1.344031e+01	7.642587e+02
2.330000e-06	1.758551e-06	1.135171e-08	1.259795e+01	7.409642e+02
2.340000e-06	1.640291e-06	1.097757e-08	1.175075e+01	7.163747e+02
2.350000e-06	1.521358e-06	1.058329e-08	1.089874e+01	6.904085e+02
2.360000e-06	1.401784e-06	1.016469e-08	1.004213e+01	6.629844e+02
2.370000e-06	1.281709e-06	9.723921e-09	9.181936e+00	6.340238e+02
2.380000e-06	1.161286e-06	9.257508e-09	8.319245e+00	6.034559e+02
2.390000e-06	1.040511e-06	8.770738e-09	7.454034e+00	5.712270e+02
2.400000e-06	9.194469e-07	8.251265e-09	6.586753e+00	5.373143e+02
2.410000e-06	7.981834e-07	7.706981e-09	5.718043e+00	5.017409e+02
2.420000e-06	6.766438e-07	7.140511e-09	4.847355e+00	4.645892e+02
2.430000e-06	5.549039e-07	6.550429e-09	3.975232e+00	4.260095e+02
2.440000e-06	4.329833e-07	5.942454e-09	3.101815e+00	3.862190e+02
2.450000e-06	3.108682e-07	5.319633e-09	2.227004e+00	3.454901e+02
2.460000e-06	1.886361e-07	4.689079e-09	1.351355e+00	3.041261e+02
2.470000e-06	6.635264e-08	4.050096e-09	4.753384e-01	2.624287e+02
2.480000e-06	-5.597356e-08	3.408707e-09	-4.009846e-01	2.206605e+02
2.490000e-06	-1.782446e-07	2.770682e-09	-1.276912e+00	1.790090e+02
2.500000e-06	-3.004523e-07	2.139024e-09	-2.152387e+00	1.375604e+02
2.510000e-06	-4.226618e-07	1.513416e-09	-3.027874e+00	9.628624e+01
2.520000e-06	-5.447457e-07	8.848198e-10	-3.902461e+00	5.504986e+01
2.530000e-06	-6.666089e-07	2.501217e-10	-4.775467e+00	1.362983e+01
2.540000e-06	-7.883088e-07	-3.927736e-10	-5.647302e+00	-2.824033e+01
2.550000e-06	-9.098082e-07	-1.046688e-09	-6.517703e+00	-7.082337e+01
2.560000e-06	-1.031019e-06	-1.710921e-09	-7.386038e+00	-1.143277e+02
2.570000e-06	-1.151949e-06	-2.390277e-09	-8.252353e+00	-1.588638e+02
2.580000e-06	-1.272506e-06	-3.085675e-09	-9.116004e+00	-2.044134e+02
2.590000e-06	-1.392538e-06	-3.794015e-09	-9.975893e+00	-2.508187e+02
2.600000e-06	-1.512039e-06	-4.512264e-09	-1.083198e+01	-2.977895e+02
2.610000e-06	-1.630907e-06	-5.234184e-09	-1.168353e+01	-3.449295e+02
2.620000e-06	-1.748988e-06	-5.951907e-09	-1.252944e+01	-3.917755e+02
2.630000e-06	-1.866325e-06	-6.656588e-09	-1.337002e+01	-4.378429e+02
2.640000e-06	-1.982872e-06	-7.345212e-09	-1.420494e+01	-4.826711e+02
2.650000e-06	-2.098571e-06	-8.008511e-09	-1.503378e+01	-5.258620e+02
2.660000e-06	-2.213307e-06	-8.640540e-09	-1.585574e+01	-5.671075e+02
2.670000e-06	-2.326998e-06	-9.240534e-09	-1.667019e+01	-6.062035e+02
2.680000e-06	-2.439639e-06	-9.807550e-09	-1.747714e+01	-6.430498e+02
2.690000e-06	-2.551320e-06	-1.033779e-08	-1.827720e+01	-6.776402e+02
2.700000e-06	-2.662037e-06	-1.083116e-08	-1.907036e+01	-7.100433e+02
2.710000e-06	-2.771705e-06	-1.129447e-08	-1.985600e+01	-7.403805e+02
2.720000e-06	-2.880480e-06	-1.172879e-08	-2.063525e+01	-7.688029e+02
2.730000e-06	-2.988381e-06	-1.213689e-08	-2.140822e+01	-7.954717e+02
2.740000e-06	-3.095357e-06	-1.252381e-08	-2.217459e+01	-8.205428e+02
2.750000e-06	-3.201369e-06	-1.288694e-08	-2.293403e+01	-8.441562e+02
2.760000e-06	-3.306236e-06	-1.322437e-08	-2.368528e+01	-8.664318e+02
2.770000e-06	-3.409859e-06	-1.354468e-08	-2.442762e+01	-8.874689e+02
2.780000e-06	-3.512181e-06	-1.385089e-08	-2.516063e+01	-9.073487e+02
2.790000e-06	-3.613170e-06	-1.414003e-08	-2.588410e+01	-9.261391e+02
2.800000e-06	-3.712858e-06	-1.441163e-08	-2.659825e+01	-9.439000e+02
2.810000e-06	-3.811323e-06	-1.466811e-08	-2.730363e+01	-9.606884e+02
2.820000e-06	-3.908592e-06	-1.490993e-08	-2.800045e+01	-9.765614e+02
2.830000e-06	-4.004537e-06	-1.513864e-08	-2.868778e+01	-9.915783e+02
2.840000e-06	-4.099018e-06	-1.535869e-08	-2.936463e+01	-1.005800e+03
2.850000e-06	-4.192032e-06	-1.556986e-08	-3.003096e+01	-1.019288e+03
2.860000e-06	-4.283584e-06	-1.577156e-08	-3.068683e+01	-1.032100e+03
2.870000e-06	-4.373622e-06	-1.596118e-08	-3.133184e+01	-1.044285e+03
2.880000e-06	-4.462116e-06	-1.613750e-08	-3.196580e+01	-1.055884e+03
2.890000e-06	-4.548889e-06	-1.630415e-08	-3.258743e+01	-1.066925e+03
2.900000e-06	-4.633921e-06	-1.646008e-08	-3.319658e+01	-1.077423e+03
2.910000e-06	-4.717371e-06	-1.660879e-08	-3.379440e+01	-1.087388e+03
2.920000e-06	-4.799285e-06	-1.675132e-08	-3.438122e+01	-1.096821e+03
2.930000e-06	-4.879543e-06	-1.688887e-08	-3.495617e+01	-1.105725e+03
2.940000e-06	-4.957849e-06	-1.702130e-08	-3.551714e+01	-1.114109e+03
