# Temperatura_=_91.38
# Concentracion g/m^3_=_28200.0
# C_Vs_to_Am_M_A/Vsm_=_65563218390.804596
# pendiente_HvsI_1/m_=_3716.3
# ordenada_HvsI_A/m_=_1297.0
# frecuencia_Hz_=_302113.1577562808

Tiempo_(s)	Campo_(V.s)	Magnetizacion_(V.s)	Campo_(kA/m)	Magnetizacion_(A/m)
0.000000e+00	-6.394028e-06	-2.564825e-08	-4.557482e+01	-1.676767e+03
1.000000e-08	-6.390504e-06	-2.564249e-08	-4.554971e+01	-1.676147e+03
2.000000e-08	-6.384920e-06	-2.562784e-08	-4.550991e+01	-1.675382e+03
3.000000e-08	-6.377429e-06	-2.561411e-08	-4.545651e+01	-1.674491e+03
4.000000e-08	-6.367862e-06	-2.559701e-08	-4.538832e+01	-1.673473e+03
5.000000e-08	-6.355898e-06	-2.557486e-08	-4.530304e+01	-1.672311e+03
6.000000e-08	-6.341566e-06	-2.554686e-08	-4.520089e+01	-1.670972e+03
7.000000e-08	-6.324937e-06	-2.550034e-08	-4.508236e+01	-1.669422e+03
8.000000e-08	-6.306222e-06	-2.546843e-08	-4.494897e+01	-1.667634e+03
9.000000e-08	-6.285384e-06	-2.553193e-08	-4.480044e+01	-1.665603e+03
1.000000e-07	-6.262108e-06	-2.548388e-08	-4.463453e+01	-1.663354e+03
1.100000e-07	-6.236194e-06	-2.539567e-08	-4.444983e+01	-1.660936e+03
1.200000e-07	-6.207892e-06	-2.538677e-08	-4.424810e+01	-1.658418e+03
1.300000e-07	-6.177737e-06	-2.533822e-08	-4.403316e+01	-1.655871e+03
1.400000e-07	-6.146020e-06	-2.516130e-08	-4.380709e+01	-1.653348e+03
1.500000e-07	-6.112494e-06	-2.525128e-08	-4.356813e+01	-1.650870e+03
1.600000e-07	-6.076941e-06	-2.525975e-08	-4.331472e+01	-1.648416e+03
1.700000e-07	-6.039624e-06	-2.503839e-08	-4.304874e+01	-1.645919e+03
1.800000e-07	-6.000261e-06	-2.517187e-08	-4.276816e+01	-1.643278e+03
1.900000e-07	-5.958385e-06	-2.500431e-08	-4.246968e+01	-1.640377e+03
2.000000e-07	-5.914341e-06	-2.488857e-08	-4.215575e+01	-1.637107e+03
2.100000e-07	-5.868215e-06	-2.495892e-08	-4.182698e+01	-1.633387e+03
2.200000e-07	-5.819732e-06	-2.475531e-08	-4.148140e+01	-1.629180e+03
2.300000e-07	-5.768737e-06	-2.471695e-08	-4.111793e+01	-1.624494e+03
2.400000e-07	-5.715258e-06	-2.467534e-08	-4.073674e+01	-1.619382e+03
2.500000e-07	-5.659662e-06	-2.454788e-08	-4.034047e+01	-1.613921e+03
2.600000e-07	-5.601818e-06	-2.450019e-08	-3.992818e+01	-1.608190e+03
2.700000e-07	-5.541773e-06	-2.440138e-08	-3.950019e+01	-1.602257e+03
2.800000e-07	-5.479914e-06	-2.431742e-08	-3.905928e+01	-1.596155e+03
2.900000e-07	-5.416087e-06	-2.418242e-08	-3.860434e+01	-1.589883e+03
3.000000e-07	-5.350113e-06	-2.410236e-08	-3.813409e+01	-1.583404e+03
3.100000e-07	-5.282078e-06	-2.402686e-08	-3.764916e+01	-1.576665e+03
3.200000e-07	-5.212038e-06	-2.390015e-08	-3.714993e+01	-1.569605e+03
3.300000e-07	-5.140209e-06	-2.380299e-08	-3.663796e+01	-1.562179e+03
3.400000e-07	-5.066536e-06	-2.363336e-08	-3.611284e+01	-1.554365e+03
3.500000e-07	-4.990740e-06	-2.352724e-08	-3.557258e+01	-1.546165e+03
3.600000e-07	-4.912845e-06	-2.340586e-08	-3.501737e+01	-1.537605e+03
3.700000e-07	-4.832881e-06	-2.326015e-08	-3.444741e+01	-1.528719e+03
3.800000e-07	-4.751090e-06	-2.314872e-08	-3.386443e+01	-1.519535e+03
3.900000e-07	-4.667771e-06	-2.298731e-08	-3.327055e+01	-1.510064e+03
4.000000e-07	-4.583070e-06	-2.282039e-08	-3.266682e+01	-1.500294e+03
4.100000e-07	-4.496934e-06	-2.265864e-08	-3.205287e+01	-1.490190e+03
4.200000e-07	-4.409365e-06	-2.251595e-08	-3.142871e+01	-1.479702e+03
4.300000e-07	-4.320336e-06	-2.235095e-08	-3.079414e+01	-1.468778e+03
4.400000e-07	-4.229600e-06	-2.216722e-08	-3.014739e+01	-1.457375e+03
4.500000e-07	-4.137231e-06	-2.199410e-08	-2.948901e+01	-1.445470e+03
4.600000e-07	-4.043409e-06	-2.179326e-08	-2.882028e+01	-1.433061e+03
4.700000e-07	-3.948297e-06	-2.160216e-08	-2.814235e+01	-1.420162e+03
4.800000e-07	-3.851843e-06	-2.140325e-08	-2.745485e+01	-1.406792e+03
4.900000e-07	-3.753842e-06	-2.119783e-08	-2.675632e+01	-1.392965e+03
5.000000e-07	-3.654341e-06	-2.097554e-08	-2.604711e+01	-1.378675e+03
5.100000e-07	-3.553478e-06	-2.074147e-08	-2.532819e+01	-1.363891e+03
5.200000e-07	-3.451411e-06	-2.050421e-08	-2.460068e+01	-1.348559e+03
5.300000e-07	-3.348203e-06	-2.025323e-08	-2.386504e+01	-1.332610e+03
5.400000e-07	-3.243792e-06	-2.000249e-08	-2.312083e+01	-1.315972e+03
5.500000e-07	-3.138074e-06	-1.973833e-08	-2.236730e+01	-1.298582e+03
5.600000e-07	-3.030991e-06	-1.946804e-08	-2.160404e+01	-1.280396e+03
5.700000e-07	-2.922667e-06	-1.917734e-08	-2.083194e+01	-1.261388e+03
5.800000e-07	-2.813344e-06	-1.887358e-08	-2.005272e+01	-1.241548e+03
5.900000e-07	-2.703080e-06	-1.855431e-08	-1.926679e+01	-1.220870e+03
6.000000e-07	-2.591891e-06	-1.821877e-08	-1.847427e+01	-1.199333e+03
6.100000e-07	-2.479772e-06	-1.787563e-08	-1.767512e+01	-1.176891e+03
6.200000e-07	-2.366622e-06	-1.751983e-08	-1.686861e+01	-1.153468e+03
6.300000e-07	-2.252382e-06	-1.714610e-08	-1.605434e+01	-1.128954e+03
6.400000e-07	-2.137204e-06	-1.675001e-08	-1.523339e+01	-1.103219e+03
6.500000e-07	-2.021066e-06	-1.633699e-08	-1.440559e+01	-1.076121e+03
6.600000e-07	-1.904050e-06	-1.589616e-08	-1.357153e+01	-1.047523e+03
6.700000e-07	-1.786490e-06	-1.543247e-08	-1.273360e+01	-1.017303e+03
6.800000e-07	-1.668391e-06	-1.494883e-08	-1.189182e+01	-9.853542e+02
6.900000e-07	-1.549719e-06	-1.443851e-08	-1.104596e+01	-9.515811e+02
7.000000e-07	-1.430536e-06	-1.389512e-08	-1.019645e+01	-9.158871e+02
7.100000e-07	-1.310903e-06	-1.331495e-08	-9.343747e+00	-8.781627e+02
7.200000e-07	-1.190872e-06	-1.270442e-08	-8.488202e+00	-8.382787e+02
7.300000e-07	-1.070447e-06	-1.205924e-08	-7.629847e+00	-7.960904e+02
7.400000e-07	-9.495729e-07	-1.137809e-08	-6.768287e+00	-7.514547e+02
7.500000e-07	-8.282487e-07	-1.066004e-08	-5.903522e+00	-7.042596e+02
7.600000e-07	-7.066782e-07	-9.904059e-09	-5.037003e+00	-6.544602e+02
7.700000e-07	-5.848786e-07	-9.102501e-09	-4.168849e+00	-6.021112e+02
7.800000e-07	-4.628120e-07	-8.264766e-09	-3.298793e+00	-5.473880e+02
7.900000e-07	-3.406159e-07	-7.401484e-09	-2.427813e+00	-4.905862e+02
8.000000e-07	-2.182836e-07	-6.513290e-09	-1.555864e+00	-4.320961e+02
8.100000e-07	-9.580386e-08	-5.607086e-09	-6.828628e-01	-3.723537e+02
8.200000e-07	2.671903e-08	-4.687637e-09	1.904457e-01	-3.117754e+02
8.300000e-07	1.492021e-07	-3.758960e-09	1.063470e+00	-2.506906e+02
8.400000e-07	2.716443e-07	-2.821423e-09	1.936204e+00	-1.892854e+02
8.500000e-07	3.940411e-07	-1.880964e-09	2.808614e+00	-1.275727e+02
8.600000e-07	5.163998e-07	-9.344100e-10	3.680752e+00	-6.539697e+01
8.700000e-07	6.386623e-07	2.268465e-11	4.552204e+00	-2.476691e+00
8.800000e-07	7.607799e-07	9.971050e-10	5.422624e+00	6.152214e+01
8.900000e-07	8.826688e-07	1.991098e-09	6.291414e+00	1.268944e+02
9.000000e-07	1.004189e-06	3.005851e-09	7.157575e+00	1.938039e+02
9.100000e-07	1.125303e-06	4.045024e-09	8.020843e+00	2.622095e+02
9.200000e-07	1.245872e-06	5.102619e-09	8.880222e+00	3.318249e+02
9.300000e-07	1.365871e-06	6.172561e-09	9.735545e+00	4.021204e+02
9.400000e-07	1.485397e-06	7.242111e-09	1.058749e+01	4.723671e+02
9.500000e-07	1.604491e-06	8.297503e-09	1.143636e+01	5.417154e+02
9.600000e-07	1.723048e-06	9.323572e-09	1.228140e+01	6.092922e+02
9.700000e-07	1.840976e-06	1.030792e-08	1.312196e+01	6.743004e+02
9.800000e-07	1.958304e-06	1.124282e-08	1.395824e+01	7.361013e+02
9.900000e-07	2.074859e-06	1.212213e-08	1.478901e+01	7.942677e+02
1.000000e-06	2.190475e-06	1.294340e-08	1.561309e+01	8.486019e+02
1.010000e-06	2.305115e-06	1.370677e-08	1.643021e+01	8.991177e+02
1.020000e-06	2.418753e-06	1.441726e-08	1.724019e+01	9.459958e+02
1.030000e-06	2.531369e-06	1.507686e-08	1.804288e+01	9.895239e+02
1.040000e-06	2.642944e-06	1.569056e-08	1.883816e+01	1.030035e+03
1.050000e-06	2.753589e-06	1.626313e-08	1.962681e+01	1.067854e+03
1.060000e-06	2.863373e-06	1.680125e-08	2.040931e+01	1.103266e+03
1.070000e-06	2.972271e-06	1.730323e-08	2.118551e+01	1.136498e+03
1.080000e-06	3.080233e-06	1.777777e-08	2.195503e+01	1.167725e+03
1.090000e-06	3.187108e-06	1.822395e-08	2.271680e+01	1.197083e+03
1.100000e-06	3.292792e-06	1.864213e-08	2.347009e+01	1.224686e+03
1.110000e-06	3.397068e-06	1.903533e-08	2.421334e+01	1.250649e+03
1.120000e-06	3.500034e-06	1.940674e-08	2.494725e+01	1.275089e+03
1.130000e-06	3.601877e-06	1.975807e-08	2.567316e+01	1.298132e+03
1.140000e-06	3.702547e-06	2.008945e-08	2.639071e+01	1.319907e+03
1.150000e-06	3.801996e-06	2.040576e-08	2.709955e+01	1.340534e+03
1.160000e-06	3.900077e-06	2.070586e-08	2.779865e+01	1.360115e+03
1.170000e-06	3.996510e-06	2.098902e-08	2.848599e+01	1.378734e+03
1.180000e-06	4.091455e-06	2.125420e-08	2.916273e+01	1.396447e+03
1.190000e-06	4.185138e-06	2.150707e-08	2.983048e+01	1.413296e+03
1.200000e-06	4.277514e-06	2.174870e-08	3.048891e+01	1.429313e+03
1.210000e-06	4.368526e-06	2.197912e-08	3.113762e+01	1.444530e+03
1.220000e-06	4.457784e-06	2.219845e-08	3.177383e+01	1.458984e+03
1.230000e-06	4.545311e-06	2.240726e-08	3.239769e+01	1.472720e+03
1.240000e-06	4.631266e-06	2.260436e-08	3.301035e+01	1.485790e+03
1.250000e-06	4.715685e-06	2.279418e-08	3.361207e+01	1.498246e+03
1.260000e-06	4.798619e-06	2.297483e-08	3.420320e+01	1.510136e+03
1.270000e-06	4.879698e-06	2.314757e-08	3.478111e+01	1.521500e+03
1.280000e-06	4.958824e-06	2.331433e-08	3.534509e+01	1.532361e+03
1.290000e-06	5.036223e-06	2.347288e-08	3.589677e+01	1.542734e+03
1.300000e-06	5.111762e-06	2.362134e-08	3.643520e+01	1.552622e+03
1.310000e-06	5.185165e-06	2.376258e-08	3.695839e+01	1.562028e+03
1.320000e-06	5.256539e-06	2.389978e-08	3.746712e+01	1.570954e+03
1.330000e-06	5.326088e-06	2.403107e-08	3.796285e+01	1.579409e+03
1.340000e-06	5.393817e-06	2.415279e-08	3.844560e+01	1.587407e+03
1.350000e-06	5.459459e-06	2.426743e-08	3.891348e+01	1.594970e+03
1.360000e-06	5.523103e-06	2.437646e-08	3.936712e+01	1.602121e+03
1.370000e-06	5.585010e-06	2.447930e-08	3.980837e+01	1.608882e+03
1.380000e-06	5.645148e-06	2.457567e-08	4.023702e+01	1.615276e+03
1.390000e-06	5.703254e-06	2.466649e-08	4.065118e+01	1.621323e+03
1.400000e-06	5.759153e-06	2.475402e-08	4.104962e+01	1.627040e+03
1.410000e-06	5.813061e-06	2.483665e-08	4.143386e+01	1.632447e+03
1.420000e-06	5.864583e-06	2.491566e-08	4.180109e+01	1.637563e+03
1.430000e-06	5.913527e-06	2.499080e-08	4.214995e+01	1.642410e+03
1.440000e-06	5.960328e-06	2.505924e-08	4.248354e+01	1.647010e+03
1.450000e-06	6.005241e-06	2.512312e-08	4.280366e+01	1.651379e+03
1.460000e-06	6.048173e-06	2.518565e-08	4.310967e+01	1.655528e+03
1.470000e-06	6.088804e-06	2.524759e-08	4.339927e+01	1.659457e+03
1.480000e-06	6.127208e-06	2.530534e-08	4.367301e+01	1.663155e+03
1.490000e-06	6.163675e-06	2.535751e-08	4.393293e+01	1.666603e+03
1.500000e-06	6.197941e-06	2.540333e-08	4.417717e+01	1.669779e+03
1.510000e-06	6.229894e-06	2.544327e-08	4.440493e+01	1.672662e+03
1.520000e-06	6.259675e-06	2.547984e-08	4.461719e+01	1.675242e+03
1.530000e-06	6.287407e-06	2.551366e-08	4.481486e+01	1.677522e+03
1.540000e-06	6.312832e-06	2.554309e-08	4.499608e+01	1.679519e+03
1.550000e-06	6.335704e-06	2.556930e-08	4.515911e+01	1.681258e+03
1.560000e-06	6.356429e-06	2.559232e-08	4.530683e+01	1.682770e+03
1.570000e-06	6.375084e-06	2.561284e-08	4.543979e+01	1.684083e+03
1.580000e-06	6.391398e-06	2.563097e-08	4.555608e+01	1.685214e+03
1.590000e-06	6.405305e-06	2.564352e-08	4.565520e+01	1.686165e+03
1.600000e-06	6.416784e-06	2.565285e-08	4.573702e+01	1.686927e+03
1.610000e-06	6.425669e-06	2.565990e-08	4.580035e+01	1.687482e+03
1.620000e-06	6.432164e-06	2.566672e-08	4.584665e+01	1.687813e+03
1.630000e-06	6.436568e-06	2.567112e-08	4.587804e+01	1.687909e+03
1.640000e-06	6.438611e-06	2.567135e-08	4.589260e+01	1.687772e+03
1.650000e-06	6.438244e-06	2.567217e-08	4.588998e+01	1.687419e+03
1.660000e-06	6.435838e-06	2.565803e-08	4.587283e+01	1.686879e+03
1.670000e-06	6.431502e-06	2.564873e-08	4.584193e+01	1.686180e+03
1.680000e-06	6.424885e-06	2.563719e-08	4.579476e+01	1.685348e+03
1.690000e-06	6.416022e-06	2.562245e-08	4.573159e+01	1.684391e+03
1.700000e-06	6.405276e-06	2.560981e-08	4.565500e+01	1.683301e+03
1.710000e-06	6.392354e-06	2.559667e-08	4.556289e+01	1.682052e+03
1.720000e-06	6.377128e-06	2.560715e-08	4.545436e+01	1.680608e+03
1.730000e-06	6.359879e-06	2.557431e-08	4.533142e+01	1.678938e+03
1.740000e-06	6.340513e-06	2.544087e-08	4.519338e+01	1.677024e+03
1.750000e-06	6.318216e-06	2.544699e-08	4.503446e+01	1.674876e+03
1.760000e-06	6.292729e-06	2.545246e-08	4.485280e+01	1.672532e+03
1.770000e-06	6.264989e-06	2.536361e-08	4.465507e+01	1.670052e+03
1.780000e-06	6.235423e-06	2.546148e-08	4.444433e+01	1.667507e+03
1.790000e-06	6.204254e-06	2.541411e-08	4.422217e+01	1.664964e+03
1.800000e-06	6.171680e-06	2.519237e-08	4.398999e+01	1.662460e+03
1.810000e-06	6.137035e-06	2.534108e-08	4.374305e+01	1.659997e+03
1.820000e-06	6.100395e-06	2.515855e-08	4.348189e+01	1.657528e+03
1.830000e-06	6.061636e-06	2.513248e-08	4.320563e+01	1.654970e+03
1.840000e-06	6.020359e-06	2.539016e-08	4.291142e+01	1.652210e+03
1.850000e-06	5.977107e-06	2.510568e-08	4.260313e+01	1.649134e+03
1.860000e-06	5.931848e-06	2.516948e-08	4.228053e+01	1.645644e+03
1.870000e-06	5.884405e-06	2.511023e-08	4.194238e+01	1.641679e+03
1.880000e-06	5.834862e-06	2.491998e-08	4.158924e+01	1.637225e+03
1.890000e-06	5.782761e-06	2.503513e-08	4.121789e+01	1.632314e+03
1.900000e-06	5.728107e-06	2.479545e-08	4.082833e+01	1.627014e+03
1.910000e-06	5.671296e-06	2.475469e-08	4.042340e+01	1.621405e+03
1.920000e-06	5.612504e-06	2.474119e-08	4.000434e+01	1.615563e+03
1.930000e-06	5.551952e-06	2.457833e-08	3.957274e+01	1.609540e+03
1.940000e-06	5.489188e-06	2.457808e-08	3.912538e+01	1.603353e+03
1.950000e-06	5.424226e-06	2.433686e-08	3.866235e+01	1.596980e+03
1.960000e-06	5.357285e-06	2.432122e-08	3.818522e+01	1.590375e+03
1.970000e-06	5.288358e-06	2.419487e-08	3.769392e+01	1.583479e+03
1.980000e-06	5.217361e-06	2.404900e-08	3.718787e+01	1.576238e+03
1.990000e-06	5.144332e-06	2.402003e-08	3.666734e+01	1.568615e+03
2.000000e-06	5.069554e-06	2.383192e-08	3.613435e+01	1.560603e+03
2.010000e-06	4.992695e-06	2.377390e-08	3.558651e+01	1.552216e+03
2.020000e-06	4.913710e-06	2.355432e-08	3.502354e+01	1.543485e+03
2.030000e-06	4.832956e-06	2.343430e-08	3.444794e+01	1.534444e+03
2.040000e-06	4.750685e-06	2.334183e-08	3.386154e+01	1.525113e+03
2.050000e-06	4.666884e-06	2.317261e-08	3.326423e+01	1.515493e+03
2.060000e-06	4.581364e-06	2.304284e-08	3.265467e+01	1.505558e+03
2.070000e-06	4.494105e-06	2.284235e-08	3.203271e+01	1.495266e+03
2.080000e-06	4.405234e-06	2.271478e-08	3.139926e+01	1.484563e+03
2.090000e-06	4.314932e-06	2.251395e-08	3.075561e+01	1.473400e+03
2.100000e-06	4.223198e-06	2.235036e-08	3.010176e+01	1.461744e+03
2.110000e-06	4.130011e-06	2.217684e-08	2.943755e+01	1.449583e+03
2.120000e-06	4.035354e-06	2.197400e-08	2.876286e+01	1.436923e+03
2.130000e-06	3.939241e-06	2.177694e-08	2.807779e+01	1.423783e+03
2.140000e-06	3.841756e-06	2.154961e-08	2.738295e+01	1.410181e+03
2.150000e-06	3.742888e-06	2.135907e-08	2.667825e+01	1.396122e+03
2.160000e-06	3.642735e-06	2.113435e-08	2.596439e+01	1.381586e+03
2.170000e-06	3.541212e-06	2.091754e-08	2.524076e+01	1.366533e+03
2.180000e-06	3.438222e-06	2.066854e-08	2.450668e+01	1.350899e+03
2.190000e-06	3.333944e-06	2.042065e-08	2.376341e+01	1.334611e+03
2.200000e-06	3.228552e-06	2.015738e-08	2.301220e+01	1.317600e+03
2.210000e-06	3.122062e-06	1.988716e-08	2.225317e+01	1.299813e+03
2.220000e-06	3.014432e-06	1.960829e-08	2.148602e+01	1.281214e+03
2.230000e-06	2.905745e-06	1.931258e-08	2.071133e+01	1.261788e+03
2.240000e-06	2.796075e-06	1.901052e-08	1.992963e+01	1.241527e+03
2.250000e-06	2.685303e-06	1.868603e-08	1.914008e+01	1.220420e+03
2.260000e-06	2.573475e-06	1.835438e-08	1.834300e+01	1.198435e+03
2.270000e-06	2.460659e-06	1.800174e-08	1.753888e+01	1.175511e+03
2.280000e-06	2.346835e-06	1.763969e-08	1.672757e+01	1.151555e+03
2.290000e-06	2.232038e-06	1.725313e-08	1.590934e+01	1.126444e+03
2.300000e-06	2.116375e-06	1.685280e-08	1.508492e+01	1.100042e+03
2.310000e-06	1.999963e-06	1.643257e-08	1.425517e+01	1.072207e+03
2.320000e-06	1.882793e-06	1.598857e-08	1.342002e+01	1.042809e+03
2.330000e-06	1.764914e-06	1.551347e-08	1.257981e+01	1.011734e+03
2.340000e-06	1.646302e-06	1.500883e-08	1.173437e+01	9.788814e+02
2.350000e-06	1.527018e-06	1.447948e-08	1.088416e+01	9.441572e+02
2.360000e-06	1.407223e-06	1.391986e-08	1.003029e+01	9.074595e+02
2.370000e-06	1.286969e-06	1.333282e-08	9.173149e+00	8.686695e+02
2.380000e-06	1.166294e-06	1.270841e-08	8.313016e+00	8.276486e+02
2.390000e-06	1.045244e-06	1.204577e-08	7.450203e+00	7.842500e+02
2.400000e-06	9.238725e-07	1.134233e-08	6.585102e+00	7.383420e+02
2.410000e-06	8.022531e-07	1.060210e-08	5.718233e+00	6.898416e+02
2.420000e-06	6.804563e-07	9.823003e-09	4.850100e+00	6.387500e+02
2.430000e-06	5.583958e-07	9.006319e-09	3.980088e+00	5.851809e+02
2.440000e-06	4.361636e-07	8.157589e-09	3.108851e+00	5.293713e+02
2.450000e-06	3.139047e-07	7.277243e-09	2.237424e+00	4.716691e+02
2.460000e-06	1.914993e-07	6.370897e-09	1.364953e+00	4.124947e+02
2.470000e-06	6.896236e-08	5.446611e-09	4.915442e-01	3.522829e+02
2.480000e-06	-5.362046e-08	4.515863e-09	-3.821915e-01	2.914148e+02
2.490000e-06	-1.761442e-07	3.579628e-09	-1.255506e+00	2.301538e+02
2.500000e-06	-2.985723e-07	2.636940e-09	-2.128139e+00	1.686010e+02
2.510000e-06	-4.209168e-07	1.690065e-09	-3.000176e+00	1.066823e+02
2.520000e-06	-5.431655e-07	7.334719e-10	-3.871530e+00	4.417145e+01
2.530000e-06	-6.652773e-07	-2.385580e-10	-4.741908e+00	-1.924982e+01
2.540000e-06	-7.871793e-07	-1.228123e-09	-5.610791e+00	-8.390794e+01
2.550000e-06	-9.088615e-07	-2.237071e-09	-6.478108e+00	-1.500430e+02
2.560000e-06	-1.030229e-06	-3.267498e-09	-7.343182e+00	-2.177238e+02
2.570000e-06	-1.151266e-06	-4.319911e-09	-8.205896e+00	-2.867891e+02
2.580000e-06	-1.271947e-06	-5.390605e-09	-9.066076e+00	-3.568280e+02
2.590000e-06	-1.392130e-06	-6.471062e-09	-9.922706e+00	-4.272032e+02
2.600000e-06	-1.511763e-06	-7.547030e-09	-1.077542e+01	-4.971141e+02
2.610000e-06	-1.630758e-06	-8.601329e-09	-1.162358e+01	-5.656865e+02
2.620000e-06	-1.749077e-06	-9.620806e-09	-1.246693e+01	-6.320737e+02
2.630000e-06	-1.866661e-06	-1.059313e-08	-1.330503e+01	-6.955489e+02
2.640000e-06	-1.983347e-06	-1.151206e-08	-1.413674e+01	-7.555749e+02
2.650000e-06	-2.099142e-06	-1.237481e-08	-1.496209e+01	-8.118392e+02
2.660000e-06	-2.214133e-06	-1.317857e-08	-1.578171e+01	-8.642540e+02
2.670000e-06	-2.328147e-06	-1.392568e-08	-1.659437e+01	-9.129235e+02
2.680000e-06	-2.441058e-06	-1.462004e-08	-1.739917e+01	-9.580896e+02
2.690000e-06	-2.552967e-06	-1.526711e-08	-1.819683e+01	-1.000070e+03
2.700000e-06	-2.663782e-06	-1.587193e-08	-1.898669e+01	-1.039200e+03
2.710000e-06	-2.773557e-06	-1.643819e-08	-1.976913e+01	-1.075786e+03
2.720000e-06	-2.882458e-06	-1.696786e-08	-2.054535e+01	-1.110087e+03
2.730000e-06	-2.990440e-06	-1.746064e-08	-2.131501e+01	-1.142301e+03
2.740000e-06	-3.097475e-06	-1.792203e-08	-2.207793e+01	-1.172581e+03
2.750000e-06	-3.203484e-06	-1.835302e-08	-2.283353e+01	-1.201051e+03
2.760000e-06	-3.308385e-06	-1.875766e-08	-2.358123e+01	-1.227823e+03
2.770000e-06	-3.412066e-06	-1.914456e-08	-2.432024e+01	-1.253012e+03
2.780000e-06	-3.514436e-06	-1.951110e-08	-2.504991e+01	-1.276741e+03
2.790000e-06	-3.615459e-06	-1.985521e-08	-2.576997e+01	-1.299138e+03
2.800000e-06	-3.715175e-06	-2.018031e-08	-2.648072e+01	-1.320328e+03
2.810000e-06	-3.813689e-06	-2.049069e-08	-2.718290e+01	-1.340424e+03
2.820000e-06	-3.910950e-06	-2.078418e-08	-2.787614e+01	-1.359518e+03
2.830000e-06	-4.006941e-06	-2.106125e-08	-2.856034e+01	-1.377681e+03
2.840000e-06	-4.101539e-06	-2.132538e-08	-2.923461e+01	-1.394961e+03
2.850000e-06	-4.194525e-06	-2.157516e-08	-2.989738e+01	-1.411394e+03
2.860000e-06	-4.286026e-06	-2.181308e-08	-3.054958e+01	-1.427010e+03
2.870000e-06	-4.376036e-06	-2.204189e-08	-3.119115e+01	-1.441844e+03
2.880000e-06	-4.464398e-06	-2.226091e-08	-3.182096e+01	-1.455936e+03
2.890000e-06	-4.551182e-06	-2.247002e-08	-3.243954e+01	-1.469335e+03
2.900000e-06	-4.636178e-06	-2.266706e-08	-3.304536e+01	-1.482095e+03
2.910000e-06	-4.719565e-06	-2.285312e-08	-3.363972e+01	-1.494266e+03
2.920000e-06	-4.801452e-06	-2.303154e-08	-3.422339e+01	-1.505892e+03
2.930000e-06	-4.881540e-06	-2.320105e-08	-3.479424e+01	-1.517005e+03
2.940000e-06	-4.959664e-06	-2.336345e-08	-3.535109e+01	-1.527625e+03
