# Temperatura_=_91.48
# Concentracion g/m^3_=_28200.0
# C_Vs_to_Am_M_A/Vsm_=_65563218390.804596
# pendiente_HvsI_1/m_=_3716.3
# ordenada_HvsI_A/m_=_1297.0
# frecuencia_Hz_=_302113.3557004326

Tiempo_(s)	Campo_(V.s)	Magnetizacion_(V.s)	Campo_(kA/m)	Magnetizacion_(A/m)
0.000000e+00	-6.398393e-06	-2.542953e-08	-4.557159e+01	-1.659374e+03
1.000000e-08	-6.394912e-06	-2.542568e-08	-4.554680e+01	-1.658868e+03
2.000000e-08	-6.389323e-06	-2.541329e-08	-4.550699e+01	-1.658267e+03
3.000000e-08	-6.381848e-06	-2.540054e-08	-4.545375e+01	-1.657565e+03
4.000000e-08	-6.372187e-06	-2.538491e-08	-4.538494e+01	-1.656732e+03
5.000000e-08	-6.360097e-06	-2.536395e-08	-4.529883e+01	-1.655714e+03
6.000000e-08	-6.345734e-06	-2.533720e-08	-4.519653e+01	-1.654450e+03
7.000000e-08	-6.329104e-06	-2.529279e-08	-4.507809e+01	-1.652891e+03
8.000000e-08	-6.310315e-06	-2.525037e-08	-4.494426e+01	-1.651021e+03
9.000000e-08	-6.289388e-06	-2.528915e-08	-4.479521e+01	-1.648868e+03
1.000000e-07	-6.266082e-06	-2.525382e-08	-4.462922e+01	-1.646509e+03
1.100000e-07	-6.240108e-06	-2.518976e-08	-4.444422e+01	-1.644061e+03
1.200000e-07	-6.211731e-06	-2.518831e-08	-4.424212e+01	-1.641659e+03
1.300000e-07	-6.181598e-06	-2.516730e-08	-4.402750e+01	-1.639423e+03
1.400000e-07	-6.149934e-06	-2.502278e-08	-4.380198e+01	-1.637436e+03
1.500000e-07	-6.116415e-06	-2.501830e-08	-4.356325e+01	-1.635708e+03
1.600000e-07	-6.080878e-06	-2.504717e-08	-4.331013e+01	-1.634178e+03
1.700000e-07	-6.043474e-06	-2.489117e-08	-4.304373e+01	-1.632711e+03
1.800000e-07	-6.003990e-06	-2.495824e-08	-4.276251e+01	-1.631121e+03
1.900000e-07	-5.961993e-06	-2.484470e-08	-4.246340e+01	-1.629210e+03
2.000000e-07	-5.917769e-06	-2.474578e-08	-4.214842e+01	-1.626798e+03
2.100000e-07	-5.871483e-06	-2.478821e-08	-4.181875e+01	-1.623760e+03
2.200000e-07	-5.822827e-06	-2.459761e-08	-4.147220e+01	-1.620045e+03
2.300000e-07	-5.771695e-06	-2.454406e-08	-4.110803e+01	-1.615683e+03
2.400000e-07	-5.718086e-06	-2.450559e-08	-4.072621e+01	-1.610766e+03
2.500000e-07	-5.662459e-06	-2.438838e-08	-4.033001e+01	-1.605427e+03
2.600000e-07	-5.604634e-06	-2.434104e-08	-3.991816e+01	-1.599802e+03
2.700000e-07	-5.544525e-06	-2.424967e-08	-3.949004e+01	-1.594000e+03
2.800000e-07	-5.482558e-06	-2.416454e-08	-3.904869e+01	-1.588082e+03
2.900000e-07	-5.418735e-06	-2.403129e-08	-3.859412e+01	-1.582050e+03
3.000000e-07	-5.352726e-06	-2.393579e-08	-3.812398e+01	-1.575857e+03
3.100000e-07	-5.284575e-06	-2.388215e-08	-3.763859e+01	-1.569423e+03
3.200000e-07	-5.214474e-06	-2.377074e-08	-3.713930e+01	-1.562663e+03
3.300000e-07	-5.142609e-06	-2.366349e-08	-3.662745e+01	-1.555509e+03
3.400000e-07	-5.068868e-06	-2.350511e-08	-3.610225e+01	-1.547927e+03
3.500000e-07	-4.992922e-06	-2.339245e-08	-3.556133e+01	-1.539923e+03
3.600000e-07	-4.914887e-06	-2.326638e-08	-3.500554e+01	-1.531535e+03
3.700000e-07	-4.834804e-06	-2.312813e-08	-3.443516e+01	-1.522814e+03
3.800000e-07	-4.752920e-06	-2.303102e-08	-3.385195e+01	-1.513810e+03
3.900000e-07	-4.669539e-06	-2.287621e-08	-3.325809e+01	-1.504549e+03
4.000000e-07	-4.584742e-06	-2.271479e-08	-3.265414e+01	-1.495024e+03
4.100000e-07	-4.498440e-06	-2.255431e-08	-3.203946e+01	-1.485198e+03
4.200000e-07	-4.410707e-06	-2.240776e-08	-3.141459e+01	-1.475011e+03
4.300000e-07	-4.321558e-06	-2.224699e-08	-3.077965e+01	-1.464398e+03
4.400000e-07	-4.230776e-06	-2.207150e-08	-3.013306e+01	-1.453302e+03
4.500000e-07	-4.138375e-06	-2.190398e-08	-2.947495e+01	-1.441693e+03
4.600000e-07	-4.044464e-06	-2.171007e-08	-2.880608e+01	-1.429564e+03
4.700000e-07	-3.949182e-06	-2.152465e-08	-2.812745e+01	-1.416933e+03
4.800000e-07	-3.852611e-06	-2.133025e-08	-2.743964e+01	-1.403827e+03
4.900000e-07	-3.754527e-06	-2.112858e-08	-2.674105e+01	-1.390265e+03
5.000000e-07	-3.654971e-06	-2.090704e-08	-2.603198e+01	-1.376249e+03
5.100000e-07	-3.554110e-06	-2.067642e-08	-2.531361e+01	-1.361749e+03
5.200000e-07	-3.451955e-06	-2.044647e-08	-2.458603e+01	-1.346709e+03
5.300000e-07	-3.348586e-06	-2.020428e-08	-2.384980e+01	-1.331055e+03
5.400000e-07	-3.244042e-06	-1.995797e-08	-2.310520e+01	-1.314706e+03
5.500000e-07	-3.138195e-06	-1.969723e-08	-2.235132e+01	-1.297596e+03
5.600000e-07	-3.030983e-06	-1.942872e-08	-2.158772e+01	-1.279676e+03
5.700000e-07	-2.922600e-06	-1.913864e-08	-2.081577e+01	-1.260925e+03
5.800000e-07	-2.813230e-06	-1.883883e-08	-2.003681e+01	-1.241338e+03
5.900000e-07	-2.702909e-06	-1.852688e-08	-1.925106e+01	-1.220913e+03
6.000000e-07	-2.591663e-06	-1.819954e-08	-1.845873e+01	-1.199638e+03
6.100000e-07	-2.479486e-06	-1.785873e-08	-1.765976e+01	-1.177470e+03
6.200000e-07	-2.366295e-06	-1.750329e-08	-1.685358e+01	-1.154332e+03
6.300000e-07	-2.252022e-06	-1.713197e-08	-1.603968e+01	-1.130109e+03
6.400000e-07	-2.136701e-06	-1.674167e-08	-1.521833e+01	-1.104661e+03
6.500000e-07	-2.020415e-06	-1.633433e-08	-1.439010e+01	-1.077840e+03
6.600000e-07	-1.903294e-06	-1.589972e-08	-1.355592e+01	-1.049501e+03
6.700000e-07	-1.785591e-06	-1.544114e-08	-1.271760e+01	-1.019518e+03
6.800000e-07	-1.667390e-06	-1.495945e-08	-1.187573e+01	-9.877879e+02
6.900000e-07	-1.548635e-06	-1.445155e-08	-1.102992e+01	-9.542193e+02
7.000000e-07	-1.429416e-06	-1.391063e-08	-1.018080e+01	-9.187239e+02
7.100000e-07	-1.309750e-06	-1.333523e-08	-9.328498e+00	-8.811997e+02
7.200000e-07	-1.189610e-06	-1.272755e-08	-8.472821e+00	-8.415227e+02
7.300000e-07	-1.069052e-06	-1.208344e-08	-7.614164e+00	-7.995493e+02
7.400000e-07	-9.481511e-07	-1.140294e-08	-6.753063e+00	-7.551335e+02
7.500000e-07	-8.269140e-07	-1.068890e-08	-5.889570e+00	-7.081575e+02
7.600000e-07	-7.053131e-07	-9.939805e-09	-5.023486e+00	-6.585695e+02
7.700000e-07	-5.834267e-07	-9.143382e-09	-4.155369e+00	-6.064193e+02
7.800000e-07	-4.613104e-07	-8.308399e-09	-3.285614e+00	-5.518802e+02
7.900000e-07	-3.390488e-07	-7.445467e-09	-2.414824e+00	-4.952501e+02
8.000000e-07	-2.166128e-07	-6.557809e-09	-1.542792e+00	-4.369245e+02
8.100000e-07	-9.401490e-08	-5.652346e-09	-6.696069e-01	-3.773461e+02
8.200000e-07	2.860986e-08	-4.736084e-09	2.037694e-01	-3.169366e+02
8.300000e-07	1.512119e-07	-3.813326e-09	1.076984e+00	-2.560268e+02
8.400000e-07	2.737937e-07	-2.881243e-09	1.950054e+00	-1.947994e+02
8.500000e-07	3.963613e-07	-1.943546e-09	2.823023e+00	-1.332583e+02
8.600000e-07	5.188026e-07	-9.988129e-10	3.695093e+00	-7.123658e+01
8.700000e-07	6.411001e-07	-4.446909e-11	4.566139e+00	-8.440908e+00
8.800000e-07	7.632423e-07	9.277494e-10	5.436078e+00	5.547086e+01
8.900000e-07	8.850570e-07	1.920778e-09	6.303685e+00	1.207951e+02
9.000000e-07	1.006586e-06	2.936547e-09	7.169256e+00	1.876888e+02
9.100000e-07	1.127793e-06	3.976611e-09	8.032537e+00	2.560961e+02
9.200000e-07	1.248468e-06	5.032517e-09	8.892025e+00	3.257101e+02
9.300000e-07	1.368648e-06	6.098936e-09	9.747986e+00	3.959784e+02
9.400000e-07	1.488344e-06	7.166041e-09	1.060051e+01	4.661520e+02
9.500000e-07	1.607520e-06	8.219091e-09	1.144932e+01	5.353673e+02
9.600000e-07	1.726089e-06	9.242150e-09	1.229381e+01	6.027464e+02
9.700000e-07	1.844017e-06	1.022324e-08	1.313373e+01	6.674966e+02
9.800000e-07	1.961347e-06	1.115430e-08	1.396940e+01	7.289916e+02
9.900000e-07	2.077940e-06	1.202798e-08	1.479981e+01	7.868217e+02
1.000000e-06	2.193591e-06	1.284171e-08	1.562352e+01	8.408075e+02
1.010000e-06	2.308304e-06	1.359853e-08	1.644054e+01	8.909784e+02
1.020000e-06	2.422082e-06	1.430342e-08	1.725091e+01	9.375255e+02
1.030000e-06	2.534826e-06	1.495919e-08	1.805392e+01	9.807404e+02
1.040000e-06	2.646523e-06	1.556857e-08	1.884946e+01	1.020954e+03
1.050000e-06	2.757251e-06	1.613588e-08	1.963810e+01	1.058487e+03
1.060000e-06	2.867063e-06	1.666824e-08	2.042022e+01	1.093616e+03
1.070000e-06	2.975906e-06	1.716311e-08	2.119544e+01	1.126564e+03
1.080000e-06	3.083854e-06	1.763127e-08	2.196429e+01	1.157502e+03
1.090000e-06	3.190866e-06	1.807379e-08	2.272646e+01	1.186566e+03
1.100000e-06	3.296609e-06	1.848815e-08	2.347960e+01	1.213875e+03
1.110000e-06	3.400972e-06	1.887675e-08	2.422291e+01	1.239547e+03
1.120000e-06	3.504075e-06	1.924325e-08	2.495725e+01	1.263703e+03
1.130000e-06	3.606011e-06	1.958897e-08	2.568327e+01	1.286473e+03
1.140000e-06	3.706752e-06	1.991458e-08	2.640078e+01	1.307984e+03
1.150000e-06	3.806265e-06	2.022321e-08	2.710955e+01	1.328356e+03
1.160000e-06	3.904376e-06	2.051647e-08	2.780833e+01	1.347688e+03
1.170000e-06	4.000826e-06	2.079346e-08	2.849528e+01	1.366058e+03
1.180000e-06	4.095833e-06	2.105404e-08	2.917195e+01	1.383525e+03
1.190000e-06	4.189582e-06	2.130364e-08	2.983967e+01	1.400130e+03
1.200000e-06	4.282008e-06	2.154052e-08	3.049796e+01	1.415906e+03
1.210000e-06	4.372972e-06	2.176807e-08	3.114583e+01	1.430890e+03
1.220000e-06	4.462267e-06	2.198313e-08	3.178182e+01	1.445122e+03
1.230000e-06	4.549856e-06	2.218663e-08	3.240567e+01	1.458649e+03
1.240000e-06	4.635879e-06	2.237903e-08	3.301835e+01	1.471523e+03
1.250000e-06	4.720397e-06	2.256232e-08	3.362032e+01	1.483797e+03
1.260000e-06	4.803368e-06	2.273816e-08	3.421126e+01	1.495515e+03
1.270000e-06	4.884507e-06	2.290821e-08	3.478916e+01	1.506713e+03
1.280000e-06	4.963694e-06	2.307099e-08	3.535316e+01	1.517413e+03
1.290000e-06	5.041064e-06	2.322564e-08	3.590422e+01	1.527627e+03
1.300000e-06	5.116559e-06	2.337179e-08	3.644192e+01	1.537359e+03
1.310000e-06	5.189933e-06	2.351223e-08	3.696452e+01	1.546610e+03
1.320000e-06	5.261345e-06	2.364570e-08	3.747314e+01	1.555385e+03
1.330000e-06	5.330969e-06	2.377263e-08	3.796902e+01	1.563692e+03
1.340000e-06	5.398709e-06	2.389214e-08	3.845149e+01	1.571545e+03
1.350000e-06	5.464533e-06	2.400245e-08	3.892031e+01	1.578963e+03
1.360000e-06	5.528339e-06	2.410725e-08	3.937476e+01	1.585967e+03
1.370000e-06	5.590219e-06	2.420601e-08	3.981549e+01	1.592579e+03
1.380000e-06	5.650293e-06	2.430059e-08	4.024336e+01	1.598822e+03
1.390000e-06	5.708430e-06	2.438945e-08	4.065743e+01	1.604720e+03
1.400000e-06	5.764427e-06	2.447505e-08	4.105626e+01	1.610297e+03
1.410000e-06	5.818318e-06	2.455590e-08	4.144009e+01	1.615579e+03
1.420000e-06	5.869919e-06	2.462980e-08	4.180761e+01	1.620595e+03
1.430000e-06	5.918915e-06	2.469983e-08	4.215658e+01	1.625368e+03
1.440000e-06	5.965675e-06	2.476532e-08	4.248962e+01	1.629922e+03
1.450000e-06	6.010588e-06	2.482808e-08	4.280951e+01	1.634268e+03
1.460000e-06	6.053481e-06	2.488933e-08	4.311500e+01	1.638406e+03
1.470000e-06	6.094096e-06	2.494924e-08	4.340428e+01	1.642326e+03
1.480000e-06	6.132452e-06	2.500641e-08	4.367746e+01	1.646004e+03
1.490000e-06	6.168791e-06	2.505716e-08	4.393628e+01	1.649414e+03
1.500000e-06	6.203042e-06	2.510148e-08	4.418023e+01	1.652530e+03
1.510000e-06	6.235025e-06	2.514028e-08	4.440802e+01	1.655337e+03
1.520000e-06	6.264859e-06	2.517451e-08	4.462051e+01	1.657834e+03
1.530000e-06	6.292619e-06	2.520436e-08	4.481823e+01	1.660038e+03
1.540000e-06	6.317988e-06	2.523150e-08	4.499892e+01	1.661975e+03
1.550000e-06	6.340904e-06	2.525690e-08	4.516213e+01	1.663681e+03
1.560000e-06	6.361690e-06	2.527892e-08	4.531018e+01	1.665186e+03
1.570000e-06	6.380397e-06	2.529921e-08	4.544341e+01	1.666512e+03
1.580000e-06	6.396707e-06	2.531683e-08	4.555958e+01	1.667663e+03
1.590000e-06	6.410569e-06	2.532964e-08	4.565831e+01	1.668630e+03
1.600000e-06	6.421968e-06	2.533922e-08	4.573950e+01	1.669393e+03
1.610000e-06	6.430736e-06	2.534603e-08	4.580194e+01	1.669932e+03
1.620000e-06	6.437134e-06	2.535120e-08	4.584751e+01	1.670233e+03
1.630000e-06	6.441439e-06	2.535352e-08	4.587818e+01	1.670301e+03
1.640000e-06	6.443464e-06	2.535245e-08	4.589260e+01	1.670158e+03
1.650000e-06	6.443184e-06	2.535435e-08	4.589061e+01	1.669841e+03
1.660000e-06	6.440773e-06	2.534709e-08	4.587343e+01	1.669388e+03
1.670000e-06	6.436316e-06	2.533945e-08	4.584169e+01	1.668830e+03
1.680000e-06	6.429609e-06	2.532863e-08	4.579392e+01	1.668178e+03
1.690000e-06	6.420696e-06	2.531349e-08	4.573044e+01	1.667413e+03
1.700000e-06	6.409895e-06	2.529743e-08	4.565351e+01	1.666492e+03
1.710000e-06	6.396868e-06	2.528359e-08	4.556073e+01	1.665356e+03
1.720000e-06	6.381544e-06	2.529386e-08	4.545158e+01	1.663946e+03
1.730000e-06	6.364237e-06	2.528438e-08	4.532832e+01	1.662229e+03
1.740000e-06	6.344833e-06	2.517410e-08	4.519011e+01	1.660208e+03
1.750000e-06	6.322477e-06	2.515635e-08	4.503089e+01	1.657936e+03
1.760000e-06	6.296963e-06	2.514452e-08	4.484917e+01	1.655514e+03
1.770000e-06	6.269199e-06	2.506025e-08	4.465142e+01	1.653069e+03
1.780000e-06	6.239544e-06	2.508827e-08	4.444021e+01	1.650734e+03
1.790000e-06	6.208264e-06	2.508687e-08	4.421742e+01	1.648614e+03
1.800000e-06	6.175656e-06	2.492961e-08	4.398518e+01	1.646757e+03
1.810000e-06	6.140965e-06	2.503848e-08	4.373810e+01	1.645138e+03
1.820000e-06	6.104195e-06	2.494770e-08	4.347621e+01	1.643657e+03
1.830000e-06	6.065346e-06	2.491432e-08	4.319951e+01	1.642151e+03
1.840000e-06	6.024032e-06	2.516636e-08	4.290526e+01	1.640422e+03
1.850000e-06	5.980768e-06	2.498412e-08	4.259711e+01	1.638277e+03
1.860000e-06	5.935419e-06	2.499896e-08	4.227412e+01	1.635561e+03
1.870000e-06	5.887850e-06	2.496594e-08	4.193532e+01	1.632183e+03
1.880000e-06	5.838232e-06	2.480874e-08	4.158192e+01	1.628134e+03
1.890000e-06	5.786124e-06	2.491058e-08	4.121079e+01	1.623477e+03
1.900000e-06	5.731431e-06	2.471153e-08	4.082125e+01	1.618328e+03
1.910000e-06	5.674500e-06	2.461522e-08	4.041577e+01	1.612827e+03
1.920000e-06	5.615581e-06	2.462850e-08	3.999613e+01	1.607100e+03
1.930000e-06	5.554865e-06	2.449493e-08	3.956369e+01	1.601234e+03
1.940000e-06	5.491991e-06	2.447693e-08	3.911588e+01	1.595259e+03
1.950000e-06	5.426947e-06	2.425306e-08	3.865261e+01	1.589153e+03
1.960000e-06	5.359963e-06	2.420979e-08	3.817553e+01	1.582847e+03
1.970000e-06	5.290909e-06	2.412284e-08	3.768370e+01	1.576257e+03
1.980000e-06	5.219706e-06	2.396691e-08	3.717657e+01	1.569304e+03
1.990000e-06	5.146564e-06	2.392510e-08	3.665563e+01	1.561935e+03
2.000000e-06	5.071689e-06	2.376993e-08	3.612234e+01	1.554136e+03
2.010000e-06	4.994719e-06	2.370590e-08	3.557413e+01	1.545931e+03
2.020000e-06	4.915696e-06	2.350078e-08	3.501130e+01	1.537367e+03
2.030000e-06	4.834964e-06	2.336110e-08	3.443630e+01	1.528498e+03
2.040000e-06	4.752558e-06	2.327552e-08	3.384938e+01	1.519361e+03
2.050000e-06	4.668615e-06	2.311574e-08	3.325151e+01	1.509968e+03
2.060000e-06	4.582962e-06	2.298739e-08	3.264146e+01	1.500296e+03
2.070000e-06	4.495536e-06	2.279505e-08	3.201878e+01	1.490295e+03
2.080000e-06	4.406581e-06	2.266496e-08	3.138521e+01	1.479900e+03
2.090000e-06	4.316159e-06	2.247881e-08	3.074119e+01	1.469049e+03
2.100000e-06	4.224339e-06	2.231304e-08	3.008721e+01	1.457696e+03
2.110000e-06	4.131147e-06	2.214270e-08	2.942347e+01	1.445823e+03
2.120000e-06	4.036397e-06	2.194491e-08	2.874863e+01	1.433437e+03
2.130000e-06	3.940132e-06	2.175493e-08	2.806299e+01	1.420562e+03
2.140000e-06	3.842590e-06	2.153298e-08	2.736826e+01	1.407224e+03
2.150000e-06	3.743683e-06	2.134358e-08	2.666381e+01	1.393434e+03
2.160000e-06	3.643486e-06	2.112369e-08	2.595018e+01	1.379178e+03
2.170000e-06	3.541892e-06	2.090878e-08	2.522659e+01	1.364414e+03
2.180000e-06	3.438809e-06	2.066415e-08	2.449239e+01	1.349074e+03
2.190000e-06	3.334371e-06	2.041751e-08	2.374855e+01	1.333080e+03
2.200000e-06	3.228830e-06	2.016154e-08	2.299685e+01	1.316355e+03
2.210000e-06	3.122209e-06	1.989882e-08	2.223746e+01	1.298842e+03
2.220000e-06	3.014446e-06	1.962268e-08	2.146994e+01	1.280505e+03
2.230000e-06	2.905704e-06	1.932611e-08	2.069544e+01	1.261333e+03
2.240000e-06	2.795894e-06	1.902492e-08	1.991333e+01	1.241325e+03
2.250000e-06	2.684982e-06	1.870750e-08	1.912338e+01	1.220475e+03
2.260000e-06	2.573025e-06	1.838625e-08	1.832598e+01	1.198758e+03
2.270000e-06	2.460036e-06	1.804142e-08	1.752123e+01	1.176115e+03
2.280000e-06	2.346082e-06	1.768043e-08	1.670962e+01	1.152447e+03
2.290000e-06	2.231250e-06	1.729238e-08	1.589174e+01	1.127628e+03
2.300000e-06	2.115553e-06	1.689394e-08	1.506771e+01	1.101510e+03
2.310000e-06	1.999060e-06	1.648022e-08	1.423800e+01	1.073944e+03
2.320000e-06	1.881738e-06	1.604286e-08	1.340240e+01	1.044794e+03
2.330000e-06	1.763629e-06	1.557421e-08	1.256118e+01	1.013947e+03
2.340000e-06	1.644902e-06	1.507372e-08	1.171556e+01	9.813057e+02
2.350000e-06	1.525547e-06	1.454498e-08	1.086548e+01	9.467825e+02
2.360000e-06	1.405612e-06	1.398533e-08	1.001126e+01	9.102840e+02
2.370000e-06	1.285225e-06	1.339992e-08	9.153823e+00	8.716976e+02
2.380000e-06	1.164497e-06	1.277943e-08	8.293951e+00	8.308883e+02
2.390000e-06	1.043450e-06	1.211996e-08	7.431818e+00	7.877083e+02
2.400000e-06	9.220926e-07	1.141908e-08	6.567466e+00	7.420212e+02
2.410000e-06	8.004454e-07	1.068209e-08	5.701051e+00	6.937373e+02
2.420000e-06	6.785828e-07	9.907263e-09	4.833104e+00	6.428518e+02
2.430000e-06	5.564975e-07	9.094249e-09	3.963569e+00	5.894747e+02
2.440000e-06	4.342369e-07	8.247312e-09	3.092787e+00	5.338431e+02
2.450000e-06	3.119178e-07	7.369715e-09	2.221588e+00	4.763087e+02
2.460000e-06	1.894919e-07	6.465255e-09	1.349627e+00	4.172982e+02
2.470000e-06	6.693108e-08	5.541478e-09	4.767065e-01	3.572529e+02
2.480000e-06	-5.572334e-08	4.613737e-09	-3.968811e-01	2.965573e+02
2.490000e-06	-1.783280e-07	3.681787e-09	-1.270114e+00	2.354740e+02
2.500000e-06	-3.008422e-07	2.740114e-09	-2.142703e+00	1.740978e+02
2.510000e-06	-4.232773e-07	1.793413e-09	-3.014728e+00	1.123439e+02
2.520000e-06	-5.455896e-07	8.390869e-10	-3.885880e+00	4.997429e+01
2.530000e-06	-6.677537e-07	-1.276785e-10	-4.755975e+00	-1.333996e+01
2.540000e-06	-7.898309e-07	-1.114490e-09	-5.625451e+00	-7.793033e+01
2.550000e-06	-9.116567e-07	-2.127052e-09	-6.493137e+00	-1.440344e+02
2.560000e-06	-1.033108e-06	-3.159771e-09	-7.358153e+00	-2.117099e+02
2.570000e-06	-1.154207e-06	-4.212767e-09	-8.220664e+00	-2.807777e+02
2.580000e-06	-1.274878e-06	-5.283391e-09	-9.080129e+00	-3.508045e+02
2.590000e-06	-1.395084e-06	-6.361908e-09	-9.936272e+00	-4.211312e+02
2.600000e-06	-1.514825e-06	-7.435207e-09	-1.078911e+01	-4.909397e+02
2.610000e-06	-1.633921e-06	-8.487968e-09	-1.163735e+01	-5.593462e+02
2.620000e-06	-1.752293e-06	-9.506258e-09	-1.248044e+01	-6.255039e+02
2.630000e-06	-1.869957e-06	-1.047546e-08	-1.331849e+01	-6.886947e+02
2.640000e-06	-1.986761e-06	-1.138837e-08	-1.415040e+01	-7.483967e+02
2.650000e-06	-2.102658e-06	-1.224576e-08	-1.497586e+01	-8.043159e+02
2.660000e-06	-2.217593e-06	-1.304540e-08	-1.579447e+01	-8.563819e+02
2.670000e-06	-2.331567e-06	-1.378752e-08	-1.660623e+01	-9.047119e+02
2.680000e-06	-2.444580e-06	-1.447762e-08	-1.741115e+01	-9.495555e+02
2.690000e-06	-2.556531e-06	-1.511889e-08	-1.820851e+01	-9.912309e+02
2.700000e-06	-2.667368e-06	-1.571855e-08	-1.899793e+01	-1.030069e+03
2.710000e-06	-2.777208e-06	-1.628323e-08	-1.978024e+01	-1.066372e+03
2.720000e-06	-2.886170e-06	-1.681030e-08	-2.055631e+01	-1.100389e+03
2.730000e-06	-2.994245e-06	-1.729906e-08	-2.132605e+01	-1.132315e+03
2.740000e-06	-3.101356e-06	-1.775550e-08	-2.208894e+01	-1.162304e+03
2.750000e-06	-3.207433e-06	-1.818253e-08	-2.284446e+01	-1.190479e+03
2.760000e-06	-3.312380e-06	-1.858328e-08	-2.359192e+01	-1.216957e+03
2.770000e-06	-3.416174e-06	-1.896581e-08	-2.433118e+01	-1.241857e+03
2.780000e-06	-3.518715e-06	-1.932953e-08	-2.506152e+01	-1.265307e+03
2.790000e-06	-3.619793e-06	-1.967114e-08	-2.578143e+01	-1.287435e+03
2.800000e-06	-3.719474e-06	-1.999513e-08	-2.649139e+01	-1.308365e+03
2.810000e-06	-3.818019e-06	-2.030333e-08	-2.719327e+01	-1.328208e+03
2.820000e-06	-3.915384e-06	-2.059522e-08	-2.788673e+01	-1.347054e+03
2.830000e-06	-4.011362e-06	-2.086836e-08	-2.857032e+01	-1.364969e+03
2.840000e-06	-4.105973e-06	-2.112544e-08	-2.924418e+01	-1.382003e+03
2.850000e-06	-4.199089e-06	-2.137168e-08	-2.990738e+01	-1.398193e+03
2.860000e-06	-4.290646e-06	-2.160918e-08	-3.055948e+01	-1.413571e+03
2.870000e-06	-4.380704e-06	-2.183828e-08	-3.120091e+01	-1.428176e+03
2.880000e-06	-4.469169e-06	-2.205752e-08	-3.183098e+01	-1.442051e+03
2.890000e-06	-4.555991e-06	-2.226352e-08	-3.244936e+01	-1.455248e+03
2.900000e-06	-4.641025e-06	-2.245687e-08	-3.305500e+01	-1.467819e+03
2.910000e-06	-4.724355e-06	-2.264134e-08	-3.364850e+01	-1.479813e+03
2.920000e-06	-4.806155e-06	-2.281739e-08	-3.423111e+01	-1.491270e+03
2.930000e-06	-4.886306e-06	-2.298558e-08	-3.480197e+01	-1.502220e+03
2.940000e-06	-4.964541e-06	-2.314732e-08	-3.535919e+01	-1.512678e+03
