# Temperatura_=_88.14
# Concentracion g/m^3_=_41000.0
# C_Vs_to_Am_M_A/Vsm_=_65563218390.804596
# pendiente_HvsI_1/m_=_3716.3
# ordenada_HvsI_A/m_=_1297.0
# frecuencia_Hz_=_302505.8318349645

Tiempo_(s)	Campo_(V.s)	Magnetizacion_(V.s)	Campo_(kA/m)	Magnetizacion_(A/m)
0.000000e+00	-7.993443e-06	-2.352743e-08	-5.685329e+01	-1.542724e+03
1.000000e-08	-7.988732e-06	-2.352495e-08	-5.681979e+01	-1.541669e+03
2.000000e-08	-7.981436e-06	-2.351906e-08	-5.676790e+01	-1.540308e+03
3.000000e-08	-7.971367e-06	-2.351131e-08	-5.669628e+01	-1.538906e+03
4.000000e-08	-7.958420e-06	-2.349920e-08	-5.660419e+01	-1.537703e+03
5.000000e-08	-7.942581e-06	-2.348091e-08	-5.649154e+01	-1.536837e+03
6.000000e-08	-7.924130e-06	-2.346047e-08	-5.636031e+01	-1.536302e+03
7.000000e-08	-7.903362e-06	-2.344460e-08	-5.621260e+01	-1.535952e+03
8.000000e-08	-7.879891e-06	-2.347678e-08	-5.604566e+01	-1.535557e+03
9.000000e-08	-7.853251e-06	-2.348056e-08	-5.585618e+01	-1.534872e+03
1.000000e-07	-7.823534e-06	-2.342578e-08	-5.564482e+01	-1.533721e+03
1.100000e-07	-7.790977e-06	-2.338152e-08	-5.541325e+01	-1.532053e+03
1.200000e-07	-7.755643e-06	-2.334804e-08	-5.516194e+01	-1.529959e+03
1.300000e-07	-7.717868e-06	-2.329632e-08	-5.489327e+01	-1.527641e+03
1.400000e-07	-7.677842e-06	-2.322658e-08	-5.460858e+01	-1.525346e+03
1.500000e-07	-7.635479e-06	-2.325626e-08	-5.430728e+01	-1.523284e+03
1.600000e-07	-7.590534e-06	-2.324240e-08	-5.398761e+01	-1.521553e+03
1.700000e-07	-7.542879e-06	-2.313820e-08	-5.364866e+01	-1.520109e+03
1.800000e-07	-7.492315e-06	-2.315750e-08	-5.328903e+01	-1.518767e+03
1.900000e-07	-7.438737e-06	-2.312841e-08	-5.290795e+01	-1.517261e+03
2.000000e-07	-7.382398e-06	-2.306956e-08	-5.250724e+01	-1.515318e+03
2.100000e-07	-7.323370e-06	-2.305051e-08	-5.208740e+01	-1.512751e+03
2.200000e-07	-7.261701e-06	-2.299101e-08	-5.164878e+01	-1.509510e+03
2.300000e-07	-7.197350e-06	-2.294761e-08	-5.119109e+01	-1.505704e+03
2.400000e-07	-7.130250e-06	-2.288110e-08	-5.071384e+01	-1.501565e+03
2.500000e-07	-7.060493e-06	-2.283792e-08	-5.021769e+01	-1.497381e+03
2.600000e-07	-6.987946e-06	-2.277846e-08	-4.970170e+01	-1.493402e+03
2.700000e-07	-6.912599e-06	-2.272561e-08	-4.916580e+01	-1.489766e+03
2.800000e-07	-6.834513e-06	-2.266579e-08	-4.861041e+01	-1.486451e+03
2.900000e-07	-6.753684e-06	-2.258837e-08	-4.803552e+01	-1.483287e+03
3.000000e-07	-6.670395e-06	-2.253830e-08	-4.744313e+01	-1.480004e+03
3.100000e-07	-6.584859e-06	-2.246819e-08	-4.683475e+01	-1.476320e+03
3.200000e-07	-6.496992e-06	-2.240864e-08	-4.620980e+01	-1.472031e+03
3.300000e-07	-6.406702e-06	-2.234008e-08	-4.556761e+01	-1.467076e+03
3.400000e-07	-6.314084e-06	-2.226613e-08	-4.490886e+01	-1.461557e+03
3.500000e-07	-6.219218e-06	-2.218927e-08	-4.423413e+01	-1.455711e+03
3.600000e-07	-6.122030e-06	-2.211063e-08	-4.354289e+01	-1.449830e+03
3.700000e-07	-6.022603e-06	-2.202937e-08	-4.283571e+01	-1.444168e+03
3.800000e-07	-5.921141e-06	-2.194386e-08	-4.211406e+01	-1.438860e+03
3.900000e-07	-5.817540e-06	-2.186333e-08	-4.137720e+01	-1.433866e+03
4.000000e-07	-5.711784e-06	-2.177083e-08	-4.062501e+01	-1.428987e+03
4.100000e-07	-5.604071e-06	-2.168042e-08	-3.985890e+01	-1.423914e+03
4.200000e-07	-5.494459e-06	-2.158782e-08	-3.907929e+01	-1.418329e+03
4.300000e-07	-5.382815e-06	-2.149001e-08	-3.828523e+01	-1.412003e+03
4.400000e-07	-5.269052e-06	-2.138050e-08	-3.747609e+01	-1.404870e+03
4.500000e-07	-5.153304e-06	-2.127180e-08	-3.665283e+01	-1.397053e+03
4.600000e-07	-5.035678e-06	-2.116095e-08	-3.581622e+01	-1.388825e+03
4.700000e-07	-4.916153e-06	-2.104648e-08	-3.496609e+01	-1.380526e+03
4.800000e-07	-4.794816e-06	-2.093107e-08	-3.410309e+01	-1.372454e+03
4.900000e-07	-4.671776e-06	-2.081189e-08	-3.322797e+01	-1.364760e+03
5.000000e-07	-4.547044e-06	-2.068823e-08	-3.234081e+01	-1.357395e+03
5.100000e-07	-4.420667e-06	-2.055624e-08	-3.144195e+01	-1.350113e+03
5.200000e-07	-4.292644e-06	-2.042233e-08	-3.053139e+01	-1.342538e+03
5.300000e-07	-4.163016e-06	-2.028047e-08	-2.960942e+01	-1.334277e+03
5.400000e-07	-4.031857e-06	-2.013298e-08	-2.867655e+01	-1.325041e+03
5.500000e-07	-3.899199e-06	-1.997865e-08	-2.773302e+01	-1.314735e+03
5.600000e-07	-3.765115e-06	-1.982332e-08	-2.677934e+01	-1.303496e+03
5.700000e-07	-3.629595e-06	-1.966227e-08	-2.581546e+01	-1.291647e+03
5.800000e-07	-3.492608e-06	-1.949439e-08	-2.484114e+01	-1.279598e+03
5.900000e-07	-3.354200e-06	-1.932150e-08	-2.385671e+01	-1.267710e+03
6.000000e-07	-3.214441e-06	-1.914133e-08	-2.286268e+01	-1.256164e+03
6.100000e-07	-3.073359e-06	-1.895184e-08	-2.185924e+01	-1.244889e+03
6.200000e-07	-2.931010e-06	-1.875090e-08	-2.084678e+01	-1.233562e+03
6.300000e-07	-2.787503e-06	-1.854478e-08	-1.982609e+01	-1.221692e+03
6.400000e-07	-2.642997e-06	-1.833044e-08	-1.879829e+01	-1.208758e+03
6.500000e-07	-2.497541e-06	-1.810748e-08	-1.776374e+01	-1.194370e+03
6.600000e-07	-2.351188e-06	-1.787394e-08	-1.672281e+01	-1.178391e+03
6.700000e-07	-2.204102e-06	-1.763157e-08	-1.567666e+01	-1.160986e+03
6.800000e-07	-2.056279e-06	-1.737803e-08	-1.462527e+01	-1.142564e+03
6.900000e-07	-1.907762e-06	-1.710877e-08	-1.356894e+01	-1.123649e+03
7.000000e-07	-1.758650e-06	-1.682545e-08	-1.250838e+01	-1.104679e+03
7.100000e-07	-1.608944e-06	-1.652777e-08	-1.144360e+01	-1.085834e+03
7.200000e-07	-1.458661e-06	-1.621529e-08	-1.037472e+01	-1.066916e+03
7.300000e-07	-1.307959e-06	-1.588080e-08	-9.302848e+00	-1.047346e+03
7.400000e-07	-1.156863e-06	-1.552489e-08	-8.228177e+00	-1.026283e+03
7.500000e-07	-1.005307e-06	-1.514736e-08	-7.150238e+00	-1.002830e+03
7.600000e-07	-8.534145e-07	-1.474410e-08	-6.069903e+00	-9.762820e+02
7.700000e-07	-7.012912e-07	-1.431080e-08	-4.987928e+00	-9.463173e+02
7.800000e-07	-5.488866e-07	-1.384268e-08	-3.903951e+00	-9.130759e+02
7.900000e-07	-3.962463e-07	-1.333484e-08	-2.818298e+00	-8.770659e+02
8.000000e-07	-2.434902e-07	-1.277900e-08	-1.731822e+00	-8.389050e+02
8.100000e-07	-9.061963e-08	-1.216767e-08	-6.445313e-01	-7.989474e+02
8.200000e-07	6.232257e-08	-1.149259e-08	4.432687e-01	-7.568902e+02
8.300000e-07	2.153264e-07	-1.074212e-08	1.531507e+00	-7.114778e+02
8.400000e-07	3.683058e-07	-9.897896e-09	2.619572e+00	-6.604095e+02
8.500000e-07	5.211515e-07	-8.937345e-09	3.706685e+00	-6.005199e+02
8.600000e-07	6.738518e-07	-7.831246e-09	4.792765e+00	-5.282363e+02
8.700000e-07	8.263203e-07	-6.539284e-09	5.877196e+00	-4.402488e+02
8.800000e-07	9.784590e-07	-5.002778e-09	6.959281e+00	-3.342660e+02
8.900000e-07	1.130263e-06	-3.152982e-09	8.038987e+00	-2.096956e+02
9.000000e-07	1.281718e-06	-9.722217e-10	9.116210e+00	-6.808893e+01
9.100000e-07	1.432799e-06	1.423757e-09	1.019077e+01	8.676860e+01
9.200000e-07	1.583379e-06	3.881217e-09	1.126177e+01	2.491713e+02
9.300000e-07	1.733378e-06	6.341501e-09	1.232864e+01	4.121731e+02
9.400000e-07	1.882806e-06	8.770594e-09	1.339144e+01	5.685154e+02
9.500000e-07	2.031591e-06	1.102036e-08	1.444967e+01	7.116297e+02
9.600000e-07	2.179593e-06	1.289927e-08	1.550234e+01	8.365222e+02
9.700000e-07	2.326698e-06	1.436630e-08	1.654862e+01	9.403727e+02
9.800000e-07	2.472839e-06	1.549794e-08	1.758804e+01	1.022744e+03
9.900000e-07	2.617971e-06	1.637695e-08	1.862029e+01	1.085375e+03
1.000000e-06	2.762179e-06	1.707082e-08	1.964598e+01	1.131632e+03
1.010000e-06	2.905429e-06	1.763172e-08	2.066484e+01	1.165740e+03
1.020000e-06	3.047574e-06	1.809569e-08	2.167584e+01	1.191970e+03
1.030000e-06	3.188472e-06	1.849040e-08	2.267798e+01	1.213951e+03
1.040000e-06	3.328049e-06	1.883232e-08	2.367072e+01	1.234220e+03
1.050000e-06	3.466299e-06	1.913281e-08	2.465402e+01	1.254080e+03
1.060000e-06	3.603236e-06	1.939969e-08	2.562799e+01	1.273746e+03
1.070000e-06	3.738866e-06	1.964215e-08	2.659265e+01	1.292697e+03
1.080000e-06	3.873130e-06	1.986460e-08	2.754761e+01	1.310121e+03
1.090000e-06	4.006028e-06	2.006871e-08	2.849284e+01	1.325326e+03
1.100000e-06	4.137544e-06	2.025935e-08	2.942825e+01	1.338028e+03
1.110000e-06	4.267495e-06	2.043866e-08	3.035252e+01	1.348441e+03
1.120000e-06	4.395885e-06	2.060608e-08	3.126569e+01	1.357206e+03
1.130000e-06	4.522823e-06	2.076268e-08	3.216854e+01	1.365174e+03
1.140000e-06	4.648214e-06	2.091017e-08	3.306038e+01	1.373152e+03
1.150000e-06	4.772032e-06	2.105132e-08	3.394103e+01	1.381680e+03
1.160000e-06	4.894128e-06	2.118546e-08	3.480944e+01	1.390906e+03
1.170000e-06	5.014421e-06	2.131025e-08	3.566503e+01	1.400588e+03
1.180000e-06	5.132979e-06	2.142924e-08	3.650827e+01	1.410215e+03
1.190000e-06	5.249640e-06	2.154329e-08	3.733802e+01	1.419199e+03
1.200000e-06	5.364219e-06	2.165165e-08	3.815296e+01	1.427069e+03
1.210000e-06	5.476705e-06	2.175237e-08	3.895302e+01	1.433620e+03
1.220000e-06	5.587183e-06	2.184901e-08	3.973879e+01	1.438964e+03
1.230000e-06	5.695771e-06	2.194318e-08	4.051112e+01	1.443487e+03
1.240000e-06	5.802364e-06	2.203301e-08	4.126926e+01	1.447717e+03
1.250000e-06	5.906756e-06	2.211762e-08	4.201175e+01	1.452160e+03
1.260000e-06	6.008935e-06	2.219897e-08	4.273850e+01	1.457154e+03
1.270000e-06	6.108979e-06	2.227742e-08	4.345006e+01	1.462777e+03
1.280000e-06	6.206699e-06	2.235327e-08	4.414509e+01	1.468844e+03
1.290000e-06	6.302033e-06	2.242560e-08	4.482315e+01	1.474982e+03
1.300000e-06	6.395180e-06	2.249578e-08	4.548566e+01	1.480761e+03
1.310000e-06	6.486073e-06	2.256582e-08	4.613213e+01	1.485830e+03
1.320000e-06	6.574573e-06	2.263395e-08	4.676159e+01	1.490024e+03
1.330000e-06	6.660679e-06	2.269951e-08	4.737402e+01	1.493411e+03
1.340000e-06	6.744504e-06	2.276133e-08	4.797023e+01	1.496256e+03
1.350000e-06	6.825961e-06	2.282006e-08	4.854959e+01	1.498935e+03
1.360000e-06	6.904896e-06	2.287471e-08	4.911101e+01	1.501809e+03
1.370000e-06	6.981297e-06	2.292565e-08	4.965441e+01	1.505113e+03
1.380000e-06	7.055053e-06	2.297679e-08	5.017900e+01	1.508887e+03
1.390000e-06	7.126248e-06	2.302787e-08	5.068537e+01	1.512970e+03
1.400000e-06	7.195030e-06	2.307778e-08	5.117458e+01	1.517059e+03
1.410000e-06	7.261179e-06	2.312508e-08	5.164507e+01	1.520805e+03
1.420000e-06	7.324656e-06	2.316801e-08	5.209655e+01	1.523930e+03
1.430000e-06	7.385673e-06	2.320778e-08	5.253053e+01	1.526307e+03
1.440000e-06	7.444150e-06	2.324491e-08	5.294645e+01	1.527998e+03
1.450000e-06	7.499929e-06	2.327954e-08	5.334318e+01	1.529231e+03
1.460000e-06	7.552903e-06	2.331109e-08	5.371996e+01	1.530323e+03
1.470000e-06	7.602814e-06	2.333966e-08	5.407495e+01	1.531581e+03
1.480000e-06	7.649751e-06	2.336671e-08	5.440879e+01	1.533205e+03
1.490000e-06	7.694088e-06	2.339371e-08	5.472414e+01	1.535227e+03
1.500000e-06	7.735686e-06	2.341976e-08	5.502000e+01	1.537509e+03
1.510000e-06	7.774387e-06	2.344245e-08	5.529526e+01	1.539790e+03
1.520000e-06	7.810404e-06	2.346310e-08	5.555143e+01	1.541770e+03
1.530000e-06	7.843652e-06	2.348227e-08	5.578790e+01	1.543208e+03
1.540000e-06	7.874071e-06	2.349848e-08	5.600426e+01	1.543996e+03
1.550000e-06	7.901768e-06	2.351125e-08	5.620125e+01	1.544196e+03
1.560000e-06	7.926551e-06	2.352100e-08	5.637752e+01	1.544013e+03
1.570000e-06	7.948448e-06	2.352916e-08	5.653327e+01	1.543737e+03
1.580000e-06	7.967623e-06	2.353787e-08	5.666965e+01	1.543644e+03
1.590000e-06	7.983838e-06	2.354791e-08	5.678498e+01	1.543919e+03
1.600000e-06	7.996993e-06	2.355807e-08	5.687854e+01	1.544591e+03
1.610000e-06	8.007083e-06	2.356628e-08	5.695031e+01	1.545535e+03
1.620000e-06	8.014154e-06	2.357153e-08	5.700060e+01	1.546507e+03
1.630000e-06	8.018449e-06	2.357444e-08	5.703115e+01	1.547224e+03
1.640000e-06	8.019905e-06	2.357465e-08	5.704150e+01	1.547453e+03
1.650000e-06	8.018554e-06	2.356608e-08	5.703189e+01	1.547084e+03
1.660000e-06	8.014615e-06	2.355461e-08	5.700388e+01	1.546158e+03
1.670000e-06	8.007989e-06	2.354566e-08	5.695675e+01	1.544856e+03
1.680000e-06	7.998651e-06	2.353854e-08	5.689034e+01	1.543437e+03
1.690000e-06	7.986526e-06	2.353238e-08	5.680409e+01	1.542156e+03
1.700000e-06	7.971574e-06	2.352702e-08	5.669775e+01	1.541186e+03
1.710000e-06	7.954138e-06	2.352179e-08	5.657374e+01	1.540563e+03
1.720000e-06	7.934432e-06	2.348930e-08	5.643358e+01	1.540180e+03
1.730000e-06	7.912087e-06	2.340265e-08	5.627465e+01	1.539822e+03
1.740000e-06	7.886416e-06	2.337970e-08	5.609206e+01	1.539241e+03
1.750000e-06	7.857042e-06	2.339262e-08	5.588314e+01	1.538232e+03
1.760000e-06	7.824397e-06	2.337589e-08	5.565095e+01	1.536707e+03
1.770000e-06	7.789295e-06	2.337425e-08	5.540129e+01	1.534716e+03
1.780000e-06	7.751946e-06	2.342330e-08	5.513565e+01	1.532436e+03
1.790000e-06	7.712494e-06	2.337736e-08	5.485504e+01	1.530108e+03
1.800000e-06	7.670968e-06	2.331138e-08	5.455969e+01	1.527961e+03
1.810000e-06	7.626758e-06	2.334939e-08	5.424525e+01	1.526132e+03
1.820000e-06	7.579832e-06	2.327003e-08	5.391149e+01	1.524618e+03
1.830000e-06	7.530257e-06	2.324980e-08	5.355889e+01	1.523270e+03
1.840000e-06	7.477637e-06	2.321376e-08	5.318463e+01	1.521838e+03
1.850000e-06	7.422114e-06	2.315217e-08	5.278972e+01	1.520043e+03
1.860000e-06	7.363917e-06	2.315345e-08	5.237579e+01	1.517664e+03
1.870000e-06	7.303095e-06	2.306676e-08	5.194320e+01	1.514610e+03
1.880000e-06	7.239528e-06	2.305647e-08	5.149108e+01	1.510944e+03
1.890000e-06	7.173113e-06	2.301346e-08	5.101870e+01	1.506870e+03
1.900000e-06	7.103938e-06	2.294790e-08	5.052670e+01	1.502668e+03
1.910000e-06	7.031991e-06	2.290287e-08	5.001497e+01	1.498608e+03
1.920000e-06	6.957369e-06	2.282991e-08	4.948422e+01	1.494867e+03
1.930000e-06	6.879958e-06	2.280561e-08	4.893364e+01	1.491471e+03
1.940000e-06	6.799772e-06	2.272220e-08	4.836332e+01	1.488286e+03
1.950000e-06	6.717161e-06	2.266334e-08	4.777575e+01	1.485065e+03
1.960000e-06	6.632112e-06	2.259908e-08	4.717083e+01	1.481520e+03
1.970000e-06	6.544609e-06	2.252609e-08	4.654847e+01	1.477415e+03
1.980000e-06	6.454742e-06	2.246643e-08	4.590929e+01	1.472645e+03
1.990000e-06	6.362574e-06	2.238315e-08	4.525375e+01	1.467266e+03
2.000000e-06	6.268146e-06	2.231641e-08	4.458213e+01	1.461483e+03
2.010000e-06	6.171487e-06	2.223299e-08	4.389465e+01	1.455581e+03
2.020000e-06	6.072638e-06	2.215848e-08	4.319158e+01	1.449834e+03
2.030000e-06	5.971616e-06	2.207059e-08	4.247306e+01	1.444419e+03
2.040000e-06	5.868426e-06	2.199101e-08	4.173913e+01	1.439348e+03
2.050000e-06	5.763126e-06	2.190202e-08	4.099018e+01	1.434462e+03
2.060000e-06	5.655916e-06	2.180662e-08	4.022765e+01	1.429477e+03
2.070000e-06	5.546727e-06	2.171356e-08	3.945104e+01	1.424065e+03
2.080000e-06	5.435478e-06	2.162007e-08	3.865979e+01	1.417964e+03
2.090000e-06	5.322231e-06	2.152574e-08	3.785432e+01	1.411056e+03
2.100000e-06	5.207013e-06	2.142079e-08	3.703483e+01	1.403410e+03
2.110000e-06	5.089807e-06	2.131648e-08	3.620121e+01	1.395263e+03
2.120000e-06	4.970665e-06	2.119929e-08	3.535381e+01	1.386949e+03
2.130000e-06	4.849683e-06	2.108067e-08	3.449333e+01	1.378787e+03
2.140000e-06	4.726983e-06	2.095901e-08	3.362062e+01	1.370979e+03
2.150000e-06	4.602513e-06	2.084382e-08	3.273533e+01	1.363536e+03
2.160000e-06	4.476251e-06	2.072329e-08	3.183730e+01	1.356263e+03
2.170000e-06	4.348436e-06	2.059568e-08	3.092821e+01	1.348811e+03
2.180000e-06	4.219089e-06	2.046067e-08	3.000823e+01	1.340781e+03
2.190000e-06	4.088212e-06	2.032200e-08	2.907737e+01	1.331841e+03
2.200000e-06	3.955747e-06	2.017687e-08	2.813522e+01	1.321835e+03
2.210000e-06	3.821751e-06	2.002569e-08	2.718217e+01	1.310834e+03
2.220000e-06	3.686386e-06	1.986866e-08	2.621939e+01	1.299117e+03
2.230000e-06	3.549648e-06	1.970242e-08	2.524684e+01	1.287082e+03
2.240000e-06	3.411580e-06	1.953038e-08	2.426483e+01	1.275118e+03
2.250000e-06	3.272215e-06	1.935201e-08	2.327360e+01	1.263468e+03
2.260000e-06	3.131538e-06	1.917053e-08	2.227303e+01	1.252137e+03
2.270000e-06	2.989559e-06	1.898247e-08	2.126321e+01	1.240868e+03
2.280000e-06	2.846413e-06	1.878714e-08	2.024509e+01	1.229206e+03
2.290000e-06	2.702247e-06	1.858171e-08	1.921971e+01	1.216622e+03
2.300000e-06	2.557104e-06	1.836355e-08	1.818738e+01	1.202675e+03
2.310000e-06	2.411116e-06	1.813496e-08	1.714904e+01	1.187145e+03
2.320000e-06	2.264355e-06	1.789908e-08	1.610521e+01	1.170113e+03
2.330000e-06	2.116787e-06	1.765233e-08	1.505563e+01	1.151928e+03
2.340000e-06	1.968481e-06	1.739075e-08	1.400080e+01	1.133100e+03
2.350000e-06	1.819591e-06	1.711357e-08	1.294182e+01	1.114111e+03
2.360000e-06	1.670117e-06	1.682218e-08	1.187870e+01	1.095231e+03
2.370000e-06	1.520008e-06	1.651651e-08	1.081104e+01	1.076376e+03
2.380000e-06	1.369395e-06	1.619494e-08	9.739809e+00	1.057068e+03
2.390000e-06	1.218433e-06	1.585265e-08	8.666094e+00	1.036524e+03
2.400000e-06	1.067103e-06	1.548677e-08	7.589758e+00	1.013837e+03
2.410000e-06	9.153593e-07	1.509484e-08	6.510485e+00	9.882232e+02
2.420000e-06	7.632903e-07	1.467300e-08	5.428895e+00	9.592385e+02
2.430000e-06	6.109775e-07	1.421788e-08	4.345572e+00	9.268923e+02
2.440000e-06	4.584487e-07	1.372448e-08	3.260712e+00	8.916070e+02
2.450000e-06	3.057027e-07	1.318817e-08	2.174308e+00	8.540037e+02
2.460000e-06	1.527947e-07	1.260126e-08	1.086751e+00	8.145529e+02
2.470000e-06	-2.195290e-10	1.195322e-08	-1.561398e-03	7.731764e+02
2.480000e-06	-1.532708e-07	1.123146e-08	-1.090137e+00	7.289109e+02
2.490000e-06	-3.062409e-07	1.042043e-08	-2.178136e+00	6.797483e+02
2.500000e-06	-4.591556e-07	9.502884e-09	-3.265740e+00	6.227352e+02
2.510000e-06	-6.119813e-07	8.453215e-09	-4.352711e+00	5.543543e+02
2.520000e-06	-7.645860e-07	7.233585e-09	-5.438111e+00	4.711442e+02
2.530000e-06	-9.168703e-07	5.792597e-09	-6.521232e+00	3.704469e+02
2.540000e-06	-1.068792e-06	4.064974e-09	-7.601775e+00	2.511259e+02
2.550000e-06	-1.220341e-06	1.992419e-09	-8.679666e+00	1.140940e+02
2.560000e-06	-1.371520e-06	-3.738906e-10	-9.754922e+00	-3.748745e+01
2.570000e-06	-1.522249e-06	-2.870926e-09	-1.082698e+01	-1.984066e+02
2.580000e-06	-1.672385e-06	-5.391572e-09	-1.189482e+01	-3.619849e+02
2.590000e-06	-1.821805e-06	-7.903864e-09	-1.295757e+01	-5.209504e+02
2.600000e-06	-1.970466e-06	-1.029133e-08	-1.401492e+01	-6.684385e+02
2.610000e-06	-2.118436e-06	-1.234675e-08	-1.506736e+01	-7.989293e+02
2.620000e-06	-2.265651e-06	-1.397417e-08	-1.611442e+01	-9.089421e+02
2.630000e-06	-2.412019e-06	-1.522964e-08	-1.715547e+01	-9.973617e+02
2.640000e-06	-2.557584e-06	-1.620123e-08	-1.819079e+01	-1.065349e+03
2.650000e-06	-2.702186e-06	-1.696205e-08	-1.921928e+01	-1.115877e+03
2.660000e-06	-2.845654e-06	-1.757026e-08	-2.023969e+01	-1.153010e+03
2.670000e-06	-2.987929e-06	-1.806786e-08	-2.125162e+01	-1.181084e+03
2.680000e-06	-3.128957e-06	-1.848449e-08	-2.225468e+01	-1.203968e+03
2.690000e-06	-3.268758e-06	-1.884271e-08	-2.324901e+01	-1.224542e+03
2.700000e-06	-3.407353e-06	-1.915627e-08	-2.423476e+01	-1.244456e+03
2.710000e-06	-3.544699e-06	-1.943503e-08	-2.521164e+01	-1.264208e+03
2.720000e-06	-3.680702e-06	-1.968512e-08	-2.617896e+01	-1.283444e+03
2.730000e-06	-3.815320e-06	-1.991341e-08	-2.713643e+01	-1.301388e+03
2.740000e-06	-3.948542e-06	-2.012290e-08	-2.808397e+01	-1.317280e+03
2.750000e-06	-4.080427e-06	-2.031480e-08	-2.902200e+01	-1.330698e+03
2.760000e-06	-4.210919e-06	-2.049375e-08	-2.995012e+01	-1.341717e+03
2.770000e-06	-4.339995e-06	-2.066224e-08	-3.086818e+01	-1.350872e+03
2.780000e-06	-4.467571e-06	-2.082038e-08	-3.177556e+01	-1.358980e+03
2.790000e-06	-4.593517e-06	-2.096908e-08	-3.267135e+01	-1.366887e+03
2.800000e-06	-4.717928e-06	-2.111007e-08	-3.355622e+01	-1.375227e+03
2.810000e-06	-4.840721e-06	-2.124482e-08	-3.442959e+01	-1.384264e+03
2.820000e-06	-4.961750e-06	-2.137190e-08	-3.529040e+01	-1.393861e+03
2.830000e-06	-5.080894e-06	-2.149115e-08	-3.613781e+01	-1.403566e+03
2.840000e-06	-5.198008e-06	-2.160317e-08	-3.697079e+01	-1.412793e+03
2.850000e-06	-5.313035e-06	-2.170755e-08	-3.778892e+01	-1.421017e+03
2.860000e-06	-5.425917e-06	-2.180884e-08	-3.859179e+01	-1.427948e+03
2.870000e-06	-5.536683e-06	-2.190752e-08	-3.937961e+01	-1.433610e+03
2.880000e-06	-5.645500e-06	-2.200083e-08	-4.015357e+01	-1.438319e+03
2.890000e-06	-5.752400e-06	-2.208817e-08	-4.091390e+01	-1.442578e+03
2.900000e-06	-5.857244e-06	-2.217194e-08	-4.165960e+01	-1.446918e+03
2.910000e-06	-5.959865e-06	-2.225255e-08	-4.238949e+01	-1.451737e+03
2.920000e-06	-6.060201e-06	-2.233072e-08	-4.310312e+01	-1.457190e+03
2.930000e-06	-6.158368e-06	-2.240584e-08	-4.380134e+01	-1.463163e+03
2.940000e-06	-6.254410e-06	-2.247848e-08	-4.448444e+01	-1.469327e+03
