# Temperatura_=_46.36
# Concentracion g/m^3_=_41000.0
# C_Vs_to_Am_M_A/Vsm_=_65563218390.804596
# pendiente_HvsI_1/m_=_3716.3
# ordenada_HvsI_A/m_=_1297.0
# frecuencia_Hz_=_302505.3549802119

Tiempo_(s)	Campo_(V.s)	Magnetizacion_(V.s)	Campo_(kA/m)	Magnetizacion_(A/m)
0.000000e+00	-7.987910e-06	-2.533804e-08	-5.685587e+01	-1.660028e+03
1.000000e-08	-7.983536e-06	-2.533486e-08	-5.682474e+01	-1.659830e+03
2.000000e-08	-7.976604e-06	-2.532768e-08	-5.677540e+01	-1.659181e+03
3.000000e-08	-7.967015e-06	-2.531878e-08	-5.670715e+01	-1.658148e+03
4.000000e-08	-7.954543e-06	-2.530710e-08	-5.661838e+01	-1.656888e+03
5.000000e-08	-7.939206e-06	-2.529101e-08	-5.650921e+01	-1.655595e+03
6.000000e-08	-7.921197e-06	-2.527451e-08	-5.638103e+01	-1.654441e+03
7.000000e-08	-7.900853e-06	-2.526628e-08	-5.623623e+01	-1.653530e+03
8.000000e-08	-7.877913e-06	-2.527527e-08	-5.607295e+01	-1.652868e+03
9.000000e-08	-7.851825e-06	-2.529335e-08	-5.588726e+01	-1.652365e+03
1.000000e-07	-7.822557e-06	-2.526520e-08	-5.567893e+01	-1.651873e+03
1.100000e-07	-7.790401e-06	-2.521696e-08	-5.545006e+01	-1.651232e+03
1.200000e-07	-7.755499e-06	-2.517574e-08	-5.520163e+01	-1.650318e+03
1.300000e-07	-7.718090e-06	-2.511861e-08	-5.493537e+01	-1.649085e+03
1.400000e-07	-7.678469e-06	-2.505524e-08	-5.465335e+01	-1.647566e+03
1.500000e-07	-7.636537e-06	-2.505534e-08	-5.435489e+01	-1.645863e+03
1.600000e-07	-7.592002e-06	-2.511210e-08	-5.403790e+01	-1.644097e+03
1.700000e-07	-7.544782e-06	-2.505481e-08	-5.370180e+01	-1.642367e+03
1.800000e-07	-7.494795e-06	-2.502873e-08	-5.334601e+01	-1.640706e+03
1.900000e-07	-7.441792e-06	-2.501792e-08	-5.296875e+01	-1.639070e+03
2.000000e-07	-7.385904e-06	-2.490659e-08	-5.257095e+01	-1.637344e+03
2.100000e-07	-7.327378e-06	-2.486977e-08	-5.215438e+01	-1.635381e+03
2.200000e-07	-7.266215e-06	-2.487184e-08	-5.171904e+01	-1.633050e+03
2.300000e-07	-7.202365e-06	-2.483698e-08	-5.126457e+01	-1.630282e+03
2.400000e-07	-7.135777e-06	-2.476539e-08	-5.079061e+01	-1.627099e+03
2.500000e-07	-7.066485e-06	-2.472106e-08	-5.029741e+01	-1.623608e+03
2.600000e-07	-6.994374e-06	-2.470593e-08	-4.978414e+01	-1.619974e+03
2.700000e-07	-6.919511e-06	-2.463183e-08	-4.925129e+01	-1.616369e+03
2.800000e-07	-6.841966e-06	-2.457189e-08	-4.869934e+01	-1.612917e+03
2.900000e-07	-6.761665e-06	-2.455150e-08	-4.812778e+01	-1.609653e+03
3.000000e-07	-6.678844e-06	-2.449817e-08	-4.753828e+01	-1.606508e+03
3.100000e-07	-6.593740e-06	-2.440863e-08	-4.693254e+01	-1.603329e+03
3.200000e-07	-6.506381e-06	-2.434375e-08	-4.631073e+01	-1.599922e+03
3.300000e-07	-6.416629e-06	-2.430726e-08	-4.567190e+01	-1.596113e+03
3.400000e-07	-6.324431e-06	-2.422360e-08	-4.501566e+01	-1.591802e+03
3.500000e-07	-6.229991e-06	-2.414862e-08	-4.434346e+01	-1.586996e+03
3.600000e-07	-6.133312e-06	-2.409702e-08	-4.365533e+01	-1.581804e+03
3.700000e-07	-6.034382e-06	-2.402858e-08	-4.295117e+01	-1.576409e+03
3.800000e-07	-5.933321e-06	-2.394531e-08	-4.223184e+01	-1.571002e+03
3.900000e-07	-5.830133e-06	-2.386423e-08	-4.149737e+01	-1.565726e+03
4.000000e-07	-5.724841e-06	-2.378350e-08	-4.074794e+01	-1.560619e+03
4.100000e-07	-5.617505e-06	-2.368653e-08	-3.998394e+01	-1.555604e+03
4.200000e-07	-5.508252e-06	-2.360239e-08	-3.920631e+01	-1.550502e+03
4.300000e-07	-5.397064e-06	-2.351884e-08	-3.841491e+01	-1.545090e+03
4.400000e-07	-5.283794e-06	-2.342187e-08	-3.760868e+01	-1.539162e+03
4.500000e-07	-5.168525e-06	-2.331160e-08	-3.678822e+01	-1.532601e+03
4.600000e-07	-5.051300e-06	-2.320539e-08	-3.595385e+01	-1.525412e+03
4.700000e-07	-4.932173e-06	-2.309867e-08	-3.510593e+01	-1.517722e+03
4.800000e-07	-4.811218e-06	-2.298389e-08	-3.424500e+01	-1.509743e+03
4.900000e-07	-4.688557e-06	-2.287161e-08	-3.337193e+01	-1.501699e+03
5.000000e-07	-4.564189e-06	-2.275521e-08	-3.248672e+01	-1.493751e+03
5.100000e-07	-4.438164e-06	-2.262908e-08	-3.158970e+01	-1.485939e+03
5.200000e-07	-4.310543e-06	-2.249188e-08	-3.068133e+01	-1.478160e+03
5.300000e-07	-4.181211e-06	-2.235449e-08	-2.976078e+01	-1.470185e+03
5.400000e-07	-4.050423e-06	-2.221347e-08	-2.882986e+01	-1.461730e+03
5.500000e-07	-3.918141e-06	-2.206778e-08	-2.788831e+01	-1.452533e+03
5.600000e-07	-3.784368e-06	-2.191385e-08	-2.693615e+01	-1.442437e+03
5.700000e-07	-3.649205e-06	-2.175075e-08	-2.597410e+01	-1.431439e+03
5.800000e-07	-3.512525e-06	-2.158060e-08	-2.500124e+01	-1.419690e+03
5.900000e-07	-3.374409e-06	-2.140305e-08	-2.401817e+01	-1.407449e+03
6.000000e-07	-3.235001e-06	-2.122069e-08	-2.302590e+01	-1.394992e+03
6.100000e-07	-3.094244e-06	-2.102921e-08	-2.202403e+01	-1.382516e+03
6.200000e-07	-2.952076e-06	-2.083198e-08	-2.101211e+01	-1.370063e+03
6.300000e-07	-2.808740e-06	-2.062570e-08	-1.999189e+01	-1.357484e+03
6.400000e-07	-2.664438e-06	-2.040686e-08	-1.896478e+01	-1.344465e+03
6.500000e-07	-2.519248e-06	-2.017749e-08	-1.793135e+01	-1.330611e+03
6.600000e-07	-2.373175e-06	-1.994095e-08	-1.689164e+01	-1.315553e+03
6.700000e-07	-2.226277e-06	-1.969346e-08	-1.584607e+01	-1.299059e+03
6.800000e-07	-2.078718e-06	-1.942970e-08	-1.479577e+01	-1.281097e+03
6.900000e-07	-1.930447e-06	-1.915175e-08	-1.374042e+01	-1.261848e+03
7.000000e-07	-1.781398e-06	-1.885897e-08	-1.267953e+01	-1.241629e+03
7.100000e-07	-1.631765e-06	-1.855109e-08	-1.161448e+01	-1.220779e+03
7.200000e-07	-1.481755e-06	-1.822584e-08	-1.054675e+01	-1.199515e+03
7.300000e-07	-1.331422e-06	-1.788280e-08	-9.476715e+00	-1.177816e+03
7.400000e-07	-1.180657e-06	-1.751847e-08	-8.403613e+00	-1.155368e+03
7.500000e-07	-1.029316e-06	-1.713017e-08	-7.326405e+00	-1.131604e+03
7.600000e-07	-8.774941e-07	-1.671803e-08	-6.245776e+00	-1.105818e+03
7.700000e-07	-7.253373e-07	-1.627894e-08	-5.162763e+00	-1.077339e+03
7.800000e-07	-5.728896e-07	-1.580572e-08	-4.077680e+00	-1.045697e+03
7.900000e-07	-4.202264e-07	-1.529291e-08	-2.991063e+00	-1.010734e+03
8.000000e-07	-2.674306e-07	-1.473882e-08	-1.903502e+00	-9.726002e+02
8.100000e-07	-1.145534e-07	-1.413593e-08	-8.153611e-01	-9.316198e+02
8.200000e-07	3.840382e-08	-1.347892e-08	2.733485e-01	-8.880486e+02
8.300000e-07	1.914026e-07	-1.276028e-08	1.362354e+00	-8.417675e+02
8.400000e-07	3.443218e-07	-1.196761e-08	2.450793e+00	-7.920039e+02
8.500000e-07	4.971416e-07	-1.108538e-08	3.538525e+00	-7.371678e+02
8.600000e-07	6.498730e-07	-1.009709e-08	4.625628e+00	-6.748772e+02
8.700000e-07	8.024433e-07	-8.978503e-09	5.711584e+00	-6.022092e+02
8.800000e-07	9.547107e-07	-7.691043e-09	6.795384e+00	-5.161584e+02
8.900000e-07	1.106614e-06	-6.185809e-09	7.876592e+00	-4.142325e+02
9.000000e-07	1.258102e-06	-4.403130e-09	8.954841e+00	-2.950686e+02
9.100000e-07	1.409015e-06	-2.302070e-09	1.002901e+01	-1.589406e+02
9.200000e-07	1.559389e-06	4.909617e-11	1.109933e+01	-8.033705e+00
9.300000e-07	1.709334e-06	2.498364e-09	1.216660e+01	1.535922e+02
9.400000e-07	1.858779e-06	4.956453e-09	1.323031e+01	3.203699e+02
9.500000e-07	2.007522e-06	7.411365e-09	1.428902e+01	4.858718e+02
9.600000e-07	2.155488e-06	9.843150e-09	1.534220e+01	6.436256e+02
9.700000e-07	2.302594e-06	1.211824e-08	1.638927e+01	7.879504e+02
9.800000e-07	2.448806e-06	1.405052e-08	1.742997e+01	9.146592e+02
9.900000e-07	2.594129e-06	1.559408e-08	1.846434e+01	1.021500e+03
1.000000e-06	2.738445e-06	1.681649e-08	1.949154e+01	1.108269e+03
1.010000e-06	2.881656e-06	1.779381e-08	2.051088e+01	1.176582e+03
1.020000e-06	3.023722e-06	1.858554e-08	2.152207e+01	1.229386e+03
1.030000e-06	3.164655e-06	1.923710e-08	2.252520e+01	1.270311e+03
1.040000e-06	3.304355e-06	1.978244e-08	2.351954e+01	1.303005e+03
1.050000e-06	3.442730e-06	2.024401e-08	2.450446e+01	1.330583e+03
1.060000e-06	3.579795e-06	2.064035e-08	2.548006e+01	1.355278e+03
1.070000e-06	3.715536e-06	2.098717e-08	2.644622e+01	1.378341e+03
1.080000e-06	3.849919e-06	2.129607e-08	2.740273e+01	1.400159e+03
1.090000e-06	3.982981e-06	2.157334e-08	2.834983e+01	1.420532e+03
1.100000e-06	4.114591e-06	2.182453e-08	2.928659e+01	1.439018e+03
1.110000e-06	4.244655e-06	2.205411e-08	3.021235e+01	1.455244e+03
1.120000e-06	4.373245e-06	2.226581e-08	3.112762e+01	1.469114e+03
1.130000e-06	4.500251e-06	2.245825e-08	3.203162e+01	1.480881e+03
1.140000e-06	4.625748e-06	2.263512e-08	3.292488e+01	1.491084e+03
1.150000e-06	4.749709e-06	2.280217e-08	3.380720e+01	1.500391e+03
1.160000e-06	4.871959e-06	2.295967e-08	3.467734e+01	1.509415e+03
1.170000e-06	4.992530e-06	2.310611e-08	3.553553e+01	1.518555e+03
1.180000e-06	5.111329e-06	2.324167e-08	3.638111e+01	1.527919e+03
1.190000e-06	5.228189e-06	2.336929e-08	3.721290e+01	1.537333e+03
1.200000e-06	5.342985e-06	2.348948e-08	3.802998e+01	1.546439e+03
1.210000e-06	5.455678e-06	2.360168e-08	3.883210e+01	1.554837e+03
1.220000e-06	5.566350e-06	2.370676e-08	3.961984e+01	1.562224e+03
1.230000e-06	5.675142e-06	2.380720e-08	4.039419e+01	1.568498e+03
1.240000e-06	5.781945e-06	2.390232e-08	4.115439e+01	1.573784e+03
1.250000e-06	5.886544e-06	2.398950e-08	4.189890e+01	1.578397e+03
1.260000e-06	5.988979e-06	2.407026e-08	4.262800e+01	1.582738e+03
1.270000e-06	6.089281e-06	2.414708e-08	4.334192e+01	1.587176e+03
1.280000e-06	6.187297e-06	2.422124e-08	4.403958e+01	1.591946e+03
1.290000e-06	6.282898e-06	2.429300e-08	4.472004e+01	1.597088e+03
1.300000e-06	6.376217e-06	2.436258e-08	4.538426e+01	1.602456e+03
1.310000e-06	6.467329e-06	2.443066e-08	4.603277e+01	1.607771e+03
1.320000e-06	6.556083e-06	2.449743e-08	4.666450e+01	1.612727e+03
1.330000e-06	6.642483e-06	2.456078e-08	4.727947e+01	1.617081e+03
1.340000e-06	6.726625e-06	2.461908e-08	4.787838e+01	1.620732e+03
1.350000e-06	6.808364e-06	2.467312e-08	4.846017e+01	1.623747e+03
1.360000e-06	6.887586e-06	2.472389e-08	4.902406e+01	1.626329e+03
1.370000e-06	6.964349e-06	2.477238e-08	4.957043e+01	1.628751e+03
1.380000e-06	7.038488e-06	2.481865e-08	5.009814e+01	1.631268e+03
1.390000e-06	7.109978e-06	2.486309e-08	5.060699e+01	1.634038e+03
1.400000e-06	7.179037e-06	2.490559e-08	5.109852e+01	1.637079e+03
1.410000e-06	7.245557e-06	2.494758e-08	5.157200e+01	1.640268e+03
1.420000e-06	7.309391e-06	2.498799e-08	5.202635e+01	1.643387e+03
1.430000e-06	7.370715e-06	2.502301e-08	5.246284e+01	1.646199e+03
1.440000e-06	7.429540e-06	2.505364e-08	5.288154e+01	1.648519e+03
1.450000e-06	7.485700e-06	2.508160e-08	5.328127e+01	1.650279e+03
1.460000e-06	7.539123e-06	2.510868e-08	5.366153e+01	1.651542e+03
1.470000e-06	7.589447e-06	2.513330e-08	5.401972e+01	1.652481e+03
1.480000e-06	7.636732e-06	2.515513e-08	5.435628e+01	1.653326e+03
1.490000e-06	7.681432e-06	2.517749e-08	5.467444e+01	1.654289e+03
1.500000e-06	7.723410e-06	2.520113e-08	5.497324e+01	1.655499e+03
1.510000e-06	7.762547e-06	2.522268e-08	5.525180e+01	1.656966e+03
1.520000e-06	7.798975e-06	2.523983e-08	5.551109e+01	1.658583e+03
1.530000e-06	7.832614e-06	2.525537e-08	5.575052e+01	1.660159e+03
1.540000e-06	7.863464e-06	2.526989e-08	5.597010e+01	1.661489e+03
1.550000e-06	7.891656e-06	2.528130e-08	5.617077e+01	1.662412e+03
1.560000e-06	7.916998e-06	2.528992e-08	5.635114e+01	1.662869e+03
1.570000e-06	7.939363e-06	2.529793e-08	5.651033e+01	1.662918e+03
1.580000e-06	7.958963e-06	2.530692e-08	5.664984e+01	1.662712e+03
1.590000e-06	7.975680e-06	2.531719e-08	5.676882e+01	1.662456e+03
1.600000e-06	7.989319e-06	2.532783e-08	5.686591e+01	1.662340e+03
1.610000e-06	7.999865e-06	2.533646e-08	5.694097e+01	1.662477e+03
1.620000e-06	8.007367e-06	2.533994e-08	5.699436e+01	1.662875e+03
1.630000e-06	8.012085e-06	2.534053e-08	5.702794e+01	1.663431e+03
1.640000e-06	8.013989e-06	2.533868e-08	5.704150e+01	1.663964e+03
1.650000e-06	8.013043e-06	2.533362e-08	5.703477e+01	1.664275e+03
1.660000e-06	8.009477e-06	2.532582e-08	5.700938e+01	1.664205e+03
1.670000e-06	8.003270e-06	2.531992e-08	5.696520e+01	1.663682e+03
1.680000e-06	7.994333e-06	2.531582e-08	5.690159e+01	1.662746e+03
1.690000e-06	7.982684e-06	2.531118e-08	5.681868e+01	1.661533e+03
1.700000e-06	7.968198e-06	2.530674e-08	5.671557e+01	1.660230e+03
1.710000e-06	7.951116e-06	2.530129e-08	5.659398e+01	1.659022e+03
1.720000e-06	7.931797e-06	2.527646e-08	5.645648e+01	1.658037e+03
1.730000e-06	7.909971e-06	2.522289e-08	5.630113e+01	1.657309e+03
1.740000e-06	7.884917e-06	2.517986e-08	5.612280e+01	1.656775e+03
1.750000e-06	7.856126e-06	2.518872e-08	5.591787e+01	1.656297e+03
1.760000e-06	7.823960e-06	2.518365e-08	5.568892e+01	1.655714e+03
1.770000e-06	7.789250e-06	2.518344e-08	5.544186e+01	1.654887e+03
1.780000e-06	7.752313e-06	2.522897e-08	5.517896e+01	1.653745e+03
1.790000e-06	7.713227e-06	2.524905e-08	5.490075e+01	1.652301e+03
1.800000e-06	7.672018e-06	2.517051e-08	5.460744e+01	1.650638e+03
1.810000e-06	7.628286e-06	2.514774e-08	5.429617e+01	1.648879e+03
1.820000e-06	7.581864e-06	2.513434e-08	5.396575e+01	1.647132e+03
1.830000e-06	7.532724e-06	2.508564e-08	5.361598e+01	1.645453e+03
1.840000e-06	7.480610e-06	2.513024e-08	5.324505e+01	1.643820e+03
1.850000e-06	7.425637e-06	2.509572e-08	5.285376e+01	1.642134e+03
1.860000e-06	7.367941e-06	2.504612e-08	5.244309e+01	1.640254e+03
1.870000e-06	7.307583e-06	2.497311e-08	5.201348e+01	1.638039e+03
1.880000e-06	7.244487e-06	2.492188e-08	5.156438e+01	1.635398e+03
1.890000e-06	7.178545e-06	2.492634e-08	5.109503e+01	1.632327e+03
1.900000e-06	7.109861e-06	2.484899e-08	5.060615e+01	1.628909e+03
1.910000e-06	7.038346e-06	2.483781e-08	5.009713e+01	1.625298e+03
1.920000e-06	6.964127e-06	2.480098e-08	4.956886e+01	1.621669e+03
1.930000e-06	6.887229e-06	2.471841e-08	4.902151e+01	1.618166e+03
1.940000e-06	6.807588e-06	2.466458e-08	4.845465e+01	1.614851e+03
1.950000e-06	6.725452e-06	2.460899e-08	4.787003e+01	1.611685e+03
1.960000e-06	6.640806e-06	2.457333e-08	4.726754e+01	1.608535e+03
1.970000e-06	6.553655e-06	2.448744e-08	4.664722e+01	1.605214e+03
1.980000e-06	6.464165e-06	2.444133e-08	4.601025e+01	1.601534e+03
1.990000e-06	6.372427e-06	2.439098e-08	4.535728e+01	1.597372e+03
2.000000e-06	6.278414e-06	2.430746e-08	4.468813e+01	1.592700e+03
2.010000e-06	6.182140e-06	2.423714e-08	4.400287e+01	1.587602e+03
2.020000e-06	6.083746e-06	2.416296e-08	4.330253e+01	1.582245e+03
2.030000e-06	5.983111e-06	2.409802e-08	4.258624e+01	1.576825e+03
2.040000e-06	5.880264e-06	2.401785e-08	4.185420e+01	1.571502e+03
2.050000e-06	5.775349e-06	2.394988e-08	4.110744e+01	1.566350e+03
2.060000e-06	5.668511e-06	2.386329e-08	4.034699e+01	1.561324e+03
2.070000e-06	5.559716e-06	2.376026e-08	3.957262e+01	1.556270e+03
2.080000e-06	5.448930e-06	2.366374e-08	3.878408e+01	1.550969e+03
2.090000e-06	5.336153e-06	2.357971e-08	3.798135e+01	1.545206e+03
2.100000e-06	5.221360e-06	2.349347e-08	3.716429e+01	1.538831e+03
2.110000e-06	5.104575e-06	2.339494e-08	3.633305e+01	1.531814e+03
2.120000e-06	4.985872e-06	2.329426e-08	3.548815e+01	1.524249e+03
2.130000e-06	4.865273e-06	2.317857e-08	3.462975e+01	1.516329e+03
2.140000e-06	4.742834e-06	2.305968e-08	3.375827e+01	1.508283e+03
2.150000e-06	4.618686e-06	2.294022e-08	3.287461e+01	1.500298e+03
2.160000e-06	4.492804e-06	2.282791e-08	3.197862e+01	1.492452e+03
2.170000e-06	4.365342e-06	2.270778e-08	3.107137e+01	1.484683e+03
2.180000e-06	4.236286e-06	2.257847e-08	3.015279e+01	1.476792e+03
2.190000e-06	4.105701e-06	2.244132e-08	2.922332e+01	1.468504e+03
2.200000e-06	3.973537e-06	2.229644e-08	2.828260e+01	1.459541e+03
2.210000e-06	3.839784e-06	2.214764e-08	2.733059e+01	1.449710e+03
2.220000e-06	3.704673e-06	2.199418e-08	2.636890e+01	1.438961e+03
2.230000e-06	3.568199e-06	2.183499e-08	2.539751e+01	1.427404e+03
2.240000e-06	3.430374e-06	2.166774e-08	2.441651e+01	1.415275e+03
2.250000e-06	3.291242e-06	2.149339e-08	2.342621e+01	1.402854e+03
2.260000e-06	3.150755e-06	2.130743e-08	2.242626e+01	1.390372e+03
2.270000e-06	3.008998e-06	2.111425e-08	2.141727e+01	1.377920e+03
2.280000e-06	2.866200e-06	2.091521e-08	2.040087e+01	1.365403e+03
2.290000e-06	2.722402e-06	2.071059e-08	1.937735e+01	1.352549e+03
2.300000e-06	2.577498e-06	2.049044e-08	1.834596e+01	1.338975e+03
2.310000e-06	2.431604e-06	2.025615e-08	1.730753e+01	1.324293e+03
2.320000e-06	2.285042e-06	2.001199e-08	1.626434e+01	1.308222e+03
2.330000e-06	2.137800e-06	1.975615e-08	1.521631e+01	1.290670e+03
2.340000e-06	1.989742e-06	1.948614e-08	1.416247e+01	1.271761e+03
2.350000e-06	1.840952e-06	1.920328e-08	1.310342e+01	1.251783e+03
2.360000e-06	1.691501e-06	1.890628e-08	1.203967e+01	1.231084e+03
2.370000e-06	1.541502e-06	1.858865e-08	1.097201e+01	1.209929e+03
2.380000e-06	1.391072e-06	1.825128e-08	9.901287e+00	1.188373e+03
2.390000e-06	1.240287e-06	1.789493e-08	8.828045e+00	1.166188e+03
2.400000e-06	1.089196e-06	1.751854e-08	7.752613e+00	1.142869e+03
2.410000e-06	9.377935e-07	1.711583e-08	6.674971e+00	1.117735e+03
2.420000e-06	7.860354e-07	1.668544e-08	5.594796e+00	1.090085e+03
2.430000e-06	6.339146e-07	1.622538e-08	4.512040e+00	1.059378e+03
2.440000e-06	4.815783e-07	1.572786e-08	3.427750e+00	1.025362e+03
2.450000e-06	3.290507e-07	1.518951e-08	2.342097e+00	9.881046e+02
2.460000e-06	1.762890e-07	1.460729e-08	1.254779e+00	9.479032e+02
2.470000e-06	2.339722e-08	1.397339e-08	1.665354e-01	9.050627e+02
2.480000e-06	-1.295423e-07	1.327818e-08	-9.220483e-01	8.596021e+02
2.490000e-06	-2.823912e-07	1.251105e-08	-2.009987e+00	8.109590e+02
2.500000e-06	-4.351328e-07	1.166127e-08	-3.097163e+00	7.577837e+02
2.510000e-06	-5.878362e-07	1.071213e-08	-4.184066e+00	6.979050e+02
2.520000e-06	-7.403481e-07	9.640676e-09	-5.269606e+00	6.285158e+02
2.530000e-06	-8.925057e-07	8.416305e-09	-6.352625e+00	5.465777e+02
2.540000e-06	-1.044274e-06	6.996459e-09	-7.432870e+00	4.493873e+02
2.550000e-06	-1.195605e-06	5.324417e-09	-8.510004e+00	3.352002e+02
2.560000e-06	-1.346521e-06	3.333214e-09	-9.584186e+00	2.037822e+02
2.570000e-06	-1.497038e-06	1.030913e-09	-1.065553e+01	5.676187e+01
2.580000e-06	-1.647103e-06	-1.447652e-09	-1.172365e+01	-1.023133e+02
2.590000e-06	-1.796633e-06	-3.969434e-09	-1.278797e+01	-2.682513e+02
2.600000e-06	-1.945499e-06	-6.493249e-09	-1.384756e+01	-4.347919e+02
2.610000e-06	-2.093581e-06	-9.005935e-09	-1.490157e+01	-5.953881e+02
2.620000e-06	-2.240717e-06	-1.140783e-08	-1.594885e+01	-7.440529e+02
2.630000e-06	-2.386998e-06	-1.350363e-08	-1.699003e+01	-8.761139e+02
2.640000e-06	-2.532550e-06	-1.519584e-08	-1.802603e+01	-9.887401e+02
2.650000e-06	-2.677223e-06	-1.653582e-08	-1.905578e+01	-1.081150e+03
2.660000e-06	-2.820783e-06	-1.760128e-08	-2.007760e+01	-1.154482e+03
2.670000e-06	-2.963209e-06	-1.845920e-08	-2.109135e+01	-1.211364e+03
2.680000e-06	-3.104518e-06	-1.916187e-08	-2.209716e+01	-1.255299e+03
2.690000e-06	-3.244543e-06	-1.974594e-08	-2.309382e+01	-1.289995e+03
2.700000e-06	-3.383210e-06	-2.023634e-08	-2.408082e+01	-1.318764e+03
2.710000e-06	-3.520653e-06	-2.065519e-08	-2.505910e+01	-1.344112e+03
2.720000e-06	-3.656829e-06	-2.101973e-08	-2.602836e+01	-1.367568e+03
2.730000e-06	-3.791569e-06	-2.134040e-08	-2.698741e+01	-1.389742e+03
2.740000e-06	-3.924994e-06	-2.162659e-08	-2.793709e+01	-1.410568e+03
2.750000e-06	-4.057010e-06	-2.188378e-08	-2.887675e+01	-1.429640e+03
2.760000e-06	-4.187555e-06	-2.211856e-08	-2.980593e+01	-1.446535e+03
2.770000e-06	-4.316804e-06	-2.233597e-08	-3.072589e+01	-1.461067e+03
2.780000e-06	-4.444524e-06	-2.253635e-08	-3.163497e+01	-1.473390e+03
2.790000e-06	-4.570661e-06	-2.271872e-08	-3.253278e+01	-1.483974e+03
2.800000e-06	-4.695243e-06	-2.288485e-08	-3.341952e+01	-1.493468e+03
2.810000e-06	-4.818086e-06	-2.304046e-08	-3.429389e+01	-1.502520e+03
2.820000e-06	-4.939253e-06	-2.318860e-08	-3.515632e+01	-1.511602e+03
2.830000e-06	-5.058548e-06	-2.332780e-08	-3.600544e+01	-1.520908e+03
2.840000e-06	-5.175812e-06	-2.345584e-08	-3.684009e+01	-1.530338e+03
2.850000e-06	-5.291039e-06	-2.357364e-08	-3.766025e+01	-1.539574e+03
2.860000e-06	-5.404121e-06	-2.368589e-08	-3.846513e+01	-1.548211e+03
2.870000e-06	-5.515147e-06	-2.379341e-08	-3.925539e+01	-1.555907e+03
2.880000e-06	-5.624163e-06	-2.389415e-08	-4.003133e+01	-1.562495e+03
2.890000e-06	-5.731216e-06	-2.398792e-08	-4.079331e+01	-1.568038e+03
2.900000e-06	-5.836349e-06	-2.407490e-08	-4.154162e+01	-1.572804e+03
2.910000e-06	-5.939295e-06	-2.415594e-08	-4.227436e+01	-1.577180e+03
2.920000e-06	-6.039896e-06	-2.423330e-08	-4.299042e+01	-1.581559e+03
2.930000e-06	-6.138318e-06	-2.430901e-08	-4.369096e+01	-1.586220e+03
2.940000e-06	-6.234645e-06	-2.438356e-08	-4.437659e+01	-1.591264e+03
