# Temperatura_=_35.84
# Concentracion g/m^3_=_41000.0
# C_Vs_to_Am_M_A/Vsm_=_65563218390.804596
# pendiente_HvsI_1/m_=_3716.3
# ordenada_HvsI_A/m_=_1297.0
# frecuencia_Hz_=_302507.8599566231

Tiempo_(s)	Campo_(V.s)	Magnetizacion_(V.s)	Campo_(kA/m)	Magnetizacion_(A/m)
0.000000e+00	-8.005603e-06	-2.512349e-08	-5.684918e+01	-1.646081e+03
1.000000e-08	-8.001130e-06	-2.511884e-08	-5.681742e+01	-1.645917e+03
2.000000e-08	-7.994148e-06	-2.511170e-08	-5.676784e+01	-1.645266e+03
3.000000e-08	-7.984373e-06	-2.510593e-08	-5.669842e+01	-1.644202e+03
4.000000e-08	-7.971657e-06	-2.509516e-08	-5.660813e+01	-1.642901e+03
5.000000e-08	-7.955975e-06	-2.507860e-08	-5.649677e+01	-1.641578e+03
6.000000e-08	-7.937633e-06	-2.506153e-08	-5.636651e+01	-1.640427e+03
7.000000e-08	-7.917062e-06	-2.504499e-08	-5.622044e+01	-1.639560e+03
8.000000e-08	-7.893886e-06	-2.509092e-08	-5.605586e+01	-1.638975e+03
9.000000e-08	-7.867514e-06	-2.510111e-08	-5.586859e+01	-1.638562e+03
1.000000e-07	-7.838000e-06	-2.503248e-08	-5.565900e+01	-1.638140e+03
1.100000e-07	-7.805638e-06	-2.499040e-08	-5.542920e+01	-1.637516e+03
1.200000e-07	-7.770524e-06	-2.496706e-08	-5.517985e+01	-1.636546e+03
1.300000e-07	-7.732880e-06	-2.491515e-08	-5.491253e+01	-1.635181e+03
1.400000e-07	-7.693026e-06	-2.484100e-08	-5.462952e+01	-1.633476e+03
1.500000e-07	-7.650919e-06	-2.490158e-08	-5.433051e+01	-1.631570e+03
1.600000e-07	-7.606195e-06	-2.490249e-08	-5.401292e+01	-1.629635e+03
1.700000e-07	-7.558730e-06	-2.477145e-08	-5.367586e+01	-1.627815e+03
1.800000e-07	-7.508293e-06	-2.482426e-08	-5.331770e+01	-1.626176e+03
1.900000e-07	-7.454833e-06	-2.478294e-08	-5.293807e+01	-1.624677e+03
2.000000e-07	-7.398652e-06	-2.471553e-08	-5.253912e+01	-1.623182e+03
2.100000e-07	-7.339785e-06	-2.472075e-08	-5.212109e+01	-1.621499e+03
2.200000e-07	-7.278270e-06	-2.465704e-08	-5.168426e+01	-1.619442e+03
2.300000e-07	-7.214084e-06	-2.464420e-08	-5.122847e+01	-1.616887e+03
2.400000e-07	-7.147117e-06	-2.456795e-08	-5.075292e+01	-1.613818e+03
2.500000e-07	-7.077480e-06	-2.452120e-08	-5.025842e+01	-1.610334e+03
2.600000e-07	-7.005079e-06	-2.447286e-08	-4.974429e+01	-1.606617e+03
2.700000e-07	-6.929863e-06	-2.444586e-08	-4.921016e+01	-1.602880e+03
2.800000e-07	-6.851948e-06	-2.439909e-08	-4.865688e+01	-1.599301e+03
2.900000e-07	-6.771249e-06	-2.432598e-08	-4.808382e+01	-1.595962e+03
3.000000e-07	-6.688029e-06	-2.429625e-08	-4.749286e+01	-1.592828e+03
3.100000e-07	-6.602634e-06	-2.421095e-08	-4.688646e+01	-1.589752e+03
3.200000e-07	-6.514914e-06	-2.414743e-08	-4.626354e+01	-1.586521e+03
3.300000e-07	-6.424762e-06	-2.408793e-08	-4.562336e+01	-1.582923e+03
3.400000e-07	-6.332286e-06	-2.402905e-08	-4.496667e+01	-1.578813e+03
3.500000e-07	-6.237559e-06	-2.397202e-08	-4.429400e+01	-1.574157e+03
3.600000e-07	-6.140509e-06	-2.390446e-08	-4.360482e+01	-1.569046e+03
3.700000e-07	-6.041181e-06	-2.382801e-08	-4.289948e+01	-1.563664e+03
3.800000e-07	-5.939770e-06	-2.374782e-08	-4.217934e+01	-1.558229e+03
3.900000e-07	-5.836245e-06	-2.367890e-08	-4.144420e+01	-1.552919e+03
4.000000e-07	-5.730568e-06	-2.359036e-08	-4.069376e+01	-1.547816e+03
4.100000e-07	-5.622830e-06	-2.350849e-08	-3.992870e+01	-1.542870e+03
4.200000e-07	-5.513196e-06	-2.342547e-08	-3.915016e+01	-1.537909e+03
4.300000e-07	-5.401549e-06	-2.333394e-08	-3.835734e+01	-1.532696e+03
4.400000e-07	-5.287782e-06	-2.322924e-08	-3.754946e+01	-1.526993e+03
4.500000e-07	-5.172006e-06	-2.313010e-08	-3.672732e+01	-1.520643e+03
4.600000e-07	-5.054329e-06	-2.303143e-08	-3.589167e+01	-1.513615e+03
4.700000e-07	-4.934822e-06	-2.292852e-08	-3.504303e+01	-1.506021e+03
4.800000e-07	-4.813492e-06	-2.281988e-08	-3.418145e+01	-1.498078e+03
4.900000e-07	-4.690414e-06	-2.270347e-08	-3.330745e+01	-1.490036e+03
5.000000e-07	-4.565609e-06	-2.258367e-08	-3.242118e+01	-1.482098e+03
5.100000e-07	-4.439201e-06	-2.245427e-08	-3.152354e+01	-1.474346e+03
5.200000e-07	-4.311172e-06	-2.232428e-08	-3.061438e+01	-1.466703e+03
5.300000e-07	-4.181504e-06	-2.218965e-08	-2.969359e+01	-1.458949e+03
5.400000e-07	-4.050334e-06	-2.205268e-08	-2.876212e+01	-1.450776e+03
5.500000e-07	-3.917660e-06	-2.190554e-08	-2.781998e+01	-1.441882e+03
5.600000e-07	-3.783513e-06	-2.175635e-08	-2.686738e+01	-1.432063e+03
5.700000e-07	-3.647889e-06	-2.159928e-08	-2.590430e+01	-1.421271e+03
5.800000e-07	-3.510812e-06	-2.143459e-08	-2.493089e+01	-1.409635e+03
5.900000e-07	-3.372381e-06	-2.126179e-08	-2.394787e+01	-1.397419e+03
6.000000e-07	-3.232579e-06	-2.107881e-08	-2.295511e+01	-1.384933e+03
6.100000e-07	-3.091329e-06	-2.088624e-08	-2.195207e+01	-1.372427e+03
6.200000e-07	-2.948737e-06	-2.068459e-08	-2.093950e+01	-1.359997e+03
6.300000e-07	-2.805003e-06	-2.048070e-08	-1.991881e+01	-1.347535e+03
6.400000e-07	-2.660264e-06	-2.026839e-08	-1.889100e+01	-1.334747e+03
6.500000e-07	-2.514592e-06	-2.004835e-08	-1.785655e+01	-1.321220e+03
6.600000e-07	-2.368051e-06	-1.981557e-08	-1.681595e+01	-1.306544e+03
6.700000e-07	-2.220797e-06	-1.957103e-08	-1.577027e+01	-1.290431e+03
6.800000e-07	-2.072868e-06	-1.931124e-08	-1.471979e+01	-1.272800e+03
6.900000e-07	-1.924201e-06	-1.903399e-08	-1.366409e+01	-1.253801e+03
7.000000e-07	-1.774860e-06	-1.874433e-08	-1.260359e+01	-1.233759e+03
7.100000e-07	-1.625016e-06	-1.844080e-08	-1.153952e+01	-1.213053e+03
7.200000e-07	-1.474787e-06	-1.812327e-08	-1.047272e+01	-1.191967e+03
7.300000e-07	-1.324142e-06	-1.778601e-08	-9.402962e+00	-1.170548e+03
7.400000e-07	-1.172963e-06	-1.742808e-08	-8.329411e+00	-1.148540e+03
7.500000e-07	-1.021206e-06	-1.704808e-08	-7.251761e+00	-1.125394e+03
7.600000e-07	-8.689710e-07	-1.664399e-08	-6.170715e+00	-1.100380e+03
7.700000e-07	-7.164004e-07	-1.621120e-08	-5.087284e+00	-1.072768e+03
7.800000e-07	-5.635940e-07	-1.574844e-08	-4.002179e+00	-1.042009e+03
7.900000e-07	-4.105930e-07	-1.525123e-08	-2.915692e+00	-1.007878e+03
8.000000e-07	-2.574406e-07	-1.471112e-08	-1.828130e+00	-9.705019e+02
8.100000e-07	-1.041820e-07	-1.412390e-08	-7.398147e-01	-9.302474e+02
8.200000e-07	4.917006e-08	-1.348479e-08	3.491652e-01	-8.874857e+02
8.300000e-07	2.024912e-07	-1.278765e-08	1.437925e+00	-8.422737e+02
8.400000e-07	3.557172e-07	-1.201823e-08	2.526010e+00	-7.940416e+02
8.500000e-07	5.089300e-07	-1.116654e-08	3.614001e+00	-7.413826e+02
8.600000e-07	6.620400e-07	-1.021550e-08	4.701261e+00	-6.820270e+02
8.700000e-07	8.149292e-07	-9.141290e-09	5.786954e+00	-6.130513e+02
8.800000e-07	9.675254e-07	-7.910269e-09	6.870567e+00	-5.313141e+02
8.900000e-07	1.119797e-06	-6.476511e-09	7.951873e+00	-4.340555e+02
9.000000e-07	1.271621e-06	-4.784428e-09	9.030006e+00	-3.195468e+02
9.100000e-07	1.422803e-06	-2.772044e-09	1.010357e+01	-1.876520e+02
9.200000e-07	1.573391e-06	-4.680222e-10	1.117292e+01	-4.016998e+01
9.300000e-07	1.723476e-06	1.972288e-09	1.223870e+01	1.191368e+02
9.400000e-07	1.873065e-06	4.428749e-09	1.330096e+01	2.848600e+02
9.500000e-07	2.022044e-06	6.883254e-09	1.435888e+01	4.505685e+02
9.600000e-07	2.170238e-06	9.327533e-09	1.541124e+01	6.096310e+02
9.700000e-07	2.317627e-06	1.163478e-08	1.645787e+01	7.560865e+02
9.800000e-07	2.464131e-06	1.360731e-08	1.749822e+01	8.854020e+02
9.900000e-07	2.609716e-06	1.519023e-08	1.853205e+01	9.949764e+02
1.000000e-06	2.754315e-06	1.645042e-08	1.955887e+01	1.084309e+03
1.010000e-06	2.897813e-06	1.745869e-08	2.057787e+01	1.154814e+03
1.020000e-06	3.040196e-06	1.827485e-08	2.158896e+01	1.209346e+03
1.030000e-06	3.181392e-06	1.894631e-08	2.259162e+01	1.251546e+03
1.040000e-06	3.321285e-06	1.950726e-08	2.358503e+01	1.285147e+03
1.050000e-06	3.459933e-06	1.998155e-08	2.456959e+01	1.313385e+03
1.060000e-06	3.597294e-06	2.038809e-08	2.554501e+01	1.338619e+03
1.070000e-06	3.733183e-06	2.074423e-08	2.650999e+01	1.362188e+03
1.080000e-06	3.867672e-06	2.106162e-08	2.746501e+01	1.384524e+03
1.090000e-06	4.000856e-06	2.134397e-08	2.841078e+01	1.405427e+03
1.100000e-06	4.132615e-06	2.159794e-08	2.934642e+01	1.424419e+03
1.110000e-06	4.262899e-06	2.183265e-08	3.027159e+01	1.441082e+03
1.120000e-06	4.391741e-06	2.204811e-08	3.118652e+01	1.455281e+03
1.130000e-06	4.519014e-06	2.224487e-08	3.209031e+01	1.467256e+03
1.140000e-06	4.644730e-06	2.242463e-08	3.298304e+01	1.477557e+03
1.150000e-06	4.768855e-06	2.259356e-08	3.386447e+01	1.486892e+03
1.160000e-06	4.891358e-06	2.275142e-08	3.473438e+01	1.495919e+03
1.170000e-06	5.012120e-06	2.289755e-08	3.559194e+01	1.505083e+03
1.180000e-06	5.130984e-06	2.303400e-08	3.643601e+01	1.514517e+03
1.190000e-06	5.247929e-06	2.316318e-08	3.726646e+01	1.524052e+03
1.200000e-06	5.362834e-06	2.328618e-08	3.808242e+01	1.533310e+03
1.210000e-06	5.475595e-06	2.339966e-08	3.888315e+01	1.541858e+03
1.220000e-06	5.586309e-06	2.350483e-08	3.966935e+01	1.549357e+03
1.230000e-06	5.695119e-06	2.360431e-08	4.044203e+01	1.555680e+03
1.240000e-06	5.802007e-06	2.369717e-08	4.120106e+01	1.560944e+03
1.250000e-06	5.906749e-06	2.378209e-08	4.194485e+01	1.565475e+03
1.260000e-06	6.009248e-06	2.386296e-08	4.267272e+01	1.569703e+03
1.270000e-06	6.109588e-06	2.394182e-08	4.338525e+01	1.574031e+03
1.280000e-06	6.207656e-06	2.401865e-08	4.408165e+01	1.578723e+03
1.290000e-06	6.303343e-06	2.409105e-08	4.476114e+01	1.583836e+03
1.300000e-06	6.396754e-06	2.416013e-08	4.542446e+01	1.589220e+03
1.310000e-06	6.487980e-06	2.422730e-08	4.607228e+01	1.594582e+03
1.320000e-06	6.576840e-06	2.429298e-08	4.670329e+01	1.599585e+03
1.330000e-06	6.663304e-06	2.435644e-08	4.731728e+01	1.603959e+03
1.340000e-06	6.747519e-06	2.441461e-08	4.791531e+01	1.607586e+03
1.350000e-06	6.829335e-06	2.446710e-08	4.849630e+01	1.610526e+03
1.360000e-06	6.908581e-06	2.451370e-08	4.905904e+01	1.612995e+03
1.370000e-06	6.985279e-06	2.455893e-08	4.960368e+01	1.615290e+03
1.380000e-06	7.059299e-06	2.460549e-08	5.012932e+01	1.617693e+03
1.390000e-06	7.130684e-06	2.465102e-08	5.063623e+01	1.620386e+03
1.400000e-06	7.199665e-06	2.469600e-08	5.112608e+01	1.623396e+03
1.410000e-06	7.266161e-06	2.473856e-08	5.159828e+01	1.626597e+03
1.420000e-06	7.330029e-06	2.477699e-08	5.205181e+01	1.629753e+03
1.430000e-06	7.391344e-06	2.481043e-08	5.248722e+01	1.632602e+03
1.440000e-06	7.450139e-06	2.484020e-08	5.290473e+01	1.634937e+03
1.450000e-06	7.506279e-06	2.486758e-08	5.330339e+01	1.636672e+03
1.460000e-06	7.559637e-06	2.489382e-08	5.368230e+01	1.637868e+03
1.470000e-06	7.609937e-06	2.491924e-08	5.403949e+01	1.638714e+03
1.480000e-06	7.657210e-06	2.494240e-08	5.437518e+01	1.639458e+03
1.490000e-06	7.701798e-06	2.496430e-08	5.469181e+01	1.640339e+03
1.500000e-06	7.743651e-06	2.498599e-08	5.498901e+01	1.641504e+03
1.510000e-06	7.782694e-06	2.500711e-08	5.526626e+01	1.642972e+03
1.520000e-06	7.819079e-06	2.502541e-08	5.552465e+01	1.644626e+03
1.530000e-06	7.852708e-06	2.504189e-08	5.576345e+01	1.646260e+03
1.540000e-06	7.883484e-06	2.505540e-08	5.598200e+01	1.647640e+03
1.550000e-06	7.911526e-06	2.506470e-08	5.618113e+01	1.648586e+03
1.560000e-06	7.936687e-06	2.507336e-08	5.635980e+01	1.649024e+03
1.570000e-06	7.958886e-06	2.508278e-08	5.651743e+01	1.649010e+03
1.580000e-06	7.978345e-06	2.509319e-08	5.665562e+01	1.648713e+03
1.590000e-06	7.994968e-06	2.510264e-08	5.677366e+01	1.648361e+03
1.600000e-06	8.008565e-06	2.511145e-08	5.687022e+01	1.648169e+03
1.610000e-06	8.019015e-06	2.511923e-08	5.694443e+01	1.648269e+03
1.620000e-06	8.026368e-06	2.512342e-08	5.699664e+01	1.648677e+03
1.630000e-06	8.030955e-06	2.512513e-08	5.702921e+01	1.649281e+03
1.640000e-06	8.032685e-06	2.512541e-08	5.704150e+01	1.649885e+03
1.650000e-06	8.031551e-06	2.511911e-08	5.703344e+01	1.650263e+03
1.660000e-06	8.027818e-06	2.510951e-08	5.700694e+01	1.650236e+03
1.670000e-06	8.021370e-06	2.510405e-08	5.696114e+01	1.649722e+03
1.680000e-06	8.012209e-06	2.509922e-08	5.689610e+01	1.648763e+03
1.690000e-06	8.000345e-06	2.509477e-08	5.681185e+01	1.647509e+03
1.700000e-06	7.985635e-06	2.509323e-08	5.670739e+01	1.646170e+03
1.710000e-06	7.968344e-06	2.509295e-08	5.658460e+01	1.644955e+03
1.720000e-06	7.948839e-06	2.507151e-08	5.644609e+01	1.644002e+03
1.730000e-06	7.926755e-06	2.496589e-08	5.628927e+01	1.643344e+03
1.740000e-06	7.901336e-06	2.495692e-08	5.610876e+01	1.642899e+03
1.750000e-06	7.872274e-06	2.499310e-08	5.590239e+01	1.642501e+03
1.760000e-06	7.839904e-06	2.497367e-08	5.567252e+01	1.641953e+03
1.770000e-06	7.805032e-06	2.497276e-08	5.542489e+01	1.641092e+03
1.780000e-06	7.767903e-06	2.505012e-08	5.516123e+01	1.639839e+03
1.790000e-06	7.728625e-06	2.500049e-08	5.488232e+01	1.638221e+03
1.800000e-06	7.687265e-06	2.492458e-08	5.458861e+01	1.636356e+03
1.810000e-06	7.643210e-06	2.501895e-08	5.427576e+01	1.634412e+03
1.820000e-06	7.596442e-06	2.490533e-08	5.394366e+01	1.632549e+03
1.830000e-06	7.547031e-06	2.492298e-08	5.359278e+01	1.630858e+03
1.840000e-06	7.494528e-06	2.491000e-08	5.321995e+01	1.629329e+03
1.850000e-06	7.439135e-06	2.481761e-08	5.282660e+01	1.627852e+03
1.860000e-06	7.381111e-06	2.486259e-08	5.241456e+01	1.626244e+03
1.870000e-06	7.320465e-06	2.474432e-08	5.198390e+01	1.624311e+03
1.880000e-06	7.257054e-06	2.476288e-08	5.153360e+01	1.621905e+03
1.890000e-06	7.190776e-06	2.473553e-08	5.106295e+01	1.618979e+03
1.900000e-06	7.121703e-06	2.466823e-08	5.057246e+01	1.615598e+03
1.910000e-06	7.049780e-06	2.464694e-08	5.006171e+01	1.611927e+03
1.920000e-06	6.975137e-06	2.454905e-08	4.953166e+01	1.608175e+03
1.930000e-06	6.897740e-06	2.455111e-08	4.898205e+01	1.604538e+03
1.940000e-06	6.817635e-06	2.445388e-08	4.841322e+01	1.601129e+03
1.950000e-06	6.735085e-06	2.442073e-08	4.782701e+01	1.597948e+03
1.960000e-06	6.650074e-06	2.438445e-08	4.722333e+01	1.594876e+03
1.970000e-06	6.562575e-06	2.430641e-08	4.660199e+01	1.591713e+03
1.980000e-06	6.472679e-06	2.426602e-08	4.596362e+01	1.588239e+03
1.990000e-06	6.380560e-06	2.417183e-08	4.530947e+01	1.584285e+03
2.000000e-06	6.286196e-06	2.412421e-08	4.463937e+01	1.579781e+03
2.010000e-06	6.189589e-06	2.404283e-08	4.395335e+01	1.574786e+03
2.020000e-06	6.090809e-06	2.398587e-08	4.325190e+01	1.569459e+03
2.030000e-06	5.989819e-06	2.390745e-08	4.253475e+01	1.564018e+03
2.040000e-06	5.886639e-06	2.383772e-08	4.180205e+01	1.558660e+03
2.050000e-06	5.781400e-06	2.375757e-08	4.105473e+01	1.553498e+03
2.060000e-06	5.674282e-06	2.366325e-08	4.029406e+01	1.548520e+03
2.070000e-06	5.565203e-06	2.358302e-08	3.951948e+01	1.543587e+03
2.080000e-06	5.454055e-06	2.349393e-08	3.873019e+01	1.538472e+03
2.090000e-06	5.340822e-06	2.341515e-08	3.792611e+01	1.532930e+03
2.100000e-06	5.225604e-06	2.331411e-08	3.710792e+01	1.526775e+03
2.110000e-06	5.108329e-06	2.322106e-08	3.627513e+01	1.519936e+03
2.120000e-06	4.989039e-06	2.310967e-08	3.542804e+01	1.512486e+03
2.130000e-06	4.867919e-06	2.300278e-08	3.456794e+01	1.504617e+03
2.140000e-06	4.745141e-06	2.288819e-08	3.369607e+01	1.496579e+03
2.150000e-06	4.620690e-06	2.278107e-08	3.281232e+01	1.488597e+03
2.160000e-06	4.494477e-06	2.266950e-08	3.191607e+01	1.480794e+03
2.170000e-06	4.366622e-06	2.254645e-08	3.100814e+01	1.473137e+03
2.180000e-06	4.237176e-06	2.241487e-08	3.008893e+01	1.465444e+03
2.190000e-06	4.106253e-06	2.227867e-08	2.915922e+01	1.457424e+03
2.200000e-06	3.973745e-06	2.214138e-08	2.821825e+01	1.448764e+03
2.210000e-06	3.839667e-06	2.199594e-08	2.726615e+01	1.439222e+03
2.220000e-06	3.704132e-06	2.184696e-08	2.630369e+01	1.428702e+03
2.230000e-06	3.567215e-06	2.168410e-08	2.533141e+01	1.417286e+03
2.240000e-06	3.429022e-06	2.151409e-08	2.435008e+01	1.405205e+03
2.250000e-06	3.289529e-06	2.133523e-08	2.335952e+01	1.392767e+03
2.260000e-06	3.148705e-06	2.115557e-08	2.235951e+01	1.380249e+03
2.270000e-06	3.006583e-06	2.096971e-08	2.135027e+01	1.367799e+03
2.280000e-06	2.863310e-06	2.077510e-08	2.033286e+01	1.355370e+03
2.290000e-06	2.718971e-06	2.056636e-08	1.930789e+01	1.342715e+03
2.300000e-06	2.573610e-06	2.034353e-08	1.827565e+01	1.329443e+03
2.310000e-06	2.427427e-06	2.011190e-08	1.723758e+01	1.315133e+03
2.320000e-06	2.280551e-06	1.987400e-08	1.619459e+01	1.299450e+03
2.330000e-06	2.132873e-06	1.962543e-08	1.514591e+01	1.282247e+03
2.340000e-06	1.984388e-06	1.936069e-08	1.409149e+01	1.263612e+03
2.350000e-06	1.835174e-06	1.908031e-08	1.303189e+01	1.243830e+03
2.360000e-06	1.685316e-06	1.878480e-08	1.196772e+01	1.223278e+03
2.370000e-06	1.534938e-06	1.847382e-08	1.089986e+01	1.202284e+03
2.380000e-06	1.384168e-06	1.814649e-08	9.829215e+00	1.180973e+03
2.390000e-06	1.233066e-06	1.779915e-08	8.756220e+00	1.159179e+03
2.400000e-06	1.081552e-06	1.743006e-08	7.680287e+00	1.136427e+03
2.410000e-06	9.296202e-07	1.703662e-08	6.601395e+00	1.112026e+03
2.420000e-06	7.773532e-07	1.661416e-08	5.520121e+00	1.085224e+03
2.430000e-06	6.247725e-07	1.616001e-08	4.436619e+00	1.055404e+03
2.440000e-06	4.719571e-07	1.567064e-08	3.351450e+00	1.022239e+03
2.450000e-06	3.189273e-07	1.514515e-08	2.264759e+00	9.857597e+02
2.460000e-06	1.657049e-07	1.457915e-08	1.176700e+00	9.462848e+02
2.470000e-06	1.239609e-08	1.396554e-08	8.802679e-02	9.042142e+02
2.480000e-06	-1.409451e-07	1.329374e-08	-1.000876e+00	8.597283e+02
2.490000e-06	-2.941709e-07	1.254987e-08	-2.088959e+00	8.124643e+02
2.500000e-06	-4.472884e-07	1.172458e-08	-3.176273e+00	7.612664e+02
2.510000e-06	-6.003303e-07	1.080696e-08	-4.263050e+00	7.041008e+02
2.520000e-06	-7.531950e-07	9.778330e-09	-5.348569e+00	6.381955e+02
2.530000e-06	-9.057208e-07	8.607992e-09	-6.431681e+00	5.604155e+02
2.540000e-06	-1.057806e-06	7.254317e-09	-7.511665e+00	4.678255e+02
2.550000e-06	-1.209535e-06	5.664460e-09	-8.589120e+00	3.583383e+02
2.560000e-06	-1.360878e-06	3.771866e-09	-9.663830e+00	2.313160e+02
2.570000e-06	-1.511773e-06	1.544646e-09	-1.073537e+01	8.798692e+01
2.580000e-06	-1.662209e-06	-9.098019e-10	-1.180364e+01	-6.843005e+01
2.590000e-06	-1.812039e-06	-3.430426e-09	-1.286761e+01	-2.329452e+02
2.600000e-06	-1.961126e-06	-5.955353e-09	-1.392630e+01	-3.993418e+02
2.610000e-06	-2.109402e-06	-8.476352e-09	-1.497923e+01	-5.609559e+02
2.620000e-06	-2.256801e-06	-1.090589e-08	-1.602594e+01	-7.115499e+02
2.630000e-06	-2.403326e-06	-1.304358e-08	-1.706644e+01	-8.461181e+02
2.640000e-06	-2.549065e-06	-1.477845e-08	-1.810136e+01	-9.614747e+02
2.650000e-06	-2.693893e-06	-1.615521e-08	-1.912981e+01	-1.056523e+03
2.660000e-06	-2.837665e-06	-1.725116e-08	-2.015076e+01	-1.132167e+03
2.670000e-06	-2.980411e-06	-1.813400e-08	-2.116442e+01	-1.190912e+03
2.680000e-06	-3.121997e-06	-1.885762e-08	-2.216984e+01	-1.236246e+03
2.690000e-06	-3.262223e-06	-1.945974e-08	-2.316562e+01	-1.271941e+03
2.700000e-06	-3.401080e-06	-1.996416e-08	-2.415166e+01	-1.301428e+03
2.710000e-06	-3.538659e-06	-2.039436e-08	-2.512864e+01	-1.327338e+03
2.720000e-06	-3.674954e-06	-2.076973e-08	-2.609649e+01	-1.351302e+03
2.730000e-06	-3.810000e-06	-2.110066e-08	-2.705548e+01	-1.373989e+03
2.740000e-06	-3.943672e-06	-2.139468e-08	-2.800470e+01	-1.395345e+03
2.750000e-06	-4.075791e-06	-2.165812e-08	-2.894290e+01	-1.414933e+03
2.760000e-06	-4.206472e-06	-2.189747e-08	-2.987089e+01	-1.432290e+03
2.770000e-06	-4.335783e-06	-2.211768e-08	-3.078915e+01	-1.447184e+03
2.780000e-06	-4.463612e-06	-2.232050e-08	-3.169689e+01	-1.459749e+03
2.790000e-06	-4.589943e-06	-2.250641e-08	-3.259398e+01	-1.470459e+03
2.800000e-06	-4.714668e-06	-2.267701e-08	-3.347968e+01	-1.479996e+03
2.810000e-06	-4.837661e-06	-2.283575e-08	-3.435308e+01	-1.489053e+03
2.820000e-06	-4.958942e-06	-2.298510e-08	-3.521431e+01	-1.498149e+03
2.830000e-06	-5.078436e-06	-2.312445e-08	-3.606286e+01	-1.507511e+03
2.840000e-06	-5.195925e-06	-2.325384e-08	-3.689717e+01	-1.517048e+03
2.850000e-06	-5.311263e-06	-2.337431e-08	-3.771620e+01	-1.526430e+03
2.860000e-06	-5.424460e-06	-2.348755e-08	-3.852004e+01	-1.535221e+03
2.870000e-06	-5.535553e-06	-2.359387e-08	-3.930892e+01	-1.543044e+03
2.880000e-06	-5.644629e-06	-2.369278e-08	-4.008349e+01	-1.549700e+03
2.890000e-06	-5.751799e-06	-2.378546e-08	-4.084453e+01	-1.555241e+03
2.900000e-06	-5.856991e-06	-2.387259e-08	-4.159151e+01	-1.559939e+03
2.910000e-06	-5.960013e-06	-2.395491e-08	-4.232309e+01	-1.564208e+03
2.920000e-06	-6.060745e-06	-2.403336e-08	-4.303841e+01	-1.568472e+03
2.930000e-06	-6.159270e-06	-2.410864e-08	-4.373805e+01	-1.573045e+03
2.940000e-06	-6.255639e-06	-2.418087e-08	-4.442238e+01	-1.578044e+03
