# Temperatura_=_61.41
# Concentracion g/m^3_=_41000.0
# C_Vs_to_Am_M_A/Vsm_=_65563218390.804596
# pendiente_HvsI_1/m_=_3716.3
# ordenada_HvsI_A/m_=_1297.0
# frecuencia_Hz_=_302508.28109566064

Tiempo_(s)	Campo_(V.s)	Magnetizacion_(V.s)	Campo_(kA/m)	Magnetizacion_(A/m)
0.000000e+00	-8.022881e-06	-2.290844e-08	-5.685994e+01	-1.502595e+03
1.000000e-08	-8.018679e-06	-2.290645e-08	-5.683016e+01	-1.501875e+03
2.000000e-08	-8.011885e-06	-2.290099e-08	-5.678201e+01	-1.500717e+03
3.000000e-08	-8.002314e-06	-2.289552e-08	-5.671418e+01	-1.499371e+03
4.000000e-08	-7.989896e-06	-2.288963e-08	-5.662617e+01	-1.498113e+03
5.000000e-08	-7.974545e-06	-2.287905e-08	-5.651737e+01	-1.497159e+03
6.000000e-08	-7.956508e-06	-2.286433e-08	-5.638954e+01	-1.496599e+03
7.000000e-08	-7.936213e-06	-2.285177e-08	-5.624571e+01	-1.496374e+03
8.000000e-08	-7.913335e-06	-2.286402e-08	-5.608357e+01	-1.496296e+03
9.000000e-08	-7.887293e-06	-2.289185e-08	-5.589900e+01	-1.496118e+03
1.000000e-07	-7.858006e-06	-2.285310e-08	-5.569144e+01	-1.495608e+03
1.100000e-07	-7.825819e-06	-2.279962e-08	-5.546332e+01	-1.494629e+03
1.200000e-07	-7.790906e-06	-2.277145e-08	-5.521589e+01	-1.493180e+03
1.300000e-07	-7.753427e-06	-2.272606e-08	-5.495026e+01	-1.491395e+03
1.400000e-07	-7.713747e-06	-2.266416e-08	-5.466905e+01	-1.489497e+03
1.500000e-07	-7.671773e-06	-2.265002e-08	-5.437156e+01	-1.487719e+03
1.600000e-07	-7.627161e-06	-2.271564e-08	-5.405539e+01	-1.486228e+03
1.700000e-07	-7.579934e-06	-2.263957e-08	-5.372068e+01	-1.485063e+03
1.800000e-07	-7.529868e-06	-2.260201e-08	-5.336585e+01	-1.484117e+03
1.900000e-07	-7.476689e-06	-2.261721e-08	-5.298896e+01	-1.483166e+03
2.000000e-07	-7.420666e-06	-2.252878e-08	-5.259192e+01	-1.481937e+03
2.100000e-07	-7.361989e-06	-2.252388e-08	-5.217606e+01	-1.480193e+03
2.200000e-07	-7.300637e-06	-2.252945e-08	-5.174124e+01	-1.477806e+03
2.300000e-07	-7.236586e-06	-2.248474e-08	-5.128730e+01	-1.474805e+03
2.400000e-07	-7.169766e-06	-2.238934e-08	-5.081373e+01	-1.471364e+03
2.500000e-07	-7.100292e-06	-2.234441e-08	-5.032135e+01	-1.467755e+03
2.600000e-07	-7.028000e-06	-2.234315e-08	-4.980900e+01	-1.464261e+03
2.700000e-07	-6.952851e-06	-2.226500e-08	-4.927640e+01	-1.461091e+03
2.800000e-07	-6.875025e-06	-2.221428e-08	-4.872483e+01	-1.458311e+03
2.900000e-07	-6.794411e-06	-2.219706e-08	-4.815350e+01	-1.455825e+03
3.000000e-07	-6.711284e-06	-2.213857e-08	-4.756437e+01	-1.453402e+03
3.100000e-07	-6.625948e-06	-2.204520e-08	-4.695957e+01	-1.450747e+03
3.200000e-07	-6.538310e-06	-2.199695e-08	-4.633846e+01	-1.447597e+03
3.300000e-07	-6.448244e-06	-2.198689e-08	-4.570014e+01	-1.443801e+03
3.400000e-07	-6.355778e-06	-2.191028e-08	-4.504482e+01	-1.439369e+03
3.500000e-07	-6.261101e-06	-2.183830e-08	-4.437382e+01	-1.434470e+03
3.600000e-07	-6.164119e-06	-2.178824e-08	-4.368648e+01	-1.429378e+03
3.700000e-07	-6.064807e-06	-2.172790e-08	-4.298264e+01	-1.424383e+03
3.800000e-07	-5.963414e-06	-2.165155e-08	-4.226405e+01	-1.419697e+03
3.900000e-07	-5.859951e-06	-2.157877e-08	-4.153078e+01	-1.415379e+03
4.000000e-07	-5.754299e-06	-2.150938e-08	-4.078200e+01	-1.411311e+03
4.100000e-07	-5.646583e-06	-2.141777e-08	-4.001859e+01	-1.407233e+03
4.200000e-07	-5.536970e-06	-2.133858e-08	-3.924174e+01	-1.402815e+03
4.300000e-07	-5.425367e-06	-2.125839e-08	-3.845078e+01	-1.397765e+03
4.400000e-07	-5.311575e-06	-2.117071e-08	-3.764431e+01	-1.391921e+03
4.500000e-07	-5.195699e-06	-2.107089e-08	-3.682307e+01	-1.385306e+03
4.600000e-07	-5.077993e-06	-2.097659e-08	-3.598887e+01	-1.378124e+03
4.700000e-07	-4.958478e-06	-2.088098e-08	-3.514184e+01	-1.370697e+03
4.800000e-07	-4.837064e-06	-2.077818e-08	-3.428135e+01	-1.363365e+03
4.900000e-07	-4.713865e-06	-2.068032e-08	-3.340821e+01	-1.356370e+03
5.000000e-07	-4.589033e-06	-2.057776e-08	-3.252350e+01	-1.349773e+03
5.100000e-07	-4.462549e-06	-2.046469e-08	-3.162708e+01	-1.343421e+03
5.200000e-07	-4.334409e-06	-2.033781e-08	-3.071892e+01	-1.336984e+03
5.300000e-07	-4.204645e-06	-2.021079e-08	-2.979925e+01	-1.330047e+03
5.400000e-07	-4.073286e-06	-2.007903e-08	-2.886829e+01	-1.322239e+03
5.500000e-07	-3.940388e-06	-1.994387e-08	-2.792641e+01	-1.313345e+03
5.600000e-07	-3.806025e-06	-1.980420e-08	-2.697415e+01	-1.303378e+03
5.700000e-07	-3.670278e-06	-1.965773e-08	-2.601208e+01	-1.292576e+03
5.800000e-07	-3.533085e-06	-1.950691e-08	-2.503976e+01	-1.281336e+03
5.900000e-07	-3.394450e-06	-1.934942e-08	-2.405722e+01	-1.270078e+03
6.000000e-07	-3.254474e-06	-1.918616e-08	-2.306518e+01	-1.259105e+03
6.100000e-07	-3.113082e-06	-1.901050e-08	-2.206310e+01	-1.248494e+03
6.200000e-07	-2.970326e-06	-1.882812e-08	-2.105137e+01	-1.238044e+03
6.300000e-07	-2.826412e-06	-1.863674e-08	-2.003141e+01	-1.227323e+03
6.400000e-07	-2.681493e-06	-1.843421e-08	-1.900434e+01	-1.215779e+03
6.500000e-07	-2.535654e-06	-1.822416e-08	-1.797074e+01	-1.202908e+03
6.600000e-07	-2.388934e-06	-1.800825e-08	-1.693091e+01	-1.188402e+03
6.700000e-07	-2.241450e-06	-1.778345e-08	-1.588565e+01	-1.172256e+03
6.800000e-07	-2.093302e-06	-1.754160e-08	-1.483570e+01	-1.154767e+03
6.900000e-07	-1.944497e-06	-1.728541e-08	-1.378108e+01	-1.136441e+03
7.000000e-07	-1.795049e-06	-1.701632e-08	-1.272191e+01	-1.117820e+03
7.100000e-07	-1.645046e-06	-1.673388e-08	-1.165880e+01	-1.099277e+03
7.200000e-07	-1.494502e-06	-1.643548e-08	-1.059187e+01	-1.080850e+03
7.300000e-07	-1.343408e-06	-1.612155e-08	-9.521029e+00	-1.062162e+03
7.400000e-07	-1.191855e-06	-1.578623e-08	-8.446941e+00	-1.042476e+03
7.500000e-07	-1.039920e-06	-1.542501e-08	-7.370143e+00	-1.020856e+03
7.600000e-07	-8.875987e-07	-1.503941e-08	-6.290610e+00	-9.964154e+02
7.700000e-07	-7.348973e-07	-1.462784e-08	-5.208381e+00	-9.685601e+02
7.800000e-07	-5.818910e-07	-1.418521e-08	-4.123991e+00	-9.371535e+02
7.900000e-07	-4.286202e-07	-1.370341e-08	-3.037727e+00	-9.025328e+02
8.000000e-07	-2.751752e-07	-1.317708e-08	-1.950228e+00	-8.653459e+02
8.100000e-07	-1.216572e-07	-1.259686e-08	-8.622115e-01	-8.262305e+02
8.200000e-07	3.191603e-08	-1.195778e-08	2.261960e-01	-7.854076e+02
8.300000e-07	1.854957e-07	-1.125357e-08	1.314650e+00	-7.422998e+02
8.400000e-07	3.389836e-07	-1.046981e-08	2.402452e+00	-6.952920e+02
8.500000e-07	4.924111e-07	-9.586132e-09	3.489827e+00	-6.417343e+02
8.600000e-07	6.458036e-07	-8.581001e-09	4.576954e+00	-5.782319e+02
8.700000e-07	7.989945e-07	-7.425571e-09	5.662652e+00	-5.012000e+02
8.800000e-07	9.519151e-07	-6.069079e-09	6.746434e+00	-4.075917e+02
8.900000e-07	1.104523e-06	-4.451222e-09	7.827999e+00	-2.956523e+02
9.000000e-07	1.256659e-06	-2.508237e-09	8.906223e+00	-1.655316e+02
9.100000e-07	1.408314e-06	-2.454903e-10	9.981033e+00	-1.960664e+01
9.200000e-07	1.559527e-06	2.186062e-09	1.105272e+01	1.375833e+02
9.300000e-07	1.710238e-06	4.646838e-09	1.212084e+01	2.998027e+02
9.400000e-07	1.860310e-06	7.101447e-09	1.318443e+01	4.599153e+02
9.500000e-07	2.009681e-06	9.473008e-09	1.424306e+01	6.108646e+02
9.600000e-07	2.158322e-06	1.156619e-08	1.529651e+01	7.466507e+02
9.700000e-07	2.306071e-06	1.325507e-08	1.634364e+01	8.631161e+02
9.800000e-07	2.452873e-06	1.457607e-08	1.738406e+01	9.583940e+02
9.900000e-07	2.598745e-06	1.560857e-08	1.841788e+01	1.032946e+03
1.000000e-06	2.743646e-06	1.642598e-08	1.944483e+01	1.089205e+03
1.010000e-06	2.887552e-06	1.708233e-08	2.046473e+01	1.130916e+03
1.020000e-06	3.030384e-06	1.761923e-08	2.147700e+01	1.162339e+03
1.030000e-06	3.171998e-06	1.806827e-08	2.248066e+01	1.187469e+03
1.040000e-06	3.312331e-06	1.845149e-08	2.347523e+01	1.209445e+03
1.050000e-06	3.451390e-06	1.878285e-08	2.446077e+01	1.230230e+03
1.060000e-06	3.589159e-06	1.907503e-08	2.543717e+01	1.250602e+03
1.070000e-06	3.725527e-06	1.933503e-08	2.640364e+01	1.270400e+03
1.080000e-06	3.860453e-06	1.956879e-08	2.735989e+01	1.288930e+03
1.090000e-06	3.994040e-06	1.978079e-08	2.830665e+01	1.305408e+03
1.100000e-06	4.126233e-06	1.997671e-08	2.924353e+01	1.319323e+03
1.110000e-06	4.256959e-06	2.015914e-08	3.017002e+01	1.330638e+03
1.120000e-06	4.386233e-06	2.032564e-08	3.108621e+01	1.339803e+03
1.130000e-06	4.513929e-06	2.048083e-08	3.199122e+01	1.347607e+03
1.140000e-06	4.640064e-06	2.062620e-08	3.288517e+01	1.354931e+03
1.150000e-06	4.764604e-06	2.076126e-08	3.376781e+01	1.362499e+03
1.160000e-06	4.887450e-06	2.088802e-08	3.463844e+01	1.370691e+03
1.170000e-06	5.008592e-06	2.100642e-08	3.549701e+01	1.379479e+03
1.180000e-06	5.127967e-06	2.111631e-08	3.634304e+01	1.388484e+03
1.190000e-06	5.245447e-06	2.122143e-08	3.717565e+01	1.397139e+03
1.200000e-06	5.360945e-06	2.132107e-08	3.799421e+01	1.404896e+03
1.210000e-06	5.474373e-06	2.141492e-08	3.879810e+01	1.411400e+03
1.220000e-06	5.585653e-06	2.150320e-08	3.958676e+01	1.416604e+03
1.230000e-06	5.694921e-06	2.158663e-08	4.036117e+01	1.420771e+03
1.240000e-06	5.802220e-06	2.166687e-08	4.112163e+01	1.424383e+03
1.250000e-06	5.907412e-06	2.174368e-08	4.186714e+01	1.427983e+03
1.260000e-06	6.010420e-06	2.181752e-08	4.259719e+01	1.432016e+03
1.270000e-06	6.111204e-06	2.188710e-08	4.331147e+01	1.436697e+03
1.280000e-06	6.209675e-06	2.195399e-08	4.400935e+01	1.441962e+03
1.290000e-06	6.305738e-06	2.201861e-08	4.469017e+01	1.447504e+03
1.300000e-06	6.399530e-06	2.208075e-08	4.535490e+01	1.452887e+03
1.310000e-06	6.491110e-06	2.214108e-08	4.600394e+01	1.457682e+03
1.320000e-06	6.580344e-06	2.219963e-08	4.663637e+01	1.461606e+03
1.330000e-06	6.667244e-06	2.225666e-08	4.725224e+01	1.464605e+03
1.340000e-06	6.751780e-06	2.230974e-08	4.785137e+01	1.466859e+03
1.350000e-06	6.833905e-06	2.235717e-08	4.843341e+01	1.468719e+03
1.360000e-06	6.913603e-06	2.240033e-08	4.899824e+01	1.470593e+03
1.370000e-06	6.990803e-06	2.244064e-08	4.954538e+01	1.472820e+03
1.380000e-06	7.065415e-06	2.247983e-08	5.007417e+01	1.475565e+03
1.390000e-06	7.137341e-06	2.251939e-08	5.058393e+01	1.478778e+03
1.400000e-06	7.206721e-06	2.255952e-08	5.107564e+01	1.482218e+03
1.410000e-06	7.273634e-06	2.259873e-08	5.154987e+01	1.485539e+03
1.420000e-06	7.337932e-06	2.263489e-08	5.200556e+01	1.488397e+03
1.430000e-06	7.399692e-06	2.266609e-08	5.244327e+01	1.490564e+03
1.440000e-06	7.458940e-06	2.269340e-08	5.286317e+01	1.491994e+03
1.450000e-06	7.515518e-06	2.271717e-08	5.326415e+01	1.492835e+03
1.460000e-06	7.569283e-06	2.273952e-08	5.364520e+01	1.493378e+03
1.470000e-06	7.620028e-06	2.276160e-08	5.400484e+01	1.493961e+03
1.480000e-06	7.667737e-06	2.278284e-08	5.434296e+01	1.494864e+03
1.490000e-06	7.712702e-06	2.280443e-08	5.466164e+01	1.496226e+03
1.500000e-06	7.754952e-06	2.282666e-08	5.496107e+01	1.498001e+03
1.510000e-06	7.794394e-06	2.284769e-08	5.524061e+01	1.499980e+03
1.520000e-06	7.831116e-06	2.286402e-08	5.550087e+01	1.501859e+03
1.530000e-06	7.865012e-06	2.287798e-08	5.574109e+01	1.503340e+03
1.540000e-06	7.896052e-06	2.288991e-08	5.596108e+01	1.504221e+03
1.550000e-06	7.924465e-06	2.289883e-08	5.616245e+01	1.504463e+03
1.560000e-06	7.950030e-06	2.290691e-08	5.634363e+01	1.504198e+03
1.570000e-06	7.972597e-06	2.291538e-08	5.650357e+01	1.503687e+03
1.580000e-06	7.992353e-06	2.292454e-08	5.664359e+01	1.503238e+03
1.590000e-06	8.009198e-06	2.293321e-08	5.676297e+01	1.503111e+03
1.600000e-06	8.023082e-06	2.294216e-08	5.686137e+01	1.503435e+03
1.610000e-06	8.033935e-06	2.295079e-08	5.693828e+01	1.504174e+03
1.620000e-06	8.041682e-06	2.295561e-08	5.699319e+01	1.505140e+03
1.630000e-06	8.046530e-06	2.295757e-08	5.702755e+01	1.506050e+03
1.640000e-06	8.048498e-06	2.295704e-08	5.704150e+01	1.506621e+03
1.650000e-06	8.047619e-06	2.295316e-08	5.703527e+01	1.506652e+03
1.660000e-06	8.044170e-06	2.294376e-08	5.701082e+01	1.506089e+03
1.670000e-06	8.038042e-06	2.293840e-08	5.696740e+01	1.505032e+03
1.680000e-06	8.029192e-06	2.293442e-08	5.690467e+01	1.503711e+03
1.690000e-06	8.017654e-06	2.292976e-08	5.682290e+01	1.502401e+03
1.700000e-06	8.003245e-06	2.292622e-08	5.672078e+01	1.501344e+03
1.710000e-06	7.986203e-06	2.292344e-08	5.660000e+01	1.500671e+03
1.720000e-06	7.966874e-06	2.290610e-08	5.646301e+01	1.500363e+03
1.730000e-06	7.945015e-06	2.283376e-08	5.630809e+01	1.500267e+03
1.740000e-06	7.919976e-06	2.278443e-08	5.613063e+01	1.500143e+03
1.750000e-06	7.891224e-06	2.281241e-08	5.592686e+01	1.499746e+03
1.760000e-06	7.859030e-06	2.280806e-08	5.569869e+01	1.498906e+03
1.770000e-06	7.824296e-06	2.279700e-08	5.545253e+01	1.497583e+03
1.780000e-06	7.787336e-06	2.284539e-08	5.519059e+01	1.495873e+03
1.790000e-06	7.748185e-06	2.288190e-08	5.491312e+01	1.493982e+03
1.800000e-06	7.706985e-06	2.276996e-08	5.462112e+01	1.492147e+03
1.810000e-06	7.663263e-06	2.275934e-08	5.431125e+01	1.490563e+03
1.820000e-06	7.616743e-06	2.276172e-08	5.398155e+01	1.489309e+03
1.830000e-06	7.567499e-06	2.269655e-08	5.363255e+01	1.488318e+03
1.840000e-06	7.515170e-06	2.274359e-08	5.326168e+01	1.487396e+03
1.850000e-06	7.459914e-06	2.266234e-08	5.287007e+01	1.486273e+03
1.860000e-06	7.402030e-06	2.262731e-08	5.245984e+01	1.484694e+03
1.870000e-06	7.341569e-06	2.256447e-08	5.203134e+01	1.482494e+03
1.880000e-06	7.278355e-06	2.253310e-08	5.158332e+01	1.479656e+03
1.890000e-06	7.212218e-06	2.257352e-08	5.111460e+01	1.476315e+03
1.900000e-06	7.143351e-06	2.247610e-08	5.062652e+01	1.472723e+03
1.910000e-06	7.071671e-06	2.247557e-08	5.011850e+01	1.469170e+03
1.920000e-06	6.997305e-06	2.241424e-08	4.959146e+01	1.465893e+03
1.930000e-06	6.920229e-06	2.234678e-08	4.904520e+01	1.463004e+03
1.940000e-06	6.840364e-06	2.231210e-08	4.847918e+01	1.460452e+03
1.950000e-06	6.758010e-06	2.226710e-08	4.789552e+01	1.458039e+03
1.960000e-06	6.673125e-06	2.224357e-08	4.729393e+01	1.455479e+03
1.970000e-06	6.585716e-06	2.213113e-08	4.667444e+01	1.452492e+03
1.980000e-06	6.495932e-06	2.209912e-08	4.603812e+01	1.448886e+03
1.990000e-06	6.403931e-06	2.204716e-08	4.538608e+01	1.444624e+03
2.000000e-06	6.309605e-06	2.198395e-08	4.471758e+01	1.439833e+03
2.010000e-06	6.212947e-06	2.191666e-08	4.403254e+01	1.434765e+03
2.020000e-06	6.114251e-06	2.184583e-08	4.333306e+01	1.429715e+03
2.030000e-06	6.013354e-06	2.178062e-08	4.261798e+01	1.424926e+03
2.040000e-06	5.910150e-06	2.169291e-08	4.188655e+01	1.420506e+03
2.050000e-06	5.804906e-06	2.163979e-08	4.114066e+01	1.416388e+03
2.060000e-06	5.697814e-06	2.156419e-08	4.038168e+01	1.412344e+03
2.070000e-06	5.588716e-06	2.148442e-08	3.960847e+01	1.408056e+03
2.080000e-06	5.477537e-06	2.139197e-08	3.882053e+01	1.403209e+03
2.090000e-06	5.364322e-06	2.132092e-08	3.801815e+01	1.397598e+03
2.100000e-06	5.249111e-06	2.123621e-08	3.720162e+01	1.391189e+03
2.110000e-06	5.131854e-06	2.114447e-08	3.637060e+01	1.384139e+03
2.120000e-06	5.012567e-06	2.104914e-08	3.552518e+01	1.376745e+03
2.130000e-06	4.891441e-06	2.094289e-08	3.466673e+01	1.369354e+03
2.140000e-06	4.768555e-06	2.083379e-08	3.379581e+01	1.362247e+03
2.150000e-06	4.644005e-06	2.072214e-08	3.291310e+01	1.355542e+03
2.160000e-06	4.517738e-06	2.062240e-08	3.201821e+01	1.349147e+03
2.170000e-06	4.389775e-06	2.051116e-08	3.111131e+01	1.342774e+03
2.180000e-06	4.260271e-06	2.039538e-08	3.019349e+01	1.336021e+03
2.190000e-06	4.129263e-06	2.027043e-08	2.926500e+01	1.328492e+03
2.200000e-06	3.996689e-06	2.014363e-08	2.832543e+01	1.319917e+03
2.210000e-06	3.862553e-06	2.000606e-08	2.737477e+01	1.310240e+03
2.220000e-06	3.726887e-06	1.986556e-08	2.641328e+01	1.299641e+03
2.230000e-06	3.589839e-06	1.971695e-08	2.544199e+01	1.288481e+03
2.240000e-06	3.451534e-06	1.956133e-08	2.446179e+01	1.277188e+03
2.250000e-06	3.311839e-06	1.939964e-08	2.347174e+01	1.266114e+03
2.260000e-06	3.170749e-06	1.922916e-08	2.247181e+01	1.255407e+03
2.270000e-06	3.028386e-06	1.905497e-08	2.146285e+01	1.244946e+03
2.280000e-06	2.884918e-06	1.887567e-08	2.044605e+01	1.234356e+03
2.290000e-06	2.740399e-06	1.868839e-08	1.942182e+01	1.223103e+03
2.300000e-06	2.594936e-06	1.848420e-08	1.839089e+01	1.210653e+03
2.310000e-06	2.448689e-06	1.826887e-08	1.735441e+01	1.196628e+03
2.320000e-06	2.301601e-06	1.804821e-08	1.631196e+01	1.180932e+03
2.330000e-06	2.153659e-06	1.781761e-08	1.526346e+01	1.163780e+03
2.340000e-06	2.004993e-06	1.757164e-08	1.420983e+01	1.145636e+03
2.350000e-06	1.855739e-06	1.731019e-08	1.315203e+01	1.127049e+03
2.360000e-06	1.705870e-06	1.703134e-08	1.208988e+01	1.108463e+03
2.370000e-06	1.555347e-06	1.673454e-08	1.102309e+01	1.090021e+03
2.380000e-06	1.404307e-06	1.642469e-08	9.952634e+00	1.071469e+03
2.390000e-06	1.252876e-06	1.609985e-08	8.879410e+00	1.052158e+03
2.400000e-06	1.101017e-06	1.575199e-08	7.803152e+00	1.031187e+03
2.410000e-06	9.487642e-07	1.537561e-08	6.724104e+00	1.007630e+03
2.420000e-06	7.961987e-07	1.497172e-08	5.642838e+00	9.807851e+02
2.430000e-06	6.433193e-07	1.453762e-08	4.559347e+00	9.503773e+02
2.440000e-06	4.902165e-07	1.406654e-08	3.474274e+00	9.166168e+02
2.450000e-06	3.369633e-07	1.355434e-08	2.388134e+00	8.800896e+02
2.460000e-06	1.836132e-07	1.299554e-08	1.301307e+00	8.414759e+02
2.470000e-06	3.016541e-08	1.238383e-08	2.137890e-01	8.011580e+02
2.480000e-06	-1.233567e-07	1.170782e-08	-8.742562e-01	7.588194e+02
2.490000e-06	-2.768599e-07	1.095426e-08	-1.962168e+00	7.131533e+02
2.500000e-06	-4.303035e-07	1.010776e-08	-3.049657e+00	6.617885e+02
2.510000e-06	-5.835889e-07	9.146646e-09	-4.136025e+00	6.014968e+02
2.520000e-06	-7.367079e-07	8.043248e-09	-5.221213e+00	5.286788e+02
2.530000e-06	-8.895760e-07	6.761093e-09	-6.304623e+00	4.400548e+02
2.540000e-06	-1.042100e-06	5.245436e-09	-7.385598e+00	3.334292e+02
2.550000e-06	-1.194290e-06	3.427899e-09	-8.464201e+00	2.083596e+02
2.560000e-06	-1.346060e-06	1.261154e-09	-9.539827e+00	6.657540e+01
2.570000e-06	-1.497370e-06	-1.166058e-09	-1.061219e+01	-8.797133e+01
2.580000e-06	-1.648110e-06	-3.681308e-09	-1.168053e+01	-2.494607e+02
2.590000e-06	-1.798205e-06	-6.203920e-09	-1.274428e+01	-4.109186e+02
2.600000e-06	-1.947669e-06	-8.679897e-09	-1.380356e+01	-5.651622e+02
2.610000e-06	-2.096336e-06	-1.092994e-08	-1.485720e+01	-7.057979e+02
2.620000e-06	-2.244135e-06	-1.278507e-08	-1.590469e+01	-8.280792e+02
2.630000e-06	-2.391126e-06	-1.424418e-08	-1.694644e+01	-9.294625e+02
2.640000e-06	-2.537277e-06	-1.538187e-08	-1.798225e+01	-1.009765e+03
2.650000e-06	-2.682592e-06	-1.627641e-08	-1.901213e+01	-1.070912e+03
2.660000e-06	-2.826866e-06	-1.699178e-08	-2.003463e+01	-1.116353e+03
2.670000e-06	-2.969929e-06	-1.757351e-08	-2.104855e+01	-1.150283e+03
2.680000e-06	-3.111808e-06	-1.805475e-08	-2.205408e+01	-1.176846e+03
2.690000e-06	-3.252414e-06	-1.846001e-08	-2.305058e+01	-1.199469e+03
2.700000e-06	-3.391749e-06	-1.880625e-08	-2.403808e+01	-1.220466e+03
2.710000e-06	-3.529843e-06	-1.910832e-08	-2.501678e+01	-1.240939e+03
2.720000e-06	-3.666594e-06	-1.937714e-08	-2.598597e+01	-1.260958e+03
2.730000e-06	-3.801970e-06	-1.961904e-08	-2.694541e+01	-1.279935e+03
2.740000e-06	-3.935993e-06	-1.984051e-08	-2.789526e+01	-1.297069e+03
2.750000e-06	-4.068619e-06	-2.004193e-08	-2.883521e+01	-1.311743e+03
2.760000e-06	-4.199793e-06	-2.022478e-08	-2.976487e+01	-1.323776e+03
2.770000e-06	-4.329536e-06	-2.039289e-08	-3.068439e+01	-1.333486e+03
2.780000e-06	-4.457773e-06	-2.054946e-08	-3.159323e+01	-1.341589e+03
2.790000e-06	-4.584456e-06	-2.069630e-08	-3.249106e+01	-1.348965e+03
2.800000e-06	-4.709596e-06	-2.083355e-08	-3.337796e+01	-1.356408e+03
2.810000e-06	-4.833021e-06	-2.096293e-08	-3.425269e+01	-1.364408e+03
2.820000e-06	-4.954716e-06	-2.108397e-08	-3.511518e+01	-1.373052e+03
2.830000e-06	-5.074682e-06	-2.119520e-08	-3.596540e+01	-1.382049e+03
2.840000e-06	-5.192744e-06	-2.129768e-08	-3.680213e+01	-1.390866e+03
2.850000e-06	-5.308731e-06	-2.139311e-08	-3.762416e+01	-1.398927e+03
2.860000e-06	-5.422518e-06	-2.148421e-08	-3.843059e+01	-1.405809e+03
2.870000e-06	-5.534138e-06	-2.157336e-08	-3.922167e+01	-1.411371e+03
2.880000e-06	-5.643694e-06	-2.165912e-08	-3.999812e+01	-1.415793e+03
2.890000e-06	-5.751280e-06	-2.173978e-08	-4.076060e+01	-1.419508e+03
2.900000e-06	-5.856853e-06	-2.181593e-08	-4.150882e+01	-1.423060e+03
2.910000e-06	-5.960264e-06	-2.188827e-08	-4.224172e+01	-1.426936e+03
2.920000e-06	-6.061373e-06	-2.195714e-08	-4.295830e+01	-1.431427e+03
2.930000e-06	-6.160299e-06	-2.202410e-08	-4.365941e+01	-1.436548e+03
2.940000e-06	-6.257072e-06	-2.208847e-08	-4.434527e+01	-1.442053e+03
