# Temperatura_=_94.51
# Concentracion g/m^3_=_41000.0
# C_Vs_to_Am_M_A/Vsm_=_65563218390.804596
# pendiente_HvsI_1/m_=_3716.3
# ordenada_HvsI_A/m_=_1297.0
# frecuencia_Hz_=_302507.7897262412

Tiempo_(s)	Campo_(V.s)	Magnetizacion_(V.s)	Campo_(kA/m)	Magnetizacion_(A/m)
0.000000e+00	-7.975020e-06	-2.377422e-08	-5.685518e+01	-1.558379e+03
1.000000e-08	-7.970691e-06	-2.376970e-08	-5.682432e+01	-1.557376e+03
2.000000e-08	-7.963818e-06	-2.376305e-08	-5.677532e+01	-1.556020e+03
3.000000e-08	-7.954179e-06	-2.375544e-08	-5.670660e+01	-1.554578e+03
4.000000e-08	-7.941685e-06	-2.374414e-08	-5.661753e+01	-1.553305e+03
5.000000e-08	-7.926331e-06	-2.372718e-08	-5.650807e+01	-1.552362e+03
6.000000e-08	-7.908272e-06	-2.370808e-08	-5.637933e+01	-1.551770e+03
7.000000e-08	-7.887889e-06	-2.368937e-08	-5.623401e+01	-1.551406e+03
8.000000e-08	-7.864935e-06	-2.371375e-08	-5.607037e+01	-1.551041e+03
9.000000e-08	-7.838862e-06	-2.373297e-08	-5.588449e+01	-1.550420e+03
1.000000e-07	-7.809649e-06	-2.368210e-08	-5.567622e+01	-1.549346e+03
1.100000e-07	-7.777556e-06	-2.362586e-08	-5.544743e+01	-1.547739e+03
1.200000e-07	-7.742681e-06	-2.359281e-08	-5.519880e+01	-1.545667e+03
1.300000e-07	-7.705277e-06	-2.354705e-08	-5.493214e+01	-1.543323e+03
1.400000e-07	-7.665688e-06	-2.347349e-08	-5.464991e+01	-1.540962e+03
1.500000e-07	-7.623880e-06	-2.348156e-08	-5.435185e+01	-1.538820e+03
1.600000e-07	-7.579480e-06	-2.349139e-08	-5.403532e+01	-1.537030e+03
1.700000e-07	-7.532402e-06	-2.337293e-08	-5.369969e+01	-1.535581e+03
1.800000e-07	-7.482453e-06	-2.337317e-08	-5.334359e+01	-1.534311e+03
1.900000e-07	-7.429389e-06	-2.336519e-08	-5.296529e+01	-1.532953e+03
2.000000e-07	-7.373565e-06	-2.330609e-08	-5.256732e+01	-1.531215e+03
2.100000e-07	-7.315077e-06	-2.331641e-08	-5.215035e+01	-1.528868e+03
2.200000e-07	-7.253893e-06	-2.326720e-08	-5.171416e+01	-1.525812e+03
2.300000e-07	-7.190129e-06	-2.320293e-08	-5.125957e+01	-1.522110e+03
2.400000e-07	-7.123632e-06	-2.310660e-08	-5.078550e+01	-1.517967e+03
2.500000e-07	-7.054421e-06	-2.305121e-08	-5.029209e+01	-1.513666e+03
2.600000e-07	-6.982467e-06	-2.300817e-08	-4.977912e+01	-1.509481e+03
2.700000e-07	-6.907685e-06	-2.295597e-08	-4.924598e+01	-1.505593e+03
2.800000e-07	-6.830202e-06	-2.290129e-08	-4.869359e+01	-1.502035e+03
2.900000e-07	-6.749948e-06	-2.282446e-08	-4.812145e+01	-1.498684e+03
3.000000e-07	-6.667109e-06	-2.276331e-08	-4.753088e+01	-1.495299e+03
3.100000e-07	-6.582119e-06	-2.267984e-08	-4.692497e+01	-1.491602e+03
3.200000e-07	-6.494865e-06	-2.261574e-08	-4.630292e+01	-1.487366e+03
3.300000e-07	-6.405137e-06	-2.256456e-08	-4.566323e+01	-1.482488e+03
3.400000e-07	-6.313101e-06	-2.249118e-08	-4.500709e+01	-1.477023e+03
3.500000e-07	-6.218866e-06	-2.241280e-08	-4.433528e+01	-1.471165e+03
3.600000e-07	-6.122323e-06	-2.233365e-08	-4.364701e+01	-1.465184e+03
3.700000e-07	-6.023514e-06	-2.225223e-08	-4.294258e+01	-1.459339e+03
3.800000e-07	-5.922628e-06	-2.216834e-08	-4.222335e+01	-1.453789e+03
3.900000e-07	-5.819683e-06	-2.208552e-08	-4.148944e+01	-1.448537e+03
4.000000e-07	-5.714575e-06	-2.199000e-08	-4.074011e+01	-1.443425e+03
4.100000e-07	-5.607381e-06	-2.189208e-08	-3.997591e+01	-1.438178e+03
4.200000e-07	-5.498292e-06	-2.179780e-08	-3.919820e+01	-1.432491e+03
4.300000e-07	-5.387224e-06	-2.169371e-08	-3.840637e+01	-1.426124e+03
4.400000e-07	-5.274135e-06	-2.157898e-08	-3.760014e+01	-1.418981e+03
4.500000e-07	-5.158975e-06	-2.146830e-08	-3.677915e+01	-1.411144e+03
4.600000e-07	-5.041820e-06	-2.136110e-08	-3.594394e+01	-1.402853e+03
4.700000e-07	-4.922860e-06	-2.124977e-08	-3.509585e+01	-1.394428e+03
4.800000e-07	-4.802119e-06	-2.113315e-08	-3.423507e+01	-1.386166e+03
4.900000e-07	-4.679609e-06	-2.101438e-08	-3.336168e+01	-1.378239e+03
5.000000e-07	-4.555340e-06	-2.088790e-08	-3.247574e+01	-1.370635e+03
5.100000e-07	-4.429491e-06	-2.075039e-08	-3.157855e+01	-1.363143e+03
5.200000e-07	-4.302072e-06	-2.060995e-08	-3.067016e+01	-1.355416e+03
5.300000e-07	-4.173142e-06	-2.046563e-08	-2.975099e+01	-1.347067e+03
5.400000e-07	-4.042608e-06	-2.031695e-08	-2.882040e+01	-1.337794e+03
5.500000e-07	-3.910442e-06	-2.015842e-08	-2.787816e+01	-1.327473e+03
5.600000e-07	-3.776883e-06	-1.999914e-08	-2.692600e+01	-1.316201e+03
5.700000e-07	-3.641860e-06	-1.983847e-08	-2.596340e+01	-1.304269e+03
5.800000e-07	-3.505460e-06	-1.967462e-08	-2.499098e+01	-1.292071e+03
5.900000e-07	-3.367793e-06	-1.950496e-08	-2.400953e+01	-1.279973e+03
6.000000e-07	-3.228679e-06	-1.932293e-08	-2.301777e+01	-1.268185e+03
6.100000e-07	-3.088138e-06	-1.912779e-08	-2.201583e+01	-1.256677e+03
6.200000e-07	-2.946336e-06	-1.892168e-08	-2.100490e+01	-1.245165e+03
6.300000e-07	-2.803359e-06	-1.871235e-08	-1.998559e+01	-1.233182e+03
6.400000e-07	-2.659292e-06	-1.849814e-08	-1.895851e+01	-1.220211e+03
6.500000e-07	-2.514234e-06	-1.827652e-08	-1.792437e+01	-1.205837e+03
6.600000e-07	-2.368296e-06	-1.804236e-08	-1.688396e+01	-1.189882e+03
6.700000e-07	-2.221542e-06	-1.779693e-08	-1.583772e+01	-1.172461e+03
6.800000e-07	-2.074027e-06	-1.753932e-08	-1.478607e+01	-1.153949e+03
6.900000e-07	-1.925881e-06	-1.726723e-08	-1.372991e+01	-1.134857e+03
7.000000e-07	-1.777234e-06	-1.698252e-08	-1.267018e+01	-1.115647e+03
7.100000e-07	-1.628113e-06	-1.668568e-08	-1.160707e+01	-1.096547e+03
7.200000e-07	-1.478449e-06	-1.637415e-08	-1.054009e+01	-1.077424e+03
7.300000e-07	-1.328269e-06	-1.604090e-08	-9.469438e+00	-1.057761e+03
7.400000e-07	-1.177636e-06	-1.568562e-08	-8.395550e+00	-1.036749e+03
7.500000e-07	-1.026539e-06	-1.530742e-08	-7.318357e+00	-1.013490e+03
7.600000e-07	-8.750476e-07	-1.490492e-08	-6.238353e+00	-9.872320e+02
7.700000e-07	-7.231909e-07	-1.447363e-08	-5.155743e+00	-9.575797e+02
7.800000e-07	-5.710492e-07	-1.400882e-08	-4.071100e+00	-9.245906e+02
7.900000e-07	-4.187499e-07	-1.350400e-08	-2.985334e+00	-8.887138e+02
8.000000e-07	-2.663367e-07	-1.295012e-08	-1.898756e+00	-8.505582e+02
8.100000e-07	-1.138148e-07	-1.234121e-08	-8.114036e-01	-8.105349e+02
8.200000e-07	3.881515e-08	-1.166988e-08	2.767193e-01	-7.684625e+02
8.300000e-07	1.914835e-07	-1.092393e-08	1.365116e+00	-7.232488e+02
8.400000e-07	3.440641e-07	-1.008794e-08	2.452887e+00	-6.727594e+02
8.500000e-07	4.965337e-07	-9.142747e-09	3.539868e+00	-6.139504e+02
8.600000e-07	6.488740e-07	-8.057898e-09	4.625925e+00	-5.432806e+02
8.700000e-07	8.009827e-07	-6.792304e-09	5.710333e+00	-4.573518e+02
8.800000e-07	9.528446e-07	-5.288116e-09	6.792980e+00	-3.536590e+02
8.900000e-07	1.104370e-06	-3.476151e-09	7.873232e+00	-2.312938e+02
9.000000e-07	1.255473e-06	-1.321809e-09	8.950467e+00	-9.143873e+01
9.100000e-07	1.406154e-06	1.068979e-09	1.002470e+01	6.247692e+01
9.200000e-07	1.556298e-06	3.527169e-09	1.109509e+01	2.250215e+02
9.300000e-07	1.705885e-06	5.987872e-09	1.216152e+01	3.893842e+02
9.400000e-07	1.855025e-06	8.434987e-09	1.322477e+01	5.482713e+02
9.500000e-07	2.003654e-06	1.075174e-08	1.428436e+01	6.949098e+02
9.600000e-07	2.151463e-06	1.272468e-08	1.533812e+01	8.239669e+02
9.700000e-07	2.298272e-06	1.426930e-08	1.638474e+01	9.322086e+02
9.800000e-07	2.444225e-06	1.545790e-08	1.742527e+01	1.018782e+03
9.900000e-07	2.589292e-06	1.637927e-08	1.845947e+01	1.085082e+03
1.000000e-06	2.733299e-06	1.710692e-08	1.948612e+01	1.134249e+03
1.010000e-06	2.876334e-06	1.769228e-08	2.050584e+01	1.170432e+03
1.020000e-06	3.018317e-06	1.817394e-08	2.151806e+01	1.197967e+03
1.030000e-06	3.159092e-06	1.858108e-08	2.252167e+01	1.220655e+03
1.040000e-06	3.298574e-06	1.893347e-08	2.351606e+01	1.241260e+03
1.050000e-06	3.436738e-06	1.924296e-08	2.450105e+01	1.261313e+03
1.060000e-06	3.573624e-06	1.951923e-08	2.547694e+01	1.281208e+03
1.070000e-06	3.709126e-06	1.977041e-08	2.644295e+01	1.300524e+03
1.080000e-06	3.843243e-06	1.999924e-08	2.739909e+01	1.318466e+03
1.090000e-06	3.976058e-06	2.020796e-08	2.834595e+01	1.334292e+03
1.100000e-06	4.107486e-06	2.040145e-08	2.928292e+01	1.347623e+03
1.110000e-06	4.237406e-06	2.058475e-08	3.020914e+01	1.358585e+03
1.120000e-06	4.365766e-06	2.075657e-08	3.112424e+01	1.367750e+03
1.130000e-06	4.492577e-06	2.091744e-08	3.202829e+01	1.375952e+03
1.140000e-06	4.617930e-06	2.106848e-08	3.292196e+01	1.384030e+03
1.150000e-06	4.741729e-06	2.121266e-08	3.380454e+01	1.392587e+03
1.160000e-06	4.863830e-06	2.135053e-08	3.467501e+01	1.401851e+03
1.170000e-06	4.984192e-06	2.148113e-08	3.553309e+01	1.411647e+03
1.180000e-06	5.102742e-06	2.160467e-08	3.637825e+01	1.421501e+03
1.190000e-06	5.219387e-06	2.172279e-08	3.720984e+01	1.430822e+03
1.200000e-06	5.333996e-06	2.183516e-08	3.802690e+01	1.439096e+03
1.210000e-06	5.446491e-06	2.194034e-08	3.882890e+01	1.446059e+03
1.220000e-06	5.556992e-06	2.203985e-08	3.961668e+01	1.451757e+03
1.230000e-06	5.665635e-06	2.213436e-08	4.039121e+01	1.456530e+03
1.240000e-06	5.772282e-06	2.222451e-08	4.115152e+01	1.460886e+03
1.250000e-06	5.876750e-06	2.230914e-08	4.189629e+01	1.465350e+03
1.260000e-06	5.979048e-06	2.239157e-08	4.262558e+01	1.470301e+03
1.270000e-06	6.079230e-06	2.247245e-08	4.333979e+01	1.475872e+03
1.280000e-06	6.177133e-06	2.255097e-08	4.403776e+01	1.481932e+03
1.290000e-06	6.272607e-06	2.262587e-08	4.471841e+01	1.488141e+03
1.300000e-06	6.365799e-06	2.269756e-08	4.538279e+01	1.494074e+03
1.310000e-06	6.456747e-06	2.276819e-08	4.603118e+01	1.499359e+03
1.320000e-06	6.545386e-06	2.283710e-08	4.666310e+01	1.503796e+03
1.330000e-06	6.631699e-06	2.290394e-08	4.727843e+01	1.507405e+03
1.340000e-06	6.715733e-06	2.296709e-08	4.787752e+01	1.510419e+03
1.350000e-06	6.797390e-06	2.302652e-08	4.845967e+01	1.513195e+03
1.360000e-06	6.876501e-06	2.308327e-08	4.902366e+01	1.516100e+03
1.370000e-06	6.953084e-06	2.313773e-08	4.956964e+01	1.519396e+03
1.380000e-06	7.027013e-06	2.319080e-08	5.009669e+01	1.523156e+03
1.390000e-06	7.098343e-06	2.324288e-08	5.060521e+01	1.527254e+03
1.400000e-06	7.167272e-06	2.329408e-08	5.109662e+01	1.531405e+03
1.410000e-06	7.233632e-06	2.334189e-08	5.156971e+01	1.535265e+03
1.420000e-06	7.297372e-06	2.338368e-08	5.202412e+01	1.538537e+03
1.430000e-06	7.358696e-06	2.342124e-08	5.246131e+01	1.541066e+03
1.440000e-06	7.417449e-06	2.345830e-08	5.288017e+01	1.542884e+03
1.450000e-06	7.473499e-06	2.349436e-08	5.327976e+01	1.544197e+03
1.460000e-06	7.526846e-06	2.352848e-08	5.366008e+01	1.545314e+03
1.470000e-06	7.577129e-06	2.355948e-08	5.401855e+01	1.546552e+03
1.480000e-06	7.624332e-06	2.358692e-08	5.435507e+01	1.548134e+03
1.490000e-06	7.668928e-06	2.361409e-08	5.467300e+01	1.550125e+03
1.500000e-06	7.710886e-06	2.364073e-08	5.497213e+01	1.552414e+03
1.510000e-06	7.749991e-06	2.366498e-08	5.525091e+01	1.554754e+03
1.520000e-06	7.786416e-06	2.368512e-08	5.551059e+01	1.556843e+03
1.530000e-06	7.820083e-06	2.370335e-08	5.575061e+01	1.558421e+03
1.540000e-06	7.850861e-06	2.371970e-08	5.597004e+01	1.559352e+03
1.550000e-06	7.878973e-06	2.373261e-08	5.617044e+01	1.559668e+03
1.560000e-06	7.904237e-06	2.374374e-08	5.635056e+01	1.559554e+03
1.570000e-06	7.926526e-06	2.375402e-08	5.650946e+01	1.559289e+03
1.580000e-06	7.946089e-06	2.376507e-08	5.664893e+01	1.559163e+03
1.590000e-06	7.962779e-06	2.377635e-08	5.676791e+01	1.559381e+03
1.600000e-06	7.976479e-06	2.378674e-08	5.686558e+01	1.560001e+03
1.610000e-06	7.987070e-06	2.379478e-08	5.694109e+01	1.560923e+03
1.620000e-06	7.994600e-06	2.379838e-08	5.699477e+01	1.561917e+03
1.630000e-06	7.999311e-06	2.379852e-08	5.702836e+01	1.562699e+03
1.640000e-06	8.001155e-06	2.379739e-08	5.704150e+01	1.563018e+03
1.650000e-06	8.000245e-06	2.379076e-08	5.703502e+01	1.562739e+03
1.660000e-06	7.996737e-06	2.378056e-08	5.701000e+01	1.561877e+03
1.670000e-06	7.990502e-06	2.377356e-08	5.696556e+01	1.560595e+03
1.680000e-06	7.981565e-06	2.376686e-08	5.690184e+01	1.559148e+03
1.690000e-06	7.969985e-06	2.375947e-08	5.681928e+01	1.557803e+03
1.700000e-06	7.955622e-06	2.375294e-08	5.671689e+01	1.556755e+03
1.710000e-06	7.938661e-06	2.374705e-08	5.659598e+01	1.556068e+03
1.720000e-06	7.919432e-06	2.372752e-08	5.645889e+01	1.555657e+03
1.730000e-06	7.897679e-06	2.363658e-08	5.630380e+01	1.555317e+03
1.740000e-06	7.872699e-06	2.359269e-08	5.612572e+01	1.554793e+03
1.750000e-06	7.844020e-06	2.361415e-08	5.592126e+01	1.553861e+03
1.760000e-06	7.811926e-06	2.360478e-08	5.569246e+01	1.552404e+03
1.770000e-06	7.777241e-06	2.358904e-08	5.544519e+01	1.550448e+03
1.780000e-06	7.740322e-06	2.363894e-08	5.518198e+01	1.548155e+03
1.790000e-06	7.701255e-06	2.362857e-08	5.490347e+01	1.545771e+03
1.800000e-06	7.660125e-06	2.354467e-08	5.461024e+01	1.543546e+03
1.810000e-06	7.616418e-06	2.359597e-08	5.429865e+01	1.541648e+03
1.820000e-06	7.570021e-06	2.353791e-08	5.396788e+01	1.540110e+03
1.830000e-06	7.520992e-06	2.349919e-08	5.361835e+01	1.538811e+03
1.840000e-06	7.468990e-06	2.348624e-08	5.324761e+01	1.537507e+03
1.850000e-06	7.414077e-06	2.337156e-08	5.285613e+01	1.535905e+03
1.860000e-06	7.356410e-06	2.336627e-08	5.244502e+01	1.533747e+03
1.870000e-06	7.296164e-06	2.330226e-08	5.201551e+01	1.530892e+03
1.880000e-06	7.233197e-06	2.330548e-08	5.156661e+01	1.527358e+03
1.890000e-06	7.167349e-06	2.330541e-08	5.109717e+01	1.523312e+03
1.900000e-06	7.098817e-06	2.321177e-08	5.060859e+01	1.519024e+03
1.910000e-06	7.027434e-06	2.316795e-08	5.009969e+01	1.514781e+03
1.920000e-06	6.953301e-06	2.306886e-08	4.957119e+01	1.510796e+03
1.930000e-06	6.876539e-06	2.303362e-08	4.902394e+01	1.507149e+03
1.940000e-06	6.797067e-06	2.297522e-08	4.845737e+01	1.503758e+03
1.950000e-06	6.715049e-06	2.291758e-08	4.787265e+01	1.500409e+03
1.960000e-06	6.630610e-06	2.287362e-08	4.727067e+01	1.496826e+03
1.970000e-06	6.543705e-06	2.277277e-08	4.665111e+01	1.492760e+03
1.980000e-06	6.454337e-06	2.271361e-08	4.601399e+01	1.488066e+03
1.990000e-06	6.362755e-06	2.262789e-08	4.536109e+01	1.482752e+03
2.000000e-06	6.268922e-06	2.256265e-08	4.469214e+01	1.476979e+03
2.010000e-06	6.172796e-06	2.248007e-08	4.400684e+01	1.471003e+03
2.020000e-06	6.074542e-06	2.239326e-08	4.330637e+01	1.465096e+03
2.030000e-06	5.974173e-06	2.230615e-08	4.259083e+01	1.459452e+03
2.040000e-06	5.871569e-06	2.221424e-08	4.185935e+01	1.454122e+03
2.050000e-06	5.766782e-06	2.213069e-08	4.111230e+01	1.448993e+03
2.060000e-06	5.660097e-06	2.203255e-08	4.035173e+01	1.443815e+03
2.070000e-06	5.551554e-06	2.194675e-08	3.957791e+01	1.438282e+03
2.080000e-06	5.440990e-06	2.185189e-08	3.878968e+01	1.432124e+03
2.090000e-06	5.328359e-06	2.175802e-08	3.798672e+01	1.425201e+03
2.100000e-06	5.213748e-06	2.164650e-08	3.716964e+01	1.417542e+03
2.110000e-06	5.097142e-06	2.153550e-08	3.633833e+01	1.409349e+03
2.120000e-06	4.978481e-06	2.141679e-08	3.549238e+01	1.400927e+03
2.130000e-06	4.857924e-06	2.129533e-08	3.463291e+01	1.392592e+03
2.140000e-06	4.735655e-06	2.117386e-08	3.376123e+01	1.384560e+03
2.150000e-06	4.611710e-06	2.105443e-08	3.287761e+01	1.376876e+03
2.160000e-06	4.486132e-06	2.093457e-08	3.198235e+01	1.369382e+03
2.170000e-06	4.358865e-06	2.080252e-08	3.107504e+01	1.361760e+03
2.180000e-06	4.229942e-06	2.066858e-08	3.015593e+01	1.353624e+03
2.190000e-06	4.099568e-06	2.052965e-08	2.922647e+01	1.344635e+03
2.200000e-06	3.967636e-06	2.038701e-08	2.828591e+01	1.334612e+03
2.210000e-06	3.834257e-06	2.023222e-08	2.733503e+01	1.323588e+03
2.220000e-06	3.699460e-06	2.007071e-08	2.637404e+01	1.311804e+03
2.230000e-06	3.563211e-06	1.989788e-08	2.540270e+01	1.299640e+03
2.240000e-06	3.425651e-06	1.972001e-08	2.442201e+01	1.287481e+03
2.250000e-06	3.286749e-06	1.954131e-08	2.343176e+01	1.275595e+03
2.260000e-06	3.146561e-06	1.936106e-08	2.243233e+01	1.264024e+03
2.270000e-06	3.005146e-06	1.917483e-08	2.142416e+01	1.252553e+03
2.280000e-06	2.862565e-06	1.897694e-08	2.040768e+01	1.240757e+03
2.290000e-06	2.718837e-06	1.876760e-08	1.938302e+01	1.228116e+03
2.300000e-06	2.574086e-06	1.854508e-08	1.835107e+01	1.214172e+03
2.310000e-06	2.428540e-06	1.831309e-08	1.731345e+01	1.198668e+03
2.320000e-06	2.282258e-06	1.807504e-08	1.627058e+01	1.181636e+03
2.330000e-06	2.135157e-06	1.782904e-08	1.522187e+01	1.163385e+03
2.340000e-06	1.987294e-06	1.756751e-08	1.416773e+01	1.144404e+03
2.350000e-06	1.838775e-06	1.728915e-08	1.310892e+01	1.125190e+03
2.360000e-06	1.689661e-06	1.699589e-08	1.204586e+01	1.106053e+03
2.370000e-06	1.540034e-06	1.668815e-08	1.097914e+01	1.086972e+03
2.380000e-06	1.389990e-06	1.636611e-08	9.909460e+00	1.067534e+03
2.390000e-06	1.239517e-06	1.602300e-08	8.836714e+00	1.046998e+03
2.400000e-06	1.088571e-06	1.565575e-08	7.760593e+00	1.024467e+03
2.410000e-06	9.371657e-07	1.526235e-08	6.681203e+00	9.991234e+02
2.420000e-06	7.853589e-07	1.483976e-08	5.598948e+00	9.704537e+02
2.430000e-06	6.332177e-07	1.438567e-08	4.514310e+00	9.383847e+02
2.440000e-06	4.808684e-07	1.389464e-08	3.428187e+00	9.032704e+02
2.450000e-06	3.283926e-07	1.336338e-08	2.341163e+00	8.657063e+02
2.460000e-06	1.757259e-07	1.278273e-08	1.252778e+00	8.262005e+02
2.470000e-06	2.293857e-08	1.214171e-08	1.635327e-01	7.847793e+02
2.480000e-06	-1.298937e-07	1.142819e-08	-9.260330e-01	7.406338e+02
2.490000e-06	-2.826782e-07	1.062430e-08	-2.015258e+00	6.919264e+02
2.500000e-06	-4.353546e-07	9.713872e-09	-3.103712e+00	6.358429e+02
2.510000e-06	-5.879321e-07	8.675803e-09	-4.191461e+00	5.689271e+02
2.520000e-06	-7.402842e-07	7.475826e-09	-5.277603e+00	4.876653e+02
2.530000e-06	-8.923573e-07	6.064972e-09	-6.361757e+00	3.892206e+02
2.540000e-06	-1.044119e-06	4.377309e-09	-7.443689e+00	2.721658e+02
2.550000e-06	-1.195444e-06	2.344275e-09	-8.522506e+00	1.370535e+02
2.560000e-06	-1.346290e-06	-5.861190e-12	-9.597916e+00	-1.332179e+01
2.570000e-06	-1.496650e-06	-2.504486e-09	-1.066985e+01	-1.740522e+02
2.580000e-06	-1.646490e-06	-5.025898e-09	-1.173809e+01	-3.386388e+02
2.590000e-06	-1.795736e-06	-7.547432e-09	-1.280209e+01	-4.998244e+02
2.600000e-06	-1.944238e-06	-9.989771e-09	-1.386078e+01	-6.505864e+02
2.610000e-06	-2.091937e-06	-1.214176e-08	-1.491375e+01	-7.850989e+02
2.620000e-06	-2.238871e-06	-1.385949e-08	-1.596127e+01	-8.994816e+02
2.630000e-06	-2.385007e-06	-1.518040e-08	-1.700309e+01	-9.921971e+02
2.640000e-06	-2.530365e-06	-1.619716e-08	-1.803938e+01	-1.064034e+03
2.650000e-06	-2.674860e-06	-1.699185e-08	-1.906950e+01	-1.117703e+03
2.660000e-06	-2.818205e-06	-1.762511e-08	-2.009143e+01	-1.157148e+03
2.670000e-06	-2.960361e-06	-1.814174e-08	-2.110488e+01	-1.186733e+03
2.680000e-06	-3.101277e-06	-1.857570e-08	-2.210950e+01	-1.210473e+03
2.690000e-06	-3.240915e-06	-1.894741e-08	-2.310500e+01	-1.231464e+03
2.700000e-06	-3.379343e-06	-1.926871e-08	-2.409187e+01	-1.251591e+03
2.710000e-06	-3.516564e-06	-1.955336e-08	-2.507014e+01	-1.271548e+03
2.720000e-06	-3.652506e-06	-1.981155e-08	-2.603929e+01	-1.291104e+03
2.730000e-06	-3.787056e-06	-2.004952e-08	-2.699852e+01	-1.309526e+03
2.740000e-06	-3.920204e-06	-2.026884e-08	-2.794776e+01	-1.326016e+03
2.750000e-06	-4.051950e-06	-2.046783e-08	-2.888699e+01	-1.340072e+03
2.760000e-06	-4.182328e-06	-2.064946e-08	-2.981648e+01	-1.351671e+03
2.770000e-06	-4.311359e-06	-2.081843e-08	-3.073636e+01	-1.361272e+03
2.780000e-06	-4.438889e-06	-2.097774e-08	-3.164555e+01	-1.369661e+03
2.790000e-06	-4.564778e-06	-2.112972e-08	-3.254303e+01	-1.377700e+03
2.800000e-06	-4.689058e-06	-2.127549e-08	-3.342904e+01	-1.386081e+03
2.810000e-06	-4.811722e-06	-2.141568e-08	-3.430353e+01	-1.395145e+03
2.820000e-06	-4.932671e-06	-2.154815e-08	-3.516580e+01	-1.404829e+03
2.830000e-06	-5.051733e-06	-2.167111e-08	-3.601461e+01	-1.414727e+03
2.840000e-06	-5.168801e-06	-2.178520e-08	-3.684920e+01	-1.424261e+03
2.850000e-06	-5.283811e-06	-2.189224e-08	-3.766912e+01	-1.432876e+03
2.860000e-06	-5.396686e-06	-2.199565e-08	-3.847383e+01	-1.440224e+03
2.870000e-06	-5.507473e-06	-2.209657e-08	-3.926364e+01	-1.446262e+03
2.880000e-06	-5.616295e-06	-2.219406e-08	-4.003945e+01	-1.451254e+03
2.890000e-06	-5.723196e-06	-2.228527e-08	-4.080157e+01	-1.455675e+03
2.900000e-06	-5.828051e-06	-2.237131e-08	-4.154910e+01	-1.460062e+03
2.910000e-06	-5.930736e-06	-2.245403e-08	-4.228116e+01	-1.464849e+03
2.920000e-06	-6.031177e-06	-2.253332e-08	-4.299722e+01	-1.470247e+03
2.930000e-06	-6.129475e-06	-2.261050e-08	-4.369800e+01	-1.476196e+03
2.940000e-06	-6.225656e-06	-2.268576e-08	-4.438369e+01	-1.482406e+03
