# Temperatura_=_46.32
# Concentracion g/m^3_=_26700.0
# C_Vs_to_Am_M_A/Vsm_=_65563218390.804596
# pendiente_HvsI_1/m_=_3716.3
# ordenada_HvsI_A/m_=_1297.0
# frecuencia_Hz_=_301840.8398439652

Tiempo_(s)	Campo_(V.s)	Magnetizacion_(V.s)	Campo_(kA/m)	Magnetizacion_(A/m)
0.000000e+00	-5.218221e-06	-1.954953e-08	-3.827677e+01	-1.277498e+03
1.000000e-08	-5.215428e-06	-1.955067e-08	-3.825628e+01	-1.277469e+03
2.000000e-08	-5.210899e-06	-1.954421e-08	-3.822306e+01	-1.277247e+03
3.000000e-08	-5.204739e-06	-1.953615e-08	-3.817788e+01	-1.276838e+03
4.000000e-08	-5.197048e-06	-1.952488e-08	-3.812146e+01	-1.276242e+03
5.000000e-08	-5.187588e-06	-1.950833e-08	-3.805207e+01	-1.275452e+03
6.000000e-08	-5.176112e-06	-1.948983e-08	-3.796789e+01	-1.274458e+03
7.000000e-08	-5.162925e-06	-1.946082e-08	-3.787116e+01	-1.273251e+03
8.000000e-08	-5.147717e-06	-1.944752e-08	-3.775961e+01	-1.271828e+03
9.000000e-08	-5.130216e-06	-1.948446e-08	-3.763124e+01	-1.270196e+03
1.000000e-07	-5.110729e-06	-1.945260e-08	-3.748830e+01	-1.268373e+03
1.100000e-07	-5.089404e-06	-1.938111e-08	-3.733187e+01	-1.266385e+03
1.200000e-07	-5.066393e-06	-1.934968e-08	-3.716308e+01	-1.264263e+03
1.300000e-07	-5.041996e-06	-1.923420e-08	-3.698413e+01	-1.262037e+03
1.400000e-07	-5.016032e-06	-1.920678e-08	-3.679367e+01	-1.259728e+03
1.500000e-07	-4.988372e-06	-1.930546e-08	-3.659078e+01	-1.257347e+03
1.600000e-07	-4.959293e-06	-1.913831e-08	-3.637748e+01	-1.254886e+03
1.700000e-07	-4.928862e-06	-1.910683e-08	-3.615426e+01	-1.252329e+03
1.800000e-07	-4.896537e-06	-1.917070e-08	-3.591715e+01	-1.249644e+03
1.900000e-07	-4.862098e-06	-1.895675e-08	-3.566453e+01	-1.246798e+03
2.000000e-07	-4.826190e-06	-1.896200e-08	-3.540114e+01	-1.243759e+03
2.100000e-07	-4.788719e-06	-1.901032e-08	-3.512629e+01	-1.240500e+03
2.200000e-07	-4.749534e-06	-1.888008e-08	-3.483885e+01	-1.237007e+03
2.300000e-07	-4.708561e-06	-1.884999e-08	-3.453830e+01	-1.233280e+03
2.400000e-07	-4.665581e-06	-1.876659e-08	-3.422304e+01	-1.229327e+03
2.500000e-07	-4.620876e-06	-1.864989e-08	-3.389512e+01	-1.225166e+03
2.600000e-07	-4.574505e-06	-1.862519e-08	-3.355498e+01	-1.220816e+03
2.700000e-07	-4.526313e-06	-1.853902e-08	-3.320148e+01	-1.216298e+03
2.800000e-07	-4.476019e-06	-1.848731e-08	-3.283256e+01	-1.211624e+03
2.900000e-07	-4.423690e-06	-1.841357e-08	-3.244871e+01	-1.206803e+03
3.000000e-07	-4.369708e-06	-1.830484e-08	-3.205275e+01	-1.201835e+03
3.100000e-07	-4.314235e-06	-1.824462e-08	-3.164584e+01	-1.196719e+03
3.200000e-07	-4.257050e-06	-1.817973e-08	-3.122637e+01	-1.191446e+03
3.300000e-07	-4.198107e-06	-1.809605e-08	-3.079401e+01	-1.186012e+03
3.400000e-07	-4.137724e-06	-1.798962e-08	-3.035109e+01	-1.180411e+03
3.500000e-07	-4.075978e-06	-1.791441e-08	-2.989818e+01	-1.174640e+03
3.600000e-07	-4.012943e-06	-1.781581e-08	-2.943580e+01	-1.168697e+03
3.700000e-07	-3.948629e-06	-1.770764e-08	-2.896404e+01	-1.162584e+03
3.800000e-07	-3.882670e-06	-1.764295e-08	-2.848022e+01	-1.156301e+03
3.900000e-07	-3.815000e-06	-1.753823e-08	-2.798384e+01	-1.149848e+03
4.000000e-07	-3.745997e-06	-1.742105e-08	-2.747769e+01	-1.143225e+03
4.100000e-07	-3.675854e-06	-1.731789e-08	-2.696318e+01	-1.136431e+03
4.200000e-07	-3.604668e-06	-1.721267e-08	-2.644101e+01	-1.129466e+03
4.300000e-07	-3.532264e-06	-1.710854e-08	-2.590992e+01	-1.122331e+03
4.400000e-07	-3.458205e-06	-1.699436e-08	-2.536667e+01	-1.115028e+03
4.500000e-07	-3.382592e-06	-1.688060e-08	-2.481204e+01	-1.107558e+03
4.600000e-07	-3.305763e-06	-1.675407e-08	-2.424848e+01	-1.099921e+03
4.700000e-07	-3.227720e-06	-1.662746e-08	-2.367602e+01	-1.092118e+03
4.800000e-07	-3.148338e-06	-1.651486e-08	-2.309374e+01	-1.084144e+03
4.900000e-07	-3.067607e-06	-1.639582e-08	-2.250156e+01	-1.075992e+03
5.000000e-07	-2.985775e-06	-1.626893e-08	-2.190130e+01	-1.067653e+03
5.100000e-07	-2.902975e-06	-1.612897e-08	-2.129394e+01	-1.059116e+03
5.200000e-07	-2.819339e-06	-1.599317e-08	-2.068046e+01	-1.050371e+03
5.300000e-07	-2.734912e-06	-1.585764e-08	-2.006117e+01	-1.041410e+03
5.400000e-07	-2.649548e-06	-1.571378e-08	-1.943500e+01	-1.032230e+03
5.500000e-07	-2.563254e-06	-1.557249e-08	-1.880202e+01	-1.022832e+03
5.600000e-07	-2.476109e-06	-1.542174e-08	-1.816279e+01	-1.013220e+03
5.700000e-07	-2.388119e-06	-1.526413e-08	-1.751736e+01	-1.003398e+03
5.800000e-07	-2.299133e-06	-1.510301e-08	-1.686463e+01	-9.933725e+02
5.900000e-07	-2.209051e-06	-1.494887e-08	-1.620387e+01	-9.831430e+02
6.000000e-07	-2.118045e-06	-1.479470e-08	-1.553632e+01	-9.727057e+02
6.100000e-07	-2.026358e-06	-1.463341e-08	-1.486377e+01	-9.620518e+02
6.200000e-07	-1.934042e-06	-1.446681e-08	-1.418662e+01	-9.511684e+02
6.300000e-07	-1.840965e-06	-1.429218e-08	-1.350387e+01	-9.400413e+02
6.400000e-07	-1.747234e-06	-1.411548e-08	-1.281634e+01	-9.286573e+02
6.500000e-07	-1.652978e-06	-1.393714e-08	-1.212495e+01	-9.170063e+02
6.600000e-07	-1.558198e-06	-1.375436e-08	-1.142971e+01	-9.050831e+02
6.700000e-07	-1.462940e-06	-1.356450e-08	-1.073098e+01	-8.928865e+02
6.800000e-07	-1.367211e-06	-1.337107e-08	-1.002878e+01	-8.804182e+02
6.900000e-07	-1.270994e-06	-1.317570e-08	-9.323013e+00	-8.676799e+02
7.000000e-07	-1.174243e-06	-1.297920e-08	-8.613322e+00	-8.546710e+02
7.100000e-07	-1.076931e-06	-1.278125e-08	-7.899517e+00	-8.413860e+02
7.200000e-07	-9.791108e-07	-1.257934e-08	-7.181988e+00	-8.278144e+02
7.300000e-07	-8.809172e-07	-1.236970e-08	-6.461716e+00	-8.139409e+02
7.400000e-07	-7.823716e-07	-1.215073e-08	-5.738863e+00	-7.997478e+02
7.500000e-07	-6.834665e-07	-1.192644e-08	-5.013374e+00	-7.852175e+02
7.600000e-07	-5.842931e-07	-1.169846e-08	-4.285915e+00	-7.703349e+02
7.700000e-07	-4.849370e-07	-1.146562e-08	-3.557117e+00	-7.550893e+02
7.800000e-07	-3.854401e-07	-1.122758e-08	-2.827286e+00	-7.394734e+02
7.900000e-07	-2.858412e-07	-1.098400e-08	-2.096707e+00	-7.234818e+02
8.000000e-07	-1.861943e-07	-1.073546e-08	-1.365775e+00	-7.071072e+02
8.100000e-07	-8.649639e-08	-1.048105e-08	-6.344696e-01	-6.903370e+02
8.200000e-07	1.324277e-08	-1.021810e-08	9.713857e-02	-6.731499e+02
8.300000e-07	1.129723e-07	-9.946739e-09	8.286764e-01	-6.555147e+02
8.400000e-07	2.126890e-07	-9.670689e-09	1.560120e+00	-6.373904e+02
8.500000e-07	3.123959e-07	-9.389655e-09	2.291491e+00	-6.187290e+02
8.600000e-07	4.120512e-07	-9.099526e-09	3.022484e+00	-5.994797e+02
8.700000e-07	5.116255e-07	-8.797553e-09	3.752883e+00	-5.795931e+02
8.800000e-07	6.111180e-07	-8.483120e-09	4.482682e+00	-5.590251e+02
8.900000e-07	7.104437e-07	-8.156618e-09	5.211257e+00	-5.377382e+02
9.000000e-07	8.095161e-07	-7.818845e-09	5.937974e+00	-5.157004e+02
9.100000e-07	9.082595e-07	-7.470658e-09	6.662278e+00	-4.928827e+02
9.200000e-07	1.006524e-06	-7.111141e-09	7.383070e+00	-4.692535e+02
9.300000e-07	1.104199e-06	-6.739339e-09	8.099539e+00	-4.447736e+02
9.400000e-07	1.201291e-06	-6.351088e-09	8.811729e+00	-4.193916e+02
9.500000e-07	1.297875e-06	-5.947511e-09	9.520195e+00	-3.930422e+02
9.600000e-07	1.393972e-06	-5.531901e-09	1.022509e+01	-3.656457e+02
9.700000e-07	1.489537e-06	-5.100330e-09	1.092608e+01	-3.371121e+02
9.800000e-07	1.584540e-06	-4.647720e-09	1.162294e+01	-3.073452e+02
9.900000e-07	1.678996e-06	-4.171786e-09	1.231580e+01	-2.762494e+02
1.000000e-06	1.772923e-06	-3.674209e-09	1.300477e+01	-2.437349e+02
1.010000e-06	1.866238e-06	-3.154954e-09	1.368925e+01	-2.097229e+02
1.020000e-06	1.958892e-06	-2.612403e-09	1.436889e+01	-1.741487e+02
1.030000e-06	2.050945e-06	-2.048315e-09	1.504412e+01	-1.369635e+02
1.040000e-06	2.142407e-06	-1.459705e-09	1.571502e+01	-9.813627e+01
1.050000e-06	2.233085e-06	-8.437903e-10	1.638016e+01	-5.765590e+01
1.060000e-06	2.322681e-06	-2.000717e-10	1.703736e+01	-1.553444e+01
1.070000e-06	2.411229e-06	4.689402e-10	1.768688e+01	2.818762e+01
1.080000e-06	2.498983e-06	1.159599e-09	1.833058e+01	7.343495e+01
1.090000e-06	2.585936e-06	1.869806e-09	1.896839e+01	1.200906e+02
1.100000e-06	2.672013e-06	2.599205e-09	1.959979e+01	1.679904e+02
1.110000e-06	2.757170e-06	3.344434e-09	2.022443e+01	2.169209e+02
1.120000e-06	2.841454e-06	4.102615e-09	2.084267e+01	2.666206e+02
1.130000e-06	2.925000e-06	4.868115e-09	2.145550e+01	3.167877e+02
1.140000e-06	3.007620e-06	5.634429e-09	2.206154e+01	3.670914e+02
1.150000e-06	3.089027e-06	6.397557e-09	2.265867e+01	4.171873e+02
1.160000e-06	3.169236e-06	7.152069e-09	2.324702e+01	4.667344e+02
1.170000e-06	3.248295e-06	7.895744e-09	2.382694e+01	5.154112e+02
1.180000e-06	3.326241e-06	8.620071e-09	2.439869e+01	5.629287e+02
1.190000e-06	3.403061e-06	9.321479e-09	2.496218e+01	6.090393e+02
1.200000e-06	3.478630e-06	9.997318e-09	2.551650e+01	6.535409e+02
1.210000e-06	3.552760e-06	1.064581e-08	2.606025e+01	6.962758e+02
1.220000e-06	3.625400e-06	1.126454e-08	2.659308e+01	7.371274e+02
1.230000e-06	3.696723e-06	1.185127e-08	2.711626e+01	7.760139e+02
1.240000e-06	3.766713e-06	1.240765e-08	2.762965e+01	8.128839e+02
1.250000e-06	3.835378e-06	1.293249e-08	2.813332e+01	8.477118e+02
1.260000e-06	3.902880e-06	1.342732e-08	2.862847e+01	8.804956e+02
1.270000e-06	3.968943e-06	1.389537e-08	2.911305e+01	9.112567e+02
1.280000e-06	4.033306e-06	1.433343e-08	2.958517e+01	9.400393e+02
1.290000e-06	4.096166e-06	1.473919e-08	3.004626e+01	9.669104e+02
1.300000e-06	4.157646e-06	1.511712e-08	3.049723e+01	9.919574e+02
1.310000e-06	4.217880e-06	1.546775e-08	3.093905e+01	1.015284e+03
1.320000e-06	4.276812e-06	1.579574e-08	3.137133e+01	1.037005e+03
1.330000e-06	4.333995e-06	1.610311e-08	3.179078e+01	1.057236e+03
1.340000e-06	4.389395e-06	1.638700e-08	3.219715e+01	1.076090e+03
1.350000e-06	4.443246e-06	1.665185e-08	3.259216e+01	1.093669e+03
1.360000e-06	4.495422e-06	1.690069e-08	3.297488e+01	1.110060e+03
1.370000e-06	4.545651e-06	1.713272e-08	3.334332e+01	1.125335e+03
1.380000e-06	4.593914e-06	1.734690e-08	3.369734e+01	1.139553e+03
1.390000e-06	4.640483e-06	1.754478e-08	3.403894e+01	1.152765e+03
1.400000e-06	4.685519e-06	1.772778e-08	3.436928e+01	1.165016e+03
1.410000e-06	4.729112e-06	1.789729e-08	3.468905e+01	1.176354e+03
1.420000e-06	4.770951e-06	1.805548e-08	3.499595e+01	1.186828e+03
1.430000e-06	4.810936e-06	1.820334e-08	3.528925e+01	1.196492e+03
1.440000e-06	4.849334e-06	1.834115e-08	3.557091e+01	1.205404e+03
1.450000e-06	4.886157e-06	1.846784e-08	3.584101e+01	1.213620e+03
1.460000e-06	4.921453e-06	1.858322e-08	3.609992e+01	1.221194e+03
1.470000e-06	4.954906e-06	1.868830e-08	3.634530e+01	1.228177e+03
1.480000e-06	4.986424e-06	1.878451e-08	3.657649e+01	1.234609e+03
1.490000e-06	5.016272e-06	1.887143e-08	3.679543e+01	1.240525e+03
1.500000e-06	5.044545e-06	1.895071e-08	3.700282e+01	1.245956e+03
1.510000e-06	5.071051e-06	1.902524e-08	3.719725e+01	1.250927e+03
1.520000e-06	5.095453e-06	1.909436e-08	3.737624e+01	1.255464e+03
1.530000e-06	5.117948e-06	1.915805e-08	3.754124e+01	1.259589e+03
1.540000e-06	5.138828e-06	1.921697e-08	3.769441e+01	1.263326e+03
1.550000e-06	5.158056e-06	1.927097e-08	3.783545e+01	1.266698e+03
1.560000e-06	5.175428e-06	1.931794e-08	3.796287e+01	1.269721e+03
1.570000e-06	5.190786e-06	1.935781e-08	3.807553e+01	1.272412e+03
1.580000e-06	5.204220e-06	1.939076e-08	3.817407e+01	1.274781e+03
1.590000e-06	5.215614e-06	1.941752e-08	3.825765e+01	1.276832e+03
1.600000e-06	5.224827e-06	1.944026e-08	3.832523e+01	1.278570e+03
1.610000e-06	5.232107e-06	1.946052e-08	3.837863e+01	1.280000e+03
1.620000e-06	5.237604e-06	1.947839e-08	3.841895e+01	1.281131e+03
1.630000e-06	5.241366e-06	1.949367e-08	3.844655e+01	1.281974e+03
1.640000e-06	5.243200e-06	1.950683e-08	3.846000e+01	1.282549e+03
1.650000e-06	5.243044e-06	1.951508e-08	3.845885e+01	1.282878e+03
1.660000e-06	5.241173e-06	1.951313e-08	3.844513e+01	1.282983e+03
1.670000e-06	5.237792e-06	1.950897e-08	3.842033e+01	1.282885e+03
1.680000e-06	5.232800e-06	1.950395e-08	3.838371e+01	1.282595e+03
1.690000e-06	5.225852e-06	1.949665e-08	3.833274e+01	1.282121e+03
1.700000e-06	5.217121e-06	1.948792e-08	3.826870e+01	1.281457e+03
1.710000e-06	5.206884e-06	1.947914e-08	3.819361e+01	1.280596e+03
1.720000e-06	5.195026e-06	1.947845e-08	3.810663e+01	1.279527e+03
1.730000e-06	5.181329e-06	1.946119e-08	3.800616e+01	1.278243e+03
1.740000e-06	5.165645e-06	1.936288e-08	3.789111e+01	1.276744e+03
1.750000e-06	5.147739e-06	1.934368e-08	3.775977e+01	1.275042e+03
1.760000e-06	5.127341e-06	1.935223e-08	3.761015e+01	1.273157e+03
1.770000e-06	5.104548e-06	1.933217e-08	3.744295e+01	1.271118e+03
1.780000e-06	5.080267e-06	1.940346e-08	3.726485e+01	1.268957e+03
1.790000e-06	5.055404e-06	1.924777e-08	3.708248e+01	1.266700e+03
1.800000e-06	5.029355e-06	1.916308e-08	3.689140e+01	1.264365e+03
1.810000e-06	5.001262e-06	1.929951e-08	3.668533e+01	1.261957e+03
1.820000e-06	4.971428e-06	1.911990e-08	3.646649e+01	1.259465e+03
1.830000e-06	4.939853e-06	1.910636e-08	3.623489e+01	1.256866e+03
1.840000e-06	4.906309e-06	1.923601e-08	3.598883e+01	1.254129e+03
1.850000e-06	4.871234e-06	1.898198e-08	3.573155e+01	1.251217e+03
1.860000e-06	4.834463e-06	1.895857e-08	3.546183e+01	1.248102e+03
1.870000e-06	4.795633e-06	1.898527e-08	3.517700e+01	1.244761e+03
1.880000e-06	4.755181e-06	1.882738e-08	3.488027e+01	1.241185e+03
1.890000e-06	4.713022e-06	1.890490e-08	3.457103e+01	1.237376e+03
1.900000e-06	4.669198e-06	1.879799e-08	3.424957e+01	1.233347e+03
1.910000e-06	4.623806e-06	1.871662e-08	3.391661e+01	1.229116e+03
1.920000e-06	4.576584e-06	1.874285e-08	3.357023e+01	1.224705e+03
1.930000e-06	4.527795e-06	1.854162e-08	3.321235e+01	1.220130e+03
1.940000e-06	4.477296e-06	1.854854e-08	3.284192e+01	1.215403e+03
1.950000e-06	4.424896e-06	1.849019e-08	3.245756e+01	1.210531e+03
1.960000e-06	4.370605e-06	1.835883e-08	3.205932e+01	1.205511e+03
1.970000e-06	4.314470e-06	1.833541e-08	3.164756e+01	1.200340e+03
1.980000e-06	4.256742e-06	1.819203e-08	3.122412e+01	1.195011e+03
1.990000e-06	4.197603e-06	1.815720e-08	3.079032e+01	1.189518e+03
2.000000e-06	4.137242e-06	1.806158e-08	3.034756e+01	1.183857e+03
2.010000e-06	4.075291e-06	1.796212e-08	2.989313e+01	1.178025e+03
2.020000e-06	4.011539e-06	1.790711e-08	2.942550e+01	1.172022e+03
2.030000e-06	3.946384e-06	1.774799e-08	2.894758e+01	1.165849e+03
2.040000e-06	3.879856e-06	1.770109e-08	2.845958e+01	1.159505e+03
2.050000e-06	3.812127e-06	1.758539e-08	2.796277e+01	1.152992e+03
2.060000e-06	3.743113e-06	1.747282e-08	2.745654e+01	1.146308e+03
2.070000e-06	3.672373e-06	1.739581e-08	2.693765e+01	1.139453e+03
2.080000e-06	3.600185e-06	1.726544e-08	2.640813e+01	1.132428e+03
2.090000e-06	3.526831e-06	1.718461e-08	2.587006e+01	1.125234e+03
2.100000e-06	3.452349e-06	1.705355e-08	2.532372e+01	1.117871e+03
2.110000e-06	3.376673e-06	1.696064e-08	2.476862e+01	1.110342e+03
2.120000e-06	3.299598e-06	1.684393e-08	2.420326e+01	1.102646e+03
2.130000e-06	3.221022e-06	1.669826e-08	2.362689e+01	1.094783e+03
2.140000e-06	3.141148e-06	1.658490e-08	2.304099e+01	1.086747e+03
2.150000e-06	3.060268e-06	1.645557e-08	2.244772e+01	1.078530e+03
2.160000e-06	2.978319e-06	1.634015e-08	2.184661e+01	1.070122e+03
2.170000e-06	2.895378e-06	1.619691e-08	2.123822e+01	1.061512e+03
2.180000e-06	2.811579e-06	1.607646e-08	2.062354e+01	1.052691e+03
2.190000e-06	2.726834e-06	1.595076e-08	2.000191e+01	1.043652e+03
2.200000e-06	2.640833e-06	1.580054e-08	1.937107e+01	1.034395e+03
2.210000e-06	2.553548e-06	1.566024e-08	1.873082e+01	1.024920e+03
2.220000e-06	2.465360e-06	1.551593e-08	1.808394e+01	1.015233e+03
2.230000e-06	2.376424e-06	1.537129e-08	1.743158e+01	1.005339e+03
2.240000e-06	2.286710e-06	1.520578e-08	1.677351e+01	9.952406e+02
2.250000e-06	2.196189e-06	1.504940e-08	1.610952e+01	9.849380e+02
2.260000e-06	2.104941e-06	1.489231e-08	1.544020e+01	9.744251e+02
2.270000e-06	2.013088e-06	1.472988e-08	1.476643e+01	9.636912e+02
2.280000e-06	1.920699e-06	1.456845e-08	1.408874e+01	9.527229e+02
2.290000e-06	1.827602e-06	1.440191e-08	1.340586e+01	9.415059e+02
2.300000e-06	1.733585e-06	1.423286e-08	1.271622e+01	9.300278e+02
2.310000e-06	1.638757e-06	1.405224e-08	1.202063e+01	9.182805e+02
2.320000e-06	1.543290e-06	1.386435e-08	1.132036e+01	9.062600e+02
2.330000e-06	1.447307e-06	1.367372e-08	1.061631e+01	8.939665e+02
2.340000e-06	1.350922e-06	1.348567e-08	9.909301e+00	8.814021e+02
2.350000e-06	1.254213e-06	1.329233e-08	9.199921e+00	8.685679e+02
2.360000e-06	1.157152e-06	1.309199e-08	8.487957e+00	8.554617e+02
2.370000e-06	1.059686e-06	1.288463e-08	7.773027e+00	8.420763e+02
2.380000e-06	9.618611e-07	1.267563e-08	7.055458e+00	8.283993e+02
2.390000e-06	8.637407e-07	1.246487e-08	6.335723e+00	8.144142e+02
2.400000e-06	7.653487e-07	1.224539e-08	5.613997e+00	8.001030e+02
2.410000e-06	6.667408e-07	1.202221e-08	4.890687e+00	7.854488e+02
2.420000e-06	5.679941e-07	1.179404e-08	4.166359e+00	7.704381e+02
2.430000e-06	4.690920e-07	1.155743e-08	3.440890e+00	7.550613e+02
2.440000e-06	3.700717e-07	1.131427e-08	2.714555e+00	7.393123e+02
2.450000e-06	2.709789e-07	1.106817e-08	1.987688e+00	7.231853e+02
2.460000e-06	1.717669e-07	1.081736e-08	1.259947e+00	7.066717e+02
2.470000e-06	7.244661e-08	1.056103e-08	5.314114e-01	6.897560e+02
2.480000e-06	-2.697178e-08	1.029910e-08	-1.978438e-01	6.724135e+02
2.490000e-06	-1.264499e-07	1.002858e-08	-9.275375e-01	6.546092e+02
2.500000e-06	-2.258704e-07	9.746753e-09	-1.656808e+00	6.362993e+02
2.510000e-06	-3.251499e-07	9.454854e-09	-2.385044e+00	6.174342e+02
2.520000e-06	-4.242888e-07	9.154870e-09	-3.112250e+00	5.979632e+02
2.530000e-06	-5.233486e-07	8.845695e-09	-3.838874e+00	5.778384e+02
2.540000e-06	-6.223083e-07	8.529526e-09	-4.564765e+00	5.570181e+02
2.550000e-06	-7.210723e-07	8.204261e-09	-5.289220e+00	5.354668e+02
2.560000e-06	-8.195696e-07	7.865143e-09	-6.011719e+00	5.131543e+02
2.570000e-06	-9.177885e-07	7.510500e-09	-6.732176e+00	4.900512e+02
2.580000e-06	-1.015738e-06	7.143215e-09	-7.450658e+00	4.661236e+02
2.590000e-06	-1.113349e-06	6.766310e-09	-8.166654e+00	4.413285e+02
2.600000e-06	-1.210544e-06	6.376249e-09	-8.879602e+00	4.156098e+02
2.610000e-06	-1.307270e-06	5.969753e-09	-9.589106e+00	3.888966e+02
2.620000e-06	-1.403581e-06	5.544049e-09	-1.029557e+01	3.611053e+02
2.630000e-06	-1.499564e-06	5.099465e-09	-1.099962e+01	3.321427e+02
2.640000e-06	-1.595089e-06	4.636575e-09	-1.170032e+01	3.019125e+02
2.650000e-06	-1.689895e-06	4.154258e-09	-1.239574e+01	2.703202e+02
2.660000e-06	-1.783807e-06	3.651076e-09	-1.308461e+01	2.372798e+02
2.670000e-06	-1.876805e-06	3.122203e-09	-1.376677e+01	2.027169e+02
2.680000e-06	-1.969066e-06	2.569395e-09	-1.444352e+01	1.665725e+02
2.690000e-06	-2.060677e-06	1.994351e-09	-1.511551e+01	1.288039e+02
2.700000e-06	-2.151579e-06	1.393986e-09	-1.578230e+01	8.938684e+01
2.710000e-06	-2.241692e-06	7.679829e-10	-1.644329e+01	4.831807e+01
2.720000e-06	-2.330898e-06	1.155737e-10	-1.709764e+01	5.619094e+00
2.730000e-06	-2.419376e-06	-5.628001e-10	-1.774664e+01	-3.865794e+01
2.740000e-06	-2.507287e-06	-1.263113e-09	-1.839149e+01	-8.442358e+01
2.750000e-06	-2.594430e-06	-1.982432e-09	-1.903070e+01	-1.315445e+02
2.760000e-06	-2.680462e-06	-2.718613e-09	-1.966176e+01	-1.798391e+02
2.770000e-06	-2.765318e-06	-3.469276e-09	-2.028420e+01	-2.290761e+02
2.780000e-06	-2.849196e-06	-4.231126e-09	-2.089947e+01	-2.789788e+02
2.790000e-06	-2.932128e-06	-4.997687e-09	-2.150779e+01	-3.292333e+02
2.800000e-06	-3.014090e-06	-5.764606e-09	-2.210900e+01	-3.795021e+02
2.810000e-06	-3.095080e-06	-6.526908e-09	-2.270308e+01	-4.294400e+02
2.820000e-06	-3.175093e-06	-7.278692e-09	-2.328999e+01	-4.787113e+02
2.830000e-06	-3.253897e-06	-8.015573e-09	-2.386803e+01	-5.270047e+02
2.840000e-06	-3.331295e-06	-8.733947e-09	-2.443576e+01	-5.740454e+02
2.850000e-06	-3.407300e-06	-9.432438e-09	-2.499328e+01	-6.196018e+02
2.860000e-06	-3.481965e-06	-1.010636e-08	-2.554096e+01	-6.634879e+02
2.870000e-06	-3.555406e-06	-1.075053e-08	-2.607967e+01	-7.055612e+02
2.880000e-06	-3.627680e-06	-1.136606e-08	-2.660981e+01	-7.457182e+02
2.890000e-06	-3.698652e-06	-1.195265e-08	-2.713041e+01	-7.838886e+02
2.900000e-06	-3.768054e-06	-1.250942e-08	-2.763949e+01	-8.200305e+02
2.910000e-06	-3.836024e-06	-1.303442e-08	-2.813806e+01	-8.541270e+02
2.920000e-06	-3.902762e-06	-1.352580e-08	-2.862760e+01	-8.861843e+02
2.930000e-06	-3.968184e-06	-1.398732e-08	-2.910748e+01	-9.162321e+02
2.940000e-06	-4.032238e-06	-1.442049e-08	-2.957733e+01	-9.443228e+02
