# Temperatura_=_30.3
# Concentracion g/m^3_=_26700.0
# C_Vs_to_Am_M_A/Vsm_=_65563218390.804596
# pendiente_HvsI_1/m_=_3716.3
# ordenada_HvsI_A/m_=_1297.0
# frecuencia_Hz_=_301842.99055259

Tiempo_(s)	Campo_(V.s)	Magnetizacion_(V.s)	Campo_(kA/m)	Magnetizacion_(A/m)
0.000000e+00	-5.235543e-06	-1.840955e-08	-3.828620e+01	-1.202918e+03
1.000000e-08	-5.233415e-06	-1.841118e-08	-3.827064e+01	-1.202988e+03
2.000000e-08	-5.229449e-06	-1.840539e-08	-3.824163e+01	-1.202863e+03
3.000000e-08	-5.223881e-06	-1.839768e-08	-3.820092e+01	-1.202541e+03
4.000000e-08	-5.216748e-06	-1.838866e-08	-3.814875e+01	-1.202008e+03
5.000000e-08	-5.207952e-06	-1.837572e-08	-3.808443e+01	-1.201247e+03
6.000000e-08	-5.197153e-06	-1.835972e-08	-3.800546e+01	-1.200243e+03
7.000000e-08	-5.184427e-06	-1.834029e-08	-3.791240e+01	-1.198991e+03
8.000000e-08	-5.169795e-06	-1.831046e-08	-3.780540e+01	-1.197498e+03
9.000000e-08	-5.152994e-06	-1.831942e-08	-3.768254e+01	-1.195787e+03
1.000000e-07	-5.134136e-06	-1.833158e-08	-3.754463e+01	-1.193897e+03
1.100000e-07	-5.113432e-06	-1.826443e-08	-3.739323e+01	-1.191868e+03
1.200000e-07	-5.090962e-06	-1.820920e-08	-3.722891e+01	-1.189742e+03
1.300000e-07	-5.066976e-06	-1.815277e-08	-3.705351e+01	-1.187549e+03
1.400000e-07	-5.041567e-06	-1.802074e-08	-3.686770e+01	-1.185304e+03
1.500000e-07	-5.014540e-06	-1.807791e-08	-3.667006e+01	-1.182999e+03
1.600000e-07	-4.985925e-06	-1.810285e-08	-3.646080e+01	-1.180609e+03
1.700000e-07	-4.955928e-06	-1.794083e-08	-3.624145e+01	-1.178095e+03
1.800000e-07	-4.924329e-06	-1.802109e-08	-3.601037e+01	-1.175410e+03
1.900000e-07	-4.890615e-06	-1.796186e-08	-3.576383e+01	-1.172513e+03
2.000000e-07	-4.855136e-06	-1.774105e-08	-3.550437e+01	-1.169374e+03
2.100000e-07	-4.818170e-06	-1.778850e-08	-3.523406e+01	-1.165980e+03
2.200000e-07	-4.779476e-06	-1.774695e-08	-3.495109e+01	-1.162335e+03
2.300000e-07	-4.739022e-06	-1.764592e-08	-3.465527e+01	-1.158459e+03
2.400000e-07	-4.696635e-06	-1.764489e-08	-3.434530e+01	-1.154380e+03
2.500000e-07	-4.652419e-06	-1.753924e-08	-3.402196e+01	-1.150128e+03
2.600000e-07	-4.606563e-06	-1.745796e-08	-3.368662e+01	-1.145726e+03
2.700000e-07	-4.558891e-06	-1.740126e-08	-3.333802e+01	-1.141189e+03
2.800000e-07	-4.509227e-06	-1.732764e-08	-3.297483e+01	-1.136518e+03
2.900000e-07	-4.457456e-06	-1.726625e-08	-3.259624e+01	-1.131705e+03
3.000000e-07	-4.403853e-06	-1.716382e-08	-3.220426e+01	-1.126735e+03
3.100000e-07	-4.348728e-06	-1.709164e-08	-3.180115e+01	-1.121592e+03
3.200000e-07	-4.291974e-06	-1.702128e-08	-3.138612e+01	-1.116265e+03
3.300000e-07	-4.233493e-06	-1.693057e-08	-3.095846e+01	-1.110752e+03
3.400000e-07	-4.173479e-06	-1.684167e-08	-3.051960e+01	-1.105055e+03
3.500000e-07	-4.112083e-06	-1.674393e-08	-3.007062e+01	-1.099187e+03
3.600000e-07	-4.049288e-06	-1.666543e-08	-2.961142e+01	-1.093162e+03
3.700000e-07	-3.985158e-06	-1.656310e-08	-2.914245e+01	-1.086989e+03
3.800000e-07	-3.919541e-06	-1.647586e-08	-2.866261e+01	-1.080676e+03
3.900000e-07	-3.852317e-06	-1.639723e-08	-2.817102e+01	-1.074222e+03
4.000000e-07	-3.783694e-06	-1.626827e-08	-2.766920e+01	-1.067617e+03
4.100000e-07	-3.713837e-06	-1.614873e-08	-2.715835e+01	-1.060848e+03
4.200000e-07	-3.642805e-06	-1.603904e-08	-2.663891e+01	-1.053902e+03
4.300000e-07	-3.570568e-06	-1.594344e-08	-2.611066e+01	-1.046768e+03
4.400000e-07	-3.496889e-06	-1.584024e-08	-2.557186e+01	-1.039442e+03
4.500000e-07	-3.421618e-06	-1.572889e-08	-2.502143e+01	-1.031925e+03
4.600000e-07	-3.344946e-06	-1.561071e-08	-2.446074e+01	-1.024225e+03
4.700000e-07	-3.267019e-06	-1.547228e-08	-2.389088e+01	-1.016354e+03
4.800000e-07	-3.187798e-06	-1.534357e-08	-2.331156e+01	-1.008322e+03
4.900000e-07	-3.107292e-06	-1.522151e-08	-2.272284e+01	-1.000133e+03
5.000000e-07	-3.025629e-06	-1.509979e-08	-2.212565e+01	-9.917873e+02
5.100000e-07	-2.943004e-06	-1.497026e-08	-2.152144e+01	-9.832759e+02
5.200000e-07	-2.859508e-06	-1.483344e-08	-2.091085e+01	-9.745849e+02
5.300000e-07	-2.775177e-06	-1.469421e-08	-2.029416e+01	-9.656984e+02
5.400000e-07	-2.689941e-06	-1.455308e-08	-1.967086e+01	-9.566011e+02
5.500000e-07	-2.603754e-06	-1.441340e-08	-1.904059e+01	-9.472824e+02
5.600000e-07	-2.516712e-06	-1.427311e-08	-1.840407e+01	-9.377377e+02
5.700000e-07	-2.428803e-06	-1.412288e-08	-1.776122e+01	-9.279683e+02
5.800000e-07	-2.339918e-06	-1.395969e-08	-1.711123e+01	-9.179800e+02
5.900000e-07	-2.249961e-06	-1.379183e-08	-1.645339e+01	-9.077796e+02
6.000000e-07	-2.159017e-06	-1.362899e-08	-1.578835e+01	-8.973723e+02
6.100000e-07	-2.067284e-06	-1.346863e-08	-1.511752e+01	-8.867590e+02
6.200000e-07	-1.974865e-06	-1.330811e-08	-1.444169e+01	-8.759354e+02
6.300000e-07	-1.881761e-06	-1.314404e-08	-1.376084e+01	-8.648927e+02
6.400000e-07	-1.787958e-06	-1.297171e-08	-1.307489e+01	-8.536195e+02
6.500000e-07	-1.693571e-06	-1.279417e-08	-1.238466e+01	-8.421045e+02
6.600000e-07	-1.598706e-06	-1.261070e-08	-1.169093e+01	-8.303390e+02
6.700000e-07	-1.503349e-06	-1.242170e-08	-1.099361e+01	-8.183183e+02
6.800000e-07	-1.407425e-06	-1.222997e-08	-1.029214e+01	-8.060418e+02
6.900000e-07	-1.310882e-06	-1.203898e-08	-9.586145e+00	-7.935113e+02
7.000000e-07	-1.213775e-06	-1.184795e-08	-8.876032e+00	-7.807286e+02
7.100000e-07	-1.116210e-06	-1.165299e-08	-8.162561e+00	-7.676926e+02
7.200000e-07	-1.018205e-06	-1.145299e-08	-7.445876e+00	-7.543972e+02
7.300000e-07	-9.197716e-07	-1.124654e-08	-6.726056e+00	-7.408310e+02
7.400000e-07	-8.210014e-07	-1.103463e-08	-6.003775e+00	-7.269773e+02
7.500000e-07	-7.219729e-07	-1.081894e-08	-5.279605e+00	-7.128173e+02
7.600000e-07	-6.227446e-07	-1.060069e-08	-4.553973e+00	-6.983326e+02
7.700000e-07	-5.232953e-07	-1.037612e-08	-3.826726e+00	-6.835082e+02
7.800000e-07	-4.236496e-07	-1.014424e-08	-3.098042e+00	-6.683338e+02
7.900000e-07	-3.238882e-07	-9.905903e-09	-2.368512e+00	-6.528042e+02
8.000000e-07	-2.240397e-07	-9.661701e-09	-1.638346e+00	-6.369172e+02
8.100000e-07	-1.241106e-07	-9.414883e-09	-9.075892e-01	-6.206697e+02
8.200000e-07	-2.414460e-08	-9.164385e-09	-1.765633e-01	-6.040544e+02
8.300000e-07	7.586659e-08	-8.907716e-09	5.547931e-01	-5.870558e+02
8.400000e-07	1.758766e-07	-8.643015e-09	1.286141e+00	-5.696481e+02
8.500000e-07	2.758337e-07	-8.370546e-09	2.017102e+00	-5.517956e+02
8.600000e-07	3.757664e-07	-8.090733e-09	2.747885e+00	-5.334547e+02
8.700000e-07	4.755860e-07	-7.803391e-09	3.477840e+00	-5.145773e+02
8.800000e-07	5.752773e-07	-7.507853e-09	4.206857e+00	-4.951161e+02
8.900000e-07	6.748404e-07	-7.203854e-09	4.934937e+00	-4.750277e+02
9.000000e-07	7.742187e-07	-6.889677e-09	5.661665e+00	-4.542758e+02
9.100000e-07	8.733476e-07	-6.562874e-09	6.386569e+00	-4.328311e+02
9.200000e-07	9.721466e-07	-6.224710e-09	7.109061e+00	-4.106696e+02
9.300000e-07	1.070590e-06	-5.876333e-09	7.828956e+00	-3.877685e+02
9.400000e-07	1.168586e-06	-5.515585e-09	8.545575e+00	-3.641022e+02
9.500000e-07	1.265962e-06	-5.140690e-09	9.257656e+00	-3.396373e+02
9.600000e-07	1.362634e-06	-4.752975e-09	9.964597e+00	-3.143301e+02
9.700000e-07	1.458690e-06	-4.353469e-09	1.066703e+01	-2.881254e+02
9.800000e-07	1.554177e-06	-3.939915e-09	1.136530e+01	-2.609581e+02
9.900000e-07	1.649090e-06	-3.511061e-09	1.205938e+01	-2.327562e+02
1.000000e-06	1.743487e-06	-3.065765e-09	1.274968e+01	-2.034456e+02
1.010000e-06	1.837315e-06	-2.601217e-09	1.343582e+01	-1.729557e+02
1.020000e-06	1.930464e-06	-2.116204e-09	1.411699e+01	-1.412240e+02
1.030000e-06	2.022986e-06	-1.612189e-09	1.479358e+01	-1.082010e+02
1.040000e-06	2.114893e-06	-1.087821e-09	1.546568e+01	-7.385347e+01
1.050000e-06	2.206153e-06	-5.417800e-10	1.613304e+01	-3.816730e+01
1.060000e-06	2.296548e-06	2.423046e-11	1.679407e+01	-1.150169e+00
1.070000e-06	2.385864e-06	6.083014e-10	1.744722e+01	3.716622e+01
1.080000e-06	2.474174e-06	1.209989e-09	1.809300e+01	7.672367e+01
1.090000e-06	2.561613e-06	1.828235e-09	1.873243e+01	1.174351e+02
1.100000e-06	2.648253e-06	2.461978e-09	1.936600e+01	1.591825e+02
1.110000e-06	2.734043e-06	3.109419e-09	1.999336e+01	2.018162e+02
1.120000e-06	2.818955e-06	3.769106e-09	2.061431e+01	2.451553e+02
1.130000e-06	2.902997e-06	4.437808e-09	2.122888e+01	2.889912e+02
1.140000e-06	2.986173e-06	5.110751e-09	2.183712e+01	3.330922e+02
1.150000e-06	3.068348e-06	5.783259e-09	2.243805e+01	3.772111e+02
1.160000e-06	3.149311e-06	6.451236e-09	2.303011e+01	4.210938e+02
1.170000e-06	3.229090e-06	7.110879e-09	2.361351e+01	4.644885e+02
1.180000e-06	3.307689e-06	7.758823e-09	2.418829e+01	5.071543e+02
1.190000e-06	3.385137e-06	8.391951e-09	2.475465e+01	5.488692e+02
1.200000e-06	3.461484e-06	9.007766e-09	2.531295e+01	5.894355e+02
1.210000e-06	3.536533e-06	9.603870e-09	2.586177e+01	6.286838e+02
1.220000e-06	3.610026e-06	1.017834e-08	2.639920e+01	6.664750e+02
1.230000e-06	3.682002e-06	1.072956e-08	2.692555e+01	7.027009e+02
1.240000e-06	3.752735e-06	1.125394e-08	2.744280e+01	7.372833e+02
1.250000e-06	3.822165e-06	1.175088e-08	2.795052e+01	7.701732e+02
1.260000e-06	3.890246e-06	1.222171e-08	2.844838e+01	8.013486e+02
1.270000e-06	3.957028e-06	1.266528e-08	2.893674e+01	8.308125e+02
1.280000e-06	4.022209e-06	1.308418e-08	2.941340e+01	8.585900e+02
1.290000e-06	4.085754e-06	1.348097e-08	2.987808e+01	8.847249e+02
1.300000e-06	4.147930e-06	1.385205e-08	3.033276e+01	9.092756e+02
1.310000e-06	4.208761e-06	1.419948e-08	3.077760e+01	9.323112e+02
1.320000e-06	4.268271e-06	1.452706e-08	3.121278e+01	9.539063e+02
1.330000e-06	4.326207e-06	1.483547e-08	3.163645e+01	9.741377e+02
1.340000e-06	4.382349e-06	1.512139e-08	3.204701e+01	9.930807e+02
1.350000e-06	4.436903e-06	1.538565e-08	3.244595e+01	1.010807e+03
1.360000e-06	4.489941e-06	1.563450e-08	3.283380e+01	1.027383e+03
1.370000e-06	4.541146e-06	1.586944e-08	3.320825e+01	1.042872e+03
1.380000e-06	4.590264e-06	1.608840e-08	3.356743e+01	1.057332e+03
1.390000e-06	4.637569e-06	1.629090e-08	3.391337e+01	1.070819e+03
1.400000e-06	4.683327e-06	1.647813e-08	3.424799e+01	1.083386e+03
1.410000e-06	4.727634e-06	1.665227e-08	3.457199e+01	1.095084e+03
1.420000e-06	4.770306e-06	1.681633e-08	3.488403e+01	1.105960e+03
1.430000e-06	4.811077e-06	1.697078e-08	3.518218e+01	1.116059e+03
1.440000e-06	4.850119e-06	1.711622e-08	3.546769e+01	1.125423e+03
1.450000e-06	4.887578e-06	1.725209e-08	3.574162e+01	1.134089e+03
1.460000e-06	4.923539e-06	1.737619e-08	3.600459e+01	1.142090e+03
1.470000e-06	4.957782e-06	1.748755e-08	3.625500e+01	1.149461e+03
1.480000e-06	4.990060e-06	1.758731e-08	3.649104e+01	1.156236e+03
1.490000e-06	5.020583e-06	1.767814e-08	3.671425e+01	1.162448e+03
1.500000e-06	5.049509e-06	1.776183e-08	3.692578e+01	1.168137e+03
1.510000e-06	5.076815e-06	1.784041e-08	3.712546e+01	1.173342e+03
1.520000e-06	5.102150e-06	1.791439e-08	3.731073e+01	1.178104e+03
1.530000e-06	5.125434e-06	1.798295e-08	3.748100e+01	1.182458e+03
1.540000e-06	5.146966e-06	1.804542e-08	3.763846e+01	1.186437e+03
1.550000e-06	5.166861e-06	1.810229e-08	3.778394e+01	1.190063e+03
1.560000e-06	5.184993e-06	1.815229e-08	3.791654e+01	1.193347e+03
1.570000e-06	5.201123e-06	1.819520e-08	3.803449e+01	1.196293e+03
1.580000e-06	5.215298e-06	1.823170e-08	3.813815e+01	1.198897e+03
1.590000e-06	5.227583e-06	1.826238e-08	3.822799e+01	1.201155e+03
1.600000e-06	5.237702e-06	1.828814e-08	3.830199e+01	1.203066e+03
1.610000e-06	5.245663e-06	1.830999e-08	3.836020e+01	1.204633e+03
1.620000e-06	5.251776e-06	1.832977e-08	3.840490e+01	1.205872e+03
1.630000e-06	5.256181e-06	1.834750e-08	3.843712e+01	1.206806e+03
1.640000e-06	5.258751e-06	1.836184e-08	3.845591e+01	1.207466e+03
1.650000e-06	5.259310e-06	1.837297e-08	3.846000e+01	1.207883e+03
1.660000e-06	5.258059e-06	1.837523e-08	3.845085e+01	1.208083e+03
1.670000e-06	5.255222e-06	1.836854e-08	3.843011e+01	1.208084e+03
1.680000e-06	5.250821e-06	1.836378e-08	3.839792e+01	1.207890e+03
1.690000e-06	5.244655e-06	1.835675e-08	3.835283e+01	1.207495e+03
1.700000e-06	5.236636e-06	1.834731e-08	3.829419e+01	1.206884e+03
1.710000e-06	5.226966e-06	1.833830e-08	3.822348e+01	1.206038e+03
1.720000e-06	5.215716e-06	1.832942e-08	3.814121e+01	1.204946e+03
1.730000e-06	5.202709e-06	1.832909e-08	3.804609e+01	1.203607e+03
1.740000e-06	5.187767e-06	1.826502e-08	3.793682e+01	1.202034e+03
1.750000e-06	5.170678e-06	1.818660e-08	3.781186e+01	1.200255e+03
1.760000e-06	5.151145e-06	1.819531e-08	3.766901e+01	1.198311e+03
1.770000e-06	5.129125e-06	1.817006e-08	3.750799e+01	1.196244e+03
1.780000e-06	5.105269e-06	1.820141e-08	3.733354e+01	1.194092e+03
1.790000e-06	5.080542e-06	1.821679e-08	3.715271e+01	1.191881e+03
1.800000e-06	5.054883e-06	1.801823e-08	3.696508e+01	1.189617e+03
1.810000e-06	5.027457e-06	1.807042e-08	3.676451e+01	1.187287e+03
1.820000e-06	4.998138e-06	1.808648e-08	3.655012e+01	1.184858e+03
1.830000e-06	4.967117e-06	1.787751e-08	3.632327e+01	1.182289e+03
1.840000e-06	4.934213e-06	1.801565e-08	3.608265e+01	1.179534e+03
1.850000e-06	4.899595e-06	1.800448e-08	3.582949e+01	1.176554e+03
1.860000e-06	4.863375e-06	1.779811e-08	3.556463e+01	1.173325e+03
1.870000e-06	4.825211e-06	1.787199e-08	3.528555e+01	1.169841e+03
1.880000e-06	4.785292e-06	1.775655e-08	3.499362e+01	1.166112e+03
1.890000e-06	4.743709e-06	1.766293e-08	3.468954e+01	1.162160e+03
1.900000e-06	4.700378e-06	1.770100e-08	3.437267e+01	1.158017e+03
1.910000e-06	4.655501e-06	1.754468e-08	3.404450e+01	1.153710e+03
1.920000e-06	4.608887e-06	1.755604e-08	3.370362e+01	1.149260e+03
1.930000e-06	4.560528e-06	1.747822e-08	3.334998e+01	1.144676e+03
1.940000e-06	4.510453e-06	1.735547e-08	3.298380e+01	1.139957e+03
1.950000e-06	4.458461e-06	1.735431e-08	3.260360e+01	1.135091e+03
1.960000e-06	4.404646e-06	1.720214e-08	3.221006e+01	1.130061e+03
1.970000e-06	4.349033e-06	1.715919e-08	3.180338e+01	1.124854e+03
1.980000e-06	4.291726e-06	1.707938e-08	3.138430e+01	1.119462e+03
1.990000e-06	4.232962e-06	1.696221e-08	3.095458e+01	1.113883e+03
2.000000e-06	4.172889e-06	1.693821e-08	3.051528e+01	1.108124e+03
2.010000e-06	4.111372e-06	1.680446e-08	3.006542e+01	1.102199e+03
2.020000e-06	4.048137e-06	1.673963e-08	2.960300e+01	1.096121e+03
2.030000e-06	3.983304e-06	1.661057e-08	2.912889e+01	1.089899e+03
2.040000e-06	3.917077e-06	1.649447e-08	2.864459e+01	1.083537e+03
2.050000e-06	3.849579e-06	1.645865e-08	2.815100e+01	1.077031e+03
2.060000e-06	3.780761e-06	1.632497e-08	2.764775e+01	1.070370e+03
2.070000e-06	3.710440e-06	1.623966e-08	2.713350e+01	1.063540e+03
2.080000e-06	3.638704e-06	1.611720e-08	2.660892e+01	1.056529e+03
2.090000e-06	3.565653e-06	1.600432e-08	2.607472e+01	1.049327e+03
2.100000e-06	3.491363e-06	1.589682e-08	2.553145e+01	1.041933e+03
2.110000e-06	3.415834e-06	1.577079e-08	2.497913e+01	1.034350e+03
2.120000e-06	3.338921e-06	1.569124e-08	2.441669e+01	1.026589e+03
2.130000e-06	3.260610e-06	1.555881e-08	2.384401e+01	1.018661e+03
2.140000e-06	3.181022e-06	1.543637e-08	2.326201e+01	1.010573e+03
2.150000e-06	3.100275e-06	1.530157e-08	2.267152e+01	1.002329e+03
2.160000e-06	3.018419e-06	1.516963e-08	2.207293e+01	9.939265e+02
2.170000e-06	2.935550e-06	1.504558e-08	2.146693e+01	9.853536e+02
2.180000e-06	2.851795e-06	1.490888e-08	2.085445e+01	9.765956e+02
2.190000e-06	2.767083e-06	1.478981e-08	2.023497e+01	9.676361e+02
2.200000e-06	2.681226e-06	1.464728e-08	1.960713e+01	9.584616e+02
2.210000e-06	2.594170e-06	1.450169e-08	1.897050e+01	9.490632e+02
2.220000e-06	2.506089e-06	1.435111e-08	1.832640e+01	9.394387e+02
2.230000e-06	2.417152e-06	1.420741e-08	1.767602e+01	9.295912e+02
2.240000e-06	2.327436e-06	1.406069e-08	1.701995e+01	9.195272e+02
2.250000e-06	2.236997e-06	1.390588e-08	1.635859e+01	9.092533e+02
2.260000e-06	2.145804e-06	1.375034e-08	1.569172e+01	8.987735e+02
2.270000e-06	2.053890e-06	1.358205e-08	1.501958e+01	8.880867e+02
2.280000e-06	1.961299e-06	1.341532e-08	1.434248e+01	8.771869e+02
2.290000e-06	1.867939e-06	1.324890e-08	1.365976e+01	8.660641e+02
2.300000e-06	1.773778e-06	1.308382e-08	1.297119e+01	8.547066e+02
2.310000e-06	1.678924e-06	1.291269e-08	1.227754e+01	8.431038e+02
2.320000e-06	1.583444e-06	1.273082e-08	1.157933e+01	8.312483e+02
2.330000e-06	1.487422e-06	1.254107e-08	1.087714e+01	8.191369e+02
2.340000e-06	1.390932e-06	1.234888e-08	1.017153e+01	8.067703e+02
2.350000e-06	1.294023e-06	1.215631e-08	9.462865e+00	7.941505e+02
2.360000e-06	1.196717e-06	1.196088e-08	8.751290e+00	7.812785e+02
2.370000e-06	1.099041e-06	1.176275e-08	8.037012e+00	7.681517e+02
2.380000e-06	1.001062e-06	1.156072e-08	7.320516e+00	7.547621e+02
2.390000e-06	9.027911e-07	1.135315e-08	6.601883e+00	7.410961e+02
2.400000e-06	8.041914e-07	1.113570e-08	5.880848e+00	7.271361e+02
2.410000e-06	7.052786e-07	1.091333e-08	5.157524e+00	7.128630e+02
2.420000e-06	6.061707e-07	1.068953e-08	4.432772e+00	6.982593e+02
2.430000e-06	5.069603e-07	1.046194e-08	3.707272e+00	6.833116e+02
2.440000e-06	4.076683e-07	1.022870e-08	2.981175e+00	6.680116e+02
2.450000e-06	3.083068e-07	9.991042e-09	2.254569e+00	6.523554e+02
2.460000e-06	2.088412e-07	9.747812e-09	1.527203e+00	6.363410e+02
2.470000e-06	1.092890e-07	9.495926e-09	7.992026e-01	6.199642e+02
2.480000e-06	9.704371e-09	9.238645e-09	7.096561e-02	6.032151e+02
2.490000e-06	-8.989991e-08	8.977837e-09	-6.574152e-01	5.860747e+02
2.500000e-06	-1.894906e-07	8.710189e-09	-1.385697e+00	5.685137e+02
2.510000e-06	-2.890451e-07	8.433960e-09	-2.113713e+00	5.504929e+02
2.520000e-06	-3.885152e-07	8.148723e-09	-2.841113e+00	5.319668e+02
2.530000e-06	-4.878837e-07	7.852898e-09	-3.567770e+00	5.128871e+02
2.540000e-06	-5.871295e-07	7.548459e-09	-4.293529e+00	4.932073e+02
2.550000e-06	-6.862143e-07	7.238772e-09	-5.018111e+00	4.728866e+02
2.560000e-06	-7.850860e-07	6.921461e-09	-5.741135e+00	4.518912e+02
2.570000e-06	-8.836803e-07	6.592979e-09	-6.462130e+00	4.301939e+02
2.580000e-06	-9.819758e-07	6.251842e-09	-7.180940e+00	4.077718e+02
2.590000e-06	-1.079930e-06	5.898071e-09	-7.897256e+00	3.846015e+02
2.600000e-06	-1.177514e-06	5.531468e-09	-8.610863e+00	3.606552e+02
2.610000e-06	-1.274700e-06	5.151608e-09	-9.321555e+00	3.358959e+02
2.620000e-06	-1.371445e-06	4.760377e-09	-1.002903e+01	3.102759e+02
2.630000e-06	-1.467740e-06	4.358127e-09	-1.073321e+01	2.837362e+02
2.640000e-06	-1.563595e-06	3.940111e-09	-1.143418e+01	2.562087e+02
2.650000e-06	-1.658909e-06	3.501545e-09	-1.213118e+01	2.276202e+02
2.660000e-06	-1.753541e-06	3.045270e-09	-1.282320e+01	1.978971e+02
2.670000e-06	-1.847376e-06	2.573760e-09	-1.350939e+01	1.669711e+02
2.680000e-06	-1.940332e-06	2.084190e-09	-1.418916e+01	1.347840e+02
2.690000e-06	-2.032423e-06	1.575446e-09	-1.486260e+01	1.012917e+02
2.700000e-06	-2.123829e-06	1.045290e-09	-1.553102e+01	6.646739e+01
2.710000e-06	-2.214576e-06	4.928520e-10	-1.619463e+01	3.030465e+01
2.720000e-06	-2.304498e-06	-8.119874e-11	-1.685221e+01	-7.180610e+00
2.730000e-06	-2.393559e-06	-6.753147e-10	-1.750349e+01	-4.594752e+01
2.740000e-06	-2.481871e-06	-1.285764e-09	-1.814929e+01	-8.592782e+01
2.750000e-06	-2.569498e-06	-1.912466e-09	-1.879009e+01	-1.270236e+02
2.760000e-06	-2.656231e-06	-2.554026e-09	-1.942435e+01	-1.691055e+02
2.770000e-06	-2.741776e-06	-3.208932e-09	-2.004992e+01	-2.120126e+02
2.780000e-06	-2.826149e-06	-3.874875e-09	-2.066691e+01	-2.555536e+02
2.790000e-06	-2.909661e-06	-4.547192e-09	-2.127761e+01	-2.995109e+02
2.800000e-06	-2.992338e-06	-5.223246e-09	-2.188221e+01	-3.436464e+02
2.810000e-06	-3.073993e-06	-5.898398e-09	-2.247933e+01	-3.877093e+02
2.820000e-06	-3.154594e-06	-6.567403e-09	-2.306875e+01	-4.314453e+02
2.830000e-06	-3.234193e-06	-7.225174e-09	-2.365083e+01	-4.746057e+02
2.840000e-06	-3.312512e-06	-7.869573e-09	-2.422356e+01	-5.169553e+02
2.850000e-06	-3.389337e-06	-8.500854e-09	-2.478536e+01	-5.582805e+02
2.860000e-06	-3.464797e-06	-9.116404e-09	-2.533718e+01	-5.983931e+02
2.870000e-06	-3.538958e-06	-9.712051e-09	-2.587950e+01	-6.371346e+02
2.880000e-06	-3.611852e-06	-1.028363e-08	-2.641256e+01	-6.743767e+02
2.890000e-06	-3.683565e-06	-1.083238e-08	-2.693698e+01	-7.100222e+02
2.900000e-06	-3.753840e-06	-1.135560e-08	-2.745088e+01	-7.440035e+02
2.910000e-06	-3.822510e-06	-1.184921e-08	-2.795304e+01	-7.762814e+02
2.920000e-06	-3.889871e-06	-1.231541e-08	-2.844564e+01	-8.068431e+02
2.930000e-06	-3.955971e-06	-1.275766e-08	-2.892901e+01	-8.357000e+02
2.940000e-06	-4.020726e-06	-1.317681e-08	-2.940255e+01	-8.628841e+02
