# Temperatura_=_44.82
# Concentracion g/m^3_=_26700.0
# C_Vs_to_Am_M_A/Vsm_=_65563218390.804596
# pendiente_HvsI_1/m_=_3716.3
# ordenada_HvsI_A/m_=_1297.0
# frecuencia_Hz_=_301840.24314190587

Tiempo_(s)	Campo_(V.s)	Magnetizacion_(V.s)	Campo_(kA/m)	Magnetizacion_(A/m)
0.000000e+00	-5.228810e-06	-1.949902e-08	-3.827908e+01	-1.274293e+03
1.000000e-08	-5.226406e-06	-1.950000e-08	-3.826148e+01	-1.274334e+03
2.000000e-08	-5.222221e-06	-1.949497e-08	-3.823084e+01	-1.274200e+03
3.000000e-08	-5.216431e-06	-1.948803e-08	-3.818846e+01	-1.273887e+03
4.000000e-08	-5.209074e-06	-1.947917e-08	-3.813460e+01	-1.273375e+03
5.000000e-08	-5.199967e-06	-1.946714e-08	-3.806793e+01	-1.272641e+03
6.000000e-08	-5.188883e-06	-1.945256e-08	-3.798678e+01	-1.271661e+03
7.000000e-08	-5.176032e-06	-1.943190e-08	-3.789270e+01	-1.270418e+03
8.000000e-08	-5.161177e-06	-1.940662e-08	-3.778395e+01	-1.268915e+03
9.000000e-08	-5.144029e-06	-1.941566e-08	-3.765842e+01	-1.267172e+03
1.000000e-07	-5.124871e-06	-1.939772e-08	-3.751816e+01	-1.265228e+03
1.100000e-07	-5.103878e-06	-1.933652e-08	-3.736448e+01	-1.263135e+03
1.200000e-07	-5.081152e-06	-1.929613e-08	-3.719810e+01	-1.260946e+03
1.300000e-07	-5.056945e-06	-1.922332e-08	-3.702089e+01	-1.258707e+03
1.400000e-07	-5.031215e-06	-1.914952e-08	-3.683252e+01	-1.256446e+03
1.500000e-07	-5.003842e-06	-1.920637e-08	-3.663213e+01	-1.254166e+03
1.600000e-07	-4.975014e-06	-1.914031e-08	-3.642109e+01	-1.251844e+03
1.700000e-07	-4.944813e-06	-1.905542e-08	-3.620000e+01	-1.249435e+03
1.800000e-07	-4.912846e-06	-1.910367e-08	-3.596597e+01	-1.246883e+03
1.900000e-07	-4.878788e-06	-1.897474e-08	-3.571664e+01	-1.244129e+03
2.000000e-07	-4.843091e-06	-1.888772e-08	-3.545531e+01	-1.241124e+03
2.100000e-07	-4.805823e-06	-1.891796e-08	-3.518247e+01	-1.237837e+03
2.200000e-07	-4.766870e-06	-1.882740e-08	-3.489731e+01	-1.234261e+03
2.300000e-07	-4.726181e-06	-1.876716e-08	-3.459944e+01	-1.230411e+03
2.400000e-07	-4.683509e-06	-1.872752e-08	-3.428704e+01	-1.226317e+03
2.500000e-07	-4.639062e-06	-1.861613e-08	-3.396165e+01	-1.222019e+03
2.600000e-07	-4.592931e-06	-1.856294e-08	-3.362393e+01	-1.217557e+03
2.700000e-07	-4.544985e-06	-1.849774e-08	-3.327293e+01	-1.212960e+03
2.800000e-07	-4.495024e-06	-1.843780e-08	-3.290718e+01	-1.208245e+03
2.900000e-07	-4.442972e-06	-1.836844e-08	-3.252611e+01	-1.203414e+03
3.000000e-07	-4.389100e-06	-1.826705e-08	-3.213173e+01	-1.198456e+03
3.100000e-07	-4.333777e-06	-1.818890e-08	-3.172672e+01	-1.193355e+03
3.200000e-07	-4.276843e-06	-1.811554e-08	-3.130992e+01	-1.188092e+03
3.300000e-07	-4.218150e-06	-1.803499e-08	-3.088024e+01	-1.182655e+03
3.400000e-07	-4.157994e-06	-1.792879e-08	-3.043985e+01	-1.177039e+03
3.500000e-07	-4.096449e-06	-1.784127e-08	-2.998929e+01	-1.171245e+03
3.600000e-07	-4.033574e-06	-1.776066e-08	-2.952899e+01	-1.165283e+03
3.700000e-07	-3.969348e-06	-1.765497e-08	-2.905881e+01	-1.159162e+03
3.800000e-07	-3.903523e-06	-1.757399e-08	-2.857692e+01	-1.152892e+03
3.900000e-07	-3.836101e-06	-1.748810e-08	-2.808333e+01	-1.146477e+03
4.000000e-07	-3.767348e-06	-1.737166e-08	-2.758000e+01	-1.139913e+03
4.100000e-07	-3.697354e-06	-1.725622e-08	-2.706760e+01	-1.133193e+03
4.200000e-07	-3.626226e-06	-1.714530e-08	-2.654688e+01	-1.126306e+03
4.300000e-07	-3.553938e-06	-1.704427e-08	-2.601768e+01	-1.119241e+03
4.400000e-07	-3.480068e-06	-1.693509e-08	-2.547689e+01	-1.111990e+03
4.500000e-07	-3.404607e-06	-1.682626e-08	-2.492446e+01	-1.104551e+03
4.600000e-07	-3.327915e-06	-1.670856e-08	-2.436301e+01	-1.096925e+03
4.700000e-07	-3.249933e-06	-1.657942e-08	-2.379211e+01	-1.089119e+03
4.800000e-07	-3.170543e-06	-1.645923e-08	-2.321091e+01	-1.081137e+03
4.900000e-07	-3.089903e-06	-1.633587e-08	-2.262056e+01	-1.072983e+03
5.000000e-07	-3.008191e-06	-1.621072e-08	-2.202237e+01	-1.064658e+03
5.100000e-07	-2.925498e-06	-1.607455e-08	-2.141699e+01	-1.056155e+03
5.200000e-07	-2.841948e-06	-1.593726e-08	-2.080534e+01	-1.047465e+03
5.300000e-07	-2.757592e-06	-1.580023e-08	-2.018778e+01	-1.038576e+03
5.400000e-07	-2.672315e-06	-1.565892e-08	-1.956349e+01	-1.029477e+03
5.500000e-07	-2.586108e-06	-1.552204e-08	-1.893238e+01	-1.020160e+03
5.600000e-07	-2.499040e-06	-1.537981e-08	-1.829497e+01	-1.010620e+03
5.700000e-07	-2.411093e-06	-1.522648e-08	-1.765114e+01	-1.000858e+03
5.800000e-07	-2.322100e-06	-1.506413e-08	-1.699963e+01	-9.908745e+02
5.900000e-07	-2.232024e-06	-1.490541e-08	-1.634020e+01	-9.806737e+02
6.000000e-07	-2.141032e-06	-1.474750e-08	-1.567407e+01	-9.702563e+02
6.100000e-07	-2.049320e-06	-1.458471e-08	-1.500267e+01	-9.596199e+02
6.200000e-07	-1.956998e-06	-1.441799e-08	-1.432680e+01	-9.487579e+02
6.300000e-07	-1.863966e-06	-1.424636e-08	-1.364573e+01	-9.376603e+02
6.400000e-07	-1.770240e-06	-1.407122e-08	-1.295957e+01	-9.263154e+02
6.500000e-07	-1.675963e-06	-1.389503e-08	-1.226939e+01	-9.147122e+02
6.600000e-07	-1.581147e-06	-1.371592e-08	-1.157527e+01	-9.028419e+02
6.700000e-07	-1.485766e-06	-1.352834e-08	-1.087700e+01	-8.906991e+02
6.800000e-07	-1.389871e-06	-1.333446e-08	-1.017497e+01	-8.782814e+02
6.900000e-07	-1.293499e-06	-1.313935e-08	-9.469447e+00	-8.655880e+02
7.000000e-07	-1.196551e-06	-1.294408e-08	-8.759715e+00	-8.526176e+02
7.100000e-07	-1.099080e-06	-1.274455e-08	-8.046149e+00	-8.393663e+02
7.200000e-07	-1.001181e-06	-1.253992e-08	-7.329450e+00	-8.258266e+02
7.300000e-07	-9.028575e-07	-1.232943e-08	-6.609641e+00	-8.119868e+02
7.400000e-07	-8.042465e-07	-1.211184e-08	-5.887729e+00	-7.978327e+02
7.500000e-07	-7.053970e-07	-1.189044e-08	-5.164071e+00	-7.833486e+02
7.600000e-07	-6.062762e-07	-1.166606e-08	-4.438428e+00	-7.685203e+02
7.700000e-07	-5.068565e-07	-1.143611e-08	-3.710596e+00	-7.533357e+02
7.800000e-07	-4.072532e-07	-1.119841e-08	-2.981420e+00	-7.377852e+02
7.900000e-07	-3.075797e-07	-1.095386e-08	-2.251730e+00	-7.218604e+02
8.000000e-07	-2.077825e-07	-1.070460e-08	-1.521134e+00	-7.055516e+02
8.100000e-07	-1.078797e-07	-1.045178e-08	-7.897656e-01	-6.888444e+02
8.200000e-07	-7.925009e-09	-1.019312e-08	-5.801742e-02	-6.717171e+02
8.300000e-07	9.202440e-08	-9.926237e-09	6.736924e-01	-6.541394e+02
8.400000e-07	1.919553e-07	-9.652097e-09	1.405266e+00	-6.360726e+02
8.500000e-07	2.918621e-07	-9.369421e-09	2.136665e+00	-6.174721e+02
8.600000e-07	3.916451e-07	-9.076666e-09	2.867156e+00	-5.982907e+02
8.700000e-07	4.913060e-07	-8.772565e-09	3.596753e+00	-5.784831e+02
8.800000e-07	5.909057e-07	-8.457678e-09	4.325903e+00	-5.580085e+02
8.900000e-07	6.903823e-07	-8.133614e-09	5.054152e+00	-5.368328e+02
9.000000e-07	7.896117e-07	-7.800034e-09	5.780590e+00	-5.149269e+02
9.100000e-07	8.885672e-07	-7.455459e-09	6.505024e+00	-4.922639e+02
9.200000e-07	9.871531e-07	-7.099846e-09	7.226752e+00	-4.688139e+02
9.300000e-07	1.085259e-06	-6.731733e-09	7.944967e+00	-4.445388e+02
9.400000e-07	1.182872e-06	-6.347817e-09	8.659573e+00	-4.193877e+02
9.500000e-07	1.279952e-06	-5.947689e-09	9.370271e+00	-3.932950e+02
9.600000e-07	1.376441e-06	-5.532966e-09	1.007665e+01	-3.661806e+02
9.700000e-07	1.472304e-06	-5.104302e-09	1.077845e+01	-3.379532e+02
9.800000e-07	1.567583e-06	-4.655542e-09	1.147597e+01	-3.085160e+02
9.900000e-07	1.662313e-06	-4.185592e-09	1.216946e+01	-2.777726e+02
1.000000e-06	1.756494e-06	-3.695577e-09	1.285895e+01	-2.456336e+02
1.010000e-06	1.850053e-06	-3.184282e-09	1.354387e+01	-2.120213e+02
1.020000e-06	1.942988e-06	-2.648638e-09	1.422423e+01	-1.768727e+02
1.030000e-06	2.035328e-06	-2.088556e-09	1.490023e+01	-1.401412e+02
1.040000e-06	2.127057e-06	-1.504379e-09	1.557176e+01	-1.017973e+02
1.050000e-06	2.218100e-06	-8.942723e-10	1.623827e+01	-6.183007e+01
1.060000e-06	2.308221e-06	-2.587130e-10	1.689803e+01	-2.024940e+01
1.070000e-06	2.397304e-06	3.999787e-10	1.755019e+01	2.290959e+01
1.080000e-06	2.485424e-06	1.080901e-09	1.819530e+01	6.758038e+01
1.090000e-06	2.572695e-06	1.782867e-09	1.883419e+01	1.136582e+02
1.100000e-06	2.659090e-06	2.503887e-09	1.946667e+01	1.609938e+02
1.110000e-06	2.744558e-06	3.241140e-09	2.009237e+01	2.093897e+02
1.120000e-06	2.829137e-06	3.992258e-09	2.071155e+01	2.586008e+02
1.130000e-06	2.912887e-06	4.751283e-09	2.132467e+01	3.083393e+02
1.140000e-06	2.995797e-06	5.513682e-09	2.193164e+01	3.582853e+02
1.150000e-06	3.077669e-06	6.274909e-09	2.253100e+01	4.081009e+02
1.160000e-06	3.158342e-06	7.027953e-09	2.312159e+01	4.574466e+02
1.170000e-06	3.237875e-06	7.767436e-09	2.370384e+01	5.059972e+02
1.180000e-06	3.316302e-06	8.487358e-09	2.427799e+01	5.534565e+02
1.190000e-06	3.393543e-06	9.185889e-09	2.484346e+01	5.995666e+02
1.200000e-06	3.469584e-06	9.862091e-09	2.540014e+01	6.441141e+02
1.210000e-06	3.544351e-06	1.051419e-08	2.594749e+01	6.869302e+02
1.220000e-06	3.617566e-06	1.113742e-08	2.648348e+01	7.278889e+02
1.230000e-06	3.689244e-06	1.172917e-08	2.700822e+01	7.669020e+02
1.240000e-06	3.759633e-06	1.228901e-08	2.752353e+01	8.039140e+02
1.250000e-06	3.828751e-06	1.281669e-08	2.802953e+01	8.388980e+02
1.260000e-06	3.896625e-06	1.331386e-08	2.852642e+01	8.718523e+02
1.270000e-06	3.963211e-06	1.378282e-08	2.901388e+01	9.027990e+02
1.280000e-06	4.028175e-06	1.422149e-08	2.948947e+01	9.317826e+02
1.290000e-06	4.091473e-06	1.463017e-08	2.995286e+01	9.588686e+02
1.300000e-06	4.153350e-06	1.501090e-08	3.040585e+01	9.841408e+02
1.310000e-06	4.213904e-06	1.536518e-08	3.084916e+01	1.007698e+03
1.320000e-06	4.273178e-06	1.569932e-08	3.128309e+01	1.029647e+03
1.330000e-06	4.330875e-06	1.601354e-08	3.170548e+01	1.050098e+03
1.340000e-06	4.386782e-06	1.630306e-08	3.211476e+01	1.069158e+03
1.350000e-06	4.441073e-06	1.656900e-08	3.251221e+01	1.086925e+03
1.360000e-06	4.493724e-06	1.681646e-08	3.289766e+01	1.103486e+03
1.370000e-06	4.544464e-06	1.704732e-08	3.326912e+01	1.118918e+03
1.380000e-06	4.593232e-06	1.726267e-08	3.362614e+01	1.133285e+03
1.390000e-06	4.640277e-06	1.746373e-08	3.397055e+01	1.146646e+03
1.400000e-06	4.685752e-06	1.765098e-08	3.430346e+01	1.159053e+03
1.410000e-06	4.729700e-06	1.782561e-08	3.462520e+01	1.170558e+03
1.420000e-06	4.771980e-06	1.798777e-08	3.493472e+01	1.181214e+03
1.430000e-06	4.812418e-06	1.813767e-08	3.523076e+01	1.191073e+03
1.440000e-06	4.851206e-06	1.827729e-08	3.551472e+01	1.200185e+03
1.450000e-06	4.888431e-06	1.840749e-08	3.578723e+01	1.208599e+03
1.460000e-06	4.924033e-06	1.852725e-08	3.604787e+01	1.216361e+03
1.470000e-06	4.957796e-06	1.863547e-08	3.629504e+01	1.223512e+03
1.480000e-06	4.989641e-06	1.873277e-08	3.652817e+01	1.230089e+03
1.490000e-06	5.019807e-06	1.882291e-08	3.674901e+01	1.236128e+03
1.500000e-06	5.048417e-06	1.890702e-08	3.695846e+01	1.241662e+03
1.510000e-06	5.075400e-06	1.898577e-08	3.715600e+01	1.246725e+03
1.520000e-06	5.100352e-06	1.905812e-08	3.733867e+01	1.251351e+03
1.530000e-06	5.123315e-06	1.912346e-08	3.750677e+01	1.255569e+03
1.540000e-06	5.144620e-06	1.918299e-08	3.766274e+01	1.259408e+03
1.550000e-06	5.164267e-06	1.923612e-08	3.780657e+01	1.262890e+03
1.560000e-06	5.182087e-06	1.928269e-08	3.793703e+01	1.266029e+03
1.570000e-06	5.197887e-06	1.932352e-08	3.805270e+01	1.268831e+03
1.580000e-06	5.211706e-06	1.935947e-08	3.815386e+01	1.271297e+03
1.590000e-06	5.223583e-06	1.939179e-08	3.824082e+01	1.273425e+03
1.600000e-06	5.233322e-06	1.941902e-08	3.831211e+01	1.275216e+03
1.610000e-06	5.240996e-06	1.944172e-08	3.836829e+01	1.276674e+03
1.620000e-06	5.246873e-06	1.946062e-08	3.841132e+01	1.277815e+03
1.630000e-06	5.251029e-06	1.947498e-08	3.844174e+01	1.278663e+03
1.640000e-06	5.253282e-06	1.948579e-08	3.845824e+01	1.279250e+03
1.650000e-06	5.253523e-06	1.949358e-08	3.846000e+01	1.279608e+03
1.660000e-06	5.252012e-06	1.949513e-08	3.844894e+01	1.279767e+03
1.670000e-06	5.248934e-06	1.949258e-08	3.842640e+01	1.279747e+03
1.680000e-06	5.244290e-06	1.948927e-08	3.839241e+01	1.279550e+03
1.690000e-06	5.237789e-06	1.948394e-08	3.834481e+01	1.279169e+03
1.700000e-06	5.229456e-06	1.947659e-08	3.828381e+01	1.278582e+03
1.710000e-06	5.219597e-06	1.946886e-08	3.821163e+01	1.277763e+03
1.720000e-06	5.208169e-06	1.945939e-08	3.812797e+01	1.276691e+03
1.730000e-06	5.194894e-06	1.944907e-08	3.803079e+01	1.275355e+03
1.740000e-06	5.179585e-06	1.937574e-08	3.791872e+01	1.273763e+03
1.750000e-06	5.162118e-06	1.933486e-08	3.779084e+01	1.271944e+03
1.760000e-06	5.142183e-06	1.933975e-08	3.764490e+01	1.269941e+03
1.770000e-06	5.119795e-06	1.930729e-08	3.748100e+01	1.267808e+03
1.780000e-06	5.095741e-06	1.934635e-08	3.730491e+01	1.265598e+03
1.790000e-06	5.070922e-06	1.928638e-08	3.712321e+01	1.263350e+03
1.800000e-06	5.045087e-06	1.915463e-08	3.693408e+01	1.261084e+03
1.810000e-06	5.017384e-06	1.921844e-08	3.673127e+01	1.258793e+03
1.820000e-06	4.987826e-06	1.913839e-08	3.651489e+01	1.256447e+03
1.830000e-06	4.956556e-06	1.903758e-08	3.628597e+01	1.253994e+03
1.840000e-06	4.923359e-06	1.913562e-08	3.604293e+01	1.251377e+03
1.850000e-06	4.888509e-06	1.900269e-08	3.578781e+01	1.248539e+03
1.860000e-06	4.852009e-06	1.891330e-08	3.552059e+01	1.245436e+03
1.870000e-06	4.813497e-06	1.895914e-08	3.523865e+01	1.242046e+03
1.880000e-06	4.773309e-06	1.881131e-08	3.494445e+01	1.238370e+03
1.890000e-06	4.731474e-06	1.878961e-08	3.463818e+01	1.234429e+03
1.900000e-06	4.687919e-06	1.876026e-08	3.431932e+01	1.230259e+03
1.910000e-06	4.642781e-06	1.864701e-08	3.398888e+01	1.225899e+03
1.920000e-06	4.595805e-06	1.864084e-08	3.364498e+01	1.221386e+03
1.930000e-06	4.547159e-06	1.850344e-08	3.328885e+01	1.216747e+03
1.940000e-06	4.496867e-06	1.845660e-08	3.292067e+01	1.211992e+03
1.950000e-06	4.444705e-06	1.842071e-08	3.253880e+01	1.207118e+03
1.960000e-06	4.390650e-06	1.829405e-08	3.214308e+01	1.202111e+03
1.970000e-06	4.334754e-06	1.824934e-08	3.173388e+01	1.196955e+03
1.980000e-06	4.277273e-06	1.813475e-08	3.131307e+01	1.191632e+03
1.990000e-06	4.218350e-06	1.807816e-08	3.088170e+01	1.186132e+03
2.000000e-06	4.158096e-06	1.800350e-08	3.044060e+01	1.180452e+03
2.010000e-06	4.096291e-06	1.788647e-08	2.998813e+01	1.174597e+03
2.020000e-06	4.032739e-06	1.783433e-08	2.952288e+01	1.168578e+03
2.030000e-06	3.967770e-06	1.769163e-08	2.904726e+01	1.162404e+03
2.040000e-06	3.901442e-06	1.760954e-08	2.856168e+01	1.156083e+03
2.050000e-06	3.833798e-06	1.752835e-08	2.806647e+01	1.149615e+03
2.060000e-06	3.764867e-06	1.741676e-08	2.756185e+01	1.142998e+03
2.070000e-06	3.694377e-06	1.733409e-08	2.704580e+01	1.136220e+03
2.080000e-06	3.622461e-06	1.720428e-08	2.651931e+01	1.129271e+03
2.090000e-06	3.549332e-06	1.710839e-08	2.598395e+01	1.122141e+03
2.100000e-06	3.475014e-06	1.698699e-08	2.543989e+01	1.114824e+03
2.110000e-06	3.399427e-06	1.688356e-08	2.488653e+01	1.107318e+03
2.120000e-06	3.322409e-06	1.678150e-08	2.432269e+01	1.099628e+03
2.130000e-06	3.243946e-06	1.664451e-08	2.374829e+01	1.091759e+03
2.140000e-06	3.164189e-06	1.652757e-08	2.316440e+01	1.083716e+03
2.150000e-06	3.083300e-06	1.639766e-08	2.257223e+01	1.075502e+03
2.160000e-06	3.001329e-06	1.627915e-08	2.197213e+01	1.067115e+03
2.170000e-06	2.918381e-06	1.614250e-08	2.136489e+01	1.058547e+03
2.180000e-06	2.834528e-06	1.601342e-08	2.075102e+01	1.049788e+03
2.190000e-06	2.749691e-06	1.588787e-08	2.012994e+01	1.040826e+03
2.200000e-06	2.663624e-06	1.573907e-08	1.949986e+01	1.031651e+03
2.210000e-06	2.576384e-06	1.559553e-08	1.886120e+01	1.022255e+03
2.220000e-06	2.488292e-06	1.545165e-08	1.821629e+01	1.012636e+03
2.230000e-06	2.399360e-06	1.531122e-08	1.756524e+01	1.002795e+03
2.240000e-06	2.309604e-06	1.515410e-08	1.690816e+01	9.927345e+02
2.250000e-06	2.219121e-06	1.499849e-08	1.624574e+01	9.824571e+02
2.260000e-06	2.127897e-06	1.484260e-08	1.557791e+01	9.719627e+02
2.270000e-06	2.035979e-06	1.467881e-08	1.490500e+01	9.612474e+02
2.280000e-06	1.943411e-06	1.451397e-08	1.422732e+01	9.503032e+02
2.290000e-06	1.850152e-06	1.434575e-08	1.354460e+01	9.391193e+02
2.300000e-06	1.756102e-06	1.417709e-08	1.285608e+01	9.276840e+02
2.310000e-06	1.661265e-06	1.400043e-08	1.216179e+01	9.159869e+02
2.320000e-06	1.565736e-06	1.381654e-08	1.146244e+01	9.040204e+02
2.330000e-06	1.469673e-06	1.362705e-08	1.075918e+01	8.917802e+02
2.340000e-06	1.373206e-06	1.343573e-08	1.005297e+01	8.792648e+02
2.350000e-06	1.276358e-06	1.323998e-08	9.343963e+00	8.664734e+02
2.360000e-06	1.179110e-06	1.304089e-08	8.632033e+00	8.534040e+02
2.370000e-06	1.081496e-06	1.283711e-08	7.917420e+00	8.400514e+02
2.380000e-06	9.835575e-07	1.263021e-08	7.200429e+00	8.264067e+02
2.390000e-06	8.852634e-07	1.242110e-08	6.480838e+00	8.124571e+02
2.400000e-06	7.866918e-07	1.220257e-08	5.759215e+00	7.981876e+02
2.410000e-06	6.879002e-07	1.197792e-08	5.035981e+00	7.835828e+02
2.420000e-06	5.889389e-07	1.174912e-08	4.311504e+00	7.686291e+02
2.430000e-06	4.898950e-07	1.151418e-08	3.586424e+00	7.533155e+02
2.440000e-06	3.907597e-07	1.127238e-08	2.860674e+00	7.376330e+02
2.450000e-06	2.914979e-07	1.102716e-08	2.133998e+00	7.215730e+02
2.460000e-06	1.921179e-07	1.077797e-08	1.406457e+00	7.051246e+02
2.470000e-06	9.266138e-08	1.052032e-08	6.783556e-01	6.882709e+02
2.480000e-06	-6.818326e-09	1.025443e-08	-4.991561e-02	6.709874e+02
2.490000e-06	-1.062869e-07	9.981890e-09	-7.781054e-01	6.532405e+02
2.500000e-06	-2.057478e-07	9.702813e-09	-1.506239e+00	6.349891e+02
2.510000e-06	-3.051570e-07	9.416416e-09	-2.233994e+00	6.161872e+02
2.520000e-06	-4.044781e-07	9.121494e-09	-2.961104e+00	5.967879e+02
2.530000e-06	-5.037225e-07	8.815351e-09	-3.687652e+00	5.767470e+02
2.540000e-06	-6.028413e-07	8.498014e-09	-4.413282e+00	5.560264e+02
2.550000e-06	-7.018128e-07	8.171173e-09	-5.137832e+00	5.345937e+02
2.560000e-06	-8.005666e-07	7.834252e-09	-5.860789e+00	5.124212e+02
2.570000e-06	-8.990457e-07	7.485254e-09	-6.581735e+00	4.894815e+02
2.580000e-06	-9.972380e-07	7.122886e-09	-7.300582e+00	4.657425e+02
2.590000e-06	-1.095018e-06	6.746833e-09	-8.016406e+00	4.411617e+02
2.600000e-06	-1.192413e-06	6.357980e-09	-8.729420e+00	4.156834e+02
2.610000e-06	-1.289466e-06	5.953845e-09	-9.439923e+00	3.892364e+02
2.620000e-06	-1.386097e-06	5.532370e-09	-1.014734e+01	3.617360e+02
2.630000e-06	-1.482266e-06	5.093535e-09	-1.085138e+01	3.330885e+02
2.640000e-06	-1.577930e-06	4.637502e-09	-1.155171e+01	3.031962e+02
2.650000e-06	-1.673012e-06	4.162710e-09	-1.224779e+01	2.719648e+02
2.660000e-06	-1.767372e-06	3.664593e-09	-1.293858e+01	2.393085e+02
2.670000e-06	-1.860856e-06	3.142715e-09	-1.362296e+01	2.051546e+02
2.680000e-06	-1.953494e-06	2.597156e-09	-1.430114e+01	1.694458e+02
2.690000e-06	-2.045428e-06	2.028380e-09	-1.497417e+01	1.321416e+02
2.700000e-06	-2.136703e-06	1.434488e-09	-1.564238e+01	9.321886e+01
2.710000e-06	-2.227233e-06	8.150690e-10	-1.630513e+01	5.267375e+01
2.720000e-06	-2.316905e-06	1.716103e-10	-1.696160e+01	1.052455e+01
2.730000e-06	-2.405745e-06	-4.965755e-10	-1.761198e+01	-3.318317e+01
2.740000e-06	-2.493870e-06	-1.186289e-09	-1.825713e+01	-7.837002e+01
2.750000e-06	-2.581255e-06	-1.897145e-09	-1.889685e+01	-1.249160e+02
2.760000e-06	-2.667700e-06	-2.625607e-09	-1.952970e+01	-1.726548e+02
2.770000e-06	-2.752995e-06	-3.367580e-09	-2.015413e+01	-2.213717e+02
2.780000e-06	-2.837180e-06	-4.121106e-09	-2.077043e+01	-2.708054e+02
2.790000e-06	-2.920451e-06	-4.881719e-09	-2.138004e+01	-3.206553e+02
2.800000e-06	-3.002786e-06	-5.644768e-09	-2.198280e+01	-3.705934e+02
2.810000e-06	-3.084124e-06	-6.404040e-09	-2.257826e+01	-4.202790e+02
2.820000e-06	-3.164448e-06	-7.153446e-09	-2.316629e+01	-4.693761e+02
2.830000e-06	-3.243711e-06	-7.888760e-09	-2.374657e+01	-5.175685e+02
2.840000e-06	-3.321696e-06	-8.605883e-09	-2.431747e+01	-5.645727e+02
2.850000e-06	-3.398188e-06	-9.304585e-09	-2.487746e+01	-6.101462e+02
2.860000e-06	-3.473302e-06	-9.981195e-09	-2.542735e+01	-6.540917e+02
2.870000e-06	-3.547159e-06	-1.062748e-08	-2.596805e+01	-6.962562e+02
2.880000e-06	-3.619830e-06	-1.124424e-08	-2.650006e+01	-7.365277e+02
2.890000e-06	-3.691264e-06	-1.183210e-08	-2.702301e+01	-7.748302e+02
2.900000e-06	-3.761179e-06	-1.239054e-08	-2.753484e+01	-8.111190e+02
2.910000e-06	-3.829609e-06	-1.291677e-08	-2.803581e+01	-8.453763e+02
2.920000e-06	-3.896721e-06	-1.340971e-08	-2.852712e+01	-8.776093e+02
2.930000e-06	-3.962478e-06	-1.387336e-08	-2.900852e+01	-9.078480e+02
2.940000e-06	-4.026896e-06	-1.430887e-08	-2.948010e+01	-9.361446e+02
