# Temperatura_=_71.97
# Concentracion g/m^3_=_26700.0
# C_Vs_to_Am_M_A/Vsm_=_65563218390.804596
# pendiente_HvsI_1/m_=_3716.3
# ordenada_HvsI_A/m_=_1297.0
# frecuencia_Hz_=_301829.3966732815

Tiempo_(s)	Campo_(V.s)	Magnetizacion_(V.s)	Campo_(kA/m)	Magnetizacion_(A/m)
0.000000e+00	-5.235726e-06	-2.170982e-08	-3.827324e+01	-1.419157e+03
1.000000e-08	-5.232697e-06	-2.171097e-08	-3.825110e+01	-1.419125e+03
2.000000e-08	-5.227977e-06	-2.170528e-08	-3.821660e+01	-1.418903e+03
3.000000e-08	-5.221644e-06	-2.169680e-08	-3.817030e+01	-1.418483e+03
4.000000e-08	-5.213793e-06	-2.168420e-08	-3.811291e+01	-1.417848e+03
5.000000e-08	-5.204178e-06	-2.166690e-08	-3.804262e+01	-1.416980e+03
6.000000e-08	-5.192513e-06	-2.164713e-08	-3.795735e+01	-1.415867e+03
7.000000e-08	-5.179017e-06	-2.162106e-08	-3.785870e+01	-1.414507e+03
8.000000e-08	-5.163485e-06	-2.161251e-08	-3.774515e+01	-1.412914e+03
9.000000e-08	-5.145716e-06	-2.162645e-08	-3.761526e+01	-1.411115e+03
1.000000e-07	-5.125947e-06	-2.158934e-08	-3.747075e+01	-1.409150e+03
1.100000e-07	-5.104329e-06	-2.152931e-08	-3.731272e+01	-1.407067e+03
1.200000e-07	-5.081083e-06	-2.148811e-08	-3.714279e+01	-1.404907e+03
1.300000e-07	-5.056426e-06	-2.139815e-08	-3.696255e+01	-1.402702e+03
1.400000e-07	-5.030195e-06	-2.137867e-08	-3.677080e+01	-1.400466e+03
1.500000e-07	-5.002309e-06	-2.141116e-08	-3.656696e+01	-1.398193e+03
1.600000e-07	-4.972971e-06	-2.129060e-08	-3.635249e+01	-1.395853e+03
1.700000e-07	-4.942225e-06	-2.126903e-08	-3.612774e+01	-1.393406e+03
1.800000e-07	-4.909582e-06	-2.127865e-08	-3.588912e+01	-1.390800e+03
1.900000e-07	-4.874902e-06	-2.113509e-08	-3.563561e+01	-1.387986e+03
2.000000e-07	-4.838735e-06	-2.112191e-08	-3.537123e+01	-1.384925e+03
2.100000e-07	-4.800977e-06	-2.112339e-08	-3.509521e+01	-1.381595e+03
2.200000e-07	-4.761506e-06	-2.103460e-08	-3.480668e+01	-1.377989e+03
2.300000e-07	-4.720177e-06	-2.098369e-08	-3.450457e+01	-1.374118e+03
2.400000e-07	-4.676866e-06	-2.088852e-08	-3.418796e+01	-1.370005e+03
2.500000e-07	-4.631881e-06	-2.079867e-08	-3.385912e+01	-1.365680e+03
2.600000e-07	-4.585195e-06	-2.074743e-08	-3.351785e+01	-1.361170e+03
2.700000e-07	-4.536600e-06	-2.066756e-08	-3.316261e+01	-1.356496e+03
2.800000e-07	-4.485901e-06	-2.061557e-08	-3.279201e+01	-1.351671e+03
2.900000e-07	-4.433193e-06	-2.052695e-08	-3.240671e+01	-1.346697e+03
3.000000e-07	-4.378859e-06	-2.042280e-08	-3.200953e+01	-1.341569e+03
3.100000e-07	-4.323077e-06	-2.036702e-08	-3.160176e+01	-1.336278e+03
3.200000e-07	-4.265539e-06	-2.029970e-08	-3.118115e+01	-1.330816e+03
3.300000e-07	-4.206249e-06	-2.020212e-08	-3.074774e+01	-1.325176e+03
3.400000e-07	-4.145516e-06	-2.009914e-08	-3.030378e+01	-1.319358e+03
3.500000e-07	-4.083376e-06	-2.001623e-08	-2.984954e+01	-1.313365e+03
3.600000e-07	-4.019963e-06	-1.991322e-08	-2.938599e+01	-1.307203e+03
3.700000e-07	-3.955203e-06	-1.981731e-08	-2.891260e+01	-1.300878e+03
3.800000e-07	-3.888761e-06	-1.974616e-08	-2.842690e+01	-1.294394e+03
3.900000e-07	-3.820687e-06	-1.963883e-08	-2.792928e+01	-1.287749e+03
4.000000e-07	-3.751370e-06	-1.951794e-08	-2.742257e+01	-1.280940e+03
4.100000e-07	-3.680938e-06	-1.940165e-08	-2.690772e+01	-1.273959e+03
4.200000e-07	-3.609418e-06	-1.929314e-08	-2.638490e+01	-1.266796e+03
4.300000e-07	-3.536596e-06	-1.918705e-08	-2.585257e+01	-1.259445e+03
4.400000e-07	-3.462055e-06	-1.907052e-08	-2.530767e+01	-1.251902e+03
4.500000e-07	-3.386039e-06	-1.895167e-08	-2.475200e+01	-1.244166e+03
4.600000e-07	-3.308892e-06	-1.882334e-08	-2.418805e+01	-1.236242e+03
4.700000e-07	-3.230437e-06	-1.869718e-08	-2.361454e+01	-1.228132e+03
4.800000e-07	-3.150474e-06	-1.858005e-08	-2.303002e+01	-1.219841e+03
4.900000e-07	-3.069239e-06	-1.845873e-08	-2.243618e+01	-1.211367e+03
5.000000e-07	-2.986927e-06	-1.832536e-08	-2.183448e+01	-1.202705e+03
5.100000e-07	-2.903700e-06	-1.818079e-08	-2.122609e+01	-1.193844e+03
5.200000e-07	-2.819789e-06	-1.803699e-08	-2.061270e+01	-1.184770e+03
5.300000e-07	-2.735053e-06	-1.788937e-08	-1.999328e+01	-1.175467e+03
5.400000e-07	-2.649357e-06	-1.774003e-08	-1.936684e+01	-1.165922e+03
5.500000e-07	-2.562703e-06	-1.759549e-08	-1.873340e+01	-1.156125e+03
5.600000e-07	-2.475258e-06	-1.744293e-08	-1.809418e+01	-1.146072e+03
5.700000e-07	-2.387025e-06	-1.728050e-08	-1.744919e+01	-1.135766e+03
5.800000e-07	-2.297621e-06	-1.711329e-08	-1.679565e+01	-1.125210e+03
5.900000e-07	-2.207003e-06	-1.694960e-08	-1.613323e+01	-1.114414e+03
6.000000e-07	-2.115599e-06	-1.678429e-08	-1.546506e+01	-1.103381e+03
6.100000e-07	-2.023635e-06	-1.661290e-08	-1.479280e+01	-1.092113e+03
6.200000e-07	-1.930968e-06	-1.643841e-08	-1.411541e+01	-1.080604e+03
6.300000e-07	-1.837553e-06	-1.625764e-08	-1.343254e+01	-1.068841e+03
6.400000e-07	-1.743420e-06	-1.607180e-08	-1.274443e+01	-1.056809e+03
6.500000e-07	-1.648653e-06	-1.588372e-08	-1.205168e+01	-1.044488e+03
6.600000e-07	-1.553474e-06	-1.569100e-08	-1.135592e+01	-1.031860e+03
6.700000e-07	-1.457958e-06	-1.549069e-08	-1.065770e+01	-1.018910e+03
6.800000e-07	-1.361979e-06	-1.528623e-08	-9.956090e+00	-1.005629e+03
6.900000e-07	-1.265433e-06	-1.507987e-08	-9.250332e+00	-9.920119e+02
7.000000e-07	-1.168238e-06	-1.487029e-08	-8.539836e+00	-9.780601e+02
7.100000e-07	-1.070429e-06	-1.465563e-08	-7.824853e+00	-9.637754e+02
7.200000e-07	-9.721030e-07	-1.443665e-08	-7.106088e+00	-9.491591e+02
7.300000e-07	-8.733357e-07	-1.421088e-08	-6.384098e+00	-9.342087e+02
7.400000e-07	-7.742785e-07	-1.397629e-08	-5.659988e+00	-9.189153e+02
7.500000e-07	-6.749912e-07	-1.373494e-08	-4.934196e+00	-9.032630e+02
7.600000e-07	-5.755140e-07	-1.348810e-08	-4.207016e+00	-8.872289e+02
7.700000e-07	-4.759388e-07	-1.323643e-08	-3.479120e+00	-8.707838e+02
7.800000e-07	-3.762938e-07	-1.297862e-08	-2.750713e+00	-8.538948e+02
7.900000e-07	-2.765589e-07	-1.271541e-08	-2.021650e+00	-8.365268e+02
8.000000e-07	-1.767495e-07	-1.244611e-08	-1.292042e+00	-8.186447e+02
8.100000e-07	-7.689783e-08	-1.216911e-08	-5.621243e-01	-8.002143e+02
8.200000e-07	2.300931e-08	-1.188053e-08	1.681984e-01	-7.812030e+02
8.300000e-07	1.229805e-07	-1.157907e-08	8.989893e-01	-7.615794e+02
8.400000e-07	2.229320e-07	-1.126894e-08	1.629636e+00	-7.413118e+02
8.500000e-07	3.227978e-07	-1.094951e-08	2.359657e+00	-7.203675e+02
8.600000e-07	4.226048e-07	-1.061935e-08	3.089248e+00	-6.987103e+02
8.700000e-07	5.223788e-07	-1.027839e-08	3.818597e+00	-6.762995e+02
8.800000e-07	6.220732e-07	-9.926510e-09	4.547365e+00	-6.530877e+02
8.900000e-07	7.216115e-07	-9.560343e-09	5.274991e+00	-6.290201e+02
9.000000e-07	8.209509e-07	-9.177384e-09	6.001164e+00	-6.040332e+02
9.100000e-07	9.200794e-07	-8.779288e-09	6.725794e+00	-5.780540e+02
9.200000e-07	1.018875e-06	-8.367724e-09	7.447994e+00	-5.510003e+02
9.300000e-07	1.117155e-06	-7.939796e-09	8.166422e+00	-5.227804e+02
9.400000e-07	1.214869e-06	-7.489728e-09	8.880713e+00	-4.932935e+02
9.500000e-07	1.311883e-06	-7.016307e-09	9.589884e+00	-4.624316e+02
9.600000e-07	1.408154e-06	-6.522833e-09	1.029363e+01	-4.300802e+02
9.700000e-07	1.503877e-06	-6.007722e-09	1.099337e+01	-3.961205e+02
9.800000e-07	1.599137e-06	-5.463150e-09	1.168971e+01	-3.604321e+02
9.900000e-07	1.693863e-06	-4.889178e-09	1.238216e+01	-3.228963e+02
1.000000e-06	1.787978e-06	-4.288023e-09	1.307015e+01	-2.833995e+02
1.010000e-06	1.881498e-06	-3.657070e-09	1.375378e+01	-2.418392e+02
1.020000e-06	1.974418e-06	-2.992590e-09	1.443302e+01	-1.981300e+02
1.030000e-06	2.066728e-06	-2.293455e-09	1.510781e+01	-1.522113e+02
1.040000e-06	2.158443e-06	-1.557508e-09	1.577825e+01	-1.040568e+02
1.050000e-06	2.249461e-06	-7.842446e-10	1.644359e+01	-5.368409e+01
1.060000e-06	2.339463e-06	2.227863e-11	1.710151e+01	-1.163961e+00
1.070000e-06	2.428272e-06	8.575109e-10	1.775071e+01	5.337087e+01
1.080000e-06	2.516132e-06	1.716462e-09	1.839297e+01	1.097205e+02
1.090000e-06	2.603277e-06	2.596638e-09	1.902999e+01	1.676161e+02
1.100000e-06	2.689578e-06	3.494527e-09	1.966086e+01	2.267236e+02
1.110000e-06	2.774919e-06	4.405397e-09	2.028470e+01	2.866523e+02
1.120000e-06	2.859421e-06	5.324761e-09	2.090241e+01	3.469690e+02
1.130000e-06	2.943159e-06	6.244208e-09	2.151454e+01	4.072160e+02
1.140000e-06	3.025966e-06	7.155713e-09	2.211986e+01	4.669313e+02
1.150000e-06	3.107594e-06	8.051924e-09	2.271656e+01	5.256700e+02
1.160000e-06	3.188060e-06	8.925270e-09	2.330477e+01	5.830223e+02
1.170000e-06	3.267416e-06	9.771212e-09	2.388486e+01	6.386293e+02
1.180000e-06	3.345591e-06	1.058471e-08	2.445632e+01	6.921927e+02
1.190000e-06	3.422563e-06	1.136192e-08	2.501899e+01	7.434800e+02
1.200000e-06	3.498308e-06	1.210047e-08	2.557268e+01	7.923232e+02
1.210000e-06	3.572693e-06	1.280062e-08	2.611644e+01	8.386153e+02
1.220000e-06	3.645511e-06	1.346369e-08	2.664874e+01	8.823021e+02
1.230000e-06	3.716873e-06	1.408762e-08	2.717040e+01	9.233746e+02
1.240000e-06	3.786917e-06	1.467029e-08	2.768242e+01	9.618604e+02
1.250000e-06	3.855638e-06	1.521426e-08	2.818477e+01	9.978169e+02
1.260000e-06	3.923184e-06	1.572053e-08	2.867854e+01	1.031325e+03
1.270000e-06	3.989345e-06	1.619071e-08	2.916217e+01	1.062485e+03
1.280000e-06	4.053818e-06	1.662721e-08	2.963347e+01	1.091413e+03
1.290000e-06	4.116743e-06	1.703141e-08	3.009346e+01	1.118236e+03
1.300000e-06	4.178298e-06	1.740612e-08	3.054342e+01	1.143092e+03
1.310000e-06	4.238582e-06	1.775350e-08	3.098410e+01	1.166119e+03
1.320000e-06	4.297504e-06	1.807779e-08	3.141482e+01	1.187458e+03
1.330000e-06	4.354703e-06	1.837945e-08	3.183294e+01	1.207242e+03
1.340000e-06	4.410177e-06	1.865701e-08	3.223846e+01	1.225598e+03
1.350000e-06	4.464125e-06	1.891438e-08	3.263282e+01	1.242640e+03
1.360000e-06	4.516327e-06	1.915379e-08	3.301442e+01	1.258469e+03
1.370000e-06	4.566512e-06	1.937489e-08	3.338128e+01	1.273175e+03
1.380000e-06	4.614795e-06	1.957868e-08	3.373422e+01	1.286835e+03
1.390000e-06	4.661412e-06	1.976721e-08	3.407499e+01	1.299518e+03
1.400000e-06	4.706495e-06	1.994458e-08	3.440455e+01	1.311285e+03
1.410000e-06	4.750099e-06	2.011233e-08	3.472330e+01	1.322193e+03
1.420000e-06	4.791913e-06	2.026801e-08	3.502896e+01	1.332294e+03
1.430000e-06	4.831888e-06	2.041079e-08	3.532117e+01	1.341638e+03
1.440000e-06	4.870292e-06	2.054328e-08	3.560191e+01	1.350271e+03
1.450000e-06	4.907090e-06	2.066669e-08	3.587090e+01	1.358238e+03
1.460000e-06	4.942213e-06	2.077812e-08	3.612765e+01	1.365583e+03
1.470000e-06	4.975466e-06	2.087795e-08	3.637073e+01	1.372344e+03
1.480000e-06	5.006859e-06	2.097038e-08	3.660021e+01	1.378561e+03
1.490000e-06	5.036592e-06	2.105679e-08	3.681757e+01	1.384272e+03
1.500000e-06	5.064752e-06	2.113675e-08	3.702341e+01	1.389513e+03
1.510000e-06	5.091085e-06	2.121033e-08	3.721591e+01	1.394319e+03
1.520000e-06	5.115348e-06	2.127804e-08	3.739327e+01	1.398721e+03
1.530000e-06	5.137720e-06	2.133957e-08	3.755681e+01	1.402745e+03
1.540000e-06	5.158445e-06	2.139648e-08	3.770832e+01	1.406411e+03
1.550000e-06	5.177543e-06	2.144796e-08	3.784792e+01	1.409733e+03
1.560000e-06	5.194735e-06	2.149295e-08	3.797360e+01	1.412715e+03
1.570000e-06	5.209936e-06	2.153317e-08	3.808472e+01	1.415361e+03
1.580000e-06	5.223210e-06	2.156670e-08	3.818175e+01	1.417669e+03
1.590000e-06	5.234440e-06	2.159445e-08	3.826383e+01	1.419640e+03
1.600000e-06	5.243490e-06	2.161781e-08	3.832999e+01	1.421279e+03
1.610000e-06	5.250596e-06	2.163711e-08	3.838194e+01	1.422600e+03
1.620000e-06	5.255978e-06	2.165353e-08	3.842128e+01	1.423622e+03
1.630000e-06	5.259611e-06	2.166686e-08	3.844784e+01	1.424371e+03
1.640000e-06	5.261275e-06	2.167744e-08	3.846000e+01	1.424877e+03
1.650000e-06	5.261009e-06	2.168371e-08	3.845806e+01	1.425165e+03
1.660000e-06	5.259058e-06	2.168181e-08	3.844380e+01	1.425255e+03
1.670000e-06	5.255528e-06	2.167851e-08	3.841799e+01	1.425156e+03
1.680000e-06	5.250337e-06	2.167590e-08	3.838005e+01	1.424865e+03
1.690000e-06	5.243242e-06	2.166950e-08	3.832818e+01	1.424371e+03
1.700000e-06	5.234466e-06	2.165833e-08	3.826403e+01	1.423655e+03
1.710000e-06	5.224147e-06	2.164658e-08	3.818859e+01	1.422701e+03
1.720000e-06	5.212080e-06	2.164076e-08	3.810039e+01	1.421500e+03
1.730000e-06	5.198076e-06	2.160995e-08	3.799801e+01	1.420055e+03
1.740000e-06	5.182077e-06	2.153474e-08	3.788106e+01	1.418384e+03
1.750000e-06	5.163881e-06	2.151646e-08	3.774805e+01	1.416521e+03
1.760000e-06	5.143076e-06	2.151209e-08	3.759596e+01	1.414509e+03
1.770000e-06	5.119968e-06	2.149802e-08	3.742704e+01	1.412394e+03
1.780000e-06	5.095527e-06	2.151892e-08	3.724838e+01	1.410216e+03
1.790000e-06	5.070372e-06	2.140230e-08	3.706449e+01	1.408000e+03
1.800000e-06	5.043987e-06	2.136124e-08	3.687163e+01	1.405753e+03
1.810000e-06	5.015596e-06	2.143203e-08	3.666408e+01	1.403461e+03
1.820000e-06	4.985336e-06	2.131374e-08	3.644288e+01	1.401089e+03
1.830000e-06	4.953280e-06	2.131094e-08	3.620855e+01	1.398591e+03
1.840000e-06	4.919404e-06	2.136036e-08	3.596092e+01	1.395916e+03
1.850000e-06	4.884045e-06	2.119174e-08	3.570245e+01	1.393018e+03
1.860000e-06	4.846902e-06	2.115617e-08	3.543093e+01	1.389863e+03
1.870000e-06	4.807792e-06	2.112849e-08	3.514503e+01	1.386434e+03
1.880000e-06	4.767071e-06	2.103407e-08	3.484736e+01	1.382732e+03
1.890000e-06	4.724597e-06	2.106108e-08	3.453688e+01	1.378772e+03
1.900000e-06	4.680546e-06	2.096419e-08	3.421486e+01	1.374581e+03
1.910000e-06	4.634858e-06	2.090805e-08	3.388089e+01	1.370187e+03
1.920000e-06	4.587339e-06	2.087036e-08	3.353352e+01	1.365617e+03
1.930000e-06	4.538238e-06	2.072290e-08	3.317459e+01	1.360888e+03
1.940000e-06	4.487331e-06	2.071677e-08	3.280246e+01	1.356011e+03
1.950000e-06	4.434449e-06	2.063575e-08	3.241589e+01	1.350983e+03
1.960000e-06	4.379661e-06	2.052063e-08	3.201539e+01	1.345798e+03
1.970000e-06	4.323164e-06	2.046825e-08	3.160239e+01	1.340448e+03
1.980000e-06	4.265177e-06	2.035449e-08	3.117851e+01	1.334923e+03
1.990000e-06	4.205848e-06	2.029700e-08	3.074481e+01	1.329219e+03
2.000000e-06	4.145214e-06	2.020085e-08	3.030158e+01	1.323339e+03
2.010000e-06	4.082864e-06	2.011312e-08	2.984580e+01	1.317285e+03
2.020000e-06	4.018738e-06	2.002054e-08	2.937704e+01	1.311064e+03
2.030000e-06	3.953246e-06	1.987833e-08	2.889829e+01	1.304683e+03
2.040000e-06	3.886404e-06	1.981239e-08	2.840967e+01	1.298142e+03
2.050000e-06	3.818252e-06	1.970763e-08	2.791148e+01	1.291440e+03
2.060000e-06	3.748660e-06	1.960700e-08	2.740276e+01	1.284570e+03
2.070000e-06	3.677520e-06	1.950794e-08	2.688273e+01	1.277525e+03
2.080000e-06	3.605105e-06	1.939040e-08	2.635338e+01	1.270297e+03
2.090000e-06	3.531504e-06	1.929277e-08	2.581535e+01	1.262878e+03
2.100000e-06	3.456680e-06	1.916390e-08	2.526838e+01	1.255266e+03
2.110000e-06	3.380590e-06	1.906315e-08	2.471217e+01	1.247463e+03
2.120000e-06	3.303009e-06	1.893698e-08	2.414505e+01	1.239472e+03
2.130000e-06	3.223912e-06	1.879519e-08	2.356685e+01	1.231298e+03
2.140000e-06	3.143641e-06	1.866793e-08	2.298006e+01	1.222942e+03
2.150000e-06	3.062301e-06	1.853686e-08	2.238547e+01	1.214402e+03
2.160000e-06	2.979874e-06	1.841048e-08	2.178292e+01	1.205671e+03
2.170000e-06	2.896556e-06	1.827079e-08	2.117387e+01	1.196736e+03
2.180000e-06	2.812427e-06	1.815037e-08	2.055888e+01	1.187583e+03
2.190000e-06	2.727166e-06	1.801651e-08	1.993562e+01	1.178195e+03
2.200000e-06	2.640526e-06	1.786443e-08	1.930229e+01	1.168561e+03
2.210000e-06	2.552834e-06	1.771323e-08	1.866125e+01	1.158673e+03
2.220000e-06	2.464359e-06	1.755899e-08	1.801450e+01	1.148530e+03
2.230000e-06	2.375046e-06	1.740025e-08	1.736162e+01	1.138134e+03
2.240000e-06	2.284942e-06	1.722962e-08	1.670296e+01	1.127492e+03
2.250000e-06	2.194040e-06	1.706767e-08	1.603847e+01	1.116611e+03
2.260000e-06	2.102460e-06	1.690190e-08	1.536902e+01	1.105495e+03
2.270000e-06	2.010398e-06	1.673024e-08	1.469604e+01	1.094142e+03
2.280000e-06	1.917641e-06	1.655781e-08	1.401798e+01	1.082545e+03
2.290000e-06	1.823917e-06	1.638162e-08	1.333286e+01	1.070688e+03
2.300000e-06	1.729273e-06	1.619990e-08	1.264101e+01	1.058556e+03
2.310000e-06	1.633952e-06	1.600675e-08	1.194421e+01	1.046127e+03
2.320000e-06	1.538180e-06	1.580620e-08	1.124412e+01	1.033386e+03
2.330000e-06	1.442014e-06	1.560391e-08	1.054114e+01	1.020319e+03
2.340000e-06	1.345371e-06	1.539989e-08	9.834682e+00	1.006918e+03
2.350000e-06	1.248230e-06	1.519038e-08	9.124583e+00	9.931819e+02
2.360000e-06	1.150715e-06	1.497650e-08	8.411746e+00	9.791113e+02
2.370000e-06	1.052880e-06	1.475729e-08	7.696570e+00	9.647086e+02
2.380000e-06	9.547430e-07	1.453589e-08	6.979186e+00	9.499739e+02
2.390000e-06	8.563468e-07	1.430910e-08	6.259908e+00	9.349028e+02
2.400000e-06	7.576523e-07	1.407209e-08	5.538450e+00	9.194838e+02
2.410000e-06	6.586613e-07	1.382870e-08	4.814824e+00	9.036985e+02
2.420000e-06	5.594480e-07	1.357954e-08	4.089574e+00	8.875216e+02
2.430000e-06	4.600717e-07	1.332320e-08	3.363131e+00	8.709223e+02
2.440000e-06	3.606062e-07	1.306080e-08	2.636037e+00	8.538666e+02
2.450000e-06	2.610772e-07	1.279391e-08	1.908478e+00	8.363194e+02
2.460000e-06	1.614831e-07	1.252017e-08	1.180444e+00	8.182457e+02
2.470000e-06	6.183938e-08	1.223630e-08	4.520468e-01	7.996119e+02
2.480000e-06	-3.786312e-08	1.194278e-08	-2.767800e-01	7.803859e+02
2.490000e-06	-1.375506e-07	1.164174e-08	-1.005497e+00	7.605363e+02
2.500000e-06	-2.371833e-07	1.132976e-08	-1.733814e+00	7.400314e+02
2.510000e-06	-3.367789e-07	1.100403e-08	-2.461859e+00	7.188372e+02
2.520000e-06	-4.362994e-07	1.066510e-08	-3.189355e+00	6.969162e+02
2.530000e-06	-5.357331e-07	1.031516e-08	-3.916217e+00	6.742255e+02
2.540000e-06	-6.350454e-07	9.956446e-09	-4.642192e+00	6.507152e+02
2.550000e-06	-7.341407e-07	9.585669e-09	-5.366580e+00	6.263274e+02
2.560000e-06	-8.329777e-07	9.200612e-09	-6.089080e+00	6.009953e+02
2.570000e-06	-9.314999e-07	8.801244e-09	-6.809278e+00	5.746428e+02
2.580000e-06	-1.029661e-06	8.385165e-09	-7.526837e+00	5.471839e+02
2.590000e-06	-1.127444e-06	7.948981e-09	-8.241635e+00	5.185238e+02
2.600000e-06	-1.224786e-06	7.491395e-09	-8.953204e+00	4.885591e+02
2.610000e-06	-1.321689e-06	7.011491e-09	-9.661565e+00	4.571790e+02
2.620000e-06	-1.418149e-06	6.506422e-09	-1.036669e+01	4.242673e+02
2.630000e-06	-1.514214e-06	5.975196e-09	-1.106893e+01	3.897044e+02
2.640000e-06	-1.609946e-06	5.418489e-09	-1.176873e+01	3.533701e+02
2.650000e-06	-1.705205e-06	4.833985e-09	-1.246508e+01	3.151469e+02
2.660000e-06	-1.799653e-06	4.221342e-09	-1.315549e+01	2.749246e+02
2.670000e-06	-1.893028e-06	3.578574e-09	-1.383806e+01	2.326059e+02
2.680000e-06	-1.985466e-06	2.901283e-09	-1.451379e+01	1.881133e+02
2.690000e-06	-2.077222e-06	2.190585e-09	-1.518453e+01	1.413975e+02
2.700000e-06	-2.168362e-06	1.446341e-09	-1.585076e+01	9.244655e+01
2.710000e-06	-2.258753e-06	6.651093e-10	-1.651152e+01	4.129606e+01
2.720000e-06	-2.348299e-06	-1.511243e-10	-1.716610e+01	-1.196186e+01
2.730000e-06	-2.437032e-06	-9.966536e-10	-1.781474e+01	-6.717098e+01
2.740000e-06	-2.525039e-06	-1.865159e-09	-1.845807e+01	-1.241067e+02
2.750000e-06	-2.612289e-06	-2.753706e-09	-1.909588e+01	-1.824763e+02
2.760000e-06	-2.698482e-06	-3.658693e-09	-1.972594e+01	-2.419242e+02
2.770000e-06	-2.783424e-06	-4.575049e-09	-2.034687e+01	-3.020425e+02
2.780000e-06	-2.867360e-06	-5.497659e-09	-2.096045e+01	-3.623871e+02
2.790000e-06	-2.950461e-06	-6.417490e-09	-2.156791e+01	-4.224964e+02
2.800000e-06	-3.032566e-06	-7.326417e-09	-2.216810e+01	-4.819122e+02
2.810000e-06	-3.113586e-06	-8.217390e-09	-2.276036e+01	-5.402000e+02
2.820000e-06	-3.193641e-06	-9.086212e-09	-2.334556e+01	-5.969668e+02
2.830000e-06	-3.272664e-06	-9.928271e-09	-2.392322e+01	-6.518745e+02
2.840000e-06	-3.350353e-06	-1.073639e-08	-2.449113e+01	-7.046479e+02
2.850000e-06	-3.426583e-06	-1.150762e-08	-2.504837e+01	-7.550779e+02
2.860000e-06	-3.501391e-06	-1.224086e-08	-2.559522e+01	-8.030190e+02
2.870000e-06	-3.574911e-06	-1.293492e-08	-2.613265e+01	-8.483839e+02
2.880000e-06	-3.647246e-06	-1.359062e-08	-2.666142e+01	-8.911356e+02
2.890000e-06	-3.718339e-06	-1.420766e-08	-2.718112e+01	-9.312791e+02
2.900000e-06	-3.787899e-06	-1.478672e-08	-2.768960e+01	-9.688533e+02
2.910000e-06	-3.855937e-06	-1.532826e-08	-2.818696e+01	-1.003925e+03
2.920000e-06	-3.922699e-06	-1.583091e-08	-2.867499e+01	-1.036581e+03
2.930000e-06	-3.988148e-06	-1.629808e-08	-2.915342e+01	-1.066930e+03
2.940000e-06	-4.052267e-06	-1.673227e-08	-2.962214e+01	-1.095090e+03
