# Temperatura_=_82.02
# Concentracion g/m^3_=_26700.0
# C_Vs_to_Am_M_A/Vsm_=_65563218390.804596
# pendiente_HvsI_1/m_=_3716.3
# ordenada_HvsI_A/m_=_1297.0
# frecuencia_Hz_=_301826.05299479567

Tiempo_(s)	Campo_(V.s)	Magnetizacion_(V.s)	Campo_(kA/m)	Magnetizacion_(A/m)
0.000000e+00	-5.205888e-06	-2.204893e-08	-3.827543e+01	-1.440005e+03
1.000000e-08	-5.202861e-06	-2.204747e-08	-3.825317e+01	-1.439973e+03
2.000000e-08	-5.198136e-06	-2.203926e-08	-3.821844e+01	-1.439776e+03
3.000000e-08	-5.191797e-06	-2.202883e-08	-3.817183e+01	-1.439399e+03
4.000000e-08	-5.183972e-06	-2.201541e-08	-3.811430e+01	-1.438814e+03
5.000000e-08	-5.174353e-06	-2.199918e-08	-3.804358e+01	-1.437997e+03
6.000000e-08	-5.162715e-06	-2.198117e-08	-3.795801e+01	-1.436929e+03
7.000000e-08	-5.149327e-06	-2.194915e-08	-3.785958e+01	-1.435608e+03
8.000000e-08	-5.133866e-06	-2.193724e-08	-3.774590e+01	-1.434053e+03
9.000000e-08	-5.116156e-06	-2.196419e-08	-3.761569e+01	-1.432301e+03
1.000000e-07	-5.096519e-06	-2.192119e-08	-3.747131e+01	-1.430402e+03
1.100000e-07	-5.075052e-06	-2.185815e-08	-3.731348e+01	-1.428411e+03
1.200000e-07	-5.051920e-06	-2.182884e-08	-3.714341e+01	-1.426374e+03
1.300000e-07	-5.027449e-06	-2.171691e-08	-3.696349e+01	-1.424316e+03
1.400000e-07	-5.001480e-06	-2.172923e-08	-3.677256e+01	-1.422242e+03
1.500000e-07	-4.973786e-06	-2.179049e-08	-3.656894e+01	-1.420128e+03
1.600000e-07	-4.944618e-06	-2.161262e-08	-3.635449e+01	-1.417930e+03
1.700000e-07	-4.914110e-06	-2.164466e-08	-3.613018e+01	-1.415593e+03
1.800000e-07	-4.881715e-06	-2.167383e-08	-3.589200e+01	-1.413059e+03
1.900000e-07	-4.847237e-06	-2.144921e-08	-3.563851e+01	-1.410284e+03
2.000000e-07	-4.811279e-06	-2.145532e-08	-3.537413e+01	-1.407243e+03
2.100000e-07	-4.773752e-06	-2.143933e-08	-3.509822e+01	-1.403931e+03
2.200000e-07	-4.734528e-06	-2.132578e-08	-3.480984e+01	-1.400365e+03
2.300000e-07	-4.693466e-06	-2.133235e-08	-3.450793e+01	-1.396578e+03
2.400000e-07	-4.650435e-06	-2.124572e-08	-3.419156e+01	-1.392604e+03
2.500000e-07	-4.605763e-06	-2.115308e-08	-3.386311e+01	-1.388475e+03
2.600000e-07	-4.559390e-06	-2.111592e-08	-3.352216e+01	-1.384209e+03
2.700000e-07	-4.511171e-06	-2.102744e-08	-3.316764e+01	-1.379808e+03
2.800000e-07	-4.460853e-06	-2.097492e-08	-3.279768e+01	-1.375260e+03
2.900000e-07	-4.408501e-06	-2.090473e-08	-3.241277e+01	-1.370546e+03
3.000000e-07	-4.354478e-06	-2.083045e-08	-3.201558e+01	-1.365640e+03
3.100000e-07	-4.298977e-06	-2.074926e-08	-3.160752e+01	-1.360525e+03
3.200000e-07	-4.241852e-06	-2.064413e-08	-3.118752e+01	-1.355195e+03
3.300000e-07	-4.183008e-06	-2.056791e-08	-3.075488e+01	-1.349654e+03
3.400000e-07	-4.122662e-06	-2.047358e-08	-3.031119e+01	-1.343920e+03
3.500000e-07	-4.060889e-06	-2.039658e-08	-2.985701e+01	-1.338016e+03
3.600000e-07	-3.997846e-06	-2.030499e-08	-2.939350e+01	-1.331968e+03
3.700000e-07	-3.933529e-06	-2.020237e-08	-2.892062e+01	-1.325793e+03
3.800000e-07	-3.867499e-06	-2.011923e-08	-2.843515e+01	-1.319498e+03
3.900000e-07	-3.799823e-06	-2.000409e-08	-2.793757e+01	-1.313077e+03
4.000000e-07	-3.730916e-06	-1.989767e-08	-2.743094e+01	-1.306517e+03
4.100000e-07	-3.660789e-06	-1.979387e-08	-2.691535e+01	-1.299796e+03
4.200000e-07	-3.589543e-06	-1.969463e-08	-2.639152e+01	-1.292893e+03
4.300000e-07	-3.517142e-06	-1.959141e-08	-2.585920e+01	-1.285791e+03
4.400000e-07	-3.443181e-06	-1.947764e-08	-2.531542e+01	-1.278482e+03
4.500000e-07	-3.367695e-06	-1.936869e-08	-2.476042e+01	-1.270967e+03
4.600000e-07	-3.290984e-06	-1.924260e-08	-2.419642e+01	-1.263254e+03
4.700000e-07	-3.213080e-06	-1.911497e-08	-2.362364e+01	-1.255355e+03
4.800000e-07	-3.133741e-06	-1.899372e-08	-2.304031e+01	-1.247279e+03
4.900000e-07	-3.053051e-06	-1.886912e-08	-2.244705e+01	-1.239032e+03
5.000000e-07	-2.971349e-06	-1.873857e-08	-2.184635e+01	-1.230609e+03
5.100000e-07	-2.888671e-06	-1.859943e-08	-2.123847e+01	-1.222002e+03
5.200000e-07	-2.805169e-06	-1.846466e-08	-2.062454e+01	-1.213193e+03
5.300000e-07	-2.720877e-06	-1.832997e-08	-2.000480e+01	-1.204166e+03
5.400000e-07	-2.635639e-06	-1.818675e-08	-1.937810e+01	-1.194907e+03
5.500000e-07	-2.549453e-06	-1.804546e-08	-1.874443e+01	-1.185405e+03
5.600000e-07	-2.462405e-06	-1.789766e-08	-1.810442e+01	-1.175660e+03
5.700000e-07	-2.374585e-06	-1.773907e-08	-1.745874e+01	-1.165674e+03
5.800000e-07	-2.285839e-06	-1.757115e-08	-1.680625e+01	-1.155454e+03
5.900000e-07	-2.195987e-06	-1.740956e-08	-1.614563e+01	-1.145008e+03
6.000000e-07	-2.105148e-06	-1.725049e-08	-1.547776e+01	-1.134337e+03
6.100000e-07	-2.013551e-06	-1.708433e-08	-1.480430e+01	-1.123440e+03
6.200000e-07	-1.921299e-06	-1.691459e-08	-1.412603e+01	-1.112307e+03
6.300000e-07	-1.828370e-06	-1.673867e-08	-1.344279e+01	-1.100924e+03
6.400000e-07	-1.734797e-06	-1.656030e-08	-1.275480e+01	-1.089274e+03
6.500000e-07	-1.640689e-06	-1.637888e-08	-1.206289e+01	-1.077339e+03
6.600000e-07	-1.546022e-06	-1.619207e-08	-1.136687e+01	-1.065107e+03
6.700000e-07	-1.450764e-06	-1.599877e-08	-1.066650e+01	-1.052568e+03
6.800000e-07	-1.355080e-06	-1.580149e-08	-9.962999e+00	-1.039719e+03
6.900000e-07	-1.259021e-06	-1.560001e-08	-9.256744e+00	-1.026559e+03
7.000000e-07	-1.162489e-06	-1.539524e-08	-8.547010e+00	-1.013090e+03
7.100000e-07	-1.065481e-06	-1.518739e-08	-7.833775e+00	-9.993095e+02
7.200000e-07	-9.680811e-07	-1.497452e-08	-7.117656e+00	-9.852137e+02
7.300000e-07	-8.702715e-07	-1.475574e-08	-6.398528e+00	-9.707923e+02
7.400000e-07	-7.720357e-07	-1.452994e-08	-5.676265e+00	-9.560298e+02
7.500000e-07	-6.734516e-07	-1.429922e-08	-4.951442e+00	-9.409060e+02
7.600000e-07	-5.745087e-07	-1.406156e-08	-4.223980e+00	-9.253979e+02
7.700000e-07	-4.753086e-07	-1.381703e-08	-3.494628e+00	-9.094806e+02
7.800000e-07	-3.759956e-07	-1.356679e-08	-2.764445e+00	-8.931290e+02
7.900000e-07	-2.765906e-07	-1.331089e-08	-2.033587e+00	-8.763173e+02
8.000000e-07	-1.770903e-07	-1.305059e-08	-1.302027e+00	-8.590191e+02
8.100000e-07	-7.749141e-08	-1.278402e-08	-5.697428e-01	-8.412059e+02
8.200000e-07	2.215029e-08	-1.250732e-08	1.628564e-01	-8.228465e+02
8.300000e-07	1.218164e-07	-1.221731e-08	8.956352e-01	-8.039059e+02
8.400000e-07	2.214994e-07	-1.191731e-08	1.628538e+00	-7.843451e+02
8.500000e-07	3.211179e-07	-1.160820e-08	2.360966e+00	-7.641213e+02
8.600000e-07	4.206053e-07	-1.128809e-08	3.092431e+00	-7.431882e+02
8.700000e-07	5.199837e-07	-1.095676e-08	3.823094e+00	-7.214962e+02
8.800000e-07	6.192844e-07	-1.061391e-08	4.553186e+00	-6.989920e+02
8.900000e-07	7.183729e-07	-1.025790e-08	5.281718e+00	-6.756174e+02
9.000000e-07	8.170477e-07	-9.885998e-09	6.007208e+00	-6.513072e+02
9.100000e-07	9.153106e-07	-9.498221e-09	6.729670e+00	-6.259869e+02
9.200000e-07	1.013107e-06	-9.095640e-09	7.448704e+00	-5.995704e+02
9.300000e-07	1.110351e-06	-8.677500e-09	8.163674e+00	-5.719583e+02
9.400000e-07	1.207103e-06	-8.236988e-09	8.875028e+00	-5.430377e+02
9.500000e-07	1.303457e-06	-7.772022e-09	9.583452e+00	-5.126822e+02
9.600000e-07	1.399408e-06	-7.284525e-09	1.028891e+01	-4.807548e+02
9.700000e-07	1.494830e-06	-6.771280e-09	1.099049e+01	-4.471103e+02
9.800000e-07	1.589640e-06	-6.228731e-09	1.168757e+01	-4.115991e+02
9.900000e-07	1.683845e-06	-5.656574e-09	1.238019e+01	-3.740712e+02
1.000000e-06	1.777507e-06	-5.053297e-09	1.306882e+01	-3.343808e+02
1.010000e-06	1.870584e-06	-4.414752e-09	1.375316e+01	-2.923918e+02
1.020000e-06	1.963006e-06	-3.737398e-09	1.443268e+01	-2.479845e+02
1.030000e-06	2.054881e-06	-3.022487e-09	1.510817e+01	-2.010645e+02
1.040000e-06	2.146201e-06	-2.268017e-09	1.577959e+01	-1.515734e+02
1.050000e-06	2.236559e-06	-1.472351e-09	1.644393e+01	-9.950210e+01
1.060000e-06	2.325740e-06	-6.372975e-10	1.709962e+01	-4.490353e+01
1.070000e-06	2.414024e-06	2.346140e-10	1.774871e+01	1.209425e+01
1.080000e-06	2.501573e-06	1.138861e-09	1.839240e+01	7.127901e+01
1.090000e-06	2.588268e-06	2.070467e-09	1.902981e+01	1.323504e+02
1.100000e-06	2.674056e-06	3.023051e-09	1.966055e+01	1.949234e+02
1.110000e-06	2.758936e-06	3.989809e-09	2.028462e+01	2.585393e+02
1.120000e-06	2.843025e-06	4.965897e-09	2.090287e+01	3.226848e+02
1.130000e-06	2.926328e-06	5.943990e-09	2.151534e+01	3.868169e+02
1.140000e-06	3.008508e-06	6.913878e-09	2.211956e+01	4.503906e+02
1.150000e-06	3.089528e-06	7.865765e-09	2.271525e+01	5.128865e+02
1.160000e-06	3.169478e-06	8.791917e-09	2.330306e+01	5.738351e+02
1.170000e-06	3.248297e-06	9.687732e-09	2.388256e+01	6.328344e+02
1.180000e-06	3.325974e-06	1.054801e-08	2.445367e+01	6.895604e+02
1.190000e-06	3.402507e-06	1.137083e-08	2.501637e+01	7.437691e+02
1.200000e-06	3.477807e-06	1.215251e-08	2.557000e+01	7.952923e+02
1.210000e-06	3.551592e-06	1.289022e-08	2.611250e+01	8.440286e+02
1.220000e-06	3.623853e-06	1.358478e-08	2.664378e+01	8.899326e+02
1.230000e-06	3.694822e-06	1.423729e-08	2.716557e+01	9.330035e+02
1.240000e-06	3.764528e-06	1.484564e-08	2.767807e+01	9.732768e+02
1.250000e-06	3.832982e-06	1.541205e-08	2.818136e+01	1.010817e+03
1.260000e-06	3.900171e-06	1.593874e-08	2.867536e+01	1.045715e+03
1.270000e-06	3.965809e-06	1.642704e-08	2.915795e+01	1.078083e+03
1.280000e-06	4.029891e-06	1.687879e-08	2.962911e+01	1.108052e+03
1.290000e-06	4.092606e-06	1.729544e-08	3.009021e+01	1.135770e+03
1.300000e-06	4.153895e-06	1.768173e-08	3.054083e+01	1.161395e+03
1.310000e-06	4.213908e-06	1.803950e-08	3.098206e+01	1.185091e+03
1.320000e-06	4.272517e-06	1.837215e-08	3.141298e+01	1.207015e+03
1.330000e-06	4.329385e-06	1.868104e-08	3.183108e+01	1.227318e+03
1.340000e-06	4.384592e-06	1.896479e-08	3.223699e+01	1.246134e+03
1.350000e-06	4.438176e-06	1.922569e-08	3.263096e+01	1.263582e+03
1.360000e-06	4.490002e-06	1.946850e-08	3.301199e+01	1.279763e+03
1.370000e-06	4.539798e-06	1.969371e-08	3.337812e+01	1.294763e+03
1.380000e-06	4.587656e-06	1.990177e-08	3.372998e+01	1.308660e+03
1.390000e-06	4.633922e-06	2.009379e-08	3.407015e+01	1.321523e+03
1.400000e-06	4.678733e-06	2.027079e-08	3.439961e+01	1.333418e+03
1.410000e-06	4.722143e-06	2.043741e-08	3.471877e+01	1.344412e+03
1.420000e-06	4.763792e-06	2.059369e-08	3.502499e+01	1.354564e+03
1.430000e-06	4.803597e-06	2.073910e-08	3.531765e+01	1.363936e+03
1.440000e-06	4.841802e-06	2.087216e-08	3.559855e+01	1.372581e+03
1.450000e-06	4.878433e-06	2.099318e-08	3.586787e+01	1.380547e+03
1.460000e-06	4.913430e-06	2.110362e-08	3.612518e+01	1.387879e+03
1.470000e-06	4.946523e-06	2.120252e-08	3.636849e+01	1.394614e+03
1.480000e-06	4.977765e-06	2.129339e-08	3.659820e+01	1.400788e+03
1.490000e-06	5.007342e-06	2.137798e-08	3.681565e+01	1.406438e+03
1.500000e-06	5.035361e-06	2.145560e-08	3.702166e+01	1.411601e+03
1.510000e-06	5.061555e-06	2.152806e-08	3.721425e+01	1.416316e+03
1.520000e-06	5.085675e-06	2.159579e-08	3.739158e+01	1.420618e+03
1.530000e-06	5.107989e-06	2.165702e-08	3.755565e+01	1.424544e+03
1.540000e-06	5.128666e-06	2.171159e-08	3.770767e+01	1.428117e+03
1.550000e-06	5.147685e-06	2.175937e-08	3.784750e+01	1.431357e+03
1.560000e-06	5.164769e-06	2.180135e-08	3.797311e+01	1.434270e+03
1.570000e-06	5.179815e-06	2.183782e-08	3.808374e+01	1.436853e+03
1.580000e-06	5.192986e-06	2.187002e-08	3.818057e+01	1.439101e+03
1.590000e-06	5.204180e-06	2.189914e-08	3.826288e+01	1.441009e+03
1.600000e-06	5.213227e-06	2.192231e-08	3.832939e+01	1.442579e+03
1.610000e-06	5.220324e-06	2.193997e-08	3.838157e+01	1.443823e+03
1.620000e-06	5.225664e-06	2.195336e-08	3.842083e+01	1.444764e+03
1.630000e-06	5.229302e-06	2.196446e-08	3.844758e+01	1.445437e+03
1.640000e-06	5.230992e-06	2.197533e-08	3.846000e+01	1.445878e+03
1.650000e-06	5.230693e-06	2.198222e-08	3.845781e+01	1.446123e+03
1.660000e-06	5.228726e-06	2.197981e-08	3.844334e+01	1.446196e+03
1.670000e-06	5.225209e-06	2.197772e-08	3.841749e+01	1.446107e+03
1.680000e-06	5.220031e-06	2.197444e-08	3.837941e+01	1.445848e+03
1.690000e-06	5.212963e-06	2.196759e-08	3.832745e+01	1.445400e+03
1.700000e-06	5.204162e-06	2.195933e-08	3.826274e+01	1.444736e+03
1.710000e-06	5.193879e-06	2.195115e-08	3.818714e+01	1.443830e+03
1.720000e-06	5.181905e-06	2.195465e-08	3.809910e+01	1.442672e+03
1.730000e-06	5.167978e-06	2.193566e-08	3.799671e+01	1.441264e+03
1.740000e-06	5.152098e-06	2.184938e-08	3.787995e+01	1.439634e+03
1.750000e-06	5.134024e-06	2.183595e-08	3.774706e+01	1.437824e+03
1.760000e-06	5.113386e-06	2.182942e-08	3.759532e+01	1.435886e+03
1.770000e-06	5.090446e-06	2.180816e-08	3.742666e+01	1.433875e+03
1.780000e-06	5.066202e-06	2.184879e-08	3.724841e+01	1.431828e+03
1.790000e-06	5.041289e-06	2.168430e-08	3.706524e+01	1.429766e+03
1.800000e-06	5.015061e-06	2.168079e-08	3.687241e+01	1.427682e+03
1.810000e-06	4.986913e-06	2.179033e-08	3.666545e+01	1.425544e+03
1.820000e-06	4.957077e-06	2.155890e-08	3.644609e+01	1.423304e+03
1.830000e-06	4.925410e-06	2.159862e-08	3.621326e+01	1.420902e+03
1.840000e-06	4.891770e-06	2.173545e-08	3.596593e+01	1.418287e+03
1.850000e-06	4.856605e-06	2.152594e-08	3.570738e+01	1.415419e+03
1.860000e-06	4.819736e-06	2.152937e-08	3.543631e+01	1.412281e+03
1.870000e-06	4.780868e-06	2.149034e-08	3.515054e+01	1.408875e+03
1.880000e-06	4.740334e-06	2.135827e-08	3.485252e+01	1.405227e+03
1.890000e-06	4.698049e-06	2.142508e-08	3.454163e+01	1.401370e+03
1.900000e-06	4.654152e-06	2.127730e-08	3.421888e+01	1.397338e+03
1.910000e-06	4.608659e-06	2.123405e-08	3.388441e+01	1.393158e+03
1.920000e-06	4.561449e-06	2.125545e-08	3.353730e+01	1.388845e+03
1.930000e-06	4.512687e-06	2.108692e-08	3.317878e+01	1.384394e+03
1.940000e-06	4.462103e-06	2.106217e-08	3.280687e+01	1.379790e+03
1.950000e-06	4.409673e-06	2.095187e-08	3.242139e+01	1.375010e+03
1.960000e-06	4.355331e-06	2.089627e-08	3.202185e+01	1.370031e+03
1.970000e-06	4.299128e-06	2.087299e-08	3.160863e+01	1.364840e+03
1.980000e-06	4.241422e-06	2.070384e-08	3.118435e+01	1.359433e+03
1.990000e-06	4.182342e-06	2.068054e-08	3.074998e+01	1.353821e+03
2.000000e-06	4.121982e-06	2.057684e-08	3.030619e+01	1.348024e+03
2.010000e-06	4.060016e-06	2.047807e-08	2.985060e+01	1.342067e+03
2.020000e-06	3.996351e-06	2.040034e-08	2.938251e+01	1.335972e+03
2.030000e-06	3.931290e-06	2.026540e-08	2.890416e+01	1.329754e+03
2.040000e-06	3.864786e-06	2.023765e-08	2.841520e+01	1.323415e+03
2.050000e-06	3.797018e-06	2.010939e-08	2.791695e+01	1.316948e+03
2.060000e-06	3.727899e-06	1.999884e-08	2.740876e+01	1.310333e+03
2.070000e-06	3.657165e-06	1.990711e-08	2.688870e+01	1.303550e+03
2.080000e-06	3.585087e-06	1.978985e-08	2.635876e+01	1.296577e+03
2.090000e-06	3.511835e-06	1.969957e-08	2.582018e+01	1.289402e+03
2.100000e-06	3.437434e-06	1.955798e-08	2.527317e+01	1.282019e+03
2.110000e-06	3.361829e-06	1.947416e-08	2.471729e+01	1.274432e+03
2.120000e-06	3.284893e-06	1.935444e-08	2.415163e+01	1.266652e+03
2.130000e-06	3.206451e-06	1.921885e-08	2.357490e+01	1.258689e+03
2.140000e-06	3.126678e-06	1.909939e-08	2.298838e+01	1.250552e+03
2.150000e-06	3.045868e-06	1.897506e-08	2.239424e+01	1.242243e+03
2.160000e-06	2.963971e-06	1.886434e-08	2.179210e+01	1.233757e+03
2.170000e-06	2.881096e-06	1.871400e-08	2.118278e+01	1.225080e+03
2.180000e-06	2.797332e-06	1.858701e-08	2.056692e+01	1.216195e+03
2.190000e-06	2.712612e-06	1.845520e-08	1.994403e+01	1.207087e+03
2.200000e-06	2.626694e-06	1.830709e-08	1.931233e+01	1.197742e+03
2.210000e-06	2.539551e-06	1.815795e-08	1.867163e+01	1.188154e+03
2.220000e-06	2.451470e-06	1.801151e-08	1.802403e+01	1.178322e+03
2.230000e-06	2.362597e-06	1.787095e-08	1.737061e+01	1.168252e+03
2.240000e-06	2.272995e-06	1.770714e-08	1.671182e+01	1.157951e+03
2.250000e-06	2.182653e-06	1.754777e-08	1.604760e+01	1.147425e+03
2.260000e-06	2.091533e-06	1.738633e-08	1.537765e+01	1.136674e+03
2.270000e-06	1.999751e-06	1.722056e-08	1.470284e+01	1.125695e+03
2.280000e-06	1.907440e-06	1.705024e-08	1.402414e+01	1.114475e+03
2.290000e-06	1.814520e-06	1.687561e-08	1.334096e+01	1.102999e+03
2.300000e-06	1.720837e-06	1.670165e-08	1.265217e+01	1.091249e+03
2.310000e-06	1.626330e-06	1.651793e-08	1.195732e+01	1.079210e+03
2.320000e-06	1.531034e-06	1.632618e-08	1.125668e+01	1.066869e+03
2.330000e-06	1.435136e-06	1.612985e-08	1.055160e+01	1.054220e+03
2.340000e-06	1.338861e-06	1.593433e-08	9.843752e+00	1.041260e+03
2.350000e-06	1.242274e-06	1.573388e-08	9.133611e+00	1.027990e+03
2.360000e-06	1.145340e-06	1.552659e-08	8.420921e+00	1.014410e+03
2.370000e-06	1.048069e-06	1.531282e-08	7.705757e+00	1.000518e+03
2.380000e-06	9.504751e-07	1.509600e-08	6.988211e+00	9.863076e+02
2.390000e-06	8.525760e-07	1.487552e-08	6.268424e+00	9.717667e+02
2.400000e-06	7.544083e-07	1.464671e-08	5.546662e+00	9.568779e+02
2.410000e-06	6.559928e-07	1.441462e-08	4.823079e+00	9.416200e+02
2.420000e-06	5.573922e-07	1.417726e-08	4.098134e+00	9.259689e+02
2.430000e-06	4.586874e-07	1.393043e-08	3.372423e+00	9.098998e+02
2.440000e-06	3.598830e-07	1.367661e-08	2.645980e+00	8.933871e+02
2.450000e-06	2.609325e-07	1.341689e-08	1.918463e+00	8.764051e+02
2.460000e-06	1.618765e-07	1.314962e-08	1.190170e+00	8.589266e+02
2.470000e-06	6.276348e-08	1.287327e-08	4.614581e-01	8.409224e+02
2.480000e-06	-3.638520e-08	1.258827e-08	-2.675162e-01	8.223600e+02
2.490000e-06	-1.355441e-07	1.229624e-08	-9.965654e-01	8.032029e+02
2.500000e-06	-2.346295e-07	1.199457e-08	-1.725074e+00	7.834108e+02
2.510000e-06	-3.336457e-07	1.168187e-08	-2.453075e+00	7.629394e+02
2.520000e-06	-4.325975e-07	1.135956e-08	-3.180602e+00	7.417415e+02
2.530000e-06	-5.313949e-07	1.102554e-08	-3.906993e+00	7.197661e+02
2.540000e-06	-6.300370e-07	1.067767e-08	-4.632243e+00	6.969583e+02
2.550000e-06	-7.285139e-07	1.031511e-08	-5.356278e+00	6.732578e+02
2.560000e-06	-8.267890e-07	9.938205e-09	-6.078829e+00	6.485962e+02
2.570000e-06	-9.247907e-07	9.546121e-09	-6.799371e+00	6.228952e+02
2.580000e-06	-1.022480e-06	9.137984e-09	-7.517614e+00	5.960642e+02
2.590000e-06	-1.119755e-06	8.711614e-09	-8.232816e+00	5.679988e+02
2.600000e-06	-1.216607e-06	8.264940e-09	-8.944902e+00	5.385811e+02
2.610000e-06	-1.313086e-06	7.796113e-09	-9.654249e+00	5.076808e+02
2.620000e-06	-1.409231e-06	7.299806e-09	-1.036114e+01	4.751574e+02
2.630000e-06	-1.505029e-06	6.774658e-09	-1.106548e+01	4.408639e+02
2.640000e-06	-1.600186e-06	6.220946e-09	-1.176511e+01	4.046498e+02
2.650000e-06	-1.694477e-06	5.634658e-09	-1.245836e+01	3.663662e+02
2.660000e-06	-1.787946e-06	5.015160e-09	-1.314558e+01	3.258702e+02
2.670000e-06	-1.880717e-06	4.360820e-09	-1.382766e+01	2.830304e+02
2.680000e-06	-1.972799e-06	3.671076e-09	-1.450468e+01	2.377352e+02
2.690000e-06	-2.064134e-06	2.944630e-09	-1.517620e+01	1.899017e+02
2.700000e-06	-2.154809e-06	2.176710e-09	-1.584288e+01	1.394876e+02
2.710000e-06	-2.244722e-06	1.368428e-09	-1.650395e+01	8.650422e+01
2.720000e-06	-2.333716e-06	5.221130e-10	-1.715826e+01	3.103019e+01
2.730000e-06	-2.422028e-06	-3.606478e-10	-1.780756e+01	-2.677727e+01
2.740000e-06	-2.509718e-06	-1.274879e-09	-1.845228e+01	-8.667457e+01
2.750000e-06	-2.596459e-06	-2.215655e-09	-1.909004e+01	-1.483303e+02
2.760000e-06	-2.681998e-06	-3.177671e-09	-1.971895e+01	-2.113314e+02
2.770000e-06	-2.766514e-06	-4.153401e-09	-2.034033e+01	-2.751971e+02
2.780000e-06	-2.850198e-06	-5.134796e-09	-2.095561e+01	-3.394006e+02
2.790000e-06	-2.932963e-06	-6.112719e-09	-2.156413e+01	-4.033948e+02
2.800000e-06	-3.014705e-06	-7.078558e-09	-2.216512e+01	-4.666408e+02
2.810000e-06	-3.095452e-06	-8.024750e-09	-2.275880e+01	-5.286344e+02
2.820000e-06	-3.175226e-06	-8.946069e-09	-2.334532e+01	-5.889288e+02
2.830000e-06	-3.253698e-06	-9.837790e-09	-2.392228e+01	-6.471489e+02
2.840000e-06	-3.330743e-06	-1.069559e-08	-2.448874e+01	-7.029995e+02
2.850000e-06	-3.406426e-06	-1.151584e-08	-2.504518e+01	-7.562644e+02
2.860000e-06	-3.480838e-06	-1.229297e-08	-2.559228e+01	-8.068004e+02
2.870000e-06	-3.554077e-06	-1.302403e-08	-2.613076e+01	-8.545276e+02
2.880000e-06	-3.626117e-06	-1.371190e-08	-2.666042e+01	-8.994174e+02
2.890000e-06	-3.696731e-06	-1.435820e-08	-2.717960e+01	-9.414832e+02
2.900000e-06	-3.765749e-06	-1.496234e-08	-2.768705e+01	-9.807714e+02
2.910000e-06	-3.833425e-06	-1.552645e-08	-2.818462e+01	-1.017356e+03
2.920000e-06	-3.899838e-06	-1.605109e-08	-2.867292e+01	-1.051336e+03
2.930000e-06	-3.964921e-06	-1.653758e-08	-2.915142e+01	-1.082831e+03
2.940000e-06	-4.028680e-06	-1.698831e-08	-2.962020e+01	-1.111978e+03
