# Temperatura_=_39.28
# Concentracion g/m^3_=_28200.0
# C_Vs_to_Am_M_A/Vsm_=_65563218390.804596
# pendiente_HvsI_1/m_=_3716.3
# ordenada_HvsI_A/m_=_1297.0
# frecuencia_Hz_=_302401.98488183547

Tiempo_(s)	Campo_(V.s)	Magnetizacion_(V.s)	Campo_(kA/m)	Magnetizacion_(A/m)
0.000000e+00	-7.304037e-06	-2.607988e-08	-5.318033e+01	-1.707556e+03
1.000000e-08	-7.300545e-06	-2.608086e-08	-5.315491e+01	-1.707053e+03
2.000000e-08	-7.294667e-06	-2.606884e-08	-5.311211e+01	-1.706385e+03
3.000000e-08	-7.286494e-06	-2.605234e-08	-5.305260e+01	-1.705582e+03
4.000000e-08	-7.275825e-06	-2.603633e-08	-5.297492e+01	-1.704666e+03
5.000000e-08	-7.262390e-06	-2.601854e-08	-5.287710e+01	-1.703653e+03
6.000000e-08	-7.246223e-06	-2.599682e-08	-5.275939e+01	-1.702544e+03
7.000000e-08	-7.227774e-06	-2.597207e-08	-5.262507e+01	-1.701330e+03
8.000000e-08	-7.207316e-06	-2.594518e-08	-5.247611e+01	-1.699997e+03
9.000000e-08	-7.184385e-06	-2.599352e-08	-5.230915e+01	-1.698533e+03
1.000000e-07	-7.158441e-06	-2.599240e-08	-5.212025e+01	-1.696936e+03
1.100000e-07	-7.129561e-06	-2.589481e-08	-5.190998e+01	-1.695216e+03
1.200000e-07	-7.098231e-06	-2.584081e-08	-5.168187e+01	-1.693390e+03
1.300000e-07	-7.064419e-06	-2.582056e-08	-5.143569e+01	-1.691482e+03
1.400000e-07	-7.028309e-06	-2.575339e-08	-5.117277e+01	-1.689507e+03
1.500000e-07	-6.990398e-06	-2.566517e-08	-5.089674e+01	-1.687462e+03
1.600000e-07	-6.950470e-06	-2.576881e-08	-5.060603e+01	-1.685326e+03
1.700000e-07	-6.908066e-06	-2.571830e-08	-5.029729e+01	-1.683052e+03
1.800000e-07	-6.863267e-06	-2.554477e-08	-4.997111e+01	-1.680582e+03
1.900000e-07	-6.816017e-06	-2.562236e-08	-4.962709e+01	-1.677853e+03
2.000000e-07	-6.765895e-06	-2.553024e-08	-4.926215e+01	-1.674814e+03
2.100000e-07	-6.713002e-06	-2.544266e-08	-4.887704e+01	-1.671436e+03
2.200000e-07	-6.657598e-06	-2.542931e-08	-4.847364e+01	-1.667723e+03
2.300000e-07	-6.599704e-06	-2.532207e-08	-4.805212e+01	-1.663706e+03
2.400000e-07	-6.539342e-06	-2.530332e-08	-4.761263e+01	-1.659437e+03
2.500000e-07	-6.476588e-06	-2.522373e-08	-4.715572e+01	-1.654973e+03
2.600000e-07	-6.411429e-06	-2.516171e-08	-4.668130e+01	-1.650363e+03
2.700000e-07	-6.343791e-06	-2.508504e-08	-4.618883e+01	-1.645628e+03
2.800000e-07	-6.273796e-06	-2.500968e-08	-4.567920e+01	-1.640763e+03
2.900000e-07	-6.201469e-06	-2.493219e-08	-4.515259e+01	-1.635731e+03
3.000000e-07	-6.126593e-06	-2.482063e-08	-4.460742e+01	-1.630477e+03
3.100000e-07	-6.049127e-06	-2.477875e-08	-4.404340e+01	-1.624944e+03
3.200000e-07	-5.969166e-06	-2.468489e-08	-4.346120e+01	-1.619082e+03
3.300000e-07	-5.887009e-06	-2.457901e-08	-4.286302e+01	-1.612866e+03
3.400000e-07	-5.802929e-06	-2.446312e-08	-4.225084e+01	-1.606297e+03
3.500000e-07	-5.716975e-06	-2.435643e-08	-4.162501e+01	-1.599398e+03
3.600000e-07	-5.629082e-06	-2.427429e-08	-4.098507e+01	-1.592204e+03
3.700000e-07	-5.539070e-06	-2.415427e-08	-4.032970e+01	-1.584746e+03
3.800000e-07	-5.446974e-06	-2.403238e-08	-3.965915e+01	-1.577039e+03
3.900000e-07	-5.352991e-06	-2.390133e-08	-3.897487e+01	-1.569070e+03
4.000000e-07	-5.257151e-06	-2.376933e-08	-3.827705e+01	-1.560800e+03
4.100000e-07	-5.159408e-06	-2.363001e-08	-3.756539e+01	-1.552174e+03
4.200000e-07	-5.059868e-06	-2.350438e-08	-3.684065e+01	-1.543129e+03
4.300000e-07	-4.958572e-06	-2.337083e-08	-3.610312e+01	-1.533612e+03
4.400000e-07	-4.855503e-06	-2.320757e-08	-3.535268e+01	-1.523590e+03
4.500000e-07	-4.750688e-06	-2.303887e-08	-3.458953e+01	-1.513055e+03
4.600000e-07	-4.644144e-06	-2.287206e-08	-3.381378e+01	-1.502019e+03
4.700000e-07	-4.535901e-06	-2.270076e-08	-3.302567e+01	-1.490507e+03
4.800000e-07	-4.426115e-06	-2.252581e-08	-3.222632e+01	-1.478534e+03
4.900000e-07	-4.314805e-06	-2.234505e-08	-3.141588e+01	-1.466099e+03
5.000000e-07	-4.201803e-06	-2.213854e-08	-3.059312e+01	-1.453172e+03
5.100000e-07	-4.087044e-06	-2.191603e-08	-2.975757e+01	-1.439695e+03
5.200000e-07	-3.970578e-06	-2.169340e-08	-2.890958e+01	-1.425594e+03
5.300000e-07	-3.852599e-06	-2.147105e-08	-2.805058e+01	-1.410787e+03
5.400000e-07	-3.733257e-06	-2.123383e-08	-2.718166e+01	-1.395206e+03
5.500000e-07	-3.612569e-06	-2.098383e-08	-2.630293e+01	-1.378804e+03
5.600000e-07	-3.490503e-06	-2.072191e-08	-2.541418e+01	-1.361563e+03
5.700000e-07	-3.367000e-06	-2.044667e-08	-2.451496e+01	-1.343482e+03
5.800000e-07	-3.242225e-06	-2.015662e-08	-2.360648e+01	-1.324561e+03
5.900000e-07	-3.116309e-06	-1.985627e-08	-2.268970e+01	-1.304787e+03
6.000000e-07	-2.989261e-06	-1.954215e-08	-2.176466e+01	-1.284109e+03
6.100000e-07	-2.861176e-06	-1.920506e-08	-2.083208e+01	-1.262434e+03
6.200000e-07	-2.731969e-06	-1.884901e-08	-1.989133e+01	-1.239624e+03
6.300000e-07	-2.601673e-06	-1.847445e-08	-1.894265e+01	-1.215514e+03
6.400000e-07	-2.470394e-06	-1.808249e-08	-1.798682e+01	-1.189926e+03
6.500000e-07	-2.338198e-06	-1.766702e-08	-1.702430e+01	-1.162696e+03
6.600000e-07	-2.205294e-06	-1.722701e-08	-1.605664e+01	-1.133688e+03
6.700000e-07	-2.071739e-06	-1.675762e-08	-1.508423e+01	-1.102794e+03
6.800000e-07	-1.937396e-06	-1.626103e-08	-1.410608e+01	-1.069927e+03
6.900000e-07	-1.802305e-06	-1.573402e-08	-1.312249e+01	-1.034993e+03
7.000000e-07	-1.666605e-06	-1.516863e-08	-1.213447e+01	-9.978660e+02
7.100000e-07	-1.530411e-06	-1.456256e-08	-1.114285e+01	-9.583653e+02
7.200000e-07	-1.393719e-06	-1.391233e-08	-1.014760e+01	-9.162522e+02
7.300000e-07	-1.256510e-06	-1.322042e-08	-9.148586e+00	-8.712480e+02
7.400000e-07	-1.118810e-06	-1.247999e-08	-8.146001e+00	-8.230773e+02
7.500000e-07	-9.806208e-07	-1.169336e-08	-7.139852e+00	-7.715293e+02
7.600000e-07	-8.420291e-07	-1.086200e-08	-6.130772e+00	-7.165244e+02
7.700000e-07	-7.030962e-07	-9.980824e-09	-5.119209e+00	-6.581684e+02
7.800000e-07	-5.638985e-07	-9.048767e-09	-4.105717e+00	-5.967789e+02
7.900000e-07	-4.244599e-07	-8.076304e-09	-3.090472e+00	-5.328716e+02
8.000000e-07	-2.848695e-07	-7.074623e-09	-2.074121e+00	-4.671029e+02
8.100000e-07	-1.451719e-07	-6.051542e-09	-1.056990e+00	-4.001765e+02
8.200000e-07	-5.320615e-09	-5.020292e-09	-3.873914e-02	-3.327304e+02
8.300000e-07	1.346034e-07	-3.989985e-09	9.800409e-01	-2.652278e+02
8.400000e-07	2.744323e-07	-2.965270e-09	1.998128e+00	-1.978767e+02
8.500000e-07	4.141595e-07	-1.941836e-09	3.015475e+00	-1.305979e+02
8.600000e-07	5.537859e-07	-9.165148e-10	4.032087e+00	-6.305350e+01
8.700000e-07	6.932816e-07	1.178404e-10	5.047749e+00	5.268281e+00
8.800000e-07	8.325385e-07	1.173843e-09	6.061672e+00	7.492406e+01
8.900000e-07	9.714151e-07	2.260016e-09	7.072825e+00	1.463691e+02
9.000000e-07	1.109933e-06	3.378867e-09	8.081367e+00	2.198224e+02
9.100000e-07	1.247994e-06	4.527316e-09	9.086581e+00	2.951715e+02
9.200000e-07	1.385494e-06	5.700635e-09	1.008771e+01	3.719373e+02
9.300000e-07	1.522378e-06	6.883319e-09	1.108436e+01	4.493057e+02
9.400000e-07	1.658673e-06	8.057971e-09	1.207672e+01	5.262206e+02
9.500000e-07	1.794450e-06	9.205012e-09	1.306530e+01	6.015196e+02
9.600000e-07	1.929632e-06	1.030711e-08	1.404956e+01	6.740839e+02
9.700000e-07	2.064033e-06	1.134894e-08	1.502812e+01	7.429762e+02
9.800000e-07	2.197591e-06	1.232194e-08	1.600055e+01	8.075392e+02
9.900000e-07	2.330398e-06	1.322677e-08	1.696751e+01	8.674411e+02
1.000000e-06	2.462474e-06	1.406488e-08	1.792915e+01	9.226645e+02
1.010000e-06	2.593610e-06	1.483814e-08	1.888395e+01	9.734477e+02
1.020000e-06	2.723587e-06	1.555071e-08	1.983030e+01	1.020195e+03
1.030000e-06	2.852435e-06	1.620972e-08	2.076844e+01	1.063377e+03
1.040000e-06	2.980313e-06	1.682123e-08	2.169952e+01	1.103449e+03
1.050000e-06	3.107180e-06	1.738817e-08	2.262322e+01	1.140789e+03
1.060000e-06	3.232912e-06	1.791580e-08	2.353867e+01	1.175676e+03
1.070000e-06	3.357559e-06	1.840845e-08	2.444622e+01	1.208296e+03
1.080000e-06	3.481091e-06	1.886756e-08	2.534565e+01	1.238774e+03
1.090000e-06	3.603299e-06	1.929439e-08	2.623544e+01	1.267210e+03
1.100000e-06	3.724110e-06	1.969280e-08	2.711506e+01	1.293714e+03
1.110000e-06	3.843620e-06	2.006785e-08	2.798521e+01	1.318429e+03
1.120000e-06	3.961821e-06	2.042431e-08	2.884582e+01	1.341529e+03
1.130000e-06	4.078612e-06	2.076112e-08	2.969617e+01	1.363206e+03
1.140000e-06	4.193789e-06	2.107577e-08	3.053477e+01	1.383647e+03
1.150000e-06	4.307186e-06	2.137221e-08	3.136041e+01	1.403010e+03
1.160000e-06	4.418949e-06	2.165128e-08	3.217415e+01	1.421406e+03
1.170000e-06	4.529229e-06	2.191394e-08	3.297709e+01	1.438898e+03
1.180000e-06	4.638024e-06	2.216231e-08	3.376923e+01	1.455504e+03
1.190000e-06	4.745243e-06	2.239979e-08	3.454988e+01	1.471224e+03
1.200000e-06	4.850674e-06	2.262465e-08	3.531751e+01	1.486054e+03
1.210000e-06	4.954314e-06	2.283672e-08	3.607211e+01	1.500012e+03
1.220000e-06	5.056211e-06	2.303693e-08	3.681402e+01	1.513147e+03
1.230000e-06	5.156360e-06	2.322648e-08	3.754320e+01	1.525533e+03
1.240000e-06	5.254543e-06	2.340554e-08	3.825807e+01	1.537264e+03
1.250000e-06	5.350682e-06	2.357367e-08	3.895805e+01	1.548430e+03
1.260000e-06	5.444888e-06	2.373533e-08	3.964396e+01	1.559107e+03
1.270000e-06	5.537209e-06	2.389144e-08	4.031615e+01	1.569335e+03
1.280000e-06	5.627496e-06	2.403960e-08	4.097352e+01	1.579123e+03
1.290000e-06	5.715638e-06	2.418016e-08	4.161528e+01	1.588450e+03
1.300000e-06	5.801766e-06	2.431416e-08	4.224237e+01	1.597282e+03
1.310000e-06	5.885966e-06	2.444076e-08	4.285542e+01	1.605586e+03
1.320000e-06	5.968153e-06	2.456079e-08	4.345383e+01	1.613350e+03
1.330000e-06	6.048042e-06	2.467408e-08	4.403549e+01	1.620586e+03
1.340000e-06	6.125663e-06	2.477925e-08	4.460065e+01	1.627338e+03
1.350000e-06	6.200985e-06	2.487588e-08	4.514907e+01	1.633666e+03
1.360000e-06	6.273881e-06	2.496587e-08	4.567982e+01	1.639640e+03
1.370000e-06	6.344481e-06	2.505237e-08	4.619385e+01	1.645321e+03
1.380000e-06	6.412921e-06	2.513491e-08	4.669216e+01	1.650751e+03
1.390000e-06	6.479017e-06	2.521301e-08	4.717340e+01	1.655951e+03
1.400000e-06	6.542702e-06	2.528663e-08	4.763709e+01	1.660917e+03
1.410000e-06	6.604219e-06	2.535580e-08	4.808499e+01	1.665634e+03
1.420000e-06	6.663543e-06	2.542171e-08	4.851693e+01	1.670082e+03
1.430000e-06	6.720497e-06	2.548515e-08	4.893161e+01	1.674250e+03
1.440000e-06	6.775036e-06	2.554575e-08	4.932870e+01	1.678139e+03
1.450000e-06	6.826932e-06	2.560364e-08	4.970655e+01	1.681765e+03
1.460000e-06	6.875979e-06	2.565814e-08	5.006367e+01	1.685151e+03
1.470000e-06	6.922420e-06	2.570775e-08	5.040180e+01	1.688324e+03
1.480000e-06	6.966540e-06	2.575369e-08	5.072303e+01	1.691302e+03
1.490000e-06	7.008150e-06	2.579637e-08	5.102599e+01	1.694089e+03
1.500000e-06	7.047113e-06	2.583538e-08	5.130968e+01	1.696674e+03
1.510000e-06	7.083715e-06	2.587051e-08	5.157618e+01	1.699038e+03
1.520000e-06	7.117895e-06	2.590173e-08	5.182504e+01	1.701158e+03
1.530000e-06	7.149466e-06	2.592996e-08	5.205491e+01	1.703017e+03
1.540000e-06	7.178585e-06	2.595531e-08	5.226692e+01	1.704613e+03
1.550000e-06	7.205156e-06	2.597640e-08	5.246038e+01	1.705962e+03
1.560000e-06	7.228978e-06	2.599398e-08	5.263383e+01	1.707092e+03
1.570000e-06	7.250205e-06	2.601011e-08	5.278839e+01	1.708040e+03
1.580000e-06	7.268961e-06	2.602471e-08	5.292494e+01	1.708843e+03
1.590000e-06	7.285058e-06	2.603528e-08	5.304215e+01	1.709525e+03
1.600000e-06	7.298371e-06	2.604149e-08	5.313908e+01	1.710094e+03
1.610000e-06	7.308785e-06	2.604810e-08	5.321491e+01	1.710542e+03
1.620000e-06	7.316364e-06	2.605395e-08	5.327009e+01	1.710849e+03
1.630000e-06	7.321447e-06	2.605674e-08	5.330709e+01	1.710989e+03
1.640000e-06	7.323934e-06	2.605698e-08	5.332520e+01	1.710939e+03
1.650000e-06	7.323690e-06	2.605717e-08	5.332343e+01	1.710692e+03
1.660000e-06	7.321019e-06	2.604635e-08	5.330398e+01	1.710252e+03
1.670000e-06	7.315957e-06	2.603542e-08	5.326713e+01	1.709640e+03
1.680000e-06	7.308368e-06	2.602663e-08	5.321187e+01	1.708881e+03
1.690000e-06	7.298413e-06	2.601462e-08	5.313938e+01	1.708002e+03
1.700000e-06	7.285981e-06	2.600232e-08	5.304887e+01	1.707023e+03
1.710000e-06	7.270936e-06	2.599295e-08	5.293932e+01	1.705948e+03
1.720000e-06	7.253589e-06	2.599061e-08	5.281302e+01	1.704772e+03
1.730000e-06	7.234183e-06	2.596630e-08	5.267173e+01	1.703483e+03
1.740000e-06	7.212260e-06	2.584575e-08	5.251211e+01	1.702066e+03
1.750000e-06	7.187080e-06	2.584072e-08	5.232878e+01	1.700516e+03
1.760000e-06	7.158494e-06	2.588102e-08	5.212064e+01	1.698837e+03
1.770000e-06	7.127058e-06	2.584175e-08	5.189176e+01	1.697046e+03
1.780000e-06	7.093476e-06	2.583517e-08	5.164725e+01	1.695165e+03
1.790000e-06	7.058225e-06	2.591886e-08	5.139059e+01	1.693212e+03
1.800000e-06	7.021452e-06	2.576833e-08	5.112284e+01	1.691193e+03
1.810000e-06	6.982413e-06	2.565924e-08	5.083860e+01	1.689092e+03
1.820000e-06	6.940601e-06	2.579985e-08	5.053417e+01	1.686874e+03
1.830000e-06	6.896502e-06	2.564682e-08	5.021309e+01	1.684481e+03
1.840000e-06	6.849987e-06	2.571291e-08	4.987441e+01	1.681850e+03
1.850000e-06	6.800872e-06	2.566938e-08	4.951681e+01	1.678926e+03
1.860000e-06	6.749207e-06	2.551036e-08	4.914064e+01	1.675670e+03
1.870000e-06	6.694662e-06	2.558599e-08	4.874351e+01	1.672073e+03
1.880000e-06	6.637655e-06	2.541177e-08	4.832844e+01	1.668159e+03
1.890000e-06	6.578276e-06	2.541111e-08	4.789610e+01	1.663973e+03
1.900000e-06	6.516223e-06	2.534720e-08	4.744430e+01	1.659572e+03
1.910000e-06	6.451694e-06	2.521563e-08	4.697446e+01	1.655009e+03
1.920000e-06	6.384831e-06	2.523022e-08	4.648764e+01	1.650317e+03
1.930000e-06	6.315623e-06	2.509116e-08	4.598374e+01	1.645500e+03
1.940000e-06	6.243884e-06	2.508915e-08	4.546141e+01	1.640533e+03
1.950000e-06	6.169742e-06	2.495976e-08	4.492159e+01	1.635365e+03
1.960000e-06	6.093138e-06	2.485140e-08	4.436384e+01	1.629938e+03
1.970000e-06	6.013915e-06	2.480001e-08	4.378702e+01	1.624196e+03
1.980000e-06	5.932505e-06	2.466956e-08	4.319428e+01	1.618107e+03
1.990000e-06	5.849141e-06	2.463511e-08	4.258731e+01	1.611662e+03
2.000000e-06	5.763698e-06	2.449203e-08	4.196520e+01	1.604877e+03
2.010000e-06	5.676058e-06	2.440292e-08	4.132710e+01	1.597784e+03
2.020000e-06	5.586387e-06	2.427054e-08	4.067421e+01	1.590417e+03
2.030000e-06	5.494833e-06	2.415120e-08	4.000761e+01	1.582798e+03
2.040000e-06	5.401273e-06	2.406716e-08	3.932640e+01	1.574925e+03
2.050000e-06	5.305761e-06	2.394343e-08	3.863098e+01	1.566768e+03
2.060000e-06	5.208453e-06	2.381809e-08	3.792249e+01	1.558276e+03
2.070000e-06	5.109455e-06	2.364170e-08	3.720169e+01	1.549387e+03
2.080000e-06	5.008626e-06	2.351114e-08	3.646756e+01	1.540042e+03
2.090000e-06	4.905902e-06	2.335794e-08	3.571963e+01	1.530202e+03
2.100000e-06	4.801369e-06	2.321574e-08	3.495853e+01	1.519849e+03
2.110000e-06	4.695231e-06	2.305446e-08	3.418575e+01	1.508989e+03
2.120000e-06	4.587586e-06	2.288033e-08	3.340199e+01	1.497644e+03
2.130000e-06	4.478331e-06	2.268746e-08	3.260651e+01	1.485834e+03
2.140000e-06	4.367413e-06	2.249472e-08	3.179891e+01	1.473565e+03
2.150000e-06	4.254789e-06	2.232004e-08	3.097891e+01	1.460818e+03
2.160000e-06	4.140552e-06	2.212532e-08	3.014715e+01	1.447546e+03
2.170000e-06	4.024660e-06	2.191827e-08	2.930335e+01	1.433676e+03
2.180000e-06	3.907088e-06	2.168315e-08	2.844732e+01	1.419129e+03
2.190000e-06	3.787914e-06	2.144701e-08	2.757961e+01	1.403830e+03
2.200000e-06	3.667275e-06	2.119602e-08	2.670125e+01	1.387725e+03
2.210000e-06	3.545285e-06	2.094710e-08	2.581304e+01	1.370784e+03
2.220000e-06	3.421984e-06	2.068385e-08	2.491530e+01	1.353002e+03
2.230000e-06	3.297432e-06	2.040689e-08	2.400844e+01	1.334381e+03
2.240000e-06	3.171619e-06	2.011029e-08	2.309240e+01	1.314914e+03
2.250000e-06	3.044575e-06	1.980155e-08	2.216740e+01	1.294567e+03
2.260000e-06	2.916345e-06	1.947893e-08	2.123376e+01	1.273261e+03
2.270000e-06	2.787103e-06	1.913529e-08	2.029276e+01	1.250874e+03
2.280000e-06	2.656933e-06	1.877414e-08	1.934500e+01	1.227248e+03
2.290000e-06	2.525777e-06	1.838832e-08	1.839006e+01	1.202207e+03
2.300000e-06	2.393791e-06	1.798469e-08	1.742907e+01	1.175580e+03
2.310000e-06	2.261034e-06	1.755494e-08	1.646248e+01	1.147220e+03
2.320000e-06	2.127463e-06	1.710006e-08	1.548995e+01	1.117010e+03
2.330000e-06	1.993144e-06	1.661182e-08	1.451199e+01	1.084857e+03
2.340000e-06	1.858148e-06	1.609045e-08	1.352908e+01	1.050673e+03
2.350000e-06	1.722511e-06	1.553646e-08	1.254151e+01	1.014346e+03
2.360000e-06	1.586240e-06	1.494775e-08	1.154933e+01	9.757168e+02
2.370000e-06	1.449430e-06	1.432126e-08	1.055323e+01	9.345667e+02
2.380000e-06	1.312224e-06	1.364924e-08	9.554239e+00	8.906274e+02
2.390000e-06	1.174621e-06	1.292674e-08	8.552361e+00	8.436159e+02
2.400000e-06	1.036621e-06	1.215292e-08	7.547587e+00	7.932909e+02
2.410000e-06	8.982083e-07	1.133108e-08	6.539810e+00	7.395184e+02
2.420000e-06	7.593902e-07	1.046555e-08	5.529083e+00	6.823332e+02
2.430000e-06	6.203597e-07	9.553577e-09	4.516808e+00	6.219768e+02
2.440000e-06	4.811522e-07	8.594157e-09	3.503245e+00	5.588984e+02
2.450000e-06	3.417198e-07	7.596622e-09	2.488045e+00	4.937133e+02
2.460000e-06	2.021663e-07	6.574698e-09	1.471963e+00	4.271207e+02
2.470000e-06	6.251504e-08	5.540880e-09	4.551689e-01	3.597952e+02
2.480000e-06	-7.722511e-08	4.505922e-09	-5.622722e-01	2.922738e+02
2.490000e-06	-2.169387e-07	3.474608e-09	-1.579520e+00	2.248621e+02
2.500000e-06	-3.565440e-07	2.443593e-09	-2.595979e+00	1.575836e+02
2.510000e-06	-4.960702e-07	1.409855e-09	-3.611863e+00	9.018555e+01
2.520000e-06	-6.354948e-07	3.699453e-10	-4.627006e+00	2.220543e+01
2.530000e-06	-7.747228e-07	-6.835571e-10	-5.640719e+00	-4.691387e+01
2.540000e-06	-9.137013e-07	-1.759760e-09	-6.652614e+00	-1.176805e+02
2.550000e-06	-1.052311e-06	-2.863997e-09	-7.661824e+00	-1.904114e+02
2.560000e-06	-1.190418e-06	-4.000552e-09	-8.667378e+00	-2.651200e+02
2.570000e-06	-1.328029e-06	-5.169675e-09	-9.669310e+00	-3.414580e+02
2.580000e-06	-1.465223e-06	-6.357862e-09	-1.066822e+01	-4.187230e+02
2.590000e-06	-1.601915e-06	-7.545542e-09	-1.166347e+01	-4.959316e+02
2.600000e-06	-1.738038e-06	-8.712537e-09	-1.265457e+01	-5.719421e+02
2.610000e-06	-1.873588e-06	-9.839371e-09	-1.364150e+01	-6.456033e+02
2.620000e-06	-2.008311e-06	-1.091195e-08	-1.462241e+01	-7.158992e+02
2.630000e-06	-2.142056e-06	-1.192044e-08	-1.559621e+01	-7.820643e+02
2.640000e-06	-2.274955e-06	-1.285948e-08	-1.656383e+01	-8.436489e+02
2.650000e-06	-2.407128e-06	-1.372881e-08	-1.752618e+01	-9.005281e+02
2.660000e-06	-2.538480e-06	-1.453085e-08	-1.848254e+01	-9.528579e+02
2.670000e-06	-2.668873e-06	-1.527040e-08	-1.943193e+01	-1.000994e+03
2.680000e-06	-2.798267e-06	-1.595542e-08	-2.037404e+01	-1.045395e+03
2.690000e-06	-2.926743e-06	-1.659260e-08	-2.130947e+01	-1.086531e+03
2.700000e-06	-3.054258e-06	-1.718302e-08	-2.223790e+01	-1.124810e+03
2.710000e-06	-3.180526e-06	-1.773151e-08	-2.315725e+01	-1.160548e+03
2.720000e-06	-3.305562e-06	-1.824142e-08	-2.406764e+01	-1.193961e+03
2.730000e-06	-3.429485e-06	-1.871529e-08	-2.496991e+01	-1.225193e+03
2.740000e-06	-3.552128e-06	-1.915805e-08	-2.586287e+01	-1.254347e+03
2.750000e-06	-3.673432e-06	-1.957144e-08	-2.674608e+01	-1.281528e+03
2.760000e-06	-3.793546e-06	-1.995950e-08	-2.762062e+01	-1.306864e+03
2.770000e-06	-3.912202e-06	-2.032402e-08	-2.848455e+01	-1.330519e+03
2.780000e-06	-4.029230e-06	-2.066625e-08	-2.933663e+01	-1.352683e+03
2.790000e-06	-4.144754e-06	-2.098859e-08	-3.017775e+01	-1.373545e+03
2.800000e-06	-4.258612e-06	-2.129205e-08	-3.100674e+01	-1.393279e+03
2.810000e-06	-4.370634e-06	-2.157831e-08	-3.182237e+01	-1.412011e+03
2.820000e-06	-4.480996e-06	-2.184675e-08	-3.262591e+01	-1.429823e+03
2.830000e-06	-4.589901e-06	-2.210119e-08	-3.341884e+01	-1.446745e+03
2.840000e-06	-4.697324e-06	-2.234526e-08	-3.420098e+01	-1.462783e+03
2.850000e-06	-4.803198e-06	-2.257661e-08	-3.497185e+01	-1.477930e+03
2.860000e-06	-4.907333e-06	-2.279481e-08	-3.573005e+01	-1.492197e+03
2.870000e-06	-5.009512e-06	-2.300118e-08	-3.647401e+01	-1.505619e+03
2.880000e-06	-5.109795e-06	-2.319768e-08	-3.720417e+01	-1.518263e+03
2.890000e-06	-5.208351e-06	-2.338475e-08	-3.792175e+01	-1.530217e+03
2.900000e-06	-5.305152e-06	-2.356152e-08	-3.862655e+01	-1.541576e+03
2.910000e-06	-5.399959e-06	-2.372994e-08	-3.931683e+01	-1.552422e+03
2.920000e-06	-5.492727e-06	-2.388884e-08	-3.999227e+01	-1.562808e+03
2.930000e-06	-5.583608e-06	-2.403728e-08	-4.065398e+01	-1.572755e+03
2.940000e-06	-5.672563e-06	-2.417901e-08	-4.130165e+01	-1.582251e+03
