# Temperatura_=_75.45
# Concentracion g/m^3_=_28200.0
# C_Vs_to_Am_M_A/Vsm_=_65563218390.804596
# pendiente_HvsI_1/m_=_3716.3
# ordenada_HvsI_A/m_=_1297.0
# frecuencia_Hz_=_302398.2821166132

Tiempo_(s)	Campo_(V.s)	Magnetizacion_(V.s)	Campo_(kA/m)	Magnetizacion_(A/m)
0.000000e+00	-7.348713e-06	-2.734668e-08	-5.318733e+01	-1.790896e+03
1.000000e-08	-7.345081e-06	-2.734557e-08	-5.316104e+01	-1.790300e+03
2.000000e-08	-7.339060e-06	-2.733244e-08	-5.311746e+01	-1.789540e+03
3.000000e-08	-7.330667e-06	-2.731530e-08	-5.305672e+01	-1.788645e+03
4.000000e-08	-7.319680e-06	-2.729818e-08	-5.297720e+01	-1.787634e+03
5.000000e-08	-7.305997e-06	-2.727853e-08	-5.287817e+01	-1.786509e+03
6.000000e-08	-7.289643e-06	-2.725557e-08	-5.275980e+01	-1.785255e+03
7.000000e-08	-7.270983e-06	-2.723235e-08	-5.262475e+01	-1.783851e+03
8.000000e-08	-7.250253e-06	-2.720905e-08	-5.247471e+01	-1.782277e+03
9.000000e-08	-7.226989e-06	-2.724646e-08	-5.230634e+01	-1.780526e+03
1.000000e-07	-7.200725e-06	-2.723119e-08	-5.211625e+01	-1.778610e+03
1.100000e-07	-7.171577e-06	-2.713447e-08	-5.190528e+01	-1.776560e+03
1.200000e-07	-7.139941e-06	-2.707926e-08	-5.167631e+01	-1.774420e+03
1.300000e-07	-7.105807e-06	-2.705008e-08	-5.142926e+01	-1.772232e+03
1.400000e-07	-7.069412e-06	-2.698549e-08	-5.116585e+01	-1.770019e+03
1.500000e-07	-7.031187e-06	-2.690385e-08	-5.088920e+01	-1.767775e+03
1.600000e-07	-6.990880e-06	-2.697138e-08	-5.059746e+01	-1.765459e+03
1.700000e-07	-6.948109e-06	-2.691999e-08	-5.028791e+01	-1.762998e+03
1.800000e-07	-6.902925e-06	-2.675784e-08	-4.996088e+01	-1.760303e+03
1.900000e-07	-6.855190e-06	-2.680627e-08	-4.961539e+01	-1.757283e+03
2.000000e-07	-6.804574e-06	-2.671724e-08	-4.924905e+01	-1.753872e+03
2.100000e-07	-6.751260e-06	-2.660972e-08	-4.886318e+01	-1.750042e+03
2.200000e-07	-6.695405e-06	-2.659061e-08	-4.845892e+01	-1.745808e+03
2.300000e-07	-6.637027e-06	-2.651476e-08	-4.803641e+01	-1.741224e+03
2.400000e-07	-6.576265e-06	-2.647632e-08	-4.759663e+01	-1.736369e+03
2.500000e-07	-6.513088e-06	-2.636617e-08	-4.713938e+01	-1.731322e+03
2.600000e-07	-6.447337e-06	-2.630466e-08	-4.666350e+01	-1.726142e+03
2.700000e-07	-6.379120e-06	-2.622200e-08	-4.616977e+01	-1.720851e+03
2.800000e-07	-6.308583e-06	-2.611418e-08	-4.565924e+01	-1.715430e+03
2.900000e-07	-6.235622e-06	-2.603154e-08	-4.513118e+01	-1.709823e+03
3.000000e-07	-6.160124e-06	-2.594380e-08	-4.458476e+01	-1.703954e+03
3.100000e-07	-6.082022e-06	-2.588007e-08	-4.401948e+01	-1.697751e+03
3.200000e-07	-6.001391e-06	-2.575079e-08	-4.343590e+01	-1.691160e+03
3.300000e-07	-5.918610e-06	-2.564470e-08	-4.283676e+01	-1.684163e+03
3.400000e-07	-5.833934e-06	-2.553583e-08	-4.222391e+01	-1.676780e+03
3.500000e-07	-5.747385e-06	-2.540715e-08	-4.159750e+01	-1.669054e+03
3.600000e-07	-5.658855e-06	-2.530250e-08	-4.095675e+01	-1.661038e+03
3.700000e-07	-5.568152e-06	-2.518313e-08	-4.030028e+01	-1.652774e+03
3.800000e-07	-5.475402e-06	-2.504821e-08	-3.962898e+01	-1.644275e+03
3.900000e-07	-5.380774e-06	-2.489657e-08	-3.894410e+01	-1.635515e+03
4.000000e-07	-5.284272e-06	-2.476152e-08	-3.824565e+01	-1.626437e+03
4.100000e-07	-5.185834e-06	-2.461954e-08	-3.753319e+01	-1.616963e+03
4.200000e-07	-5.085567e-06	-2.446971e-08	-3.680750e+01	-1.607016e+03
4.300000e-07	-4.983614e-06	-2.431590e-08	-3.606960e+01	-1.596537e+03
4.400000e-07	-4.879891e-06	-2.414769e-08	-3.531889e+01	-1.585503e+03
4.500000e-07	-4.774349e-06	-2.396488e-08	-3.455502e+01	-1.573924e+03
4.600000e-07	-4.667052e-06	-2.377663e-08	-3.377844e+01	-1.561837e+03
4.700000e-07	-4.558125e-06	-2.359121e-08	-3.299006e+01	-1.549289e+03
4.800000e-07	-4.447663e-06	-2.340170e-08	-3.219058e+01	-1.536311e+03
4.900000e-07	-4.335548e-06	-2.319984e-08	-3.137913e+01	-1.522904e+03
5.000000e-07	-4.221673e-06	-2.298055e-08	-3.055495e+01	-1.509029e+03
5.100000e-07	-4.106065e-06	-2.275495e-08	-2.971822e+01	-1.494607e+03
5.200000e-07	-3.988828e-06	-2.252042e-08	-2.886969e+01	-1.479539e+03
5.300000e-07	-3.870171e-06	-2.227630e-08	-2.801090e+01	-1.463723e+03
5.400000e-07	-3.750062e-06	-2.202258e-08	-2.714159e+01	-1.447080e+03
5.500000e-07	-3.628504e-06	-2.175982e-08	-2.626181e+01	-1.429564e+03
5.600000e-07	-3.505569e-06	-2.148019e-08	-2.537204e+01	-1.411169e+03
5.700000e-07	-3.381242e-06	-2.118448e-08	-2.447221e+01	-1.391912e+03
5.800000e-07	-3.255728e-06	-2.087678e-08	-2.356379e+01	-1.371816e+03
5.900000e-07	-3.129171e-06	-2.055928e-08	-2.264781e+01	-1.350880e+03
6.000000e-07	-3.001449e-06	-2.022786e-08	-2.172340e+01	-1.329057e+03
6.100000e-07	-2.872462e-06	-1.987535e-08	-2.078984e+01	-1.306245e+03
6.200000e-07	-2.742367e-06	-1.950438e-08	-1.984826e+01	-1.282290e+03
6.300000e-07	-2.611289e-06	-1.911403e-08	-1.889957e+01	-1.257003e+03
6.400000e-07	-2.479193e-06	-1.870310e-08	-1.794350e+01	-1.230194e+03
6.500000e-07	-2.346190e-06	-1.826609e-08	-1.698088e+01	-1.201691e+03
6.600000e-07	-2.212477e-06	-1.780548e-08	-1.601311e+01	-1.171364e+03
6.700000e-07	-2.078109e-06	-1.731770e-08	-1.504060e+01	-1.139122e+03
6.800000e-07	-1.942989e-06	-1.680082e-08	-1.406265e+01	-1.104896e+03
6.900000e-07	-1.807076e-06	-1.625195e-08	-1.307896e+01	-1.068608e+03
7.000000e-07	-1.670427e-06	-1.566662e-08	-1.208995e+01	-1.030134e+03
7.100000e-07	-1.533150e-06	-1.504134e-08	-1.109638e+01	-9.892734e+02
7.200000e-07	-1.395390e-06	-1.437039e-08	-1.009933e+01	-9.457487e+02
7.300000e-07	-1.257199e-06	-1.365566e-08	-9.099152e+00	-8.992250e+02
7.400000e-07	-1.118582e-06	-1.289062e-08	-8.095891e+00	-8.493628e+02
7.500000e-07	-9.795429e-07	-1.207438e-08	-7.089578e+00	-7.958909e+02
7.600000e-07	-8.401375e-07	-1.120771e-08	-6.080612e+00	-7.386811e+02
7.700000e-07	-7.003958e-07	-1.028883e-08	-5.069212e+00	-6.778095e+02
7.800000e-07	-5.603169e-07	-9.315785e-09	-4.055371e+00	-6.135810e+02
7.900000e-07	-4.199467e-07	-8.295184e-09	-3.039423e+00	-5.465094e+02
8.000000e-07	-2.793821e-07	-7.239416e-09	-2.022067e+00	-4.772491e+02
8.100000e-07	-1.386646e-07	-6.158895e-09	-1.003604e+00	-4.064909e+02
8.200000e-07	2.159240e-09	-5.063856e-09	1.562780e-02	-3.348408e+02
8.300000e-07	1.429765e-07	-3.958969e-09	1.034812e+00	-2.627122e+02
8.400000e-07	2.838033e-07	-2.852055e-09	2.054066e+00	-1.902535e+02
8.500000e-07	4.245305e-07	-1.741661e-09	3.072598e+00	-1.173353e+02
8.600000e-07	5.650129e-07	-6.220594e-10	4.089360e+00	-4.360072e+01
8.700000e-07	7.052733e-07	5.143494e-10	5.104513e+00	3.142560e+01
8.800000e-07	8.452572e-07	1.675804e-09	6.117666e+00	1.081925e+02
8.900000e-07	9.848748e-07	2.868561e-09	7.128168e+00	1.869711e+02
9.000000e-07	1.124129e-06	4.097187e-09	8.136040e+00	2.677291e+02
9.100000e-07	1.262994e-06	5.355756e-09	9.141094e+00	3.500614e+02
9.200000e-07	1.401413e-06	6.629875e-09	1.014292e+01	4.331893e+02
9.300000e-07	1.539383e-06	7.898096e-09	1.114150e+01	5.160339e+02
9.400000e-07	1.676809e-06	9.139280e-09	1.213614e+01	5.973463e+02
9.500000e-07	1.813580e-06	1.033198e-08	1.312604e+01	6.758705e+02
9.600000e-07	1.949572e-06	1.146135e-08	1.411030e+01	7.505045e+02
9.700000e-07	2.084689e-06	1.251684e-08	1.508822e+01	8.204308e+02
9.800000e-07	2.218964e-06	1.349343e-08	1.606006e+01	8.851917e+02
9.900000e-07	2.352518e-06	1.439246e-08	1.702668e+01	9.446995e+02
1.000000e-06	2.485293e-06	1.521997e-08	1.798765e+01	9.991858e+02
1.010000e-06	2.617007e-06	1.598040e-08	1.894095e+01	1.049108e+03
1.020000e-06	2.747655e-06	1.668111e-08	1.988653e+01	1.095031e+03
1.030000e-06	2.877393e-06	1.733136e-08	2.082553e+01	1.137523e+03
1.040000e-06	3.006117e-06	1.793640e-08	2.175719e+01	1.177069e+03
1.050000e-06	3.133610e-06	1.849719e-08	2.267994e+01	1.214029e+03
1.060000e-06	3.259905e-06	1.901889e-08	2.359402e+01	1.248636e+03
1.070000e-06	3.385167e-06	1.950587e-08	2.450062e+01	1.281025e+03
1.080000e-06	3.509261e-06	1.996083e-08	2.539877e+01	1.311283e+03
1.090000e-06	3.632045e-06	2.038622e-08	2.628743e+01	1.339496e+03
1.100000e-06	3.753599e-06	2.078276e-08	2.716719e+01	1.365783e+03
1.110000e-06	3.873795e-06	2.115667e-08	2.803713e+01	1.390312e+03
1.120000e-06	3.992489e-06	2.151311e-08	2.889619e+01	1.413288e+03
1.130000e-06	4.109775e-06	2.184923e-08	2.974507e+01	1.434925e+03
1.140000e-06	4.225537e-06	2.216515e-08	3.058291e+01	1.455420e+03
1.150000e-06	4.339691e-06	2.246328e-08	3.140912e+01	1.474921e+03
1.160000e-06	4.452181e-06	2.274516e-08	3.222328e+01	1.493516e+03
1.170000e-06	4.562958e-06	2.301053e-08	3.302504e+01	1.511234e+03
1.180000e-06	4.672206e-06	2.325952e-08	3.381574e+01	1.528068e+03
1.190000e-06	4.779865e-06	2.349845e-08	3.459494e+01	1.543996e+03
1.200000e-06	4.885865e-06	2.372553e-08	3.536212e+01	1.559013e+03
1.210000e-06	4.990103e-06	2.394232e-08	3.611656e+01	1.573149e+03
1.220000e-06	5.092447e-06	2.414878e-08	3.685729e+01	1.586472e+03
1.230000e-06	5.192979e-06	2.434427e-08	3.758490e+01	1.599080e+03
1.240000e-06	5.291689e-06	2.452955e-08	3.829933e+01	1.611083e+03
1.250000e-06	5.388374e-06	2.470528e-08	3.899910e+01	1.622582e+03
1.260000e-06	5.483017e-06	2.487250e-08	3.968410e+01	1.633641e+03
1.270000e-06	5.575782e-06	2.503218e-08	4.035550e+01	1.644285e+03
1.280000e-06	5.666578e-06	2.518432e-08	4.101264e+01	1.654499e+03
1.290000e-06	5.755216e-06	2.532924e-08	4.165418e+01	1.664239e+03
1.300000e-06	5.841737e-06	2.546903e-08	4.228038e+01	1.673458e+03
1.310000e-06	5.926239e-06	2.560283e-08	4.289198e+01	1.682118e+03
1.320000e-06	6.008709e-06	2.573050e-08	4.348887e+01	1.690214e+03
1.330000e-06	6.088994e-06	2.585076e-08	4.406994e+01	1.697774e+03
1.340000e-06	6.166978e-06	2.596216e-08	4.463436e+01	1.704858e+03
1.350000e-06	6.242624e-06	2.606600e-08	4.518186e+01	1.711538e+03
1.360000e-06	6.315856e-06	2.616262e-08	4.571188e+01	1.717888e+03
1.370000e-06	6.386736e-06	2.625287e-08	4.622489e+01	1.723962e+03
1.380000e-06	6.455369e-06	2.633860e-08	4.672163e+01	1.729787e+03
1.390000e-06	6.521748e-06	2.642179e-08	4.720206e+01	1.735364e+03
1.400000e-06	6.585766e-06	2.650246e-08	4.766540e+01	1.740671e+03
1.410000e-06	6.647502e-06	2.657904e-08	4.811222e+01	1.745683e+03
1.420000e-06	6.707006e-06	2.665002e-08	4.854289e+01	1.750380e+03
1.430000e-06	6.764105e-06	2.671605e-08	4.895615e+01	1.754758e+03
1.440000e-06	6.818720e-06	2.677885e-08	4.935143e+01	1.758838e+03
1.450000e-06	6.870701e-06	2.683798e-08	4.972766e+01	1.762653e+03
1.460000e-06	6.919902e-06	2.689400e-08	5.008375e+01	1.766247e+03
1.470000e-06	6.966475e-06	2.694706e-08	5.042083e+01	1.769652e+03
1.480000e-06	7.010654e-06	2.699770e-08	5.074058e+01	1.772888e+03
1.490000e-06	7.052356e-06	2.704560e-08	5.104241e+01	1.775949e+03
1.500000e-06	7.091470e-06	2.708939e-08	5.132550e+01	1.778810e+03
1.510000e-06	7.128132e-06	2.712853e-08	5.159084e+01	1.781436e+03
1.520000e-06	7.162277e-06	2.716340e-08	5.183797e+01	1.783790e+03
1.530000e-06	7.193830e-06	2.719433e-08	5.206635e+01	1.785849e+03
1.540000e-06	7.222904e-06	2.722120e-08	5.227677e+01	1.787613e+03
1.550000e-06	7.249417e-06	2.724590e-08	5.246866e+01	1.789102e+03
1.560000e-06	7.273183e-06	2.726752e-08	5.264067e+01	1.790354e+03
1.570000e-06	7.294349e-06	2.728678e-08	5.279386e+01	1.791413e+03
1.580000e-06	7.313103e-06	2.730293e-08	5.292960e+01	1.792316e+03
1.590000e-06	7.329179e-06	2.731444e-08	5.304595e+01	1.793088e+03
1.600000e-06	7.342439e-06	2.732208e-08	5.314192e+01	1.793728e+03
1.610000e-06	7.352841e-06	2.732772e-08	5.321721e+01	1.794221e+03
1.620000e-06	7.360376e-06	2.733242e-08	5.327175e+01	1.794538e+03
1.630000e-06	7.365340e-06	2.733485e-08	5.330767e+01	1.794653e+03
1.640000e-06	7.367762e-06	2.733541e-08	5.332520e+01	1.794547e+03
1.650000e-06	7.367536e-06	2.733589e-08	5.332356e+01	1.794220e+03
1.660000e-06	7.364801e-06	2.732491e-08	5.330377e+01	1.793689e+03
1.670000e-06	7.359618e-06	2.731284e-08	5.326625e+01	1.792983e+03
1.680000e-06	7.351894e-06	2.730236e-08	5.321035e+01	1.792134e+03
1.690000e-06	7.341779e-06	2.728786e-08	5.313714e+01	1.791162e+03
1.700000e-06	7.329182e-06	2.727330e-08	5.304597e+01	1.790078e+03
1.710000e-06	7.313963e-06	2.726071e-08	5.293582e+01	1.788871e+03
1.720000e-06	7.296431e-06	2.724996e-08	5.280894e+01	1.787523e+03
1.730000e-06	7.276809e-06	2.721643e-08	5.266691e+01	1.786010e+03
1.740000e-06	7.254624e-06	2.710193e-08	5.250635e+01	1.784322e+03
1.750000e-06	7.229117e-06	2.709387e-08	5.232174e+01	1.782461e+03
1.760000e-06	7.200205e-06	2.712233e-08	5.211248e+01	1.780454e+03
1.770000e-06	7.168508e-06	2.708377e-08	5.188308e+01	1.778340e+03
1.780000e-06	7.134699e-06	2.706989e-08	5.163837e+01	1.776164e+03
1.790000e-06	7.099172e-06	2.712951e-08	5.138124e+01	1.773958e+03
1.800000e-06	7.061990e-06	2.701073e-08	5.111213e+01	1.771727e+03
1.810000e-06	7.022489e-06	2.690639e-08	5.082624e+01	1.769443e+03
1.820000e-06	6.980340e-06	2.701992e-08	5.052118e+01	1.767043e+03
1.830000e-06	6.935980e-06	2.688488e-08	5.020012e+01	1.764442e+03
1.840000e-06	6.889159e-06	2.692903e-08	4.986125e+01	1.761546e+03
1.850000e-06	6.839635e-06	2.691736e-08	4.950281e+01	1.758280e+03
1.860000e-06	6.787501e-06	2.676376e-08	4.912548e+01	1.754599e+03
1.870000e-06	6.732576e-06	2.676838e-08	4.872796e+01	1.750504e+03
1.880000e-06	6.675177e-06	2.660015e-08	4.831252e+01	1.746036e+03
1.890000e-06	6.615282e-06	2.659619e-08	4.787902e+01	1.741268e+03
1.900000e-06	6.552676e-06	2.653190e-08	4.742590e+01	1.736280e+03
1.910000e-06	6.487599e-06	2.641415e-08	4.695490e+01	1.731142e+03
1.920000e-06	6.420157e-06	2.641275e-08	4.646678e+01	1.725890e+03
1.930000e-06	6.350323e-06	2.626228e-08	4.596134e+01	1.720520e+03
1.940000e-06	6.277983e-06	2.621554e-08	4.543777e+01	1.714987e+03
1.950000e-06	6.203254e-06	2.608620e-08	4.489691e+01	1.709220e+03
1.960000e-06	6.126003e-06	2.599508e-08	4.433780e+01	1.703142e+03
1.970000e-06	6.046242e-06	2.592744e-08	4.376052e+01	1.696693e+03
1.980000e-06	5.964394e-06	2.578562e-08	4.316813e+01	1.689840e+03
1.990000e-06	5.880494e-06	2.573008e-08	4.256089e+01	1.682590e+03
2.000000e-06	5.794388e-06	2.557792e-08	4.193769e+01	1.674980e+03
2.010000e-06	5.706078e-06	2.546868e-08	4.129853e+01	1.667061e+03
2.020000e-06	5.615801e-06	2.533122e-08	4.064514e+01	1.658882e+03
2.030000e-06	5.523597e-06	2.521476e-08	3.997780e+01	1.650466e+03
2.040000e-06	5.429336e-06	2.509833e-08	3.929557e+01	1.641804e+03
2.050000e-06	5.333122e-06	2.494468e-08	3.859921e+01	1.632847e+03
2.060000e-06	5.235161e-06	2.481119e-08	3.789021e+01	1.623523e+03
2.070000e-06	5.135509e-06	2.463445e-08	3.716896e+01	1.613752e+03
2.080000e-06	5.034045e-06	2.448375e-08	3.643460e+01	1.603468e+03
2.090000e-06	4.930651e-06	2.431518e-08	3.568627e+01	1.592632e+03
2.100000e-06	4.825430e-06	2.416425e-08	3.492472e+01	1.581243e+03
2.110000e-06	4.718686e-06	2.398715e-08	3.415214e+01	1.569332e+03
2.120000e-06	4.610393e-06	2.379391e-08	3.336836e+01	1.556942e+03
2.130000e-06	4.500418e-06	2.358941e-08	3.257240e+01	1.544115e+03
2.140000e-06	4.388756e-06	2.338398e-08	3.176423e+01	1.530864e+03
2.150000e-06	4.275361e-06	2.317801e-08	3.094352e+01	1.517162e+03
2.160000e-06	4.160303e-06	2.295949e-08	3.011077e+01	1.502945e+03
2.170000e-06	4.043544e-06	2.274103e-08	2.926571e+01	1.488119e+03
2.180000e-06	3.925104e-06	2.249882e-08	2.840848e+01	1.472580e+03
2.190000e-06	3.805082e-06	2.225036e-08	2.753981e+01	1.456239e+03
2.200000e-06	3.683629e-06	2.198472e-08	2.666077e+01	1.439037e+03
2.210000e-06	3.560888e-06	2.171905e-08	2.577242e+01	1.420954e+03
2.220000e-06	3.436817e-06	2.143477e-08	2.487444e+01	1.402001e+03
2.230000e-06	3.311407e-06	2.113753e-08	2.396677e+01	1.382202e+03
2.240000e-06	3.184789e-06	2.082172e-08	2.305035e+01	1.361568e+03
2.250000e-06	3.056962e-06	2.049069e-08	2.212519e+01	1.340070e+03
2.260000e-06	2.927949e-06	2.014537e-08	2.119143e+01	1.317626e+03
2.270000e-06	2.797951e-06	1.978454e-08	2.025056e+01	1.294098e+03
2.280000e-06	2.667046e-06	1.940952e-08	1.930312e+01	1.269309e+03
2.290000e-06	2.535140e-06	1.901184e-08	1.834843e+01	1.243064e+03
2.300000e-06	2.402255e-06	1.859037e-08	1.738665e+01	1.215182e+03
2.310000e-06	2.268580e-06	1.813751e-08	1.641916e+01	1.185518e+03
2.320000e-06	2.134208e-06	1.765749e-08	1.544663e+01	1.153967e+03
2.330000e-06	1.999110e-06	1.714547e-08	1.446884e+01	1.120457e+03
2.340000e-06	1.863278e-06	1.660449e-08	1.348574e+01	1.084917e+03
2.350000e-06	1.726747e-06	1.603146e-08	1.249757e+01	1.047241e+03
2.360000e-06	1.589611e-06	1.542311e-08	1.150503e+01	1.007260e+03
2.370000e-06	1.452002e-06	1.477401e-08	1.050907e+01	9.647223e+02
2.380000e-06	1.314002e-06	1.407695e-08	9.510270e+00	9.193090e+02
2.390000e-06	1.175632e-06	1.332953e-08	8.508802e+00	8.706747e+02
2.400000e-06	1.036797e-06	1.252886e-08	7.503965e+00	8.185149e+02
2.410000e-06	8.974602e-07	1.167591e-08	6.495493e+00	7.626422e+02
2.420000e-06	7.577810e-07	1.077229e-08	5.484545e+00	7.030546e+02
2.430000e-06	6.178639e-07	9.816183e-09	4.471875e+00	6.399750e+02
2.440000e-06	4.776511e-07	8.810619e-09	3.457066e+00	5.738483e+02
2.450000e-06	3.371985e-07	7.763457e-09	2.440521e+00	5.052890e+02
2.460000e-06	1.966518e-07	6.687129e-09	1.423295e+00	4.349885e+02
2.470000e-06	5.598696e-08	5.593631e-09	4.052134e-01	3.635967e+02
2.480000e-06	-8.476395e-08	4.490122e-09	-6.134908e-01	2.916065e+02
2.490000e-06	-2.254844e-07	3.380901e-09	-1.631975e+00	2.192658e+02
2.500000e-06	-3.660795e-07	2.265783e-09	-2.649551e+00	1.465420e+02
2.510000e-06	-5.065323e-07	1.142577e-09	-3.666098e+00	7.314944e+01
2.520000e-06	-6.468759e-07	4.978222e-12	-4.681854e+00	-1.360073e+00
2.530000e-06	-7.870474e-07	-1.153395e-09	-5.696365e+00	-7.746270e+01
2.540000e-06	-9.269504e-07	-2.338658e-09	-6.708932e+00	-1.555093e+02
2.550000e-06	-1.066375e-06	-3.555736e-09	-7.718036e+00	-2.355876e+02
2.560000e-06	-1.205258e-06	-4.803380e-09	-8.723219e+00	-3.174292e+02
2.570000e-06	-1.343660e-06	-6.074413e-09	-9.724924e+00	-4.003843e+02
2.580000e-06	-1.481653e-06	-7.352956e-09	-1.072367e+01	-4.834686e+02
2.590000e-06	-1.619157e-06	-8.617161e-09	-1.171888e+01	-5.654764e+02
2.600000e-06	-1.756014e-06	-9.842070e-09	-1.270939e+01	-6.451349e+02
2.610000e-06	-1.892188e-06	-1.100635e-08	-1.369498e+01	-7.212698e+02
2.620000e-06	-2.027622e-06	-1.209814e-08	-1.467519e+01	-7.929503e+02
2.630000e-06	-2.162283e-06	-1.311138e-08	-1.564983e+01	-8.595856e+02
2.640000e-06	-2.296186e-06	-1.404562e-08	-1.661897e+01	-9.209585e+02
2.650000e-06	-2.429251e-06	-1.490475e-08	-1.758204e+01	-9.771959e+02
2.660000e-06	-2.561318e-06	-1.569587e-08	-1.853790e+01	-1.028687e+03
2.670000e-06	-2.692370e-06	-1.642475e-08	-1.948640e+01	-1.075972e+03
2.680000e-06	-2.822473e-06	-1.709914e-08	-2.042804e+01	-1.119629e+03
2.690000e-06	-2.951577e-06	-1.772703e-08	-2.136245e+01	-1.160180e+03
2.700000e-06	-3.079559e-06	-1.831229e-08	-2.228873e+01	-1.198031e+03
2.710000e-06	-3.206410e-06	-1.885733e-08	-2.320684e+01	-1.233459e+03
2.720000e-06	-3.332213e-06	-1.936162e-08	-2.411735e+01	-1.266630e+03
2.730000e-06	-3.456833e-06	-1.983058e-08	-2.501931e+01	-1.297641e+03
2.740000e-06	-3.580101e-06	-2.026743e-08	-2.591148e+01	-1.326573e+03
2.750000e-06	-3.702130e-06	-2.067473e-08	-2.679468e+01	-1.353532e+03
2.760000e-06	-3.822856e-06	-2.105825e-08	-2.766845e+01	-1.378668e+03
2.770000e-06	-3.942077e-06	-2.141976e-08	-2.853133e+01	-1.402174e+03
2.780000e-06	-4.059844e-06	-2.176329e-08	-2.938368e+01	-1.424266e+03
2.790000e-06	-4.175993e-06	-2.208884e-08	-3.022433e+01	-1.445150e+03
2.800000e-06	-4.290367e-06	-2.239518e-08	-3.105213e+01	-1.464993e+03
2.810000e-06	-4.403109e-06	-2.268528e-08	-3.186811e+01	-1.483906e+03
2.820000e-06	-4.514124e-06	-2.295831e-08	-3.267160e+01	-1.501938e+03
2.830000e-06	-4.623480e-06	-2.321585e-08	-3.346308e+01	-1.519091e+03
2.840000e-06	-4.731333e-06	-2.345969e-08	-3.424368e+01	-1.535345e+03
2.850000e-06	-4.837678e-06	-2.369090e-08	-3.501336e+01	-1.550687e+03
2.860000e-06	-4.942363e-06	-2.391099e-08	-3.577104e+01	-1.565132e+03
2.870000e-06	-5.045167e-06	-2.411977e-08	-3.651510e+01	-1.578736e+03
2.880000e-06	-5.146029e-06	-2.431981e-08	-3.724510e+01	-1.591587e+03
2.890000e-06	-5.245002e-06	-2.451217e-08	-3.796143e+01	-1.603795e+03
2.900000e-06	-5.342192e-06	-2.469512e-08	-3.866486e+01	-1.615465e+03
2.910000e-06	-5.437527e-06	-2.486874e-08	-3.935486e+01	-1.626677e+03
2.920000e-06	-5.530928e-06	-2.503360e-08	-4.003086e+01	-1.637470e+03
2.930000e-06	-5.622313e-06	-2.518884e-08	-4.069227e+01	-1.647842e+03
2.940000e-06	-5.711620e-06	-2.533518e-08	-4.133865e+01	-1.657758e+03
