# Temperatura_=_28.92
# Concentracion g/m^3_=_28200.0
# C_Vs_to_Am_M_A/Vsm_=_65563218390.804596
# pendiente_HvsI_1/m_=_3716.3
# ordenada_HvsI_A/m_=_1297.0
# frecuencia_Hz_=_302402.0186980916

Tiempo_(s)	Campo_(V.s)	Magnetizacion_(V.s)	Campo_(kA/m)	Magnetizacion_(A/m)
0.000000e+00	-7.323081e-06	-2.614062e-08	-5.318553e+01	-1.711542e+03
1.000000e-08	-7.319528e-06	-2.614011e-08	-5.315973e+01	-1.711064e+03
2.000000e-08	-7.313613e-06	-2.612804e-08	-5.311677e+01	-1.710415e+03
3.000000e-08	-7.305388e-06	-2.611345e-08	-5.305703e+01	-1.709620e+03
4.000000e-08	-7.294651e-06	-2.609841e-08	-5.297905e+01	-1.708707e+03
5.000000e-08	-7.281195e-06	-2.608250e-08	-5.288132e+01	-1.707694e+03
6.000000e-08	-7.265007e-06	-2.606119e-08	-5.276376e+01	-1.706589e+03
7.000000e-08	-7.246465e-06	-2.603884e-08	-5.262909e+01	-1.705386e+03
8.000000e-08	-7.225884e-06	-2.601711e-08	-5.247962e+01	-1.704072e+03
9.000000e-08	-7.202822e-06	-2.606490e-08	-5.231212e+01	-1.702629e+03
1.000000e-07	-7.176798e-06	-2.605307e-08	-5.212312e+01	-1.701047e+03
1.100000e-07	-7.147901e-06	-2.595565e-08	-5.191325e+01	-1.699325e+03
1.200000e-07	-7.116531e-06	-2.590333e-08	-5.168541e+01	-1.697473e+03
1.300000e-07	-7.082666e-06	-2.588137e-08	-5.143946e+01	-1.695509e+03
1.400000e-07	-7.046490e-06	-2.582152e-08	-5.117673e+01	-1.693452e+03
1.500000e-07	-7.008518e-06	-2.574271e-08	-5.090095e+01	-1.691311e+03
1.600000e-07	-6.968504e-06	-2.582868e-08	-5.061034e+01	-1.689080e+03
1.700000e-07	-6.925953e-06	-2.575956e-08	-5.030130e+01	-1.686731e+03
1.800000e-07	-6.881030e-06	-2.560278e-08	-4.997503e+01	-1.684223e+03
1.900000e-07	-6.833663e-06	-2.566369e-08	-4.963102e+01	-1.681500e+03
2.000000e-07	-6.783366e-06	-2.558664e-08	-4.926573e+01	-1.678513e+03
2.100000e-07	-6.730278e-06	-2.552945e-08	-4.888016e+01	-1.675223e+03
2.200000e-07	-6.674721e-06	-2.550152e-08	-4.847667e+01	-1.671615e+03
2.300000e-07	-6.616667e-06	-2.539597e-08	-4.805504e+01	-1.667698e+03
2.400000e-07	-6.556149e-06	-2.536875e-08	-4.761552e+01	-1.663504e+03
2.500000e-07	-6.493290e-06	-2.526991e-08	-4.715898e+01	-1.659075e+03
2.600000e-07	-6.427969e-06	-2.520631e-08	-4.668457e+01	-1.654454e+03
2.700000e-07	-6.360109e-06	-2.514787e-08	-4.619173e+01	-1.649669e+03
2.800000e-07	-6.289911e-06	-2.507354e-08	-4.568190e+01	-1.644729e+03
2.900000e-07	-6.217384e-06	-2.498645e-08	-4.515516e+01	-1.639616e+03
3.000000e-07	-6.142302e-06	-2.488496e-08	-4.460986e+01	-1.634294e+03
3.100000e-07	-6.064614e-06	-2.483359e-08	-4.404563e+01	-1.628716e+03
3.200000e-07	-5.984432e-06	-2.472717e-08	-4.346329e+01	-1.622838e+03
3.300000e-07	-5.902090e-06	-2.463454e-08	-4.286526e+01	-1.616630e+03
3.400000e-07	-5.817796e-06	-2.452148e-08	-4.225306e+01	-1.610082e+03
3.500000e-07	-5.731592e-06	-2.440975e-08	-4.162698e+01	-1.603199e+03
3.600000e-07	-5.643416e-06	-2.432739e-08	-4.098658e+01	-1.596002e+03
3.700000e-07	-5.553080e-06	-2.421026e-08	-4.033050e+01	-1.588511e+03
3.800000e-07	-5.460716e-06	-2.408654e-08	-3.965969e+01	-1.580738e+03
3.900000e-07	-5.366478e-06	-2.395344e-08	-3.897526e+01	-1.572676e+03
4.000000e-07	-5.270319e-06	-2.382300e-08	-3.827688e+01	-1.564298e+03
4.100000e-07	-5.172290e-06	-2.368074e-08	-3.756493e+01	-1.555560e+03
4.200000e-07	-5.072474e-06	-2.355304e-08	-3.683999e+01	-1.546409e+03
4.300000e-07	-4.970920e-06	-2.341700e-08	-3.610243e+01	-1.536801e+03
4.400000e-07	-4.867636e-06	-2.325348e-08	-3.535231e+01	-1.526700e+03
4.500000e-07	-4.762617e-06	-2.308313e-08	-3.458958e+01	-1.516095e+03
4.600000e-07	-4.655836e-06	-2.291520e-08	-3.381406e+01	-1.504988e+03
4.700000e-07	-4.547317e-06	-2.274547e-08	-3.302592e+01	-1.493393e+03
4.800000e-07	-4.437241e-06	-2.256879e-08	-3.222646e+01	-1.481323e+03
4.900000e-07	-4.325596e-06	-2.238499e-08	-3.141562e+01	-1.468776e+03
5.000000e-07	-4.212247e-06	-2.217647e-08	-3.059240e+01	-1.455727e+03
5.100000e-07	-4.097172e-06	-2.195170e-08	-2.975664e+01	-1.442128e+03
5.200000e-07	-3.980430e-06	-2.172495e-08	-2.890877e+01	-1.427911e+03
5.300000e-07	-3.862203e-06	-2.150221e-08	-2.805012e+01	-1.413002e+03
5.400000e-07	-3.742603e-06	-2.126540e-08	-2.718150e+01	-1.397333e+03
5.500000e-07	-3.621595e-06	-2.101291e-08	-2.630265e+01	-1.380850e+03
5.600000e-07	-3.499168e-06	-2.074911e-08	-2.541350e+01	-1.363522e+03
5.700000e-07	-3.375346e-06	-2.047194e-08	-2.451421e+01	-1.345335e+03
5.800000e-07	-3.250219e-06	-2.017832e-08	-2.360545e+01	-1.326277e+03
5.900000e-07	-3.123963e-06	-1.987446e-08	-2.268849e+01	-1.306327e+03
6.000000e-07	-2.996649e-06	-1.955965e-08	-2.176384e+01	-1.285437e+03
6.100000e-07	-2.868173e-06	-1.922106e-08	-2.083076e+01	-1.263521e+03
6.200000e-07	-2.738575e-06	-1.886189e-08	-1.988952e+01	-1.240454e+03
6.300000e-07	-2.608039e-06	-1.848403e-08	-1.894147e+01	-1.216081e+03
6.400000e-07	-2.476490e-06	-1.808896e-08	-1.798607e+01	-1.190234e+03
6.500000e-07	-2.343901e-06	-1.766855e-08	-1.702311e+01	-1.162751e+03
6.600000e-07	-2.210587e-06	-1.722306e-08	-1.605489e+01	-1.133486e+03
6.700000e-07	-2.076684e-06	-1.674933e-08	-1.508239e+01	-1.102320e+03
6.800000e-07	-1.942098e-06	-1.624607e-08	-1.410493e+01	-1.069147e+03
6.900000e-07	-1.806764e-06	-1.571063e-08	-1.312203e+01	-1.033864e+03
7.000000e-07	-1.670664e-06	-1.513829e-08	-1.213358e+01	-9.963420e+02
7.100000e-07	-1.533910e-06	-1.452807e-08	-1.114037e+01	-9.564128e+02
7.200000e-07	-1.396611e-06	-1.387559e-08	-1.014320e+01	-9.138638e+02
7.300000e-07	-1.258919e-06	-1.318294e-08	-9.143184e+00	-8.684527e+02
7.400000e-07	-1.120854e-06	-1.244094e-08	-8.140456e+00	-8.199461e+02
7.500000e-07	-9.823493e-07	-1.164966e-08	-7.134534e+00	-7.681727e+02
7.600000e-07	-8.434487e-07	-1.081255e-08	-6.125737e+00	-7.130840e+02
7.700000e-07	-7.041728e-07	-9.928517e-09	-5.114214e+00	-6.548050e+02
7.800000e-07	-5.646196e-07	-8.997337e-09	-4.100678e+00	-5.936608e+02
7.900000e-07	-4.248395e-07	-8.029581e-09	-3.085493e+00	-5.301671e+02
8.000000e-07	-2.848465e-07	-7.038690e-09	-2.068762e+00	-4.649801e+02
8.100000e-07	-1.446651e-07	-6.030460e-09	-1.050663e+00	-3.988098e+02
8.200000e-07	-4.345332e-09	-5.016528e-09	-3.155896e-02	-3.323132e+02
8.300000e-07	1.360104e-07	-4.006869e-09	9.878066e-01	-2.659852e+02
8.400000e-07	2.762885e-07	-3.006901e-09	2.006608e+00	-2.000741e+02
8.500000e-07	4.164602e-07	-2.011846e-09	3.024637e+00	-1.345392e+02
8.600000e-07	5.565063e-07	-1.018115e-09	4.041753e+00	-6.906508e+01
8.700000e-07	6.963566e-07	-1.765115e-11	5.057447e+00	-3.133298e+00
8.800000e-07	8.359288e-07	1.002004e-09	6.071122e+00	6.386056e+01
8.900000e-07	9.751665e-07	2.047077e-09	7.082367e+00	1.324649e+02
9.000000e-07	1.113944e-06	3.122839e-09	8.090271e+00	2.030335e+02
9.100000e-07	1.252240e-06	4.228011e-09	9.094678e+00	2.756177e+02
9.200000e-07	1.390129e-06	5.360143e-09	1.009612e+01	3.499116e+02
9.300000e-07	1.527525e-06	6.508453e-09	1.109400e+01	4.252609e+02
9.400000e-07	1.664330e-06	7.659661e-09	1.208757e+01	5.007331e+02
9.500000e-07	1.800454e-06	8.797080e-09	1.307621e+01	5.752363e+02
9.600000e-07	1.935834e-06	9.901016e-09	1.405943e+01	6.476604e+02
9.700000e-07	2.070433e-06	1.095372e-08	1.503698e+01	7.170161e+02
9.800000e-07	2.204299e-06	1.194429e-08	1.600922e+01	7.825446e+02
9.900000e-07	2.337440e-06	1.286973e-08	1.697618e+01	8.437812e+02
1.000000e-06	2.469748e-06	1.372966e-08	1.793711e+01	9.005651e+02
1.010000e-06	2.601093e-06	1.452418e-08	1.889103e+01	9.530018e+02
1.020000e-06	2.731425e-06	1.525859e-08	1.983759e+01	1.001388e+03
1.030000e-06	2.860771e-06	1.594124e-08	2.077699e+01	1.046126e+03
1.040000e-06	2.989039e-06	1.657679e-08	2.170857e+01	1.087632e+03
1.050000e-06	3.116128e-06	1.716504e-08	2.263158e+01	1.126282e+03
1.060000e-06	3.242092e-06	1.771247e-08	2.354643e+01	1.162370e+03
1.070000e-06	3.366974e-06	1.822287e-08	2.445341e+01	1.196107e+03
1.080000e-06	3.490745e-06	1.869722e-08	2.535232e+01	1.227639e+03
1.090000e-06	3.613324e-06	1.913782e-08	2.624258e+01	1.257083e+03
1.100000e-06	3.734520e-06	1.954991e-08	2.712280e+01	1.284554e+03
1.110000e-06	3.854260e-06	1.994022e-08	2.799243e+01	1.310190e+03
1.120000e-06	3.972607e-06	2.030971e-08	2.885196e+01	1.334156e+03
1.130000e-06	4.089614e-06	2.065746e-08	2.970174e+01	1.356635e+03
1.140000e-06	4.205137e-06	2.098405e-08	3.054076e+01	1.377811e+03
1.150000e-06	4.318917e-06	2.129202e-08	3.136711e+01	1.397843e+03
1.160000e-06	4.430964e-06	2.158149e-08	3.218088e+01	1.416850e+03
1.170000e-06	4.541460e-06	2.185303e-08	3.298338e+01	1.434907e+03
1.180000e-06	4.650479e-06	2.210780e-08	3.377516e+01	1.452044e+03
1.190000e-06	4.757986e-06	2.235255e-08	3.455595e+01	1.468268e+03
1.200000e-06	4.863775e-06	2.258470e-08	3.532427e+01	1.483582e+03
1.210000e-06	4.967720e-06	2.280512e-08	3.607919e+01	1.498002e+03
1.220000e-06	5.069885e-06	2.301378e-08	3.682118e+01	1.511571e+03
1.230000e-06	5.170278e-06	2.321035e-08	3.755031e+01	1.524362e+03
1.240000e-06	5.268690e-06	2.339581e-08	3.826505e+01	1.536464e+03
1.250000e-06	5.365040e-06	2.356869e-08	3.896481e+01	1.547971e+03
1.260000e-06	5.459457e-06	2.373401e-08	3.965054e+01	1.558962e+03
1.270000e-06	5.551992e-06	2.389393e-08	4.032260e+01	1.569485e+03
1.280000e-06	5.642554e-06	2.404700e-08	4.098032e+01	1.579559e+03
1.290000e-06	5.730961e-06	2.419283e-08	4.162240e+01	1.589167e+03
1.300000e-06	5.817269e-06	2.433231e-08	4.224923e+01	1.598279e+03
1.310000e-06	5.901623e-06	2.446506e-08	4.286187e+01	1.606859e+03
1.320000e-06	5.983925e-06	2.458921e-08	4.345961e+01	1.614887e+03
1.330000e-06	6.063970e-06	2.470444e-08	4.404095e+01	1.622371e+03
1.340000e-06	6.141712e-06	2.481308e-08	4.460557e+01	1.629343e+03
1.350000e-06	6.217107e-06	2.491344e-08	4.515315e+01	1.635861e+03
1.360000e-06	6.290099e-06	2.500582e-08	4.568327e+01	1.641995e+03
1.370000e-06	6.360840e-06	2.509392e-08	4.619704e+01	1.647811e+03
1.380000e-06	6.429415e-06	2.517910e-08	4.669508e+01	1.653360e+03
1.390000e-06	6.495668e-06	2.526049e-08	4.717625e+01	1.658670e+03
1.400000e-06	6.559508e-06	2.533705e-08	4.763991e+01	1.663746e+03
1.410000e-06	6.621109e-06	2.540964e-08	4.808730e+01	1.668576e+03
1.420000e-06	6.680561e-06	2.547698e-08	4.851908e+01	1.673139e+03
1.430000e-06	6.737608e-06	2.553909e-08	4.893340e+01	1.677421e+03
1.440000e-06	6.792168e-06	2.559785e-08	4.932965e+01	1.681415e+03
1.450000e-06	6.844158e-06	2.565472e-08	4.970724e+01	1.685132e+03
1.460000e-06	6.893346e-06	2.570982e-08	5.006448e+01	1.688593e+03
1.470000e-06	6.939898e-06	2.576172e-08	5.040258e+01	1.691824e+03
1.480000e-06	6.984096e-06	2.580964e-08	5.072357e+01	1.694846e+03
1.490000e-06	7.025807e-06	2.585319e-08	5.102651e+01	1.697671e+03
1.500000e-06	7.064873e-06	2.589249e-08	5.131024e+01	1.700296e+03
1.510000e-06	7.101522e-06	2.592724e-08	5.157641e+01	1.702705e+03
1.520000e-06	7.135751e-06	2.595846e-08	5.182500e+01	1.704878e+03
1.530000e-06	7.167400e-06	2.598741e-08	5.205486e+01	1.706796e+03
1.540000e-06	7.196608e-06	2.601300e-08	5.226699e+01	1.708450e+03
1.550000e-06	7.223290e-06	2.603508e-08	5.246077e+01	1.709849e+03
1.560000e-06	7.247184e-06	2.605426e-08	5.263431e+01	1.711015e+03
1.570000e-06	7.268469e-06	2.607130e-08	5.278890e+01	1.711983e+03
1.580000e-06	7.287273e-06	2.608528e-08	5.292547e+01	1.712788e+03
1.590000e-06	7.303382e-06	2.609612e-08	5.304246e+01	1.713461e+03
1.600000e-06	7.316736e-06	2.610335e-08	5.313945e+01	1.714018e+03
1.610000e-06	7.327210e-06	2.610894e-08	5.321552e+01	1.714457e+03
1.620000e-06	7.334826e-06	2.611359e-08	5.327083e+01	1.714765e+03
1.630000e-06	7.339868e-06	2.611552e-08	5.330745e+01	1.714916e+03
1.640000e-06	7.342312e-06	2.611636e-08	5.332520e+01	1.714890e+03
1.650000e-06	7.342136e-06	2.611826e-08	5.332392e+01	1.714671e+03
1.660000e-06	7.339555e-06	2.610941e-08	5.330518e+01	1.714258e+03
1.670000e-06	7.334548e-06	2.609982e-08	5.326881e+01	1.713667e+03
1.680000e-06	7.327001e-06	2.608989e-08	5.321400e+01	1.712920e+03
1.690000e-06	7.317060e-06	2.607586e-08	5.314180e+01	1.712046e+03
1.700000e-06	7.304609e-06	2.606163e-08	5.305138e+01	1.711067e+03
1.710000e-06	7.289532e-06	2.605122e-08	5.294188e+01	1.709994e+03
1.720000e-06	7.272128e-06	2.604740e-08	5.281547e+01	1.708827e+03
1.730000e-06	7.252672e-06	2.601556e-08	5.267417e+01	1.707554e+03
1.740000e-06	7.230704e-06	2.590098e-08	5.251462e+01	1.706158e+03
1.750000e-06	7.205421e-06	2.590731e-08	5.233100e+01	1.704626e+03
1.760000e-06	7.176708e-06	2.594328e-08	5.212246e+01	1.702953e+03
1.770000e-06	7.145185e-06	2.590530e-08	5.189352e+01	1.701145e+03
1.780000e-06	7.111556e-06	2.590266e-08	5.164928e+01	1.699218e+03
1.790000e-06	7.076193e-06	2.596164e-08	5.139245e+01	1.697192e+03
1.800000e-06	7.039236e-06	2.580905e-08	5.112404e+01	1.695080e+03
1.810000e-06	7.000039e-06	2.573472e-08	5.083937e+01	1.692883e+03
1.820000e-06	6.958148e-06	2.584815e-08	5.053512e+01	1.690580e+03
1.830000e-06	6.913981e-06	2.570683e-08	5.021435e+01	1.688133e+03
1.840000e-06	6.867331e-06	2.578697e-08	4.987555e+01	1.685493e+03
1.850000e-06	6.818049e-06	2.570542e-08	4.951762e+01	1.682605e+03
1.860000e-06	6.766188e-06	2.555621e-08	4.914097e+01	1.679426e+03
1.870000e-06	6.711497e-06	2.561983e-08	4.874377e+01	1.675931e+03
1.880000e-06	6.654352e-06	2.546352e-08	4.832873e+01	1.672121e+03
1.890000e-06	6.594786e-06	2.548682e-08	4.789612e+01	1.668021e+03
1.900000e-06	6.532566e-06	2.542204e-08	4.744424e+01	1.663670e+03
1.910000e-06	6.467885e-06	2.529205e-08	4.697448e+01	1.659113e+03
1.920000e-06	6.400809e-06	2.527825e-08	4.648732e+01	1.654384e+03
1.930000e-06	6.331398e-06	2.515182e-08	4.598321e+01	1.649500e+03
1.940000e-06	6.259514e-06	2.514296e-08	4.546114e+01	1.644451e+03
1.950000e-06	6.185157e-06	2.501345e-08	4.492110e+01	1.639208e+03
1.960000e-06	6.108257e-06	2.493050e-08	4.436260e+01	1.633726e+03
1.970000e-06	6.028794e-06	2.485776e-08	4.378548e+01	1.627959e+03
1.980000e-06	5.947213e-06	2.473463e-08	4.319298e+01	1.621871e+03
1.990000e-06	5.863631e-06	2.469649e-08	4.258595e+01	1.615444e+03
2.000000e-06	5.777969e-06	2.455342e-08	4.196380e+01	1.608678e+03
2.010000e-06	5.690122e-06	2.446495e-08	4.132580e+01	1.601590e+03
2.020000e-06	5.600235e-06	2.432786e-08	4.067298e+01	1.594202e+03
2.030000e-06	5.508435e-06	2.421476e-08	4.000625e+01	1.586529e+03
2.040000e-06	5.414641e-06	2.411744e-08	3.932505e+01	1.578572e+03
2.050000e-06	5.318891e-06	2.399516e-08	3.862965e+01	1.570310e+03
2.060000e-06	5.221363e-06	2.386650e-08	3.792133e+01	1.561705e+03
2.070000e-06	5.122172e-06	2.369419e-08	3.720093e+01	1.552708e+03
2.080000e-06	5.021101e-06	2.356480e-08	3.646688e+01	1.543267e+03
2.090000e-06	4.918090e-06	2.341227e-08	3.571874e+01	1.533344e+03
2.100000e-06	4.813276e-06	2.327205e-08	3.495751e+01	1.522919e+03
2.110000e-06	4.706886e-06	2.310444e-08	3.418482e+01	1.511989e+03
2.120000e-06	4.598993e-06	2.292410e-08	3.340123e+01	1.500566e+03
2.130000e-06	4.489460e-06	2.272517e-08	3.260572e+01	1.488665e+03
2.140000e-06	4.378271e-06	2.253044e-08	3.179818e+01	1.476289e+03
2.150000e-06	4.265406e-06	2.235309e-08	3.097848e+01	1.463423e+03
2.160000e-06	4.150866e-06	2.216391e-08	3.014660e+01	1.450027e+03
2.170000e-06	4.034571e-06	2.195867e-08	2.930198e+01	1.436039e+03
2.180000e-06	3.916581e-06	2.172379e-08	2.844506e+01	1.421385e+03
2.190000e-06	3.797064e-06	2.148735e-08	2.757704e+01	1.405994e+03
2.200000e-06	3.676123e-06	2.123568e-08	2.669868e+01	1.389805e+03
2.210000e-06	3.553814e-06	2.098391e-08	2.581038e+01	1.372781e+03
2.220000e-06	3.430176e-06	2.071600e-08	2.491243e+01	1.354901e+03
2.230000e-06	3.305273e-06	2.043518e-08	2.400529e+01	1.336155e+03
2.240000e-06	3.179173e-06	2.013210e-08	2.308947e+01	1.316527e+03
2.250000e-06	3.051893e-06	1.981747e-08	2.216506e+01	1.295981e+03
2.260000e-06	2.923368e-06	1.949224e-08	2.123162e+01	1.274443e+03
2.270000e-06	2.793815e-06	1.915027e-08	2.029071e+01	1.251802e+03
2.280000e-06	2.663366e-06	1.878991e-08	1.934330e+01	1.227914e+03
2.290000e-06	2.531964e-06	1.840344e-08	1.838896e+01	1.202613e+03
2.300000e-06	2.399619e-06	1.799312e-08	1.742778e+01	1.175731e+03
2.310000e-06	2.266394e-06	1.755471e-08	1.646020e+01	1.147117e+03
2.320000e-06	2.132445e-06	1.709341e-08	1.548736e+01	1.116642e+03
2.330000e-06	1.997843e-06	1.660097e-08	1.450979e+01	1.084197e+03
2.340000e-06	1.862516e-06	1.607572e-08	1.352695e+01	1.049680e+03
2.350000e-06	1.726466e-06	1.551524e-08	1.253885e+01	1.012974e+03
2.360000e-06	1.589796e-06	1.492089e-08	1.154625e+01	9.739261e+02
2.370000e-06	1.452638e-06	1.428646e-08	1.055011e+01	9.323390e+02
2.380000e-06	1.315063e-06	1.360712e-08	9.550944e+00	8.879778e+02
2.390000e-06	1.177077e-06	1.288197e-08	8.548789e+00	8.406004e+02
2.400000e-06	1.038725e-06	1.210617e-08	7.543978e+00	7.900063e+02
2.410000e-06	8.999699e-07	1.128185e-08	6.536235e+00	7.360967e+02
2.420000e-06	7.608669e-07	1.041336e-08	5.525968e+00	6.789298e+02
2.430000e-06	6.215717e-07	9.500656e-09	4.514305e+00	6.187583e+02
2.440000e-06	4.819914e-07	8.545112e-09	3.500572e+00	5.560337e+02
2.450000e-06	3.421369e-07	7.555490e-09	2.484847e+00	4.913700e+02
2.460000e-06	2.021775e-07	6.545820e-09	1.468360e+00	4.254698e+02
2.470000e-06	6.209767e-08	5.528302e-09	4.509984e-01	3.590218e+02
2.480000e-06	-7.808442e-08	4.511727e-09	-5.671057e-01	2.925903e+02
2.490000e-06	-2.182543e-07	3.500037e-09	-1.585121e+00	2.265191e+02
2.500000e-06	-3.583107e-07	2.491488e-09	-2.602313e+00	1.608722e+02
2.510000e-06	-4.981945e-07	1.485058e-09	-3.618250e+00	9.542691e+01
2.520000e-06	-6.379073e-07	4.775690e-10	-4.632946e+00	2.972586e+01
2.530000e-06	-7.774372e-07	-5.382525e-10	-5.646313e+00	-3.682025e+01
2.540000e-06	-9.167167e-07	-1.573181e-09	-6.657862e+00	-1.047965e+02
2.550000e-06	-1.055611e-06	-2.634342e-09	-7.666612e+00	-1.746407e+02
2.560000e-06	-1.194002e-06	-3.725698e-09	-8.671711e+00	-2.465217e+02
2.570000e-06	-1.331939e-06	-4.850451e-09	-9.673506e+00	-3.202636e+02
2.580000e-06	-1.469465e-06	-6.001792e-09	-1.067232e+01	-3.953312e+02
2.590000e-06	-1.606521e-06	-7.163074e-09	-1.166772e+01	-4.708800e+02
2.600000e-06	-1.743017e-06	-8.312701e-09	-1.265905e+01	-5.458594e+02
2.610000e-06	-1.878799e-06	-9.434272e-09	-1.364520e+01	-6.191491e+02
2.620000e-06	-2.013813e-06	-1.051402e-08	-1.462577e+01	-6.897022e+02
2.630000e-06	-2.148033e-06	-1.153809e-08	-1.560058e+01	-7.566676e+02
2.640000e-06	-2.281452e-06	-1.249793e-08	-1.656956e+01	-8.194713e+02
2.650000e-06	-2.414027e-06	-1.338911e-08	-1.753241e+01	-8.778465e+02
2.660000e-06	-2.545604e-06	-1.421326e-08	-1.848802e+01	-9.318103e+02
2.670000e-06	-2.676220e-06	-1.497454e-08	-1.943666e+01	-9.816014e+02
2.680000e-06	-2.805967e-06	-1.568126e-08	-2.037897e+01	-1.027594e+03
2.690000e-06	-2.934750e-06	-1.634078e-08	-2.131428e+01	-1.070208e+03
2.700000e-06	-3.062424e-06	-1.695378e-08	-2.224154e+01	-1.109841e+03
2.710000e-06	-3.188967e-06	-1.752321e-08	-2.316059e+01	-1.146816e+03
2.720000e-06	-3.314368e-06	-1.805297e-08	-2.407135e+01	-1.181373e+03
2.730000e-06	-3.438507e-06	-1.854494e-08	-2.497293e+01	-1.213679e+03
2.740000e-06	-3.561344e-06	-1.900322e-08	-2.586506e+01	-1.243857e+03
2.750000e-06	-3.682994e-06	-1.943207e-08	-2.674858e+01	-1.272019e+03
2.760000e-06	-3.803380e-06	-1.983284e-08	-2.762291e+01	-1.298293e+03
2.770000e-06	-3.922289e-06	-2.020744e-08	-2.848651e+01	-1.322836e+03
2.780000e-06	-4.039725e-06	-2.056122e-08	-2.933942e+01	-1.345825e+03
2.790000e-06	-4.155571e-06	-2.089559e-08	-3.018078e+01	-1.367446e+03
2.800000e-06	-4.269663e-06	-2.120880e-08	-3.100939e+01	-1.387871e+03
2.810000e-06	-4.382090e-06	-2.150406e-08	-3.182592e+01	-1.407235e+03
2.820000e-06	-4.492844e-06	-2.178453e-08	-3.263030e+01	-1.425626e+03
2.830000e-06	-4.601980e-06	-2.205159e-08	-3.342292e+01	-1.443090e+03
2.840000e-06	-4.709634e-06	-2.230289e-08	-3.420478e+01	-1.459641e+03
2.850000e-06	-4.815752e-06	-2.253842e-08	-3.497549e+01	-1.475280e+03
2.860000e-06	-4.920186e-06	-2.276175e-08	-3.573396e+01	-1.490016e+03
2.870000e-06	-5.022717e-06	-2.297313e-08	-3.647862e+01	-1.503883e+03
2.880000e-06	-5.123262e-06	-2.317412e-08	-3.720885e+01	-1.516942e+03
2.890000e-06	-5.221989e-06	-2.336735e-08	-3.792587e+01	-1.529280e+03
2.900000e-06	-5.319005e-06	-2.355175e-08	-3.863048e+01	-1.540990e+03
2.910000e-06	-5.414104e-06	-2.372564e-08	-3.932115e+01	-1.552158e+03
2.920000e-06	-5.507161e-06	-2.388874e-08	-3.999700e+01	-1.562845e+03
2.930000e-06	-5.598257e-06	-2.404238e-08	-4.065861e+01	-1.573080e+03
2.940000e-06	-5.687384e-06	-2.418799e-08	-4.130591e+01	-1.582859e+03
