# Temperatura_=_60.16
# Concentracion g/m^3_=_28200.0
# C_Vs_to_Am_M_A/Vsm_=_65563218390.804596
# pendiente_HvsI_1/m_=_3716.3
# ordenada_HvsI_A/m_=_1297.0
# frecuencia_Hz_=_302508.2754932621

Tiempo_(s)	Campo_(V.s)	Magnetizacion_(V.s)	Campo_(kA/m)	Magnetizacion_(A/m)
0.000000e+00	-7.869570e-06	-2.513203e-08	-5.684344e+01	-1.645718e+03
1.000000e-08	-7.865368e-06	-2.513066e-08	-5.681309e+01	-1.645150e+03
2.000000e-08	-7.858640e-06	-2.512351e-08	-5.676449e+01	-1.644464e+03
3.000000e-08	-7.849275e-06	-2.511419e-08	-5.669685e+01	-1.643705e+03
4.000000e-08	-7.837077e-06	-2.510101e-08	-5.660874e+01	-1.642899e+03
5.000000e-08	-7.821908e-06	-2.508243e-08	-5.649917e+01	-1.642040e+03
6.000000e-08	-7.804082e-06	-2.506050e-08	-5.637041e+01	-1.641099e+03
7.000000e-08	-7.784060e-06	-2.503264e-08	-5.622578e+01	-1.640028e+03
8.000000e-08	-7.761717e-06	-2.502397e-08	-5.606440e+01	-1.638781e+03
9.000000e-08	-7.736472e-06	-2.506851e-08	-5.588205e+01	-1.637334e+03
1.000000e-07	-7.708027e-06	-2.503170e-08	-5.567659e+01	-1.635689e+03
1.100000e-07	-7.676698e-06	-2.495508e-08	-5.545029e+01	-1.633883e+03
1.200000e-07	-7.642579e-06	-2.492643e-08	-5.520384e+01	-1.631972e+03
1.300000e-07	-7.605763e-06	-2.489863e-08	-5.493792e+01	-1.630019e+03
1.400000e-07	-7.566682e-06	-2.483221e-08	-5.465563e+01	-1.628069e+03
1.500000e-07	-7.525407e-06	-2.477256e-08	-5.435748e+01	-1.626136e+03
1.600000e-07	-7.481743e-06	-2.483990e-08	-5.404209e+01	-1.624189e+03
1.700000e-07	-7.435531e-06	-2.476469e-08	-5.370830e+01	-1.622162e+03
1.800000e-07	-7.386595e-06	-2.466295e-08	-5.335482e+01	-1.619965e+03
1.900000e-07	-7.334690e-06	-2.468450e-08	-5.297990e+01	-1.617505e+03
2.000000e-07	-7.279850e-06	-2.459462e-08	-5.258378e+01	-1.614714e+03
2.100000e-07	-7.222349e-06	-2.454502e-08	-5.216844e+01	-1.611561e+03
2.200000e-07	-7.162188e-06	-2.450055e-08	-5.173389e+01	-1.608060e+03
2.300000e-07	-7.099473e-06	-2.443807e-08	-5.128088e+01	-1.604263e+03
2.400000e-07	-7.034171e-06	-2.440379e-08	-5.080920e+01	-1.600244e+03
2.500000e-07	-6.966145e-06	-2.432044e-08	-5.031783e+01	-1.596073e+03
2.600000e-07	-6.895481e-06	-2.426681e-08	-4.980741e+01	-1.591792e+03
2.700000e-07	-6.822086e-06	-2.419351e-08	-4.927726e+01	-1.587409e+03
2.800000e-07	-6.745973e-06	-2.411884e-08	-4.872748e+01	-1.582889e+03
2.900000e-07	-6.667127e-06	-2.403286e-08	-4.815796e+01	-1.578166e+03
3.000000e-07	-6.585597e-06	-2.394862e-08	-4.756906e+01	-1.573166e+03
3.100000e-07	-6.501791e-06	-2.389099e-08	-4.696371e+01	-1.567826e+03
3.200000e-07	-6.415822e-06	-2.379124e-08	-4.634274e+01	-1.562115e+03
3.300000e-07	-6.327553e-06	-2.371255e-08	-4.570515e+01	-1.556040e+03
3.400000e-07	-6.236909e-06	-2.360651e-08	-4.505041e+01	-1.549642e+03
3.500000e-07	-6.144053e-06	-2.350704e-08	-4.437969e+01	-1.542983e+03
3.600000e-07	-6.049041e-06	-2.341274e-08	-4.369340e+01	-1.536117e+03
3.700000e-07	-5.951790e-06	-2.329904e-08	-4.299094e+01	-1.529077e+03
3.800000e-07	-5.852331e-06	-2.318708e-08	-4.227253e+01	-1.521853e+03
3.900000e-07	-5.750799e-06	-2.306547e-08	-4.153914e+01	-1.514395e+03
4.000000e-07	-5.647259e-06	-2.295016e-08	-4.079125e+01	-1.506626e+03
4.100000e-07	-5.541693e-06	-2.281499e-08	-4.002873e+01	-1.498455e+03
4.200000e-07	-5.434209e-06	-2.269189e-08	-3.925235e+01	-1.489811e+03
4.300000e-07	-5.324843e-06	-2.255719e-08	-3.846238e+01	-1.480655e+03
4.400000e-07	-5.213512e-06	-2.241236e-08	-3.765822e+01	-1.470988e+03
4.500000e-07	-5.100199e-06	-2.225610e-08	-3.683974e+01	-1.460852e+03
4.600000e-07	-4.984880e-06	-2.209422e-08	-3.600676e+01	-1.450305e+03
4.700000e-07	-4.867659e-06	-2.192810e-08	-3.516005e+01	-1.439397e+03
4.800000e-07	-4.748648e-06	-2.175211e-08	-3.430042e+01	-1.428148e+03
4.900000e-07	-4.627914e-06	-2.157582e-08	-3.342832e+01	-1.416530e+03
5.000000e-07	-4.505504e-06	-2.138706e-08	-3.254413e+01	-1.404465e+03
5.100000e-07	-4.381390e-06	-2.119129e-08	-3.164764e+01	-1.391842e+03
5.200000e-07	-4.255716e-06	-2.098212e-08	-3.073987e+01	-1.378540e+03
5.300000e-07	-4.128554e-06	-2.076704e-08	-2.982135e+01	-1.364457e+03
5.400000e-07	-3.999879e-06	-2.053877e-08	-2.889191e+01	-1.349534e+03
5.500000e-07	-3.869679e-06	-2.030014e-08	-2.795144e+01	-1.333764e+03
5.600000e-07	-3.737905e-06	-2.004805e-08	-2.699962e+01	-1.317184e+03
5.700000e-07	-3.604713e-06	-1.978369e-08	-2.603755e+01	-1.299852e+03
5.800000e-07	-3.470269e-06	-1.950609e-08	-2.506643e+01	-1.281812e+03
5.900000e-07	-3.334508e-06	-1.921580e-08	-2.408580e+01	-1.263063e+03
6.000000e-07	-3.197429e-06	-1.891936e-08	-2.309565e+01	-1.243534e+03
6.100000e-07	-3.059080e-06	-1.860692e-08	-2.209633e+01	-1.223088e+03
6.200000e-07	-2.919425e-06	-1.827621e-08	-2.108758e+01	-1.201529e+03
6.300000e-07	-2.778488e-06	-1.792002e-08	-2.006956e+01	-1.178643e+03
6.400000e-07	-2.636444e-06	-1.754113e-08	-1.904355e+01	-1.154232e+03
6.500000e-07	-2.493373e-06	-1.714026e-08	-1.801012e+01	-1.128142e+03
6.600000e-07	-2.349319e-06	-1.671961e-08	-1.696959e+01	-1.100280e+03
6.700000e-07	-2.204395e-06	-1.627482e-08	-1.592278e+01	-1.070596e+03
6.800000e-07	-2.058721e-06	-1.580027e-08	-1.487055e+01	-1.039049e+03
6.900000e-07	-1.912345e-06	-1.529490e-08	-1.381325e+01	-1.005557e+03
7.000000e-07	-1.765343e-06	-1.474946e-08	-1.275142e+01	-9.699526e+02
7.100000e-07	-1.617851e-06	-1.416603e-08	-1.168605e+01	-9.319551e+02
7.200000e-07	-1.469920e-06	-1.353771e-08	-1.061752e+01	-8.911763e+02
7.300000e-07	-1.321562e-06	-1.285836e-08	-9.545901e+00	-8.471668e+02
7.400000e-07	-1.172779e-06	-1.212304e-08	-8.471209e+00	-7.994939e+02
7.500000e-07	-1.023571e-06	-1.133121e-08	-7.393456e+00	-7.478386e+02
7.600000e-07	-8.739887e-07	-1.048600e-08	-6.312991e+00	-6.920855e+02
7.700000e-07	-7.241378e-07	-9.585774e-09	-5.230589e+00	-6.323836e+02
7.800000e-07	-5.740373e-07	-8.632940e-09	-4.146384e+00	-5.691557e+02
7.900000e-07	-4.237369e-07	-7.631413e-09	-3.060735e+00	-5.030502e+02
8.000000e-07	-2.732921e-07	-6.590537e-09	-1.974043e+00	-4.348385e+02
8.100000e-07	-1.227238e-07	-5.521714e-09	-8.864580e-01	-3.652792e+02
8.200000e-07	2.793353e-08	-4.440417e-09	2.017694e-01	-2.949780e+02
8.300000e-07	1.786443e-07	-3.355189e-09	1.290382e+00	-2.242779e+02
8.400000e-07	3.293208e-07	-2.269209e-09	2.378749e+00	-1.532061e+02
8.500000e-07	4.799113e-07	-1.179379e-09	3.466493e+00	-8.149625e+01
8.600000e-07	6.303709e-07	-7.938240e-11	4.553292e+00	-8.683836e+00
8.700000e-07	7.806146e-07	1.040164e-09	5.638532e+00	6.574270e+01
8.800000e-07	9.305752e-07	2.192247e-09	6.721727e+00	1.421672e+02
8.900000e-07	1.080230e-06	3.382734e-09	7.802710e+00	2.206864e+02
9.000000e-07	1.229504e-06	4.608889e-09	8.880945e+00	3.010019e+02
9.100000e-07	1.378319e-06	5.859444e-09	9.955870e+00	3.823898e+02
9.200000e-07	1.526627e-06	7.116409e-09	1.102712e+01	4.637564e+02
9.300000e-07	1.674424e-06	8.348294e-09	1.209469e+01	5.437689e+02
9.400000e-07	1.821682e-06	9.524576e-09	1.315836e+01	6.210357e+02
9.500000e-07	1.968311e-06	1.062599e-08	1.421750e+01	6.942978e+02
9.600000e-07	2.114236e-06	1.164549e-08	1.527154e+01	7.625926e+02
9.700000e-07	2.259352e-06	1.258451e-08	1.631974e+01	8.253604e+02
9.800000e-07	2.403626e-06	1.344218e-08	1.736186e+01	8.824740e+02
9.900000e-07	2.547013e-06	1.422573e-08	1.839757e+01	9.341933e+02
1.000000e-06	2.689394e-06	1.494102e-08	1.942602e+01	9.810600e+02
1.010000e-06	2.830703e-06	1.559713e-08	2.044672e+01	1.023761e+03
1.020000e-06	2.970875e-06	1.620050e-08	2.145921e+01	1.062990e+03
1.030000e-06	3.109778e-06	1.675865e-08	2.246254e+01	1.099343e+03
1.040000e-06	3.247402e-06	1.727631e-08	2.345662e+01	1.133253e+03
1.050000e-06	3.383790e-06	1.775451e-08	2.444178e+01	1.164983e+03
1.060000e-06	3.518976e-06	1.819838e-08	2.541825e+01	1.194660e+03
1.070000e-06	3.652891e-06	1.861044e-08	2.638555e+01	1.222335e+03
1.080000e-06	3.785450e-06	1.899591e-08	2.734305e+01	1.248051e+03
1.090000e-06	3.916612e-06	1.935698e-08	2.829046e+01	1.271895e+03
1.100000e-06	4.046290e-06	1.969738e-08	2.922715e+01	1.294017e+03
1.110000e-06	4.174553e-06	2.001728e-08	3.015361e+01	1.314630e+03
1.120000e-06	4.301404e-06	2.031967e-08	3.106989e+01	1.333973e+03
1.130000e-06	4.426831e-06	2.060336e-08	3.197587e+01	1.352274e+03
1.140000e-06	4.550747e-06	2.086928e-08	3.287094e+01	1.369707e+03
1.150000e-06	4.673012e-06	2.112101e-08	3.375408e+01	1.386372e+03
1.160000e-06	4.793626e-06	2.135897e-08	3.462530e+01	1.402292e+03
1.170000e-06	4.912555e-06	2.158229e-08	3.548435e+01	1.417436e+03
1.180000e-06	5.029699e-06	2.179165e-08	3.633050e+01	1.431748e+03
1.190000e-06	5.144907e-06	2.198993e-08	3.716267e+01	1.445189e+03
1.200000e-06	5.258117e-06	2.217930e-08	3.798041e+01	1.457763e+03
1.210000e-06	5.369362e-06	2.236028e-08	3.878395e+01	1.469527e+03
1.220000e-06	5.478671e-06	2.253324e-08	3.957351e+01	1.480584e+03
1.230000e-06	5.586016e-06	2.269770e-08	4.034888e+01	1.491061e+03
1.240000e-06	5.691356e-06	2.285348e-08	4.110977e+01	1.501077e+03
1.250000e-06	5.794586e-06	2.300159e-08	4.185543e+01	1.510712e+03
1.260000e-06	5.895684e-06	2.314265e-08	4.258568e+01	1.519997e+03
1.270000e-06	5.994592e-06	2.327619e-08	4.330011e+01	1.528908e+03
1.280000e-06	6.091235e-06	2.340255e-08	4.399818e+01	1.537386e+03
1.290000e-06	6.185700e-06	2.352075e-08	4.468052e+01	1.545361e+03
1.300000e-06	6.277941e-06	2.363219e-08	4.534679e+01	1.552785e+03
1.310000e-06	6.367895e-06	2.373834e-08	4.599655e+01	1.559649e+03
1.320000e-06	6.455532e-06	2.383685e-08	4.662957e+01	1.565995e+03
1.330000e-06	6.540947e-06	2.392995e-08	4.724654e+01	1.571909e+03
1.340000e-06	6.624152e-06	2.401897e-08	4.784755e+01	1.577501e+03
1.350000e-06	6.704925e-06	2.410403e-08	4.843099e+01	1.582877e+03
1.360000e-06	6.783186e-06	2.418335e-08	4.899628e+01	1.588112e+03
1.370000e-06	6.858901e-06	2.425936e-08	4.954318e+01	1.593238e+03
1.380000e-06	6.931996e-06	2.433327e-08	5.007116e+01	1.598238e+03
1.390000e-06	7.002588e-06	2.440341e-08	5.058107e+01	1.603058e+03
1.400000e-06	7.070690e-06	2.446988e-08	5.107297e+01	1.607627e+03
1.410000e-06	7.136190e-06	2.453319e-08	5.154610e+01	1.611885e+03
1.420000e-06	7.199206e-06	2.459509e-08	5.200127e+01	1.615799e+03
1.430000e-06	7.259795e-06	2.465250e-08	5.243892e+01	1.619375e+03
1.440000e-06	7.317852e-06	2.470397e-08	5.285828e+01	1.622656e+03
1.450000e-06	7.373370e-06	2.475198e-08	5.325929e+01	1.625706e+03
1.460000e-06	7.426170e-06	2.479734e-08	5.364067e+01	1.628589e+03
1.470000e-06	7.475907e-06	2.484197e-08	5.399994e+01	1.631350e+03
1.480000e-06	7.522685e-06	2.488396e-08	5.433782e+01	1.634002e+03
1.490000e-06	7.566788e-06	2.492122e-08	5.465639e+01	1.636521e+03
1.500000e-06	7.608192e-06	2.495436e-08	5.495546e+01	1.638859e+03
1.510000e-06	7.646889e-06	2.498422e-08	5.523497e+01	1.640956e+03
1.520000e-06	7.682964e-06	2.501094e-08	5.549555e+01	1.642767e+03
1.530000e-06	7.716307e-06	2.503356e-08	5.573640e+01	1.644273e+03
1.540000e-06	7.746886e-06	2.505390e-08	5.595727e+01	1.645491e+03
1.550000e-06	7.774824e-06	2.507113e-08	5.615908e+01	1.646471e+03
1.560000e-06	7.799965e-06	2.508570e-08	5.634068e+01	1.647281e+03
1.570000e-06	7.822216e-06	2.509789e-08	5.650140e+01	1.647988e+03
1.580000e-06	7.841724e-06	2.511000e-08	5.664230e+01	1.648641e+03
1.590000e-06	7.858375e-06	2.512352e-08	5.676258e+01	1.649256e+03
1.600000e-06	7.872058e-06	2.513248e-08	5.686142e+01	1.649815e+03
1.610000e-06	7.882630e-06	2.513686e-08	5.693778e+01	1.650274e+03
1.620000e-06	7.890155e-06	2.513946e-08	5.699213e+01	1.650579e+03
1.630000e-06	7.894959e-06	2.514173e-08	5.702683e+01	1.650681e+03
1.640000e-06	7.896990e-06	2.514330e-08	5.704150e+01	1.650557e+03
1.650000e-06	7.896176e-06	2.514072e-08	5.703562e+01	1.650215e+03
1.660000e-06	7.892776e-06	2.512900e-08	5.701106e+01	1.649689e+03
1.670000e-06	7.886782e-06	2.512295e-08	5.696777e+01	1.649030e+03
1.680000e-06	7.878091e-06	2.511770e-08	5.690499e+01	1.648287e+03
1.690000e-06	7.866745e-06	2.510766e-08	5.682303e+01	1.647492e+03
1.700000e-06	7.852601e-06	2.509736e-08	5.672087e+01	1.646650e+03
1.710000e-06	7.835889e-06	2.509027e-08	5.660016e+01	1.645736e+03
1.720000e-06	7.816945e-06	2.508674e-08	5.646332e+01	1.644705e+03
1.730000e-06	7.795595e-06	2.501655e-08	5.630911e+01	1.643511e+03
1.740000e-06	7.771242e-06	2.493022e-08	5.613320e+01	1.642121e+03
1.750000e-06	7.743259e-06	2.495709e-08	5.593107e+01	1.640530e+03
1.760000e-06	7.711786e-06	2.496357e-08	5.570374e+01	1.638763e+03
1.770000e-06	7.677642e-06	2.491980e-08	5.545711e+01	1.636875e+03
1.780000e-06	7.641259e-06	2.492990e-08	5.519431e+01	1.634927e+03
1.790000e-06	7.602610e-06	2.496376e-08	5.491514e+01	1.632972e+03
1.800000e-06	7.561980e-06	2.481783e-08	5.462166e+01	1.631034e+03
1.810000e-06	7.519175e-06	2.480380e-08	5.431247e+01	1.629095e+03
1.820000e-06	7.473682e-06	2.485124e-08	5.398387e+01	1.627098e+03
1.830000e-06	7.425583e-06	2.475068e-08	5.363644e+01	1.624958e+03
1.840000e-06	7.374634e-06	2.482008e-08	5.326842e+01	1.622581e+03
1.850000e-06	7.320610e-06	2.471906e-08	5.287820e+01	1.619888e+03
1.860000e-06	7.263835e-06	2.467050e-08	5.246810e+01	1.616838e+03
1.870000e-06	7.204540e-06	2.465707e-08	5.203980e+01	1.613431e+03
1.880000e-06	7.142656e-06	2.452521e-08	5.159280e+01	1.609711e+03
1.890000e-06	7.077923e-06	2.455278e-08	5.112522e+01	1.605747e+03
1.900000e-06	7.010477e-06	2.445563e-08	5.063804e+01	1.601611e+03
1.910000e-06	6.940338e-06	2.440379e-08	5.013142e+01	1.597359e+03
1.920000e-06	6.867430e-06	2.434448e-08	4.960479e+01	1.593006e+03
1.930000e-06	6.791961e-06	2.425128e-08	4.905966e+01	1.588529e+03
1.940000e-06	6.713766e-06	2.422087e-08	4.849484e+01	1.583870e+03
1.950000e-06	6.632926e-06	2.408819e-08	4.791092e+01	1.578956e+03
1.960000e-06	6.549692e-06	2.404028e-08	4.730970e+01	1.573717e+03
1.970000e-06	6.464051e-06	2.393502e-08	4.669110e+01	1.568111e+03
1.980000e-06	6.375991e-06	2.385477e-08	4.605503e+01	1.562136e+03
1.990000e-06	6.285630e-06	2.377894e-08	4.540233e+01	1.555824e+03
2.000000e-06	6.193142e-06	2.366444e-08	4.473428e+01	1.549232e+03
2.010000e-06	6.098362e-06	2.358139e-08	4.404966e+01	1.542419e+03
2.020000e-06	6.001372e-06	2.345315e-08	4.334908e+01	1.535426e+03
2.030000e-06	5.902280e-06	2.335576e-08	4.263332e+01	1.528257e+03
2.040000e-06	5.801056e-06	2.322681e-08	4.190216e+01	1.520872e+03
2.050000e-06	5.697718e-06	2.311803e-08	4.115573e+01	1.513200e+03
2.060000e-06	5.592415e-06	2.298340e-08	4.039511e+01	1.505151e+03
2.070000e-06	5.485313e-06	2.284783e-08	3.962149e+01	1.496647e+03
2.080000e-06	5.376315e-06	2.271442e-08	3.883417e+01	1.487637e+03
2.090000e-06	5.265370e-06	2.257251e-08	3.803280e+01	1.478113e+03
2.100000e-06	5.152440e-06	2.243468e-08	3.721708e+01	1.468104e+03
2.110000e-06	5.037616e-06	2.227756e-08	3.638769e+01	1.457667e+03
2.120000e-06	4.920873e-06	2.212121e-08	3.554443e+01	1.446858e+03
2.130000e-06	4.802183e-06	2.193921e-08	3.468711e+01	1.435706e+03
2.140000e-06	4.681600e-06	2.176106e-08	3.381611e+01	1.424198e+03
2.150000e-06	4.559272e-06	2.157171e-08	3.293251e+01	1.412269e+03
2.160000e-06	4.435325e-06	2.138688e-08	3.203722e+01	1.399817e+03
2.170000e-06	4.309798e-06	2.118752e-08	3.113051e+01	1.386720e+03
2.180000e-06	4.182703e-06	2.097722e-08	3.021248e+01	1.372867e+03
2.190000e-06	4.054019e-06	2.075539e-08	2.928297e+01	1.358186e+03
2.200000e-06	3.923856e-06	2.052269e-08	2.834278e+01	1.342654e+03
2.210000e-06	3.792217e-06	2.027862e-08	2.739192e+01	1.326299e+03
2.220000e-06	3.659133e-06	2.002286e-08	2.643063e+01	1.309175e+03
2.230000e-06	3.524761e-06	1.975901e-08	2.546004e+01	1.291334e+03
2.240000e-06	3.389060e-06	1.947470e-08	2.447984e+01	1.272790e+03
2.250000e-06	3.252053e-06	1.917657e-08	2.349021e+01	1.253494e+03
2.260000e-06	3.113879e-06	1.886253e-08	2.249216e+01	1.233327e+03
2.270000e-06	2.974437e-06	1.853778e-08	2.148494e+01	1.212106e+03
2.280000e-06	2.833765e-06	1.819362e-08	2.046884e+01	1.189620e+03
2.290000e-06	2.692069e-06	1.783081e-08	1.944534e+01	1.165661e+03
2.300000e-06	2.549379e-06	1.744456e-08	1.841466e+01	1.140062e+03
2.310000e-06	2.405713e-06	1.703346e-08	1.737694e+01	1.112712e+03
2.320000e-06	2.261186e-06	1.659318e-08	1.633299e+01	1.083551e+03
2.330000e-06	2.115893e-06	1.612315e-08	1.528351e+01	1.052541e+03
2.340000e-06	1.969912e-06	1.562288e-08	1.422906e+01	1.019616e+03
2.350000e-06	1.823333e-06	1.508775e-08	1.317029e+01	9.846374e+02
2.360000e-06	1.676110e-06	1.451508e-08	1.210687e+01	9.473580e+02
2.370000e-06	1.528323e-06	1.389967e-08	1.103937e+01	9.074171e+02
2.380000e-06	1.380087e-06	1.323681e-08	9.968639e+00	8.643761e+02
2.390000e-06	1.231426e-06	1.252231e-08	8.894831e+00	8.177881e+02
2.400000e-06	1.082389e-06	1.175266e-08	7.818306e+00	7.672916e+02
2.410000e-06	9.329884e-07	1.092670e-08	6.739158e+00	7.127052e+02
2.420000e-06	7.832937e-07	1.004468e-08	5.657884e+00	6.540988e+02
2.430000e-06	6.333575e-07	9.105179e-09	4.574865e+00	5.918193e+02
2.440000e-06	4.832049e-07	8.111591e-09	3.490284e+00	5.264592e+02
2.450000e-06	3.328559e-07	7.074320e-09	2.404283e+00	4.587674e+02
2.460000e-06	1.823257e-07	6.008185e-09	1.316974e+00	3.895210e+02
2.470000e-06	3.163369e-08	4.925489e-09	2.284963e-01	3.193826e+02
2.480000e-06	-1.191355e-07	3.836527e-09	-8.605389e-01	2.487785e+02
2.490000e-06	-2.698373e-07	2.746689e-09	-1.949088e+00	1.778272e+02
2.500000e-06	-4.204521e-07	1.653740e-09	-3.037008e+00	1.063397e+02
2.510000e-06	-5.709177e-07	5.519429e-10	-4.123851e+00	3.389453e+01
2.520000e-06	-7.211358e-07	-5.672558e-10	-5.208905e+00	-4.002396e+01
2.530000e-06	-8.711048e-07	-1.714584e-09	-6.292160e+00	-1.158538e+02
2.540000e-06	-1.020780e-06	-2.897564e-09	-7.373293e+00	-1.937875e+02
2.550000e-06	-1.170107e-06	-4.116898e-09	-8.451908e+00	-2.736465e+02
2.560000e-06	-1.319049e-06	-5.363867e-09	-9.527751e+00	-3.548265e+02
2.570000e-06	-1.467543e-06	-6.621459e-09	-1.060035e+01	-4.363289e+02
2.580000e-06	-1.615519e-06	-7.866666e-09	-1.166921e+01	-5.168725e+02
2.590000e-06	-1.762920e-06	-9.071442e-09	-1.273391e+01	-5.950627e+02
2.600000e-06	-1.909665e-06	-1.021186e-08	-1.379388e+01	-6.695839e+02
2.610000e-06	-2.055668e-06	-1.127181e-08	-1.484849e+01	-7.393751e+02
2.620000e-06	-2.200916e-06	-1.224534e-08	-1.589765e+01	-8.037548e+02
2.630000e-06	-2.345362e-06	-1.313578e-08	-1.694101e+01	-8.624739e+02
2.640000e-06	-2.488901e-06	-1.394956e-08	-1.797782e+01	-9.156903e+02
2.650000e-06	-2.631382e-06	-1.469518e-08	-1.900699e+01	-9.638782e+02
2.660000e-06	-2.772724e-06	-1.537961e-08	-2.002793e+01	-1.007697e+03
2.670000e-06	-2.912969e-06	-1.600799e-08	-2.104094e+01	-1.047853e+03
2.680000e-06	-3.052062e-06	-1.658637e-08	-2.204564e+01	-1.084977e+03
2.690000e-06	-3.189946e-06	-1.711695e-08	-2.304161e+01	-1.119553e+03
2.700000e-06	-3.326614e-06	-1.760540e-08	-2.402879e+01	-1.151889e+03
2.710000e-06	-3.462055e-06	-1.806077e-08	-2.500710e+01	-1.182146e+03
2.720000e-06	-3.596228e-06	-1.848500e-08	-2.597626e+01	-1.210390e+03
2.730000e-06	-3.729096e-06	-1.888246e-08	-2.693599e+01	-1.236661e+03
2.740000e-06	-3.860676e-06	-1.925524e-08	-2.788642e+01	-1.261029e+03
2.750000e-06	-3.990972e-06	-1.960128e-08	-2.882757e+01	-1.283625e+03
2.760000e-06	-4.119869e-06	-1.992510e-08	-2.975862e+01	-1.304646e+03
2.770000e-06	-4.247289e-06	-2.023141e-08	-3.067900e+01	-1.324328e+03
2.780000e-06	-4.373226e-06	-2.052080e-08	-3.158867e+01	-1.342907e+03
2.790000e-06	-4.497668e-06	-2.079467e-08	-3.248754e+01	-1.360576e+03
2.800000e-06	-4.620552e-06	-2.105282e-08	-3.337515e+01	-1.377456e+03
2.810000e-06	-4.741778e-06	-2.129589e-08	-3.425079e+01	-1.393592e+03
2.820000e-06	-4.861209e-06	-2.152875e-08	-3.511346e+01	-1.408964e+03
2.830000e-06	-4.978713e-06	-2.175034e-08	-3.596222e+01	-1.423520e+03
2.840000e-06	-5.094284e-06	-2.195844e-08	-3.679701e+01	-1.437213e+03
2.850000e-06	-5.207827e-06	-2.215672e-08	-3.761716e+01	-1.450032e+03
2.860000e-06	-5.319302e-06	-2.234461e-08	-3.842236e+01	-1.462020e+03
2.870000e-06	-5.428812e-06	-2.252032e-08	-3.921337e+01	-1.473267e+03
2.880000e-06	-5.536397e-06	-2.268592e-08	-3.999047e+01	-1.483899e+03
2.890000e-06	-5.642049e-06	-2.284280e-08	-4.075362e+01	-1.494037e+03
2.900000e-06	-5.745646e-06	-2.299331e-08	-4.150192e+01	-1.503776e+03
2.910000e-06	-5.847077e-06	-2.313657e-08	-4.223458e+01	-1.513163e+03
2.920000e-06	-5.946404e-06	-2.327190e-08	-4.295204e+01	-1.522187e+03
2.930000e-06	-6.043656e-06	-2.340102e-08	-4.365451e+01	-1.530796e+03
2.940000e-06	-6.138660e-06	-2.352260e-08	-4.434074e+01	-1.538923e+03
