# Temperatura_=_88.21
# Concentracion g/m^3_=_28200.0
# C_Vs_to_Am_M_A/Vsm_=_65563218390.804596
# pendiente_HvsI_1/m_=_3716.3
# ordenada_HvsI_A/m_=_1297.0
# frecuencia_Hz_=_302504.70632792055

Tiempo_(s)	Campo_(V.s)	Magnetizacion_(V.s)	Campo_(kA/m)	Magnetizacion_(A/m)
0.000000e+00	-7.871449e-06	-2.960358e-08	-5.684526e+01	-1.939844e+03
1.000000e-08	-7.867353e-06	-2.960062e-08	-5.681569e+01	-1.939086e+03
2.000000e-08	-7.860730e-06	-2.958903e-08	-5.676786e+01	-1.938189e+03
3.000000e-08	-7.851449e-06	-2.957358e-08	-5.670083e+01	-1.937204e+03
4.000000e-08	-7.839370e-06	-2.955673e-08	-5.661360e+01	-1.936154e+03
5.000000e-08	-7.824368e-06	-2.953756e-08	-5.650526e+01	-1.935023e+03
6.000000e-08	-7.806679e-06	-2.951070e-08	-5.637752e+01	-1.933764e+03
7.000000e-08	-7.786793e-06	-2.947855e-08	-5.623390e+01	-1.932316e+03
8.000000e-08	-7.764555e-06	-2.945404e-08	-5.607331e+01	-1.930623e+03
9.000000e-08	-7.739429e-06	-2.949036e-08	-5.589185e+01	-1.928659e+03
1.000000e-07	-7.711111e-06	-2.946775e-08	-5.568736e+01	-1.926439e+03
1.100000e-07	-7.679791e-06	-2.937720e-08	-5.546117e+01	-1.924017e+03
1.200000e-07	-7.645705e-06	-2.932844e-08	-5.521501e+01	-1.921475e+03
1.300000e-07	-7.609010e-06	-2.929394e-08	-5.495001e+01	-1.918895e+03
1.400000e-07	-7.570004e-06	-2.922577e-08	-5.466832e+01	-1.916335e+03
1.500000e-07	-7.528813e-06	-2.914355e-08	-5.437085e+01	-1.913806e+03
1.600000e-07	-7.485224e-06	-2.915917e-08	-5.405606e+01	-1.911266e+03
1.700000e-07	-7.439040e-06	-2.913720e-08	-5.372254e+01	-1.908624e+03
1.800000e-07	-7.390215e-06	-2.899921e-08	-5.336993e+01	-1.905758e+03
1.900000e-07	-7.338507e-06	-2.899197e-08	-5.299652e+01	-1.902552e+03
2.000000e-07	-7.283828e-06	-2.893568e-08	-5.260164e+01	-1.898917e+03
2.100000e-07	-7.226441e-06	-2.884195e-08	-5.218721e+01	-1.894817e+03
2.200000e-07	-7.166431e-06	-2.879412e-08	-5.175384e+01	-1.890273e+03
2.300000e-07	-7.103877e-06	-2.869724e-08	-5.130209e+01	-1.885354e+03
2.400000e-07	-7.038717e-06	-2.865831e-08	-5.083152e+01	-1.880153e+03
2.500000e-07	-6.970812e-06	-2.855775e-08	-5.034113e+01	-1.874762e+03
2.600000e-07	-6.900214e-06	-2.848259e-08	-4.983129e+01	-1.869239e+03
2.700000e-07	-6.826853e-06	-2.839604e-08	-4.930151e+01	-1.863592e+03
2.800000e-07	-6.750752e-06	-2.828636e-08	-4.875193e+01	-1.857784e+03
2.900000e-07	-6.671918e-06	-2.818730e-08	-4.818261e+01	-1.851738e+03
3.000000e-07	-6.590405e-06	-2.808132e-08	-4.759395e+01	-1.845367e+03
3.100000e-07	-6.506638e-06	-2.800244e-08	-4.698900e+01	-1.838600e+03
3.200000e-07	-6.420797e-06	-2.789109e-08	-4.636909e+01	-1.831403e+03
3.300000e-07	-6.332651e-06	-2.779076e-08	-4.573253e+01	-1.823786e+03
3.400000e-07	-6.242087e-06	-2.766338e-08	-4.507850e+01	-1.815799e+03
3.500000e-07	-6.149299e-06	-2.752563e-08	-4.440841e+01	-1.807510e+03
3.600000e-07	-6.054353e-06	-2.741278e-08	-4.372274e+01	-1.798980e+03
3.700000e-07	-5.957144e-06	-2.727810e-08	-4.302073e+01	-1.790237e+03
3.800000e-07	-5.857720e-06	-2.713499e-08	-4.230271e+01	-1.781262e+03
3.900000e-07	-5.756252e-06	-2.699196e-08	-4.156994e+01	-1.771990e+03
4.000000e-07	-5.652751e-06	-2.684665e-08	-4.082249e+01	-1.762324e+03
4.100000e-07	-5.547211e-06	-2.668184e-08	-4.006031e+01	-1.752162e+03
4.200000e-07	-5.439736e-06	-2.651983e-08	-3.928416e+01	-1.741425e+03
4.300000e-07	-5.330360e-06	-2.635887e-08	-3.849428e+01	-1.730080e+03
4.400000e-07	-5.219036e-06	-2.618021e-08	-3.769033e+01	-1.718144e+03
4.500000e-07	-5.105735e-06	-2.598988e-08	-3.687210e+01	-1.705678e+03
4.600000e-07	-4.990512e-06	-2.579440e-08	-3.603999e+01	-1.692758e+03
4.700000e-07	-4.873402e-06	-2.559231e-08	-3.519426e+01	-1.679447e+03
4.800000e-07	-4.754466e-06	-2.537913e-08	-3.433534e+01	-1.665764e+03
4.900000e-07	-4.633760e-06	-2.516188e-08	-3.346364e+01	-1.651666e+03
5.000000e-07	-4.511382e-06	-2.493849e-08	-3.257986e+01	-1.637051e+03
5.100000e-07	-4.387301e-06	-2.469972e-08	-3.168379e+01	-1.621777e+03
5.200000e-07	-4.261688e-06	-2.444828e-08	-3.077665e+01	-1.605697e+03
5.300000e-07	-4.134599e-06	-2.418961e-08	-2.985885e+01	-1.588691e+03
5.400000e-07	-4.005898e-06	-2.391558e-08	-2.892941e+01	-1.570698e+03
5.500000e-07	-3.875683e-06	-2.362524e-08	-2.798903e+01	-1.551722e+03
5.600000e-07	-3.743950e-06	-2.332230e-08	-2.703770e+01	-1.531819e+03
5.700000e-07	-3.610805e-06	-2.300974e-08	-2.607616e+01	-1.511069e+03
5.800000e-07	-3.476358e-06	-2.268036e-08	-2.510522e+01	-1.489530e+03
5.900000e-07	-3.340574e-06	-2.233878e-08	-2.412463e+01	-1.467200e+03
6.000000e-07	-3.203463e-06	-2.198457e-08	-2.313446e+01	-1.443988e+03
6.100000e-07	-3.065099e-06	-2.161130e-08	-2.213523e+01	-1.419721e+03
6.200000e-07	-2.925449e-06	-2.121602e-08	-2.112672e+01	-1.394158e+03
6.300000e-07	-2.784469e-06	-2.079550e-08	-2.010861e+01	-1.367040e+03
6.400000e-07	-2.642344e-06	-2.035056e-08	-1.908222e+01	-1.338131e+03
6.500000e-07	-2.499226e-06	-1.987780e-08	-1.804867e+01	-1.307261e+03
6.600000e-07	-2.355213e-06	-1.937960e-08	-1.700865e+01	-1.274333e+03
6.700000e-07	-2.210437e-06	-1.885187e-08	-1.596312e+01	-1.239311e+03
6.800000e-07	-2.064851e-06	-1.829096e-08	-1.491174e+01	-1.202169e+03
6.900000e-07	-1.918487e-06	-1.769512e-08	-1.385474e+01	-1.162834e+03
7.000000e-07	-1.771536e-06	-1.705880e-08	-1.279351e+01	-1.121123e+03
7.100000e-07	-1.624105e-06	-1.637807e-08	-1.172880e+01	-1.076716e+03
7.200000e-07	-1.476180e-06	-1.564380e-08	-1.066054e+01	-1.029156e+03
7.300000e-07	-1.327717e-06	-1.484739e-08	-9.588381e+00	-9.779088e+02
7.400000e-07	-1.178825e-06	-1.398932e-08	-8.513120e+00	-9.224526e+02
7.500000e-07	-1.029595e-06	-1.307263e-08	-7.435427e+00	-8.623917e+02
7.600000e-07	-8.800564e-07	-1.209423e-08	-6.355505e+00	-7.975623e+02
7.700000e-07	-7.302606e-07	-1.105041e-08	-5.273725e+00	-7.281010e+02
7.800000e-07	-5.802599e-07	-9.940027e-09	-4.190465e+00	-6.544546e+02
7.900000e-07	-4.300690e-07	-8.770507e-09	-3.105831e+00	-5.773217e+02
8.000000e-07	-2.797121e-07	-7.551452e-09	-2.019998e+00	-4.975341e+02
8.100000e-07	-1.292498e-07	-6.295381e-09	-9.334034e-01	-4.159026e+02
8.200000e-07	2.139503e-08	-5.018667e-09	1.545086e-01	-3.330623e+02
8.300000e-07	1.721095e-07	-3.732759e-09	1.242923e+00	-2.493561e+02
8.400000e-07	3.227241e-07	-2.441311e-09	2.330618e+00	-1.647866e+02
8.500000e-07	4.732217e-07	-1.139927e-09	3.417467e+00	-7.905530e+01
8.600000e-07	6.236106e-07	1.788232e-10	4.503530e+00	8.317574e+00
8.700000e-07	7.738495e-07	1.525324e-09	5.588511e+00	9.781443e+01
8.800000e-07	9.238611e-07	2.909692e-09	6.671850e+00	1.897230e+02
8.900000e-07	1.073589e-06	4.341382e-09	7.753139e+00	2.839657e+02
9.000000e-07	1.222931e-06	5.809750e-09	8.831647e+00	3.799956e+02
9.100000e-07	1.371882e-06	7.296232e-09	9.907321e+00	4.767873e+02
9.200000e-07	1.520362e-06	8.778385e-09	1.097960e+01	5.729265e+02
9.300000e-07	1.668259e-06	1.021927e-08	1.204767e+01	6.667822e+02
9.400000e-07	1.815561e-06	1.158690e-08	1.311144e+01	7.567276e+02
9.500000e-07	1.962231e-06	1.285952e-08	1.417065e+01	8.413619e+02
9.600000e-07	2.108194e-06	1.402993e-08	1.522475e+01	9.196903e+02
9.700000e-07	2.253344e-06	1.509796e-08	1.627298e+01	9.912266e+02
9.800000e-07	2.397658e-06	1.607043e-08	1.731517e+01	1.056002e+03
9.900000e-07	2.541141e-06	1.695896e-08	1.835137e+01	1.114487e+03
1.000000e-06	2.683604e-06	1.777045e-08	1.938019e+01	1.167445e+03
1.010000e-06	2.824976e-06	1.851389e-08	2.040114e+01	1.215761e+03
1.020000e-06	2.965193e-06	1.919809e-08	2.141374e+01	1.260281e+03
1.030000e-06	3.104155e-06	1.983306e-08	2.241729e+01	1.301686e+03
1.040000e-06	3.241915e-06	2.042335e-08	2.341214e+01	1.340437e+03
1.050000e-06	3.378431e-06	2.097176e-08	2.439802e+01	1.376779e+03
1.060000e-06	3.513627e-06	2.148074e-08	2.537437e+01	1.410802e+03
1.070000e-06	3.647552e-06	2.195144e-08	2.634154e+01	1.442519e+03
1.080000e-06	3.780208e-06	2.239171e-08	2.729954e+01	1.471955e+03
1.090000e-06	3.911466e-06	2.280268e-08	2.824744e+01	1.499206e+03
1.100000e-06	4.041307e-06	2.318984e-08	2.918512e+01	1.524461e+03
1.110000e-06	4.169772e-06	2.355670e-08	3.011285e+01	1.547991e+03
1.120000e-06	4.296765e-06	2.390324e-08	3.102996e+01	1.570100e+03
1.130000e-06	4.422230e-06	2.423118e-08	3.193603e+01	1.591069e+03
1.140000e-06	4.546164e-06	2.454036e-08	3.283105e+01	1.611108e+03
1.150000e-06	4.668500e-06	2.483049e-08	3.371452e+01	1.630328e+03
1.160000e-06	4.789235e-06	2.510203e-08	3.458643e+01	1.648743e+03
1.170000e-06	4.908246e-06	2.535812e-08	3.544589e+01	1.666295e+03
1.180000e-06	5.025422e-06	2.560293e-08	3.629210e+01	1.682904e+03
1.190000e-06	5.140685e-06	2.583842e-08	3.712450e+01	1.698512e+03
1.200000e-06	5.254026e-06	2.606306e-08	3.794302e+01	1.713119e+03
1.210000e-06	5.365427e-06	2.627361e-08	3.874752e+01	1.726796e+03
1.220000e-06	5.474869e-06	2.647241e-08	3.953788e+01	1.739675e+03
1.230000e-06	5.582352e-06	2.666222e-08	4.031409e+01	1.751915e+03
1.240000e-06	5.687809e-06	2.684247e-08	4.107567e+01	1.763668e+03
1.250000e-06	5.791124e-06	2.701595e-08	4.182178e+01	1.775038e+03
1.260000e-06	5.892325e-06	2.718179e-08	4.255262e+01	1.786065e+03
1.270000e-06	5.991394e-06	2.733948e-08	4.326807e+01	1.796722e+03
1.280000e-06	6.088161e-06	2.748969e-08	4.396689e+01	1.806931e+03
1.290000e-06	6.182666e-06	2.763388e-08	4.464938e+01	1.816602e+03
1.300000e-06	6.275025e-06	2.777276e-08	4.531637e+01	1.825662e+03
1.310000e-06	6.365167e-06	2.790415e-08	4.596734e+01	1.834087e+03
1.320000e-06	6.452915e-06	2.802698e-08	4.660104e+01	1.841907e+03
1.330000e-06	6.538379e-06	2.814261e-08	4.721823e+01	1.849204e+03
1.340000e-06	6.621670e-06	2.825399e-08	4.781973e+01	1.856091e+03
1.350000e-06	6.702592e-06	2.836024e-08	4.840413e+01	1.862675e+03
1.360000e-06	6.781003e-06	2.845839e-08	4.897039e+01	1.869037e+03
1.370000e-06	6.856885e-06	2.854995e-08	4.951839e+01	1.875210e+03
1.380000e-06	6.930167e-06	2.863694e-08	5.004761e+01	1.881178e+03
1.390000e-06	7.000895e-06	2.872039e-08	5.055838e+01	1.886890e+03
1.400000e-06	7.069156e-06	2.880051e-08	5.105134e+01	1.892281e+03
1.410000e-06	7.134903e-06	2.887723e-08	5.152615e+01	1.897302e+03
1.420000e-06	7.198088e-06	2.895029e-08	5.198245e+01	1.901938e+03
1.430000e-06	7.258770e-06	2.901867e-08	5.242068e+01	1.906215e+03
1.440000e-06	7.316966e-06	2.908229e-08	5.284095e+01	1.910191e+03
1.450000e-06	7.372585e-06	2.914227e-08	5.324262e+01	1.913946e+03
1.460000e-06	7.425447e-06	2.919897e-08	5.362438e+01	1.917547e+03
1.470000e-06	7.475310e-06	2.925435e-08	5.398447e+01	1.921035e+03
1.480000e-06	7.522244e-06	2.930743e-08	5.432341e+01	1.924406e+03
1.490000e-06	7.566557e-06	2.935541e-08	5.464343e+01	1.927616e+03
1.500000e-06	7.608169e-06	2.939847e-08	5.494393e+01	1.930595e+03
1.510000e-06	7.646977e-06	2.943834e-08	5.522419e+01	1.933268e+03
1.520000e-06	7.683161e-06	2.947586e-08	5.548551e+01	1.935579e+03
1.530000e-06	7.716646e-06	2.950771e-08	5.572732e+01	1.937512e+03
1.540000e-06	7.747357e-06	2.953391e-08	5.594911e+01	1.939093e+03
1.550000e-06	7.775375e-06	2.955554e-08	5.615145e+01	1.940388e+03
1.560000e-06	7.800517e-06	2.957589e-08	5.633302e+01	1.941479e+03
1.570000e-06	7.822795e-06	2.959439e-08	5.649390e+01	1.942444e+03
1.580000e-06	7.842438e-06	2.961031e-08	5.663576e+01	1.943333e+03
1.590000e-06	7.859270e-06	2.962518e-08	5.675732e+01	1.944156e+03
1.600000e-06	7.873103e-06	2.963656e-08	5.685721e+01	1.944883e+03
1.610000e-06	7.883882e-06	2.964286e-08	5.693505e+01	1.945455e+03
1.620000e-06	7.891632e-06	2.964456e-08	5.699102e+01	1.945806e+03
1.630000e-06	7.896557e-06	2.964669e-08	5.702659e+01	1.945886e+03
1.640000e-06	7.898622e-06	2.964865e-08	5.704150e+01	1.945673e+03
1.650000e-06	7.897881e-06	2.964754e-08	5.703615e+01	1.945188e+03
1.660000e-06	7.894635e-06	2.963439e-08	5.701271e+01	1.944480e+03
1.670000e-06	7.888761e-06	2.962324e-08	5.697028e+01	1.943615e+03
1.680000e-06	7.880136e-06	2.961314e-08	5.690800e+01	1.942649e+03
1.690000e-06	7.868853e-06	2.959693e-08	5.682651e+01	1.941616e+03
1.700000e-06	7.854770e-06	2.957835e-08	5.672482e+01	1.940511e+03
1.710000e-06	7.838087e-06	2.956472e-08	5.660434e+01	1.939293e+03
1.720000e-06	7.819189e-06	2.955530e-08	5.646786e+01	1.937904e+03
1.730000e-06	7.797890e-06	2.950710e-08	5.631405e+01	1.936283e+03
1.740000e-06	7.773614e-06	2.939312e-08	5.613873e+01	1.934395e+03
1.750000e-06	7.745843e-06	2.939157e-08	5.593818e+01	1.932243e+03
1.760000e-06	7.714510e-06	2.940345e-08	5.571190e+01	1.929870e+03
1.770000e-06	7.680384e-06	2.935271e-08	5.546545e+01	1.927352e+03
1.780000e-06	7.644165e-06	2.933285e-08	5.520388e+01	1.924773e+03
1.790000e-06	7.605726e-06	2.937539e-08	5.492630e+01	1.922202e+03
1.800000e-06	7.565205e-06	2.929142e-08	5.463366e+01	1.919665e+03
1.810000e-06	7.522548e-06	2.918358e-08	5.432561e+01	1.917134e+03
1.820000e-06	7.477185e-06	2.926884e-08	5.399801e+01	1.914531e+03
1.830000e-06	7.429202e-06	2.916378e-08	5.365149e+01	1.911740e+03
1.840000e-06	7.378398e-06	2.916112e-08	5.328460e+01	1.908641e+03
1.850000e-06	7.324527e-06	2.911445e-08	5.289556e+01	1.905133e+03
1.860000e-06	7.267932e-06	2.900036e-08	5.248685e+01	1.901165e+03
1.870000e-06	7.208744e-06	2.901482e-08	5.205941e+01	1.896740e+03
1.880000e-06	7.146950e-06	2.884667e-08	5.161315e+01	1.891917e+03
1.890000e-06	7.082308e-06	2.882403e-08	5.114633e+01	1.886786e+03
1.900000e-06	7.014958e-06	2.875062e-08	5.065994e+01	1.881440e+03
1.910000e-06	6.944987e-06	2.863670e-08	5.015463e+01	1.875949e+03
1.920000e-06	6.872224e-06	2.860302e-08	4.962916e+01	1.870338e+03
1.930000e-06	6.796809e-06	2.847362e-08	4.908454e+01	1.864581e+03
1.940000e-06	6.718694e-06	2.842607e-08	4.852041e+01	1.858610e+03
1.950000e-06	6.637994e-06	2.828549e-08	4.793762e+01	1.852339e+03
1.960000e-06	6.554871e-06	2.818431e-08	4.733733e+01	1.845690e+03
1.970000e-06	6.469309e-06	2.807459e-08	4.671943e+01	1.838615e+03
1.980000e-06	6.381348e-06	2.794754e-08	4.608420e+01	1.831113e+03
1.990000e-06	6.291124e-06	2.787524e-08	4.543263e+01	1.823223e+03
2.000000e-06	6.198700e-06	2.772248e-08	4.476517e+01	1.815012e+03
2.010000e-06	6.104000e-06	2.761803e-08	4.408127e+01	1.806544e+03
2.020000e-06	6.007133e-06	2.746700e-08	4.338173e+01	1.797860e+03
2.030000e-06	5.908211e-06	2.733206e-08	4.266735e+01	1.788955e+03
2.040000e-06	5.807182e-06	2.717977e-08	4.193775e+01	1.779775e+03
2.050000e-06	5.704006e-06	2.703474e-08	4.119264e+01	1.770231e+03
2.060000e-06	5.598826e-06	2.688583e-08	4.043306e+01	1.760218e+03
2.070000e-06	5.491804e-06	2.670682e-08	3.966018e+01	1.749650e+03
2.080000e-06	5.382856e-06	2.654434e-08	3.887339e+01	1.738477e+03
2.090000e-06	5.271927e-06	2.636314e-08	3.807229e+01	1.726704e+03
2.100000e-06	5.159089e-06	2.619223e-08	3.725740e+01	1.714380e+03
2.110000e-06	5.044368e-06	2.599427e-08	3.642892e+01	1.701580e+03
2.120000e-06	4.927644e-06	2.580309e-08	3.558598e+01	1.688376e+03
2.130000e-06	4.808973e-06	2.558792e-08	3.472897e+01	1.674799e+03
2.140000e-06	4.688453e-06	2.536638e-08	3.385861e+01	1.660825e+03
2.150000e-06	4.566265e-06	2.513967e-08	3.297621e+01	1.646369e+03
2.160000e-06	4.442453e-06	2.491279e-08	3.208208e+01	1.631298e+03
2.170000e-06	4.316900e-06	2.467332e-08	3.117537e+01	1.615461e+03
2.180000e-06	4.189804e-06	2.441646e-08	3.025752e+01	1.598727e+03
2.190000e-06	4.061188e-06	2.415190e-08	2.932870e+01	1.581017e+03
2.200000e-06	3.931102e-06	2.387065e-08	2.838925e+01	1.562316e+03
2.210000e-06	3.799522e-06	2.357833e-08	2.743902e+01	1.542668e+03
2.220000e-06	3.666427e-06	2.326936e-08	2.647784e+01	1.522151e+03
2.230000e-06	3.532039e-06	2.295108e-08	2.550733e+01	1.500833e+03
2.240000e-06	3.396404e-06	2.261093e-08	2.452782e+01	1.478732e+03
2.250000e-06	3.259473e-06	2.225615e-08	2.353894e+01	1.455785e+03
2.260000e-06	3.121281e-06	2.188361e-08	2.254096e+01	1.431841e+03
2.270000e-06	2.981841e-06	2.149737e-08	2.153397e+01	1.406673e+03
2.280000e-06	2.841191e-06	2.109084e-08	2.051823e+01	1.380023e+03
2.290000e-06	2.699427e-06	2.066126e-08	1.949446e+01	1.351645e+03
2.300000e-06	2.556757e-06	2.020500e-08	1.846414e+01	1.321347e+03
2.310000e-06	2.413192e-06	1.971872e-08	1.742736e+01	1.289011e+03
2.320000e-06	2.268674e-06	1.919958e-08	1.638369e+01	1.254588e+03
2.330000e-06	2.123349e-06	1.864610e-08	1.533420e+01	1.218054e+03
2.340000e-06	1.977361e-06	1.805865e-08	1.427991e+01	1.179357e+03
2.350000e-06	1.830819e-06	1.743270e-08	1.322163e+01	1.138350e+03
2.360000e-06	1.683722e-06	1.676431e-08	1.215934e+01	1.094752e+03
2.370000e-06	1.536064e-06	1.604770e-08	1.109300e+01	1.048144e+03
2.380000e-06	1.387866e-06	1.527500e-08	1.002276e+01	9.980049e+02
2.390000e-06	1.239152e-06	1.444252e-08	8.948784e+00	9.437977e+02
2.400000e-06	1.089971e-06	1.354728e-08	7.871446e+00	8.850794e+02
2.410000e-06	9.404084e-07	1.258593e-08	6.791350e+00	8.216108e+02
2.420000e-06	7.905391e-07	1.155932e-08	5.709039e+00	7.534388e+02
2.430000e-06	6.403642e-07	1.046774e-08	4.624520e+00	6.809245e+02
2.440000e-06	4.899372e-07	9.312983e-09	3.538181e+00	6.047044e+02
2.450000e-06	3.393604e-07	8.102348e-09	2.450760e+00	5.255870e+02
2.460000e-06	1.887194e-07	6.851473e-09	1.362876e+00	4.444055e+02
2.470000e-06	3.805029e-08	5.574977e-09	2.747879e-01	3.618597e+02
2.480000e-06	-1.126609e-07	4.285667e-09	-8.136036e-01	2.783841e+02
2.490000e-06	-2.633669e-07	2.991392e-09	-1.901957e+00	1.940786e+02
2.500000e-06	-4.140392e-07	1.689511e-09	-2.990068e+00	1.087217e+02
2.510000e-06	-5.646384e-07	3.721511e-10	-4.077651e+00	2.186906e+01
2.520000e-06	-7.150831e-07	-9.702553e-10	-5.164118e+00	-6.698105e+01
2.530000e-06	-8.652989e-07	-2.348108e-09	-6.248932e+00	-1.581915e+02
2.540000e-06	-1.015230e-06	-3.769636e-09	-7.331687e+00	-2.518030e+02
2.550000e-06	-1.164773e-06	-5.232930e-09	-8.411643e+00	-3.474085e+02
2.560000e-06	-1.313829e-06	-6.722842e-09	-9.488080e+00	-4.441141e+02
2.570000e-06	-1.462403e-06	-8.216368e-09	-1.056104e+01	-5.406021e+02
2.580000e-06	-1.610431e-06	-9.682841e-09	-1.163006e+01	-6.352823e+02
2.590000e-06	-1.757833e-06	-1.108757e-08	-1.269455e+01	-7.265033e+02
2.600000e-06	-1.904564e-06	-1.240399e-08	-1.375419e+01	-8.127785e+02
2.610000e-06	-2.050631e-06	-1.361880e-08	-1.480905e+01	-8.929831e+02
2.620000e-06	-2.196000e-06	-1.472886e-08	-1.585886e+01	-9.664803e+02
2.630000e-06	-2.340443e-06	-1.573963e-08	-1.690198e+01	-1.033158e+03
2.640000e-06	-2.483920e-06	-1.666264e-08	-1.793814e+01	-1.093373e+03
2.650000e-06	-2.626447e-06	-1.750805e-08	-1.896742e+01	-1.147823e+03
2.660000e-06	-2.767907e-06	-1.828358e-08	-1.998900e+01	-1.197377e+03
2.670000e-06	-2.908276e-06	-1.899506e-08	-2.100271e+01	-1.242905e+03
2.680000e-06	-3.047495e-06	-1.964956e-08	-2.200811e+01	-1.285144e+03
2.690000e-06	-3.185511e-06	-2.025411e-08	-2.300482e+01	-1.324621e+03
2.700000e-06	-3.322271e-06	-2.081477e-08	-2.399245e+01	-1.361639e+03
2.710000e-06	-3.457753e-06	-2.133722e-08	-2.497087e+01	-1.396323e+03
2.720000e-06	-3.592033e-06	-2.182242e-08	-2.594059e+01	-1.428700e+03
2.730000e-06	-3.725024e-06	-2.227583e-08	-2.690102e+01	-1.458783e+03
2.740000e-06	-3.856599e-06	-2.270065e-08	-2.785121e+01	-1.486645e+03
2.750000e-06	-3.986831e-06	-2.309856e-08	-2.879171e+01	-1.512447e+03
2.760000e-06	-4.115760e-06	-2.347367e-08	-2.972279e+01	-1.536441e+03
2.770000e-06	-4.243258e-06	-2.382389e-08	-3.064355e+01	-1.558927e+03
2.780000e-06	-4.369329e-06	-2.415373e-08	-3.155400e+01	-1.580198e+03
2.790000e-06	-4.493894e-06	-2.446623e-08	-3.245357e+01	-1.600488e+03
2.800000e-06	-4.616744e-06	-2.476232e-08	-3.334076e+01	-1.619939e+03
2.810000e-06	-4.737941e-06	-2.504308e-08	-3.421600e+01	-1.638588e+03
2.820000e-06	-4.857401e-06	-2.530902e-08	-3.507871e+01	-1.656397e+03
2.830000e-06	-4.974994e-06	-2.556147e-08	-3.592793e+01	-1.673284e+03
2.840000e-06	-5.090558e-06	-2.580158e-08	-3.676250e+01	-1.689183e+03
2.850000e-06	-5.204054e-06	-2.603182e-08	-3.758213e+01	-1.704074e+03
2.860000e-06	-5.315617e-06	-2.625188e-08	-3.838780e+01	-1.718007e+03
2.870000e-06	-5.425217e-06	-2.646051e-08	-3.917931e+01	-1.731099e+03
2.880000e-06	-5.532913e-06	-2.665605e-08	-3.995705e+01	-1.743507e+03
2.890000e-06	-5.638673e-06	-2.683949e-08	-4.072082e+01	-1.755387e+03
2.900000e-06	-5.742357e-06	-2.701353e-08	-4.146960e+01	-1.766861e+03
2.910000e-06	-5.843919e-06	-2.718154e-08	-4.220305e+01	-1.777988e+03
2.920000e-06	-5.943369e-06	-2.734314e-08	-4.292124e+01	-1.788758e+03
2.930000e-06	-6.040705e-06	-2.749862e-08	-4.362418e+01	-1.799106e+03
2.940000e-06	-6.135844e-06	-2.764785e-08	-4.431124e+01	-1.808941e+03
