# Temperatura_=_37.17
# Concentracion g/m^3_=_28200.0
# C_Vs_to_Am_M_A/Vsm_=_65563218390.804596
# pendiente_HvsI_1/m_=_3716.3
# ordenada_HvsI_A/m_=_1297.0
# frecuencia_Hz_=_302507.5767718546

Tiempo_(s)	Campo_(V.s)	Magnetizacion_(V.s)	Campo_(kA/m)	Magnetizacion_(A/m)
0.000000e+00	-7.887308e-06	-2.400745e-08	-5.684002e+01	-1.571305e+03
1.000000e-08	-7.882704e-06	-2.400580e-08	-5.680684e+01	-1.570778e+03
2.000000e-08	-7.875656e-06	-2.399683e-08	-5.675605e+01	-1.570142e+03
3.000000e-08	-7.865900e-06	-2.398755e-08	-5.668574e+01	-1.569441e+03
4.000000e-08	-7.853258e-06	-2.397613e-08	-5.659464e+01	-1.568695e+03
5.000000e-08	-7.837694e-06	-2.396031e-08	-5.648248e+01	-1.567901e+03
6.000000e-08	-7.819520e-06	-2.393815e-08	-5.635150e+01	-1.567032e+03
7.000000e-08	-7.799178e-06	-2.390605e-08	-5.620491e+01	-1.566046e+03
8.000000e-08	-7.776411e-06	-2.390563e-08	-5.604083e+01	-1.564905e+03
9.000000e-08	-7.750635e-06	-2.396125e-08	-5.585509e+01	-1.563590e+03
1.000000e-07	-7.721654e-06	-2.390531e-08	-5.564623e+01	-1.562108e+03
1.100000e-07	-7.689792e-06	-2.382759e-08	-5.541662e+01	-1.560492e+03
1.200000e-07	-7.655142e-06	-2.381254e-08	-5.516691e+01	-1.558796e+03
1.300000e-07	-7.617930e-06	-2.377936e-08	-5.489874e+01	-1.557073e+03
1.400000e-07	-7.578513e-06	-2.368794e-08	-5.461468e+01	-1.555359e+03
1.500000e-07	-7.536820e-06	-2.362391e-08	-5.431422e+01	-1.553655e+03
1.600000e-07	-7.492679e-06	-2.373726e-08	-5.399612e+01	-1.551925e+03
1.700000e-07	-7.445945e-06	-2.365665e-08	-5.365933e+01	-1.550098e+03
1.800000e-07	-7.396431e-06	-2.354784e-08	-5.330251e+01	-1.548083e+03
1.900000e-07	-7.343979e-06	-2.360417e-08	-5.292451e+01	-1.545796e+03
2.000000e-07	-7.288663e-06	-2.348879e-08	-5.252588e+01	-1.543173e+03
2.100000e-07	-7.230655e-06	-2.344208e-08	-5.210784e+01	-1.540197e+03
2.200000e-07	-7.170046e-06	-2.343010e-08	-5.167106e+01	-1.536889e+03
2.300000e-07	-7.106849e-06	-2.338293e-08	-5.121563e+01	-1.533312e+03
2.400000e-07	-7.040963e-06	-2.332673e-08	-5.074082e+01	-1.529543e+03
2.500000e-07	-6.972408e-06	-2.321767e-08	-5.024677e+01	-1.525654e+03
2.600000e-07	-6.901228e-06	-2.321370e-08	-4.973382e+01	-1.521690e+03
2.700000e-07	-6.827281e-06	-2.313498e-08	-4.920092e+01	-1.517654e+03
2.800000e-07	-6.750587e-06	-2.303502e-08	-4.864822e+01	-1.513508e+03
2.900000e-07	-6.671162e-06	-2.296962e-08	-4.807585e+01	-1.509184e+03
3.000000e-07	-6.589109e-06	-2.290970e-08	-4.748453e+01	-1.504604e+03
3.100000e-07	-6.504795e-06	-2.283298e-08	-4.687692e+01	-1.499703e+03
3.200000e-07	-6.418274e-06	-2.272012e-08	-4.625340e+01	-1.494447e+03
3.300000e-07	-6.329454e-06	-2.269361e-08	-4.561332e+01	-1.488840e+03
3.400000e-07	-6.238306e-06	-2.260269e-08	-4.495646e+01	-1.482921e+03
3.500000e-07	-6.144941e-06	-2.248607e-08	-4.428362e+01	-1.476749e+03
3.600000e-07	-6.049381e-06	-2.239366e-08	-4.359496e+01	-1.470378e+03
3.700000e-07	-5.951498e-06	-2.230372e-08	-4.288957e+01	-1.463838e+03
3.800000e-07	-5.851476e-06	-2.220211e-08	-4.216876e+01	-1.457120e+03
3.900000e-07	-5.749432e-06	-2.208825e-08	-4.143338e+01	-1.450175e+03
4.000000e-07	-5.645307e-06	-2.199257e-08	-4.068300e+01	-1.442925e+03
4.100000e-07	-5.539164e-06	-2.185776e-08	-3.991808e+01	-1.435284e+03
4.200000e-07	-5.431105e-06	-2.172594e-08	-3.913935e+01	-1.427179e+03
4.300000e-07	-5.321183e-06	-2.159573e-08	-3.834719e+01	-1.418570e+03
4.400000e-07	-5.209282e-06	-2.147141e-08	-3.754078e+01	-1.409461e+03
4.500000e-07	-5.095380e-06	-2.132203e-08	-3.671994e+01	-1.399890e+03
4.600000e-07	-4.979503e-06	-2.116566e-08	-3.588487e+01	-1.389915e+03
4.700000e-07	-4.861799e-06	-2.100869e-08	-3.503664e+01	-1.379588e+03
4.800000e-07	-4.742368e-06	-2.083874e-08	-3.417596e+01	-1.368931e+03
4.900000e-07	-4.621163e-06	-2.066752e-08	-3.330249e+01	-1.357919e+03
5.000000e-07	-4.498209e-06	-2.049618e-08	-3.241642e+01	-1.346481e+03
5.100000e-07	-4.373534e-06	-2.032341e-08	-3.151795e+01	-1.334509e+03
5.200000e-07	-4.247264e-06	-2.012093e-08	-3.060798e+01	-1.321886e+03
5.300000e-07	-4.119483e-06	-1.990754e-08	-2.968712e+01	-1.308508e+03
5.400000e-07	-3.990234e-06	-1.968789e-08	-2.875569e+01	-1.294313e+03
5.500000e-07	-3.859468e-06	-1.946434e-08	-2.781332e+01	-1.279286e+03
5.600000e-07	-3.727173e-06	-1.922203e-08	-2.685993e+01	-1.263454e+03
5.700000e-07	-3.593516e-06	-1.896782e-08	-2.589673e+01	-1.246865e+03
5.800000e-07	-3.458552e-06	-1.870412e-08	-2.492411e+01	-1.229557e+03
5.900000e-07	-3.322279e-06	-1.842675e-08	-2.394206e+01	-1.211527e+03
6.000000e-07	-3.184731e-06	-1.813864e-08	-2.295082e+01	-1.192708e+03
6.100000e-07	-3.045836e-06	-1.783545e-08	-2.194987e+01	-1.172971e+03
6.200000e-07	-2.905621e-06	-1.751693e-08	-2.093941e+01	-1.152135e+03
6.300000e-07	-2.764126e-06	-1.716994e-08	-1.991972e+01	-1.129997e+03
6.400000e-07	-2.621476e-06	-1.679994e-08	-1.889171e+01	-1.106370e+03
6.500000e-07	-2.477846e-06	-1.640913e-08	-1.785664e+01	-1.081106e+03
6.600000e-07	-2.333246e-06	-1.600114e-08	-1.681457e+01	-1.054108e+03
6.700000e-07	-2.187884e-06	-1.556870e-08	-1.576702e+01	-1.025318e+03
6.800000e-07	-2.041863e-06	-1.510565e-08	-1.471472e+01	-9.946843e+02
6.900000e-07	-1.895120e-06	-1.461281e-08	-1.365721e+01	-9.621164e+02
7.000000e-07	-1.747773e-06	-1.408380e-08	-1.259536e+01	-9.274433e+02
7.100000e-07	-1.599901e-06	-1.351929e-08	-1.152972e+01	-8.903917e+02
7.200000e-07	-1.451550e-06	-1.290704e-08	-1.046062e+01	-8.505950e+02
7.300000e-07	-1.302806e-06	-1.224334e-08	-9.388691e+00	-8.076383e+02
7.400000e-07	-1.153686e-06	-1.152563e-08	-8.314059e+00	-7.611346e+02
7.500000e-07	-1.004245e-06	-1.075438e-08	-7.237111e+00	-7.108161e+02
7.600000e-07	-8.544107e-07	-9.932937e-09	-6.157325e+00	-6.566186e+02
7.700000e-07	-7.041531e-07	-9.063479e-09	-5.074492e+00	-5.987356e+02
7.800000e-07	-5.536590e-07	-8.146474e-09	-3.989953e+00	-5.376239e+02
7.900000e-07	-4.030033e-07	-7.180416e-09	-2.904250e+00	-4.739523e+02
8.000000e-07	-2.521624e-07	-6.178305e-09	-1.817212e+00	-4.084993e+02
8.100000e-07	-1.011882e-07	-5.155759e-09	-7.292145e-01	-3.420193e+02
8.200000e-07	4.984189e-08	-4.127689e-09	3.591864e-01	-2.751061e+02
8.300000e-07	2.009127e-07	-3.100834e-09	1.447881e+00	-2.080851e+02
8.400000e-07	3.519163e-07	-2.077915e-09	2.536091e+00	-1.409628e+02
8.500000e-07	5.027789e-07	-1.053209e-09	3.623284e+00	-7.344829e+01
8.600000e-07	6.534737e-07	-1.791002e-11	4.709270e+00	-5.046091e+00
8.700000e-07	8.039083e-07	1.034966e-09	5.793379e+00	6.479582e+01
8.800000e-07	9.540820e-07	2.113485e-09	6.875608e+00	1.365149e+02
8.900000e-07	1.103938e-06	3.226837e-09	7.955551e+00	2.102764e+02
9.000000e-07	1.253386e-06	4.379239e-09	9.032549e+00	2.858645e+02
9.100000e-07	1.402388e-06	5.559575e-09	1.010633e+01	3.626476e+02
9.200000e-07	1.550939e-06	6.747755e-09	1.117687e+01	4.396263e+02
9.300000e-07	1.699063e-06	7.915516e-09	1.224432e+01	5.155549e+02
9.400000e-07	1.846643e-06	9.036660e-09	1.330787e+01	5.891109e+02
9.500000e-07	1.993488e-06	1.008883e-08	1.436611e+01	6.590788e+02
9.600000e-07	2.139540e-06	1.106450e-08	1.541863e+01	7.245092e+02
9.700000e-07	2.284835e-06	1.196572e-08	1.646570e+01	7.848241e+02
9.800000e-07	2.429289e-06	1.279152e-08	1.750672e+01	8.398525e+02
9.900000e-07	2.572784e-06	1.354626e-08	1.854081e+01	8.897920e+02
1.000000e-06	2.715287e-06	1.423639e-08	1.956776e+01	9.351152e+02
1.010000e-06	2.856686e-06	1.487182e-08	2.058676e+01	9.764430e+02
1.020000e-06	2.996921e-06	1.545768e-08	2.159736e+01	1.014416e+03
1.030000e-06	3.136034e-06	1.599914e-08	2.259988e+01	1.049593e+03
1.040000e-06	3.273847e-06	1.650010e-08	2.359303e+01	1.082387e+03
1.050000e-06	3.410344e-06	1.696225e-08	2.457670e+01	1.113056e+03
1.060000e-06	3.545540e-06	1.739108e-08	2.555100e+01	1.141732e+03
1.070000e-06	3.679403e-06	1.778876e-08	2.651568e+01	1.168471e+03
1.080000e-06	3.811983e-06	1.816090e-08	2.747112e+01	1.193319e+03
1.090000e-06	3.943226e-06	1.850958e-08	2.841693e+01	1.216358e+03
1.100000e-06	4.073038e-06	1.883818e-08	2.935242e+01	1.237726e+03
1.110000e-06	4.201388e-06	1.914641e-08	3.027738e+01	1.257618e+03
1.120000e-06	4.328316e-06	1.943593e-08	3.119208e+01	1.276257e+03
1.130000e-06	4.453753e-06	1.970780e-08	3.209605e+01	1.293855e+03
1.140000e-06	4.577704e-06	1.996259e-08	3.298931e+01	1.310580e+03
1.150000e-06	4.700080e-06	2.020329e-08	3.387120e+01	1.326535e+03
1.160000e-06	4.820765e-06	2.042959e-08	3.474092e+01	1.341751e+03
1.170000e-06	4.939730e-06	2.064182e-08	3.559825e+01	1.356213e+03
1.180000e-06	5.056877e-06	2.084162e-08	3.644247e+01	1.369881e+03
1.190000e-06	5.172093e-06	2.103224e-08	3.727277e+01	1.382726e+03
1.200000e-06	5.285228e-06	2.121400e-08	3.808808e+01	1.394756e+03
1.210000e-06	5.396337e-06	2.138877e-08	3.888879e+01	1.406021e+03
1.220000e-06	5.505629e-06	2.155561e-08	3.967641e+01	1.416613e+03
1.230000e-06	5.613076e-06	2.171359e-08	4.045073e+01	1.426640e+03
1.240000e-06	5.718495e-06	2.186250e-08	4.121043e+01	1.436202e+03
1.250000e-06	5.821828e-06	2.200314e-08	4.195510e+01	1.445367e+03
1.260000e-06	5.922990e-06	2.213552e-08	4.268413e+01	1.454158e+03
1.270000e-06	6.021868e-06	2.225886e-08	4.339669e+01	1.462555e+03
1.280000e-06	6.118394e-06	2.237437e-08	4.409231e+01	1.470508e+03
1.290000e-06	6.212674e-06	2.248313e-08	4.477174e+01	1.477962e+03
1.300000e-06	6.304855e-06	2.258730e-08	4.543605e+01	1.484886e+03
1.310000e-06	6.394786e-06	2.268589e-08	4.608414e+01	1.491284e+03
1.320000e-06	6.482329e-06	2.277849e-08	4.671502e+01	1.497209e+03
1.330000e-06	6.567635e-06	2.286530e-08	4.732977e+01	1.502747e+03
1.340000e-06	6.650716e-06	2.294724e-08	4.792850e+01	1.508004e+03
1.350000e-06	6.731335e-06	2.302523e-08	4.850948e+01	1.513076e+03
1.360000e-06	6.809440e-06	2.309897e-08	4.907235e+01	1.518028e+03
1.370000e-06	6.884995e-06	2.317137e-08	4.961684e+01	1.522880e+03
1.380000e-06	6.957880e-06	2.324108e-08	5.014208e+01	1.527608e+03
1.390000e-06	7.028276e-06	2.330765e-08	5.064939e+01	1.532153e+03
1.400000e-06	7.096290e-06	2.337097e-08	5.113953e+01	1.536444e+03
1.410000e-06	7.161679e-06	2.343087e-08	5.161076e+01	1.540423e+03
1.420000e-06	7.224445e-06	2.348811e-08	5.206309e+01	1.544059e+03
1.430000e-06	7.284828e-06	2.354050e-08	5.249824e+01	1.547364e+03
1.440000e-06	7.342767e-06	2.358794e-08	5.291577e+01	1.550380e+03
1.450000e-06	7.398056e-06	2.363171e-08	5.331421e+01	1.553173e+03
1.460000e-06	7.450502e-06	2.367236e-08	5.369217e+01	1.555807e+03
1.470000e-06	7.499897e-06	2.371131e-08	5.404814e+01	1.558329e+03
1.480000e-06	7.546368e-06	2.374930e-08	5.438303e+01	1.560751e+03
1.490000e-06	7.590228e-06	2.378396e-08	5.469910e+01	1.563053e+03
1.500000e-06	7.631427e-06	2.381378e-08	5.499601e+01	1.565190e+03
1.510000e-06	7.669840e-06	2.384044e-08	5.527283e+01	1.567108e+03
1.520000e-06	7.705636e-06	2.386455e-08	5.553079e+01	1.568764e+03
1.530000e-06	7.738704e-06	2.388544e-08	5.576910e+01	1.570141e+03
1.540000e-06	7.768970e-06	2.390378e-08	5.598722e+01	1.571254e+03
1.550000e-06	7.796566e-06	2.391958e-08	5.618608e+01	1.572151e+03
1.560000e-06	7.821249e-06	2.393365e-08	5.636396e+01	1.572893e+03
1.570000e-06	7.843030e-06	2.394611e-08	5.652093e+01	1.573544e+03
1.580000e-06	7.862163e-06	2.395665e-08	5.665881e+01	1.574147e+03
1.590000e-06	7.878485e-06	2.396751e-08	5.677643e+01	1.574716e+03
1.600000e-06	7.891814e-06	2.397521e-08	5.687250e+01	1.575234e+03
1.610000e-06	7.902000e-06	2.397833e-08	5.694590e+01	1.575658e+03
1.620000e-06	7.909138e-06	2.398054e-08	5.699734e+01	1.575937e+03
1.630000e-06	7.913586e-06	2.398336e-08	5.702939e+01	1.576029e+03
1.640000e-06	7.915266e-06	2.398555e-08	5.704150e+01	1.575912e+03
1.650000e-06	7.914119e-06	2.398132e-08	5.703323e+01	1.575592e+03
1.660000e-06	7.910343e-06	2.396743e-08	5.700602e+01	1.575104e+03
1.670000e-06	7.903859e-06	2.396339e-08	5.695929e+01	1.574494e+03
1.680000e-06	7.894691e-06	2.395746e-08	5.689323e+01	1.573807e+03
1.690000e-06	7.882907e-06	2.394736e-08	5.680831e+01	1.573072e+03
1.700000e-06	7.868297e-06	2.394004e-08	5.670302e+01	1.572292e+03
1.710000e-06	7.851098e-06	2.393889e-08	5.657907e+01	1.571447e+03
1.720000e-06	7.831701e-06	2.393823e-08	5.643928e+01	1.570498e+03
1.730000e-06	7.809827e-06	2.385551e-08	5.628165e+01	1.569404e+03
1.740000e-06	7.784859e-06	2.377756e-08	5.610172e+01	1.568138e+03
1.750000e-06	7.756268e-06	2.382829e-08	5.589568e+01	1.566700e+03
1.760000e-06	7.724178e-06	2.382056e-08	5.566442e+01	1.565116e+03
1.770000e-06	7.689514e-06	2.376599e-08	5.541461e+01	1.563436e+03
1.780000e-06	7.652685e-06	2.380373e-08	5.514920e+01	1.561715e+03
1.790000e-06	7.613634e-06	2.388084e-08	5.486778e+01	1.559995e+03
1.800000e-06	7.572677e-06	2.371644e-08	5.457263e+01	1.558290e+03
1.810000e-06	7.529476e-06	2.373162e-08	5.426129e+01	1.556572e+03
1.820000e-06	7.483537e-06	2.377611e-08	5.393023e+01	1.554780e+03
1.830000e-06	7.434959e-06	2.360655e-08	5.358016e+01	1.552828e+03
1.840000e-06	7.383434e-06	2.371490e-08	5.320885e+01	1.550625e+03
1.850000e-06	7.328921e-06	2.361561e-08	5.281599e+01	1.548101e+03
1.860000e-06	7.271727e-06	2.359106e-08	5.240383e+01	1.545224e+03
1.870000e-06	7.211981e-06	2.354378e-08	5.197326e+01	1.542005e+03
1.880000e-06	7.149604e-06	2.339638e-08	5.152374e+01	1.538496e+03
1.890000e-06	7.084309e-06	2.349348e-08	5.105320e+01	1.534773e+03
1.900000e-06	7.016312e-06	2.335212e-08	5.056317e+01	1.530911e+03
1.910000e-06	6.945629e-06	2.332011e-08	5.005379e+01	1.526965e+03
1.920000e-06	6.872215e-06	2.328473e-08	4.952473e+01	1.522950e+03
1.930000e-06	6.796227e-06	2.318686e-08	4.897712e+01	1.518841e+03
1.940000e-06	6.717475e-06	2.315056e-08	4.840960e+01	1.514575e+03
1.950000e-06	6.636179e-06	2.303593e-08	4.782374e+01	1.510075e+03
1.960000e-06	6.552474e-06	2.304243e-08	4.722051e+01	1.505270e+03
1.970000e-06	6.466288e-06	2.289432e-08	4.659942e+01	1.500115e+03
1.980000e-06	6.377709e-06	2.281125e-08	4.596107e+01	1.494604e+03
1.990000e-06	6.286872e-06	2.275188e-08	4.530645e+01	1.488768e+03
2.000000e-06	6.193908e-06	2.264803e-08	4.463651e+01	1.482661e+03
2.010000e-06	6.098695e-06	2.257602e-08	4.395035e+01	1.476341e+03
2.020000e-06	6.001297e-06	2.245414e-08	4.324845e+01	1.469847e+03
2.030000e-06	5.901777e-06	2.237005e-08	4.253125e+01	1.463182e+03
2.040000e-06	5.800138e-06	2.221651e-08	4.179880e+01	1.456308e+03
2.050000e-06	5.696397e-06	2.211717e-08	4.105118e+01	1.449153e+03
2.060000e-06	5.590691e-06	2.201229e-08	4.028941e+01	1.441632e+03
2.070000e-06	5.483146e-06	2.190131e-08	3.951439e+01	1.433663e+03
2.080000e-06	5.373632e-06	2.176724e-08	3.872517e+01	1.425199e+03
2.090000e-06	5.262145e-06	2.162953e-08	3.792174e+01	1.416229e+03
2.100000e-06	5.148693e-06	2.150083e-08	3.710415e+01	1.406783e+03
2.110000e-06	5.033276e-06	2.134647e-08	3.627239e+01	1.396917e+03
2.120000e-06	4.915902e-06	2.120711e-08	3.542653e+01	1.386685e+03
2.130000e-06	4.796602e-06	2.104681e-08	3.456679e+01	1.376122e+03
2.140000e-06	4.675563e-06	2.087459e-08	3.369453e+01	1.365216e+03
2.150000e-06	4.552892e-06	2.067418e-08	3.281049e+01	1.353908e+03
2.160000e-06	4.428508e-06	2.049655e-08	3.191412e+01	1.342100e+03
2.170000e-06	4.302488e-06	2.031465e-08	3.100595e+01	1.329673e+03
2.180000e-06	4.174854e-06	2.012461e-08	3.008616e+01	1.316519e+03
2.190000e-06	4.045688e-06	1.991553e-08	2.915532e+01	1.302560e+03
2.200000e-06	3.915056e-06	1.969499e-08	2.821392e+01	1.287768e+03
2.210000e-06	3.782912e-06	1.945690e-08	2.726162e+01	1.272160e+03
2.220000e-06	3.649381e-06	1.920590e-08	2.629933e+01	1.255782e+03
2.230000e-06	3.514528e-06	1.895308e-08	2.532751e+01	1.238676e+03
2.240000e-06	3.378376e-06	1.868508e-08	2.434632e+01	1.220855e+03
2.250000e-06	3.240930e-06	1.840091e-08	2.335582e+01	1.202271e+03
2.260000e-06	3.102215e-06	1.809385e-08	2.235617e+01	1.182812e+03
2.270000e-06	2.962237e-06	1.777853e-08	2.134741e+01	1.162309e+03
2.280000e-06	2.821124e-06	1.744806e-08	2.033048e+01	1.140562e+03
2.290000e-06	2.678930e-06	1.710497e-08	1.930576e+01	1.117377e+03
2.300000e-06	2.535590e-06	1.673412e-08	1.827277e+01	1.092592e+03
2.310000e-06	2.391358e-06	1.633561e-08	1.723336e+01	1.066095e+03
2.320000e-06	2.246410e-06	1.590829e-08	1.618879e+01	1.037821e+03
2.330000e-06	2.100748e-06	1.545187e-08	1.513908e+01	1.007720e+03
2.340000e-06	1.954413e-06	1.496475e-08	1.408451e+01	9.757165e+02
2.350000e-06	1.807418e-06	1.444359e-08	1.302519e+01	9.416671e+02
2.360000e-06	1.659784e-06	1.388761e-08	1.196126e+01	9.053279e+02
2.370000e-06	1.511569e-06	1.328672e-08	1.089315e+01	8.663558e+02
2.380000e-06	1.362871e-06	1.263546e-08	9.821553e+00	8.243432e+02
2.390000e-06	1.213834e-06	1.193754e-08	8.747513e+00	7.788862e+02
2.400000e-06	1.064475e-06	1.119185e-08	7.671155e+00	7.296734e+02
2.410000e-06	9.147158e-07	1.038848e-08	6.591915e+00	6.765752e+02
2.420000e-06	7.645317e-07	9.527054e-09	5.509610e+00	6.197086e+02
2.430000e-06	6.140556e-07	8.613871e-09	4.425202e+00	5.594578e+02
2.440000e-06	4.634451e-07	7.657199e-09	3.339825e+00	4.964395e+02
2.450000e-06	3.126536e-07	6.662649e-09	2.253143e+00	4.314137e+02
2.460000e-06	1.616262e-07	5.642837e-09	1.164762e+00	3.651561e+02
2.470000e-06	1.048097e-08	4.612386e-09	7.553127e-02	2.983191e+02
2.480000e-06	-1.406659e-07	3.579151e-09	-1.013711e+00	2.313129e+02
2.490000e-06	-2.917747e-07	2.548056e-09	-2.102679e+00	1.642364e+02
2.500000e-06	-4.427931e-07	1.518230e-09	-3.190996e+00	9.687688e+01
2.510000e-06	-5.936662e-07	4.837660e-10	-4.278265e+00	2.878422e+01
2.520000e-06	-7.443367e-07	-5.686282e-10	-5.364075e+00	-4.059456e+01
2.530000e-06	-8.947405e-07	-1.649210e-09	-6.447963e+00	-1.117470e+02
2.540000e-06	-1.044743e-06	-2.760957e-09	-7.528955e+00	-1.849301e+02
2.550000e-06	-1.194304e-06	-3.905700e-09	-8.606774e+00	-2.600438e+02
2.560000e-06	-1.343483e-06	-5.079053e-09	-9.681835e+00	-3.365742e+02
2.570000e-06	-1.492235e-06	-6.267505e-09	-1.075382e+01	-4.136173e+02
2.580000e-06	-1.640459e-06	-7.448511e-09	-1.182200e+01	-4.899820e+02
2.590000e-06	-1.788023e-06	-8.595770e-09	-1.288542e+01	-5.643490e+02
2.600000e-06	-1.934895e-06	-9.686510e-09	-1.394385e+01	-6.354543e+02
2.610000e-06	-2.081091e-06	-1.070308e-08	-1.499742e+01	-7.022587e+02
2.620000e-06	-2.226459e-06	-1.163847e-08	-1.604502e+01	-7.640714e+02
2.630000e-06	-2.370987e-06	-1.249500e-08	-1.708656e+01	-8.206059e+02
2.640000e-06	-2.514761e-06	-1.327961e-08	-1.812267e+01	-8.719620e+02
2.650000e-06	-2.657560e-06	-1.400067e-08	-1.915175e+01	-9.185459e+02
2.660000e-06	-2.799179e-06	-1.466325e-08	-2.017233e+01	-9.609495e+02
2.670000e-06	-2.939626e-06	-1.527084e-08	-2.118446e+01	-9.998201e+02
2.680000e-06	-3.078872e-06	-1.582912e-08	-2.218794e+01	-1.035748e+03
2.690000e-06	-3.216884e-06	-1.634088e-08	-2.318253e+01	-1.069191e+03
2.700000e-06	-3.353717e-06	-1.681288e-08	-2.416862e+01	-1.100450e+03
2.710000e-06	-3.489346e-06	-1.725227e-08	-2.514603e+01	-1.129688e+03
2.720000e-06	-3.623647e-06	-1.766151e-08	-2.611387e+01	-1.156978e+03
2.730000e-06	-3.756631e-06	-1.804703e-08	-2.707223e+01	-1.182361e+03
2.740000e-06	-3.888300e-06	-1.840807e-08	-2.802110e+01	-1.205906e+03
2.750000e-06	-4.018588e-06	-1.874175e-08	-2.896002e+01	-1.227735e+03
2.760000e-06	-4.147518e-06	-1.905420e-08	-2.988916e+01	-1.248028e+03
2.770000e-06	-4.275105e-06	-1.935003e-08	-3.080862e+01	-1.267003e+03
2.780000e-06	-4.401210e-06	-1.962881e-08	-3.171739e+01	-1.284880e+03
2.790000e-06	-4.525666e-06	-1.989116e-08	-3.261429e+01	-1.301842e+03
2.800000e-06	-4.648494e-06	-2.013937e-08	-3.349945e+01	-1.318012e+03
2.810000e-06	-4.769754e-06	-2.037570e-08	-3.437332e+01	-1.333440e+03
2.820000e-06	-4.889333e-06	-2.059959e-08	-3.523506e+01	-1.348123e+03
2.830000e-06	-5.006965e-06	-2.081011e-08	-3.608278e+01	-1.362023e+03
2.840000e-06	-5.122517e-06	-2.100801e-08	-3.691551e+01	-1.375105e+03
2.850000e-06	-5.235999e-06	-2.119527e-08	-3.773332e+01	-1.387365e+03
2.860000e-06	-5.347411e-06	-2.137237e-08	-3.853621e+01	-1.398842e+03
2.870000e-06	-5.456824e-06	-2.153929e-08	-3.932470e+01	-1.409617e+03
2.880000e-06	-5.564338e-06	-2.169739e-08	-4.009949e+01	-1.419795e+03
2.890000e-06	-5.669907e-06	-2.184732e-08	-4.086028e+01	-1.429482e+03
2.900000e-06	-5.773446e-06	-2.199056e-08	-4.160644e+01	-1.438757e+03
2.910000e-06	-5.874864e-06	-2.212778e-08	-4.233731e+01	-1.447657e+03
2.920000e-06	-5.974110e-06	-2.225783e-08	-4.305252e+01	-1.456172e+03
2.930000e-06	-6.071250e-06	-2.238049e-08	-4.375257e+01	-1.464258e+03
2.940000e-06	-6.166229e-06	-2.249410e-08	-4.443703e+01	-1.471861e+03
