# Temperatura_=_79.81
# Concentracion g/m^3_=_28200.0
# C_Vs_to_Am_M_A/Vsm_=_65563218390.804596
# pendiente_HvsI_1/m_=_3716.3
# ordenada_HvsI_A/m_=_1297.0
# frecuencia_Hz_=_302506.04652183654

Tiempo_(s)	Campo_(V.s)	Magnetizacion_(V.s)	Campo_(kA/m)	Magnetizacion_(A/m)
0.000000e+00	-7.855704e-06	-2.698053e-08	-5.684589e+01	-1.766822e+03
1.000000e-08	-7.851380e-06	-2.697802e-08	-5.681460e+01	-1.766141e+03
2.000000e-08	-7.844555e-06	-2.696826e-08	-5.676521e+01	-1.765338e+03
3.000000e-08	-7.835004e-06	-2.695619e-08	-5.669610e+01	-1.764457e+03
4.000000e-08	-7.822611e-06	-2.694141e-08	-5.660642e+01	-1.763518e+03
5.000000e-08	-7.807351e-06	-2.692071e-08	-5.649599e+01	-1.762508e+03
6.000000e-08	-7.789435e-06	-2.689368e-08	-5.636635e+01	-1.761387e+03
7.000000e-08	-7.769328e-06	-2.686126e-08	-5.622085e+01	-1.760101e+03
8.000000e-08	-7.746911e-06	-2.684710e-08	-5.605863e+01	-1.758606e+03
9.000000e-08	-7.721526e-06	-2.689146e-08	-5.587494e+01	-1.756879e+03
1.000000e-07	-7.692948e-06	-2.685563e-08	-5.566815e+01	-1.754934e+03
1.100000e-07	-7.661463e-06	-2.677174e-08	-5.544031e+01	-1.752815e+03
1.200000e-07	-7.627173e-06	-2.673783e-08	-5.519218e+01	-1.750588e+03
1.300000e-07	-7.590303e-06	-2.670514e-08	-5.492538e+01	-1.748317e+03
1.400000e-07	-7.551230e-06	-2.662597e-08	-5.464264e+01	-1.746044e+03
1.500000e-07	-7.509914e-06	-2.655068e-08	-5.434366e+01	-1.743773e+03
1.600000e-07	-7.466175e-06	-2.661017e-08	-5.402715e+01	-1.741459e+03
1.700000e-07	-7.419892e-06	-2.655221e-08	-5.369224e+01	-1.739024e+03
1.800000e-07	-7.370888e-06	-2.642953e-08	-5.333764e+01	-1.736366e+03
1.900000e-07	-7.318981e-06	-2.644657e-08	-5.296203e+01	-1.733390e+03
2.000000e-07	-7.264169e-06	-2.635555e-08	-5.256539e+01	-1.730032e+03
2.100000e-07	-7.206669e-06	-2.628086e-08	-5.214930e+01	-1.726271e+03
2.200000e-07	-7.146601e-06	-2.623897e-08	-5.171463e+01	-1.722137e+03
2.300000e-07	-7.083995e-06	-2.617135e-08	-5.126160e+01	-1.717695e+03
2.400000e-07	-7.018742e-06	-2.613403e-08	-5.078942e+01	-1.713028e+03
2.500000e-07	-6.950734e-06	-2.602952e-08	-5.029730e+01	-1.708209e+03
2.600000e-07	-6.880006e-06	-2.596817e-08	-4.978549e+01	-1.703278e+03
2.700000e-07	-6.806535e-06	-2.588480e-08	-4.925383e+01	-1.698231e+03
2.800000e-07	-6.730347e-06	-2.579730e-08	-4.870252e+01	-1.693022e+03
2.900000e-07	-6.651381e-06	-2.570834e-08	-4.813110e+01	-1.687576e+03
3.000000e-07	-6.569806e-06	-2.561142e-08	-4.754080e+01	-1.681813e+03
3.100000e-07	-6.486013e-06	-2.553918e-08	-4.693445e+01	-1.675671e+03
3.200000e-07	-6.400057e-06	-2.542719e-08	-4.631245e+01	-1.669128e+03
3.300000e-07	-6.311803e-06	-2.533528e-08	-4.567382e+01	-1.662200e+03
3.400000e-07	-6.221171e-06	-2.521470e-08	-4.501799e+01	-1.654941e+03
3.500000e-07	-6.128331e-06	-2.510151e-08	-4.434618e+01	-1.647418e+03
3.600000e-07	-6.033321e-06	-2.499381e-08	-4.365866e+01	-1.639688e+03
3.700000e-07	-5.936082e-06	-2.486343e-08	-4.295501e+01	-1.631775e+03
3.800000e-07	-5.836681e-06	-2.473727e-08	-4.223572e+01	-1.623659e+03
3.900000e-07	-5.735270e-06	-2.460883e-08	-4.150188e+01	-1.615275e+03
4.000000e-07	-5.631821e-06	-2.447938e-08	-4.075330e+01	-1.606532e+03
4.100000e-07	-5.526357e-06	-2.432593e-08	-3.999013e+01	-1.597333e+03
4.200000e-07	-5.418957e-06	-2.418444e-08	-3.921296e+01	-1.587605e+03
4.300000e-07	-5.309624e-06	-2.403344e-08	-3.842180e+01	-1.577315e+03
4.400000e-07	-5.198339e-06	-2.386966e-08	-3.761651e+01	-1.566479e+03
4.500000e-07	-5.085072e-06	-2.369562e-08	-3.679689e+01	-1.555148e+03
4.600000e-07	-4.969912e-06	-2.351899e-08	-3.596356e+01	-1.543390e+03
4.700000e-07	-4.852841e-06	-2.333289e-08	-3.511640e+01	-1.531260e+03
4.800000e-07	-4.733963e-06	-2.313615e-08	-3.425617e+01	-1.518772e+03
4.900000e-07	-4.613391e-06	-2.293956e-08	-3.338368e+01	-1.505889e+03
5.000000e-07	-4.491115e-06	-2.273165e-08	-3.249886e+01	-1.492519e+03
5.100000e-07	-4.367136e-06	-2.251393e-08	-3.160171e+01	-1.478540e+03
5.200000e-07	-4.241595e-06	-2.228375e-08	-3.069327e+01	-1.463826e+03
5.300000e-07	-4.114552e-06	-2.204654e-08	-2.977396e+01	-1.448275e+03
5.400000e-07	-3.985949e-06	-2.179391e-08	-2.884335e+01	-1.431838e+03
5.500000e-07	-3.855893e-06	-2.153207e-08	-2.790223e+01	-1.414521e+03
5.600000e-07	-3.724338e-06	-2.125684e-08	-2.695027e+01	-1.396376e+03
5.700000e-07	-3.591341e-06	-2.096940e-08	-2.598786e+01	-1.377467e+03
5.800000e-07	-3.457052e-06	-2.066787e-08	-2.501611e+01	-1.357836e+03
5.900000e-07	-3.321471e-06	-2.035357e-08	-2.403501e+01	-1.337470e+03
6.000000e-07	-3.184548e-06	-2.002983e-08	-2.304421e+01	-1.316278e+03
6.100000e-07	-3.046329e-06	-1.968900e-08	-2.204401e+01	-1.294094e+03
6.200000e-07	-2.906821e-06	-1.932876e-08	-2.103450e+01	-1.270702e+03
6.300000e-07	-2.765988e-06	-1.894451e-08	-2.001540e+01	-1.245870e+03
6.400000e-07	-2.624037e-06	-1.853622e-08	-1.898821e+01	-1.219396e+03
6.500000e-07	-2.481132e-06	-1.810246e-08	-1.795411e+01	-1.191136e+03
6.600000e-07	-2.337343e-06	-1.764839e-08	-1.691361e+01	-1.161015e+03
6.700000e-07	-2.192745e-06	-1.716743e-08	-1.586726e+01	-1.129005e+03
6.800000e-07	-2.047375e-06	-1.665529e-08	-1.481533e+01	-1.095081e+03
6.900000e-07	-1.901297e-06	-1.611016e-08	-1.375827e+01	-1.059169e+03
7.000000e-07	-1.754540e-06	-1.552535e-08	-1.269630e+01	-1.021091e+03
7.100000e-07	-1.607286e-06	-1.490135e-08	-1.163073e+01	-9.805380e+02
7.200000e-07	-1.459631e-06	-1.423076e-08	-1.056226e+01	-9.370836e+02
7.300000e-07	-1.311524e-06	-1.350757e-08	-9.490523e+00	-8.902344e+02
7.400000e-07	-1.163035e-06	-1.272560e-08	-8.416022e+00	-8.395177e+02
7.500000e-07	-1.014099e-06	-1.188686e-08	-7.338283e+00	-7.845852e+02
7.600000e-07	-8.647807e-07	-1.099092e-08	-6.257775e+00	-7.253073e+02
7.700000e-07	-7.152133e-07	-1.003406e-08	-5.175466e+00	-6.618325e+02
7.800000e-07	-5.654129e-07	-9.019223e-09	-4.091473e+00	-5.945916e+02
7.900000e-07	-4.154187e-07	-7.951885e-09	-3.006076e+00	-5.242412e+02
8.000000e-07	-2.652272e-07	-6.841341e-09	-1.919252e+00	-4.515520e+02
8.100000e-07	-1.148649e-07	-5.698593e-09	-8.311917e-01	-3.772677e+02
8.200000e-07	3.559679e-08	-4.538655e-09	2.575875e-01	-3.019648e+02
8.300000e-07	1.860978e-07	-3.371823e-09	1.346652e+00	-2.259483e+02
8.400000e-07	3.365429e-07	-2.199647e-09	2.435311e+00	-1.492115e+02
8.500000e-07	4.868789e-07	-1.017345e-09	3.523181e+00	-7.147374e+01
8.600000e-07	6.370146e-07	1.785136e-10	4.609601e+00	7.708467e+00
8.700000e-07	7.869262e-07	1.397116e-09	5.694400e+00	8.877910e+01
8.800000e-07	9.366196e-07	2.650853e-09	6.777619e+00	1.720046e+02
8.900000e-07	1.086026e-06	3.945501e-09	7.858760e+00	2.573206e+02
9.000000e-07	1.235101e-06	5.274442e-09	8.937505e+00	3.442408e+02
9.100000e-07	1.383720e-06	6.623276e-09	1.001296e+01	4.318490e+02
9.200000e-07	1.531843e-06	7.967936e-09	1.108481e+01	5.188815e+02
9.300000e-07	1.679448e-06	9.272780e-09	1.215292e+01	6.038815e+02
9.400000e-07	1.826444e-06	1.051017e-08	1.321662e+01	6.853960e+02
9.500000e-07	1.972780e-06	1.166224e-08	1.427554e+01	7.621733e+02
9.600000e-07	2.118329e-06	1.272269e-08	1.532877e+01	8.333220e+02
9.700000e-07	2.263113e-06	1.369519e-08	1.637646e+01	8.984014e+02
9.800000e-07	2.407168e-06	1.458348e-08	1.741889e+01	9.574285e+02
9.900000e-07	2.550294e-06	1.539696e-08	1.845458e+01	1.010809e+03
1.000000e-06	2.692347e-06	1.614069e-08	1.948251e+01	1.059207e+03
1.010000e-06	2.833289e-06	1.682042e-08	2.050241e+01	1.103400e+03
1.020000e-06	2.973012e-06	1.744576e-08	2.151348e+01	1.144128e+03
1.030000e-06	3.111498e-06	1.802382e-08	2.251560e+01	1.181995e+03
1.040000e-06	3.248809e-06	1.855977e-08	2.350921e+01	1.217415e+03
1.050000e-06	3.384882e-06	1.905690e-08	2.449387e+01	1.250617e+03
1.060000e-06	3.519673e-06	1.952057e-08	2.546926e+01	1.281697e+03
1.070000e-06	3.653235e-06	1.995224e-08	2.643574e+01	1.310685e+03
1.080000e-06	3.785511e-06	2.035779e-08	2.739293e+01	1.337621e+03
1.090000e-06	3.916346e-06	2.073811e-08	2.833969e+01	1.362603e+03
1.100000e-06	4.045741e-06	2.109728e-08	2.927602e+01	1.385808e+03
1.110000e-06	4.173741e-06	2.143517e-08	3.020226e+01	1.407475e+03
1.120000e-06	4.300292e-06	2.175324e-08	3.111802e+01	1.427867e+03
1.130000e-06	4.425386e-06	2.205201e-08	3.202323e+01	1.447225e+03
1.140000e-06	4.548928e-06	2.233120e-08	3.291721e+01	1.465724e+03
1.150000e-06	4.670862e-06	2.259751e-08	3.379955e+01	1.483452e+03
1.160000e-06	4.791226e-06	2.285024e-08	3.467054e+01	1.500419e+03
1.170000e-06	4.909863e-06	2.309008e-08	3.552903e+01	1.516573e+03
1.180000e-06	5.026660e-06	2.331720e-08	3.637420e+01	1.531850e+03
1.190000e-06	5.141529e-06	2.353272e-08	3.720542e+01	1.546207e+03
1.200000e-06	5.254374e-06	2.373737e-08	3.802200e+01	1.559652e+03
1.210000e-06	5.365235e-06	2.393129e-08	3.882422e+01	1.572256e+03
1.220000e-06	5.474233e-06	2.411404e-08	3.961296e+01	1.584137e+03
1.230000e-06	5.581334e-06	2.428739e-08	4.038797e+01	1.595435e+03
1.240000e-06	5.686416e-06	2.445305e-08	4.114836e+01	1.606278e+03
1.250000e-06	5.789424e-06	2.461192e-08	4.189376e+01	1.616748e+03
1.260000e-06	5.890284e-06	2.476543e-08	4.262361e+01	1.626872e+03
1.270000e-06	5.988914e-06	2.491236e-08	4.333731e+01	1.636617e+03
1.280000e-06	6.085241e-06	2.505246e-08	4.403436e+01	1.645913e+03
1.290000e-06	6.179349e-06	2.518457e-08	4.471535e+01	1.654683e+03
1.300000e-06	6.271284e-06	2.530829e-08	4.538062e+01	1.662870e+03
1.310000e-06	6.361010e-06	2.542520e-08	4.602990e+01	1.670464e+03
1.320000e-06	6.448443e-06	2.553472e-08	4.666259e+01	1.677505e+03
1.330000e-06	6.533584e-06	2.563835e-08	4.727869e+01	1.684082e+03
1.340000e-06	6.616459e-06	2.573732e-08	4.787840e+01	1.690303e+03
1.350000e-06	6.696962e-06	2.583083e-08	4.846094e+01	1.696272e+03
1.360000e-06	6.774978e-06	2.591891e-08	4.902548e+01	1.702063e+03
1.370000e-06	6.850373e-06	2.600329e-08	4.957106e+01	1.707706e+03
1.380000e-06	6.923155e-06	2.608433e-08	5.009772e+01	1.713183e+03
1.390000e-06	6.993461e-06	2.616286e-08	5.060648e+01	1.718442e+03
1.400000e-06	7.061347e-06	2.623636e-08	5.109771e+01	1.723421e+03
1.410000e-06	7.126724e-06	2.630512e-08	5.157080e+01	1.728069e+03
1.420000e-06	7.189548e-06	2.637168e-08	5.202541e+01	1.732367e+03
1.430000e-06	7.249918e-06	2.643569e-08	5.246226e+01	1.736332e+03
1.440000e-06	7.307783e-06	2.649467e-08	5.288099e+01	1.740014e+03
1.450000e-06	7.363030e-06	2.654834e-08	5.328077e+01	1.743476e+03
1.460000e-06	7.415518e-06	2.659958e-08	5.366059e+01	1.746780e+03
1.470000e-06	7.464968e-06	2.664824e-08	5.401842e+01	1.749958e+03
1.480000e-06	7.511492e-06	2.669418e-08	5.435508e+01	1.753010e+03
1.490000e-06	7.555435e-06	2.673668e-08	5.467306e+01	1.755899e+03
1.500000e-06	7.596699e-06	2.677646e-08	5.497166e+01	1.758569e+03
1.510000e-06	7.635177e-06	2.681166e-08	5.525010e+01	1.760957e+03
1.520000e-06	7.671057e-06	2.684235e-08	5.550973e+01	1.763020e+03
1.530000e-06	7.704222e-06	2.686939e-08	5.574972e+01	1.764749e+03
1.540000e-06	7.734599e-06	2.689331e-08	5.596954e+01	1.766170e+03
1.550000e-06	7.762294e-06	2.691419e-08	5.616995e+01	1.767341e+03
1.560000e-06	7.787105e-06	2.693136e-08	5.634949e+01	1.768336e+03
1.570000e-06	7.809089e-06	2.694531e-08	5.650857e+01	1.769220e+03
1.580000e-06	7.828438e-06	2.695875e-08	5.664859e+01	1.770033e+03
1.590000e-06	7.844938e-06	2.697278e-08	5.676798e+01	1.770783e+03
1.600000e-06	7.858454e-06	2.698345e-08	5.686579e+01	1.771440e+03
1.610000e-06	7.868874e-06	2.698932e-08	5.694119e+01	1.771951e+03
1.620000e-06	7.876257e-06	2.699208e-08	5.699461e+01	1.772260e+03
1.630000e-06	7.880880e-06	2.699476e-08	5.702807e+01	1.772323e+03
1.640000e-06	7.882736e-06	2.699525e-08	5.704150e+01	1.772126e+03
1.650000e-06	7.881822e-06	2.699035e-08	5.703489e+01	1.771686e+03
1.660000e-06	7.878344e-06	2.697540e-08	5.700972e+01	1.771050e+03
1.670000e-06	7.872189e-06	2.696637e-08	5.696518e+01	1.770274e+03
1.680000e-06	7.863323e-06	2.695741e-08	5.690102e+01	1.769411e+03
1.690000e-06	7.851836e-06	2.694344e-08	5.681790e+01	1.768487e+03
1.700000e-06	7.837561e-06	2.693124e-08	5.671460e+01	1.767499e+03
1.710000e-06	7.820687e-06	2.692548e-08	5.659249e+01	1.766413e+03
1.720000e-06	7.801577e-06	2.692227e-08	5.645421e+01	1.765178e+03
1.730000e-06	7.780066e-06	2.685475e-08	5.629855e+01	1.763745e+03
1.740000e-06	7.755488e-06	2.675682e-08	5.612070e+01	1.762083e+03
1.750000e-06	7.727312e-06	2.677585e-08	5.591681e+01	1.760196e+03
1.760000e-06	7.695661e-06	2.677927e-08	5.568778e+01	1.758119e+03
1.770000e-06	7.661357e-06	2.672598e-08	5.543955e+01	1.755914e+03
1.780000e-06	7.624871e-06	2.672590e-08	5.517552e+01	1.753649e+03
1.790000e-06	7.586175e-06	2.677861e-08	5.489551e+01	1.751373e+03
1.800000e-06	7.545519e-06	2.664400e-08	5.460131e+01	1.749102e+03
1.810000e-06	7.502670e-06	2.659921e-08	5.429124e+01	1.746806e+03
1.820000e-06	7.457170e-06	2.666339e-08	5.396199e+01	1.744414e+03
1.830000e-06	7.409053e-06	2.653570e-08	5.361380e+01	1.741828e+03
1.840000e-06	7.358022e-06	2.658619e-08	5.324453e+01	1.738950e+03
1.850000e-06	7.303996e-06	2.649686e-08	5.285359e+01	1.735704e+03
1.860000e-06	7.247291e-06	2.643347e-08	5.244326e+01	1.732056e+03
1.870000e-06	7.187999e-06	2.641454e-08	5.201420e+01	1.728022e+03
1.880000e-06	7.126116e-06	2.624143e-08	5.156640e+01	1.723658e+03
1.890000e-06	7.061410e-06	2.626875e-08	5.109817e+01	1.719046e+03
1.900000e-06	6.993954e-06	2.616998e-08	5.061004e+01	1.714263e+03
1.910000e-06	6.923826e-06	2.609968e-08	5.010258e+01	1.709361e+03
1.920000e-06	6.850965e-06	2.604726e-08	4.957534e+01	1.704349e+03
1.930000e-06	6.775463e-06	2.593404e-08	4.902899e+01	1.699191e+03
1.940000e-06	6.697236e-06	2.589105e-08	4.846292e+01	1.693820e+03
1.950000e-06	6.616468e-06	2.574077e-08	4.787846e+01	1.688153e+03
1.960000e-06	6.533266e-06	2.568065e-08	4.727639e+01	1.682123e+03
1.970000e-06	6.447624e-06	2.557015e-08	4.665666e+01	1.675693e+03
1.980000e-06	6.359611e-06	2.547335e-08	4.601977e+01	1.668869e+03
1.990000e-06	6.269314e-06	2.538686e-08	4.536636e+01	1.661696e+03
2.000000e-06	6.176865e-06	2.525386e-08	4.469738e+01	1.654240e+03
2.010000e-06	6.082144e-06	2.516700e-08	4.401195e+01	1.646564e+03
2.020000e-06	5.985247e-06	2.502751e-08	4.331078e+01	1.638702e+03
2.030000e-06	5.886369e-06	2.491453e-08	4.259528e+01	1.630647e+03
2.040000e-06	5.785420e-06	2.477204e-08	4.186478e+01	1.622348e+03
2.050000e-06	5.682277e-06	2.464998e-08	4.111841e+01	1.613716e+03
2.060000e-06	5.577090e-06	2.450126e-08	4.035726e+01	1.604655e+03
2.070000e-06	5.470063e-06	2.434332e-08	3.958278e+01	1.595082e+03
2.080000e-06	5.361200e-06	2.419349e-08	3.879502e+01	1.584951e+03
2.090000e-06	5.250439e-06	2.403358e-08	3.799352e+01	1.574265e+03
2.100000e-06	5.137690e-06	2.387682e-08	3.717765e+01	1.563068e+03
2.110000e-06	5.022985e-06	2.369956e-08	3.634761e+01	1.551424e+03
2.120000e-06	4.906360e-06	2.352945e-08	3.550368e+01	1.539395e+03
2.130000e-06	4.787780e-06	2.333172e-08	3.464560e+01	1.527010e+03
2.140000e-06	4.667348e-06	2.313280e-08	3.377413e+01	1.514245e+03
2.150000e-06	4.545215e-06	2.292468e-08	3.289034e+01	1.501024e+03
2.160000e-06	4.421400e-06	2.271782e-08	3.199438e+01	1.487231e+03
2.170000e-06	4.295963e-06	2.249394e-08	3.108669e+01	1.472737e+03
2.180000e-06	4.168974e-06	2.226195e-08	3.016777e+01	1.457432e+03
2.190000e-06	4.040455e-06	2.201903e-08	2.923777e+01	1.441248e+03
2.200000e-06	3.910404e-06	2.176300e-08	2.829668e+01	1.424178e+03
2.210000e-06	3.778841e-06	2.149628e-08	2.734466e+01	1.406261e+03
2.220000e-06	3.645921e-06	2.121937e-08	2.638282e+01	1.387563e+03
2.230000e-06	3.511766e-06	2.093233e-08	2.541204e+01	1.368135e+03
2.240000e-06	3.376341e-06	2.062171e-08	2.443207e+01	1.347983e+03
2.250000e-06	3.239612e-06	2.029681e-08	2.344266e+01	1.327040e+03
2.260000e-06	3.101580e-06	1.995375e-08	2.244383e+01	1.305159e+03
2.270000e-06	2.962286e-06	1.959767e-08	2.143586e+01	1.282134e+03
2.280000e-06	2.821868e-06	1.922308e-08	2.041976e+01	1.257735e+03
2.290000e-06	2.680417e-06	1.883239e-08	1.939619e+01	1.231746e+03
2.300000e-06	2.537968e-06	1.841750e-08	1.836539e+01	1.204005e+03
2.310000e-06	2.394530e-06	1.797498e-08	1.732743e+01	1.174419e+03
2.320000e-06	2.250244e-06	1.749992e-08	1.628334e+01	1.142949e+03
2.330000e-06	2.105227e-06	1.699274e-08	1.523396e+01	1.109575e+03
2.340000e-06	1.959496e-06	1.645388e-08	1.417941e+01	1.074242e+03
2.350000e-06	1.813067e-06	1.587995e-08	1.311982e+01	1.036807e+03
2.360000e-06	1.666031e-06	1.526914e-08	1.205583e+01	9.969987e+02
2.370000e-06	1.518494e-06	1.461570e-08	1.098821e+01	9.544207e+02
2.380000e-06	1.370489e-06	1.391154e-08	9.917206e+00	9.085911e+02
2.390000e-06	1.222078e-06	1.315113e-08	8.843267e+00	8.590209e+02
2.400000e-06	1.073252e-06	1.233259e-08	7.766328e+00	8.053157e+02
2.410000e-06	9.239828e-07	1.145507e-08	6.686176e+00	7.472756e+02
2.420000e-06	7.743897e-07	1.051784e-08	5.603683e+00	6.849663e+02
2.430000e-06	6.246182e-07	9.519387e-09	4.519897e+00	6.187412e+02
2.440000e-06	4.746800e-07	8.463273e-09	3.434906e+00	5.492016e+02
2.450000e-06	3.245420e-07	7.358970e-09	2.348469e+00	4.770993e+02
2.460000e-06	1.742521e-07	6.220512e-09	1.260933e+00	4.032009e+02
2.470000e-06	2.389634e-08	5.060114e-09	1.729200e-01	3.281432e+02
2.480000e-06	-1.264393e-07	3.890174e-09	-9.149474e-01	2.523162e+02
2.490000e-06	-2.767372e-07	2.717862e-09	-2.002541e+00	1.758019e+02
2.500000e-06	-4.270050e-07	1.539430e-09	-3.089918e+00	9.838957e+01
2.510000e-06	-5.771656e-07	3.451676e-10	-4.176518e+00	1.966728e+01
2.520000e-06	-7.271112e-07	-8.728942e-10	-5.261563e+00	-6.082705e+01
2.530000e-06	-8.768214e-07	-2.122071e-09	-6.344904e+00	-1.434280e+02
2.540000e-06	-1.026222e-06	-3.410299e-09	-7.426003e+00	-2.281785e+02
2.550000e-06	-1.175245e-06	-4.735472e-09	-8.504372e+00	-3.147172e+02
2.560000e-06	-1.323914e-06	-6.083331e-09	-9.580182e+00	-4.022464e+02
2.570000e-06	-1.472188e-06	-7.433405e-09	-1.065313e+01	-4.895885e+02
2.580000e-06	-1.620031e-06	-8.758737e-09	-1.172296e+01	-5.753230e+02
2.590000e-06	-1.767249e-06	-1.003062e-08	-1.278827e+01	-6.579747e+02
2.600000e-06	-1.913708e-06	-1.122505e-08	-1.384808e+01	-7.362160e+02
2.610000e-06	-2.059454e-06	-1.232895e-08	-1.490274e+01	-8.090399e+02
2.620000e-06	-2.204430e-06	-1.334014e-08	-1.595182e+01	-8.758724e+02
2.630000e-06	-2.348528e-06	-1.426137e-08	-1.699455e+01	-9.366038e+02
2.640000e-06	-2.491614e-06	-1.510134e-08	-1.802996e+01	-9.915394e+02
2.650000e-06	-2.633659e-06	-1.587142e-08	-1.905783e+01	-1.041286e+03
2.660000e-06	-2.774677e-06	-1.657886e-08	-2.007827e+01	-1.086602e+03
2.670000e-06	-2.914647e-06	-1.723031e-08	-2.109113e+01	-1.128252e+03
2.680000e-06	-3.053491e-06	-1.783242e-08	-2.209584e+01	-1.166887e+03
2.690000e-06	-3.191154e-06	-1.838930e-08	-2.309201e+01	-1.202977e+03
2.700000e-06	-3.327556e-06	-1.890291e-08	-2.407905e+01	-1.236800e+03
2.710000e-06	-3.462619e-06	-1.937851e-08	-2.505640e+01	-1.268483e+03
2.720000e-06	-3.596461e-06	-1.982157e-08	-2.602491e+01	-1.298067e+03
2.730000e-06	-3.729109e-06	-2.023623e-08	-2.698479e+01	-1.325584e+03
2.740000e-06	-3.860497e-06	-2.062480e-08	-2.793555e+01	-1.351111e+03
2.750000e-06	-3.990526e-06	-2.098985e-08	-2.887647e+01	-1.374804e+03
2.760000e-06	-4.119126e-06	-2.133279e-08	-2.980705e+01	-1.396885e+03
2.770000e-06	-4.246248e-06	-2.165609e-08	-3.072694e+01	-1.417616e+03
2.780000e-06	-4.371859e-06	-2.196265e-08	-3.163589e+01	-1.437250e+03
2.790000e-06	-4.496008e-06	-2.225336e-08	-3.253427e+01	-1.455982e+03
2.800000e-06	-4.618613e-06	-2.252771e-08	-3.342146e+01	-1.473928e+03
2.810000e-06	-4.739521e-06	-2.278497e-08	-3.429639e+01	-1.491117e+03
2.820000e-06	-4.858649e-06	-2.302815e-08	-3.515843e+01	-1.507512e+03
2.830000e-06	-4.975906e-06	-2.326009e-08	-3.600693e+01	-1.523047e+03
2.840000e-06	-5.091150e-06	-2.348376e-08	-3.684087e+01	-1.537670e+03
2.850000e-06	-5.204257e-06	-2.369871e-08	-3.765934e+01	-1.551372e+03
2.860000e-06	-5.315334e-06	-2.390249e-08	-3.846312e+01	-1.564207e+03
2.870000e-06	-5.424512e-06	-2.409282e-08	-3.925316e+01	-1.576282e+03
2.880000e-06	-5.531842e-06	-2.427117e-08	-4.002982e+01	-1.587734e+03
2.890000e-06	-5.637228e-06	-2.443990e-08	-4.079243e+01	-1.598698e+03
2.900000e-06	-5.740449e-06	-2.460145e-08	-4.153936e+01	-1.609271e+03
2.910000e-06	-5.841555e-06	-2.475735e-08	-4.227099e+01	-1.619496e+03
2.920000e-06	-5.940597e-06	-2.490633e-08	-4.298768e+01	-1.629356e+03
2.930000e-06	-6.037562e-06	-2.504759e-08	-4.368935e+01	-1.638791e+03
2.940000e-06	-6.132352e-06	-2.517996e-08	-4.437527e+01	-1.647720e+03
