# Temperatura_=_70.46
# Concentracion g/m^3_=_28200.0
# C_Vs_to_Am_M_A/Vsm_=_65563218390.804596
# pendiente_HvsI_1/m_=_3716.3
# ordenada_HvsI_A/m_=_1297.0
# frecuencia_Hz_=_302507.080574595

Tiempo_(s)	Campo_(V.s)	Magnetizacion_(V.s)	Campo_(kA/m)	Magnetizacion_(A/m)
0.000000e+00	-7.845339e-06	-2.606200e-08	-5.683387e+01	-1.706720e+03
1.000000e-08	-7.840715e-06	-2.605772e-08	-5.680038e+01	-1.706033e+03
2.000000e-08	-7.833592e-06	-2.604727e-08	-5.674878e+01	-1.705230e+03
3.000000e-08	-7.823749e-06	-2.603542e-08	-5.667748e+01	-1.704360e+03
4.000000e-08	-7.811089e-06	-2.602037e-08	-5.658576e+01	-1.703446e+03
5.000000e-08	-7.795624e-06	-2.599912e-08	-5.647373e+01	-1.702478e+03
6.000000e-08	-7.777504e-06	-2.597313e-08	-5.634246e+01	-1.701419e+03
7.000000e-08	-7.757172e-06	-2.593704e-08	-5.619517e+01	-1.700216e+03
8.000000e-08	-7.734431e-06	-2.594612e-08	-5.603043e+01	-1.698825e+03
9.000000e-08	-7.708666e-06	-2.600077e-08	-5.584378e+01	-1.697219e+03
1.000000e-07	-7.679709e-06	-2.593271e-08	-5.563401e+01	-1.695406e+03
1.100000e-07	-7.647891e-06	-2.585262e-08	-5.540351e+01	-1.693425e+03
1.200000e-07	-7.613340e-06	-2.583166e-08	-5.515321e+01	-1.691334e+03
1.300000e-07	-7.576229e-06	-2.579677e-08	-5.488436e+01	-1.689197e+03
1.400000e-07	-7.536944e-06	-2.570737e-08	-5.459977e+01	-1.687056e+03
1.500000e-07	-7.495438e-06	-2.565139e-08	-5.429910e+01	-1.684916e+03
1.600000e-07	-7.451458e-06	-2.574567e-08	-5.398049e+01	-1.682743e+03
1.700000e-07	-7.404959e-06	-2.561555e-08	-5.364364e+01	-1.680463e+03
1.800000e-07	-7.355759e-06	-2.553610e-08	-5.328722e+01	-1.677983e+03
1.900000e-07	-7.303572e-06	-2.558149e-08	-5.290917e+01	-1.675212e+03
2.000000e-07	-7.248600e-06	-2.546464e-08	-5.251093e+01	-1.672084e+03
2.100000e-07	-7.190973e-06	-2.544486e-08	-5.209347e+01	-1.668575e+03
2.200000e-07	-7.130645e-06	-2.536380e-08	-5.165643e+01	-1.664705e+03
2.300000e-07	-7.067763e-06	-2.529582e-08	-5.120089e+01	-1.660529e+03
2.400000e-07	-7.002235e-06	-2.526788e-08	-5.072619e+01	-1.656123e+03
2.500000e-07	-6.934036e-06	-2.516606e-08	-5.023214e+01	-1.651554e+03
2.600000e-07	-6.863190e-06	-2.510522e-08	-4.971891e+01	-1.646862e+03
2.700000e-07	-6.789531e-06	-2.502280e-08	-4.918530e+01	-1.642049e+03
2.800000e-07	-6.713179e-06	-2.494523e-08	-4.863219e+01	-1.637079e+03
2.900000e-07	-6.634099e-06	-2.483866e-08	-4.805931e+01	-1.631888e+03
3.000000e-07	-6.552336e-06	-2.475885e-08	-4.746699e+01	-1.626408e+03
3.100000e-07	-6.468358e-06	-2.470105e-08	-4.685864e+01	-1.620584e+03
3.200000e-07	-6.382283e-06	-2.459170e-08	-4.623508e+01	-1.614394e+03
3.300000e-07	-6.293937e-06	-2.451744e-08	-4.559508e+01	-1.607851e+03
3.400000e-07	-6.203176e-06	-2.438700e-08	-4.493758e+01	-1.600999e+03
3.500000e-07	-6.110200e-06	-2.428026e-08	-4.426404e+01	-1.593893e+03
3.600000e-07	-6.015094e-06	-2.418718e-08	-4.357506e+01	-1.586577e+03
3.700000e-07	-5.917685e-06	-2.406409e-08	-4.286940e+01	-1.579067e+03
3.800000e-07	-5.818082e-06	-2.394413e-08	-4.214785e+01	-1.571339e+03
3.900000e-07	-5.716523e-06	-2.382133e-08	-4.141212e+01	-1.563330e+03
4.000000e-07	-5.613004e-06	-2.369879e-08	-4.066221e+01	-1.554954e+03
4.100000e-07	-5.507450e-06	-2.354319e-08	-3.989755e+01	-1.546126e+03
4.200000e-07	-5.399934e-06	-2.341363e-08	-3.911866e+01	-1.536783e+03
4.300000e-07	-5.290504e-06	-2.326794e-08	-3.832592e+01	-1.526900e+03
4.400000e-07	-5.179080e-06	-2.310796e-08	-3.751873e+01	-1.516498e+03
4.500000e-07	-5.065748e-06	-2.293899e-08	-3.669772e+01	-1.505630e+03
4.600000e-07	-4.950459e-06	-2.277124e-08	-3.586254e+01	-1.494362e+03
4.700000e-07	-4.833228e-06	-2.259516e-08	-3.501329e+01	-1.482743e+03
4.800000e-07	-4.714268e-06	-2.240755e-08	-3.415150e+01	-1.470783e+03
4.900000e-07	-4.593642e-06	-2.222488e-08	-3.327765e+01	-1.458442e+03
5.000000e-07	-4.471271e-06	-2.202665e-08	-3.239117e+01	-1.445629e+03
5.100000e-07	-4.347143e-06	-2.181668e-08	-3.149195e+01	-1.432221e+03
5.200000e-07	-4.221511e-06	-2.159115e-08	-3.058183e+01	-1.418095e+03
5.300000e-07	-4.094456e-06	-2.136445e-08	-2.966141e+01	-1.403151e+03
5.400000e-07	-3.965933e-06	-2.112065e-08	-2.873035e+01	-1.387341e+03
5.500000e-07	-3.835858e-06	-2.086419e-08	-2.778805e+01	-1.370670e+03
5.600000e-07	-3.704140e-06	-2.059828e-08	-2.683385e+01	-1.353182e+03
5.700000e-07	-3.571065e-06	-2.032251e-08	-2.586982e+01	-1.334940e+03
5.800000e-07	-3.436768e-06	-2.003340e-08	-2.489693e+01	-1.315981e+03
5.900000e-07	-3.301156e-06	-1.973088e-08	-2.391452e+01	-1.296290e+03
6.000000e-07	-3.164289e-06	-1.942108e-08	-2.292301e+01	-1.275779e+03
6.100000e-07	-3.026142e-06	-1.909174e-08	-2.192224e+01	-1.254288e+03
6.200000e-07	-2.886696e-06	-1.874216e-08	-2.091205e+01	-1.231610e+03
6.300000e-07	-2.745951e-06	-1.836605e-08	-1.989246e+01	-1.207523e+03
6.400000e-07	-2.604093e-06	-1.796762e-08	-1.886480e+01	-1.181829e+03
6.500000e-07	-2.461288e-06	-1.754576e-08	-1.783027e+01	-1.154388e+03
6.600000e-07	-2.317620e-06	-1.710204e-08	-1.678950e+01	-1.125119e+03
6.700000e-07	-2.173091e-06	-1.663331e-08	-1.574249e+01	-1.093985e+03
6.800000e-07	-2.027710e-06	-1.613509e-08	-1.468931e+01	-1.060949e+03
6.900000e-07	-1.881584e-06	-1.560680e-08	-1.363073e+01	-1.025924e+03
7.000000e-07	-1.734875e-06	-1.503768e-08	-1.256793e+01	-9.887275e+02
7.100000e-07	-1.587690e-06	-1.442902e-08	-1.150168e+01	-9.490544e+02
7.200000e-07	-1.440028e-06	-1.377103e-08	-1.043197e+01	-9.064935e+02
7.300000e-07	-1.291937e-06	-1.305939e-08	-9.359158e+00	-8.605788e+02
7.400000e-07	-1.143460e-06	-1.229043e-08	-8.283551e+00	-8.108739e+02
7.500000e-07	-9.946324e-07	-1.146686e-08	-7.205401e+00	-7.570714e+02
7.600000e-07	-8.454904e-07	-1.059303e-08	-6.124974e+00	-6.990814e+02
7.700000e-07	-6.961054e-07	-9.662169e-09	-5.042787e+00	-6.370848e+02
7.800000e-07	-5.464274e-07	-8.676390e-09	-3.958476e+00	-5.715340e+02
7.900000e-07	-3.965118e-07	-7.639369e-09	-2.872445e+00	-5.030934e+02
8.000000e-07	-2.465296e-07	-6.560679e-09	-1.785931e+00	-4.325294e+02
8.100000e-07	-9.643753e-08	-5.450204e-09	-6.986211e-01	-3.605706e+02
8.200000e-07	5.378512e-08	-4.326016e-09	3.896348e-01	-2.877725e+02
8.300000e-07	2.039865e-07	-3.198389e-09	1.477736e+00	-2.144172e+02
8.400000e-07	3.540792e-07	-2.068510e-09	2.565051e+00	-1.404762e+02
8.500000e-07	5.040879e-07	-9.335114e-10	3.651757e+00	-6.564973e+01
8.600000e-07	6.539919e-07	2.151333e-10	4.737704e+00	1.052293e+01
8.700000e-07	8.036845e-07	1.385885e-09	5.822120e+00	8.850349e+01
8.800000e-07	9.531141e-07	2.589781e-09	6.904631e+00	1.685798e+02
8.900000e-07	1.102243e-06	3.833921e-09	7.984962e+00	2.507155e+02
9.000000e-07	1.251030e-06	5.114163e-09	9.062818e+00	3.344602e+02
9.100000e-07	1.399438e-06	6.415354e-09	1.013793e+01	4.189411e+02
9.200000e-07	1.547392e-06	7.714566e-09	1.120975e+01	5.029420e+02
9.300000e-07	1.694798e-06	8.978486e-09	1.227760e+01	5.850530e+02
9.400000e-07	1.841568e-06	1.017817e-08	1.334085e+01	6.638619e+02
9.500000e-07	1.987645e-06	1.129357e-08	1.439907e+01	7.381461e+02
9.600000e-07	2.133016e-06	1.231950e-08	1.545218e+01	8.070285e+02
9.700000e-07	2.277605e-06	1.325926e-08	1.649962e+01	8.700663e+02
9.800000e-07	2.421313e-06	1.411473e-08	1.754068e+01	9.272603e+02
9.900000e-07	2.564090e-06	1.489771e-08	1.857500e+01	9.789892e+02
1.000000e-06	2.705789e-06	1.561570e-08	1.960151e+01	1.025888e+03
1.010000e-06	2.846348e-06	1.627598e-08	2.061976e+01	1.068700e+03
1.020000e-06	2.985729e-06	1.688670e-08	2.162948e+01	1.108145e+03
1.030000e-06	3.123892e-06	1.745071e-08	2.263037e+01	1.144807e+03
1.040000e-06	3.260846e-06	1.797203e-08	2.362250e+01	1.179095e+03
1.050000e-06	3.396579e-06	1.845240e-08	2.460579e+01	1.211235e+03
1.060000e-06	3.531035e-06	1.890046e-08	2.557983e+01	1.241325e+03
1.070000e-06	3.664191e-06	1.931784e-08	2.654445e+01	1.269399e+03
1.080000e-06	3.796136e-06	1.970821e-08	2.750029e+01	1.295494e+03
1.090000e-06	3.926701e-06	2.007504e-08	2.844614e+01	1.319703e+03
1.100000e-06	4.055771e-06	2.042065e-08	2.938117e+01	1.342191e+03
1.110000e-06	4.183465e-06	2.074785e-08	3.030622e+01	1.363182e+03
1.120000e-06	4.309697e-06	2.105905e-08	3.122068e+01	1.382927e+03
1.130000e-06	4.434477e-06	2.135101e-08	3.212462e+01	1.401651e+03
1.140000e-06	4.557760e-06	2.162422e-08	3.301772e+01	1.419523e+03
1.150000e-06	4.679334e-06	2.188064e-08	3.389843e+01	1.436631e+03
1.160000e-06	4.799263e-06	2.212211e-08	3.476723e+01	1.452986e+03
1.170000e-06	4.917527e-06	2.235029e-08	3.562397e+01	1.468544e+03
1.180000e-06	5.033961e-06	2.256597e-08	3.646745e+01	1.483248e+03
1.190000e-06	5.148451e-06	2.277262e-08	3.729685e+01	1.497063e+03
1.200000e-06	5.260973e-06	2.296952e-08	3.811199e+01	1.510002e+03
1.210000e-06	5.371616e-06	2.315820e-08	3.891352e+01	1.522131e+03
1.220000e-06	5.480432e-06	2.333737e-08	3.970181e+01	1.533566e+03
1.230000e-06	5.587270e-06	2.350879e-08	4.047578e+01	1.544439e+03
1.240000e-06	5.691964e-06	2.367164e-08	4.123421e+01	1.554865e+03
1.250000e-06	5.794558e-06	2.382637e-08	4.197744e+01	1.564921e+03
1.260000e-06	5.895101e-06	2.397150e-08	4.270580e+01	1.574625e+03
1.270000e-06	5.993434e-06	2.410770e-08	4.341815e+01	1.583943e+03
1.280000e-06	6.089433e-06	2.423756e-08	4.411359e+01	1.592805e+03
1.290000e-06	6.183197e-06	2.436211e-08	4.479285e+01	1.601136e+03
1.300000e-06	6.274784e-06	2.448281e-08	4.545633e+01	1.608887e+03
1.310000e-06	6.364122e-06	2.459676e-08	4.610352e+01	1.616053e+03
1.320000e-06	6.451165e-06	2.470231e-08	4.673408e+01	1.622682e+03
1.330000e-06	6.535993e-06	2.480036e-08	4.734860e+01	1.628865e+03
1.340000e-06	6.618524e-06	2.489186e-08	4.794648e+01	1.634717e+03
1.350000e-06	6.698599e-06	2.497965e-08	4.852657e+01	1.640344e+03
1.360000e-06	6.776220e-06	2.506387e-08	4.908887e+01	1.645821e+03
1.370000e-06	6.851234e-06	2.514429e-08	4.963229e+01	1.651179e+03
1.380000e-06	6.923614e-06	2.522083e-08	5.015664e+01	1.656397e+03
1.390000e-06	6.993580e-06	2.529421e-08	5.066350e+01	1.661423e+03
1.400000e-06	7.061119e-06	2.536450e-08	5.115276e+01	1.666189e+03
1.410000e-06	7.126120e-06	2.543188e-08	5.162365e+01	1.670638e+03
1.420000e-06	7.188642e-06	2.549596e-08	5.207658e+01	1.674746e+03
1.430000e-06	7.248673e-06	2.555537e-08	5.251146e+01	1.678522e+03
1.440000e-06	7.306140e-06	2.561100e-08	5.292777e+01	1.682012e+03
1.450000e-06	7.361006e-06	2.566386e-08	5.332523e+01	1.685276e+03
1.460000e-06	7.413020e-06	2.571327e-08	5.370204e+01	1.688374e+03
1.470000e-06	7.462046e-06	2.575840e-08	5.405720e+01	1.691341e+03
1.480000e-06	7.508262e-06	2.580042e-08	5.439200e+01	1.694184e+03
1.490000e-06	7.551817e-06	2.583904e-08	5.470752e+01	1.696871e+03
1.500000e-06	7.592620e-06	2.587490e-08	5.500311e+01	1.699351e+03
1.510000e-06	7.630718e-06	2.590690e-08	5.527910e+01	1.701570e+03
1.520000e-06	7.666256e-06	2.593675e-08	5.553655e+01	1.703487e+03
1.530000e-06	7.699059e-06	2.596386e-08	5.577418e+01	1.705092e+03
1.540000e-06	7.729141e-06	2.598580e-08	5.599211e+01	1.706413e+03
1.550000e-06	7.756559e-06	2.600304e-08	5.619073e+01	1.707502e+03
1.560000e-06	7.781079e-06	2.601850e-08	5.636836e+01	1.708428e+03
1.570000e-06	7.802783e-06	2.603362e-08	5.652559e+01	1.709253e+03
1.580000e-06	7.821795e-06	2.604641e-08	5.666332e+01	1.710014e+03
1.590000e-06	7.837914e-06	2.605907e-08	5.678009e+01	1.710715e+03
1.600000e-06	7.851041e-06	2.606777e-08	5.687518e+01	1.711328e+03
1.610000e-06	7.861094e-06	2.607215e-08	5.694801e+01	1.711800e+03
1.620000e-06	7.868169e-06	2.607449e-08	5.699926e+01	1.712075e+03
1.630000e-06	7.872499e-06	2.607676e-08	5.703064e+01	1.712110e+03
1.640000e-06	7.873999e-06	2.607970e-08	5.704150e+01	1.711890e+03
1.650000e-06	7.872710e-06	2.607454e-08	5.703216e+01	1.711435e+03
1.660000e-06	7.868880e-06	2.606014e-08	5.700441e+01	1.710789e+03
1.670000e-06	7.862434e-06	2.605371e-08	5.695772e+01	1.710012e+03
1.680000e-06	7.853333e-06	2.604496e-08	5.689179e+01	1.709157e+03
1.690000e-06	7.841532e-06	2.603131e-08	5.680630e+01	1.708253e+03
1.700000e-06	7.826911e-06	2.602086e-08	5.670038e+01	1.707302e+03
1.710000e-06	7.809765e-06	2.601762e-08	5.657617e+01	1.706272e+03
1.720000e-06	7.790414e-06	2.601677e-08	5.643599e+01	1.705114e+03
1.730000e-06	7.768602e-06	2.591291e-08	5.627797e+01	1.703780e+03
1.740000e-06	7.743670e-06	2.583301e-08	5.609736e+01	1.702234e+03
1.750000e-06	7.715100e-06	2.588123e-08	5.589039e+01	1.700476e+03
1.760000e-06	7.683107e-06	2.586894e-08	5.565862e+01	1.698536e+03
1.770000e-06	7.648604e-06	2.581754e-08	5.540867e+01	1.696468e+03
1.780000e-06	7.611891e-06	2.585734e-08	5.514271e+01	1.694338e+03
1.790000e-06	7.572962e-06	2.589332e-08	5.486070e+01	1.692193e+03
1.800000e-06	7.532163e-06	2.570171e-08	5.456514e+01	1.690054e+03
1.810000e-06	7.489094e-06	2.575736e-08	5.425313e+01	1.687895e+03
1.820000e-06	7.443284e-06	2.576793e-08	5.392128e+01	1.685653e+03
1.830000e-06	7.394872e-06	2.563227e-08	5.357057e+01	1.683238e+03
1.840000e-06	7.343535e-06	2.572385e-08	5.319867e+01	1.680557e+03
1.850000e-06	7.289166e-06	2.554438e-08	5.280480e+01	1.677535e+03
1.860000e-06	7.232102e-06	2.555701e-08	5.239141e+01	1.674133e+03
1.870000e-06	7.172553e-06	2.553098e-08	5.196002e+01	1.670359e+03
1.880000e-06	7.110433e-06	2.537365e-08	5.151001e+01	1.666263e+03
1.890000e-06	7.045412e-06	2.542683e-08	5.103898e+01	1.661913e+03
1.900000e-06	6.977642e-06	2.528695e-08	5.054804e+01	1.657383e+03
1.910000e-06	6.907119e-06	2.525072e-08	5.003714e+01	1.652723e+03
1.920000e-06	6.833869e-06	2.516371e-08	4.950650e+01	1.647945e+03
1.930000e-06	6.758079e-06	2.509687e-08	4.895746e+01	1.643025e+03
1.940000e-06	6.679578e-06	2.506120e-08	4.838877e+01	1.637903e+03
1.950000e-06	6.598543e-06	2.489721e-08	4.780173e+01	1.632510e+03
1.960000e-06	6.515151e-06	2.485996e-08	4.719762e+01	1.626787e+03
1.970000e-06	6.429345e-06	2.471526e-08	4.657601e+01	1.620700e+03
1.980000e-06	6.341097e-06	2.465883e-08	4.593672e+01	1.614253e+03
1.990000e-06	6.250635e-06	2.456707e-08	4.528139e+01	1.607483e+03
2.000000e-06	6.158101e-06	2.444711e-08	4.461105e+01	1.600442e+03
2.010000e-06	6.063241e-06	2.435749e-08	4.392385e+01	1.593181e+03
2.020000e-06	5.966134e-06	2.420928e-08	4.322038e+01	1.585726e+03
2.030000e-06	5.866982e-06	2.410347e-08	4.250209e+01	1.578064e+03
2.040000e-06	5.765840e-06	2.396282e-08	4.176939e+01	1.570142e+03
2.050000e-06	5.662575e-06	2.386660e-08	4.102131e+01	1.561879e+03
2.060000e-06	5.557276e-06	2.371491e-08	4.025850e+01	1.553186e+03
2.070000e-06	5.450181e-06	2.357464e-08	3.948267e+01	1.543993e+03
2.080000e-06	5.341264e-06	2.342657e-08	3.869365e+01	1.534263e+03
2.090000e-06	5.230373e-06	2.327504e-08	3.789032e+01	1.524003e+03
2.100000e-06	5.117515e-06	2.311945e-08	3.707274e+01	1.513260e+03
2.110000e-06	5.002738e-06	2.294926e-08	3.624127e+01	1.502098e+03
2.120000e-06	4.885992e-06	2.278611e-08	3.539553e+01	1.490575e+03
2.130000e-06	4.767275e-06	2.259044e-08	3.453550e+01	1.478713e+03
2.140000e-06	4.646682e-06	2.239954e-08	3.366189e+01	1.466487e+03
2.150000e-06	4.524455e-06	2.219998e-08	3.277645e+01	1.453819e+03
2.160000e-06	4.400603e-06	2.201041e-08	3.187922e+01	1.440593e+03
2.170000e-06	4.275224e-06	2.179350e-08	3.097094e+01	1.426682e+03
2.180000e-06	4.148243e-06	2.157165e-08	3.005106e+01	1.411978e+03
2.190000e-06	4.019633e-06	2.133780e-08	2.911937e+01	1.396416e+03
2.200000e-06	3.889537e-06	2.109492e-08	2.817692e+01	1.379985e+03
2.210000e-06	3.758035e-06	2.083328e-08	2.722428e+01	1.362723e+03
2.220000e-06	3.625220e-06	2.056286e-08	2.626213e+01	1.344690e+03
2.230000e-06	3.491056e-06	2.028362e-08	2.529021e+01	1.325932e+03
2.240000e-06	3.355470e-06	1.998236e-08	2.430799e+01	1.306455e+03
2.250000e-06	3.218604e-06	1.966839e-08	2.331649e+01	1.286190e+03
2.260000e-06	3.080645e-06	1.933924e-08	2.231707e+01	1.264998e+03
2.270000e-06	2.941480e-06	1.900062e-08	2.130892e+01	1.242680e+03
2.280000e-06	2.801114e-06	1.863797e-08	2.029207e+01	1.219016e+03
2.290000e-06	2.659698e-06	1.825559e-08	1.926762e+01	1.193797e+03
2.300000e-06	2.517279e-06	1.784847e-08	1.823589e+01	1.166864e+03
2.310000e-06	2.373862e-06	1.741865e-08	1.719694e+01	1.138121e+03
2.320000e-06	2.229577e-06	1.695876e-08	1.615169e+01	1.107521e+03
2.330000e-06	2.084606e-06	1.646873e-08	1.510148e+01	1.075033e+03
2.340000e-06	1.938988e-06	1.594488e-08	1.404659e+01	1.040589e+03
2.350000e-06	1.792718e-06	1.538392e-08	1.298696e+01	1.004037e+03
2.360000e-06	1.645862e-06	1.478599e-08	1.192310e+01	9.651078e+02
2.370000e-06	1.498454e-06	1.414499e-08	1.085523e+01	9.234171e+02
2.380000e-06	1.350547e-06	1.345588e-08	9.783748e+00	8.785068e+02
2.390000e-06	1.202221e-06	1.271318e-08	8.709235e+00	8.299222e+02
2.400000e-06	1.053538e-06	1.191087e-08	7.632132e+00	7.773091e+02
2.410000e-06	9.045029e-07	1.104901e-08	6.552478e+00	7.205079e+02
2.420000e-06	7.551765e-07	1.013076e-08	5.470714e+00	6.596197e+02
2.430000e-06	6.057083e-07	9.155203e-09	4.387924e+00	5.950226e+02
2.440000e-06	4.560231e-07	8.126480e-09	3.303561e+00	5.273301e+02
2.450000e-06	3.060713e-07	7.055041e-09	2.217268e+00	4.572926e+02
2.460000e-06	1.559787e-07	5.952898e-09	1.129954e+00	3.856642e+02
2.470000e-06	5.777035e-09	4.831865e-09	4.185049e-02	3.130625e+02
2.480000e-06	-1.444461e-07	3.704823e-09	-1.046409e+00	2.398543e+02
2.490000e-06	-2.945283e-07	2.576523e-09	-2.133647e+00	1.660994e+02
2.500000e-06	-4.445494e-07	1.440464e-09	-3.220443e+00	9.156710e+01
2.510000e-06	-5.944962e-07	2.884532e-10	-4.306701e+00	1.582799e+01
2.520000e-06	-7.442318e-07	-8.868054e-10	-5.391428e+00	-6.159735e+01
2.530000e-06	-8.937405e-07	-2.091611e-09	-6.474512e+00	-1.410635e+02
2.540000e-06	-1.042917e-06	-3.332168e-09	-7.555188e+00	-2.226392e+02
2.550000e-06	-1.191721e-06	-4.606645e-09	-8.633171e+00	-3.059970e+02
2.560000e-06	-1.340144e-06	-5.902533e-09	-9.708387e+00	-3.903804e+02
2.570000e-06	-1.488155e-06	-7.203467e-09	-1.078062e+01	-4.746587e+02
2.580000e-06	-1.635673e-06	-8.483199e-09	-1.184928e+01	-5.574589e+02
2.590000e-06	-1.782585e-06	-9.713362e-09	-1.291355e+01	-6.373492e+02
2.600000e-06	-1.928824e-06	-1.086919e-08	-1.397295e+01	-7.130346e+02
2.610000e-06	-2.074310e-06	-1.193708e-08	-1.502690e+01	-7.835269e+02
2.620000e-06	-2.219053e-06	-1.291685e-08	-1.607545e+01	-8.482546e+02
2.630000e-06	-2.362952e-06	-1.381209e-08	-1.711790e+01	-9.070957e+02
2.640000e-06	-2.505817e-06	-1.462961e-08	-1.815286e+01	-9.603313e+02
2.650000e-06	-2.647632e-06	-1.537763e-08	-1.918020e+01	-1.008537e+03
2.660000e-06	-2.788339e-06	-1.606322e-08	-2.019952e+01	-1.052442e+03
2.670000e-06	-2.927931e-06	-1.669317e-08	-2.121077e+01	-1.092784e+03
2.680000e-06	-3.066443e-06	-1.727342e-08	-2.221419e+01	-1.130193e+03
2.690000e-06	-3.203759e-06	-1.780759e-08	-2.320894e+01	-1.165130e+03
2.700000e-06	-3.339824e-06	-1.830144e-08	-2.419464e+01	-1.197870e+03
2.710000e-06	-3.474662e-06	-1.876269e-08	-2.517145e+01	-1.228543e+03
2.720000e-06	-3.608199e-06	-1.919546e-08	-2.613883e+01	-1.257192e+03
2.730000e-06	-3.740452e-06	-1.960057e-08	-2.709690e+01	-1.283847e+03
2.740000e-06	-3.871406e-06	-1.998041e-08	-2.804557e+01	-1.308583e+03
2.750000e-06	-4.000998e-06	-2.033339e-08	-2.898437e+01	-1.331543e+03
2.760000e-06	-4.129264e-06	-2.066287e-08	-2.991357e+01	-1.352938e+03
2.770000e-06	-4.256094e-06	-2.097455e-08	-3.083236e+01	-1.373015e+03
2.780000e-06	-4.381416e-06	-2.126936e-08	-3.174023e+01	-1.392012e+03
2.790000e-06	-4.505266e-06	-2.154984e-08	-3.263743e+01	-1.410117e+03
2.800000e-06	-4.627519e-06	-2.181400e-08	-3.352307e+01	-1.427441e+03
2.810000e-06	-4.748043e-06	-2.206341e-08	-3.439618e+01	-1.444014e+03
2.820000e-06	-4.866759e-06	-2.230221e-08	-3.525619e+01	-1.459807e+03
2.830000e-06	-4.983620e-06	-2.253064e-08	-3.610277e+01	-1.474763e+03
2.840000e-06	-5.098490e-06	-2.274751e-08	-3.693492e+01	-1.488835e+03
2.850000e-06	-5.211227e-06	-2.295144e-08	-3.775162e+01	-1.502020e+03
2.860000e-06	-5.321938e-06	-2.314336e-08	-3.855364e+01	-1.514372e+03
2.870000e-06	-5.430725e-06	-2.332377e-08	-3.934172e+01	-1.525994e+03
2.880000e-06	-5.537633e-06	-2.349425e-08	-4.011619e+01	-1.537015e+03
2.890000e-06	-5.642661e-06	-2.365543e-08	-4.087705e+01	-1.547561e+03
2.900000e-06	-5.745595e-06	-2.380974e-08	-4.162273e+01	-1.557719e+03
2.910000e-06	-5.846343e-06	-2.395933e-08	-4.235258e+01	-1.567527e+03
2.920000e-06	-5.945002e-06	-2.410306e-08	-4.306730e+01	-1.576962e+03
2.930000e-06	-6.041588e-06	-2.424081e-08	-4.376699e+01	-1.585964e+03
2.940000e-06	-6.135956e-06	-2.436978e-08	-4.445062e+01	-1.594455e+03
