# Temperatura_=_55.59
# Concentracion g/m^3_=_28200.0
# C_Vs_to_Am_M_A/Vsm_=_65563218390.804596
# pendiente_HvsI_1/m_=_3716.3
# ordenada_HvsI_A/m_=_1297.0
# frecuencia_Hz_=_302512.03544309386

Tiempo_(s)	Campo_(V.s)	Magnetizacion_(V.s)	Campo_(kA/m)	Magnetizacion_(A/m)
0.000000e+00	-7.899009e-06	-2.462223e-08	-5.683898e+01	-1.611704e+03
1.000000e-08	-7.894679e-06	-2.462106e-08	-5.680782e+01	-1.611126e+03
2.000000e-08	-7.887862e-06	-2.461084e-08	-5.675877e+01	-1.610438e+03
3.000000e-08	-7.878322e-06	-2.460040e-08	-5.669012e+01	-1.609687e+03
4.000000e-08	-7.865870e-06	-2.458741e-08	-5.660052e+01	-1.608898e+03
5.000000e-08	-7.850513e-06	-2.456853e-08	-5.649001e+01	-1.608066e+03
6.000000e-08	-7.832571e-06	-2.454527e-08	-5.636091e+01	-1.607157e+03
7.000000e-08	-7.812437e-06	-2.451403e-08	-5.621603e+01	-1.606122e+03
8.000000e-08	-7.789870e-06	-2.451446e-08	-5.605365e+01	-1.604917e+03
9.000000e-08	-7.764348e-06	-2.458299e-08	-5.587000e+01	-1.603515e+03
1.000000e-07	-7.735651e-06	-2.452419e-08	-5.566350e+01	-1.601923e+03
1.100000e-07	-7.704010e-06	-2.443360e-08	-5.543582e+01	-1.600178e+03
1.200000e-07	-7.669539e-06	-2.441529e-08	-5.518778e+01	-1.598339e+03
1.300000e-07	-7.632432e-06	-2.439119e-08	-5.492077e+01	-1.596467e+03
1.400000e-07	-7.593134e-06	-2.431430e-08	-5.463799e+01	-1.594606e+03
1.500000e-07	-7.551616e-06	-2.423801e-08	-5.433924e+01	-1.592765e+03
1.600000e-07	-7.507607e-06	-2.435547e-08	-5.402257e+01	-1.590908e+03
1.700000e-07	-7.461014e-06	-2.426992e-08	-5.368729e+01	-1.588964e+03
1.800000e-07	-7.411691e-06	-2.414267e-08	-5.333238e+01	-1.586839e+03
1.900000e-07	-7.359457e-06	-2.420929e-08	-5.295652e+01	-1.584442e+03
2.000000e-07	-7.304411e-06	-2.409314e-08	-5.256043e+01	-1.581707e+03
2.100000e-07	-7.246636e-06	-2.403450e-08	-5.214469e+01	-1.578608e+03
2.200000e-07	-7.186134e-06	-2.398596e-08	-5.170933e+01	-1.575168e+03
2.300000e-07	-7.123086e-06	-2.392621e-08	-5.125566e+01	-1.571447e+03
2.400000e-07	-7.057376e-06	-2.392067e-08	-5.078283e+01	-1.567523e+03
2.500000e-07	-6.988956e-06	-2.382526e-08	-5.029050e+01	-1.563469e+03
2.600000e-07	-6.917879e-06	-2.378424e-08	-4.977905e+01	-1.559330e+03
2.700000e-07	-6.844026e-06	-2.370107e-08	-4.924763e+01	-1.555109e+03
2.800000e-07	-6.767475e-06	-2.363189e-08	-4.869679e+01	-1.550767e+03
2.900000e-07	-6.688172e-06	-2.355082e-08	-4.812614e+01	-1.546234e+03
3.000000e-07	-6.606205e-06	-2.346723e-08	-4.753633e+01	-1.541432e+03
3.100000e-07	-6.522024e-06	-2.342274e-08	-4.693059e+01	-1.536298e+03
3.200000e-07	-6.435732e-06	-2.331599e-08	-4.630966e+01	-1.530800e+03
3.300000e-07	-6.347118e-06	-2.324559e-08	-4.567202e+01	-1.524948e+03
3.400000e-07	-6.256067e-06	-2.312486e-08	-4.501685e+01	-1.518785e+03
3.500000e-07	-6.162749e-06	-2.303031e-08	-4.434535e+01	-1.512372e+03
3.600000e-07	-6.067188e-06	-2.295090e-08	-4.365773e+01	-1.505764e+03
3.700000e-07	-5.969373e-06	-2.284295e-08	-4.295388e+01	-1.498989e+03
3.800000e-07	-5.869439e-06	-2.273174e-08	-4.223478e+01	-1.492032e+03
3.900000e-07	-5.767397e-06	-2.261104e-08	-4.150052e+01	-1.484838e+03
4.000000e-07	-5.663263e-06	-2.250510e-08	-4.075120e+01	-1.477321e+03
4.100000e-07	-5.557172e-06	-2.236471e-08	-3.998780e+01	-1.469392e+03
4.200000e-07	-5.449167e-06	-2.224664e-08	-3.921062e+01	-1.460975e+03
4.300000e-07	-5.339255e-06	-2.211555e-08	-3.841973e+01	-1.452036e+03
4.400000e-07	-5.227353e-06	-2.197875e-08	-3.761452e+01	-1.442584e+03
4.500000e-07	-5.113425e-06	-2.182592e-08	-3.679472e+01	-1.432668e+03
4.600000e-07	-4.997554e-06	-2.166543e-08	-3.596095e+01	-1.422353e+03
4.700000e-07	-4.879792e-06	-2.149992e-08	-3.511357e+01	-1.411698e+03
4.800000e-07	-4.760229e-06	-2.132758e-08	-3.425322e+01	-1.400724e+03
4.900000e-07	-4.638923e-06	-2.115864e-08	-3.338034e+01	-1.389403e+03
5.000000e-07	-4.515964e-06	-2.097508e-08	-3.249557e+01	-1.377655e+03
5.100000e-07	-4.391357e-06	-2.078783e-08	-3.159893e+01	-1.365364e+03
5.200000e-07	-4.265131e-06	-2.058476e-08	-3.069065e+01	-1.352402e+03
5.300000e-07	-4.137342e-06	-2.037555e-08	-2.977111e+01	-1.338664e+03
5.400000e-07	-4.007998e-06	-2.014770e-08	-2.884039e+01	-1.324088e+03
5.500000e-07	-3.877158e-06	-1.991350e-08	-2.789891e+01	-1.308665e+03
5.600000e-07	-3.744865e-06	-1.966501e-08	-2.694696e+01	-1.292435e+03
5.700000e-07	-3.611190e-06	-1.940407e-08	-2.598508e+01	-1.275459e+03
5.800000e-07	-3.476119e-06	-1.913112e-08	-2.501314e+01	-1.257783e+03
5.900000e-07	-3.339681e-06	-1.884797e-08	-2.403137e+01	-1.239408e+03
6.000000e-07	-3.201939e-06	-1.855743e-08	-2.304022e+01	-1.220267e+03
6.100000e-07	-3.062951e-06	-1.824796e-08	-2.204011e+01	-1.200221e+03
6.200000e-07	-2.922598e-06	-1.792670e-08	-2.103017e+01	-1.179075e+03
6.300000e-07	-2.780921e-06	-1.757981e-08	-2.001070e+01	-1.156614e+03
6.400000e-07	-2.638205e-06	-1.720869e-08	-1.898376e+01	-1.132639e+03
6.500000e-07	-2.494453e-06	-1.681269e-08	-1.794936e+01	-1.106997e+03
6.600000e-07	-2.349787e-06	-1.639754e-08	-1.690839e+01	-1.079595e+03
6.700000e-07	-2.204378e-06	-1.595845e-08	-1.586206e+01	-1.050386e+03
6.800000e-07	-2.058239e-06	-1.548946e-08	-1.481049e+01	-1.019329e+03
6.900000e-07	-1.911387e-06	-1.499245e-08	-1.375379e+01	-9.863446e+02
7.000000e-07	-1.763951e-06	-1.445592e-08	-1.269288e+01	-9.512666e+02
7.100000e-07	-1.616020e-06	-1.388129e-08	-1.162841e+01	-9.138150e+02
7.200000e-07	-1.467625e-06	-1.325995e-08	-1.056060e+01	-8.736038e+02
7.300000e-07	-1.318794e-06	-1.259047e-08	-9.489658e+00	-8.301874e+02
7.400000e-07	-1.169499e-06	-1.186760e-08	-8.415377e+00	-7.831401e+02
7.500000e-07	-1.019785e-06	-1.108969e-08	-7.338077e+00	-7.321523e+02
7.600000e-07	-8.697274e-07	-1.025760e-08	-6.258306e+00	-6.771215e+02
7.700000e-07	-7.193766e-07	-9.368800e-09	-5.176426e+00	-6.182111e+02
7.800000e-07	-5.687264e-07	-8.426187e-09	-4.092390e+00	-5.558589e+02
7.900000e-07	-4.178172e-07	-7.435247e-09	-3.006491e+00	-4.907264e+02
8.000000e-07	-2.667950e-07	-6.409822e-09	-1.919780e+00	-4.235948e+02
8.100000e-07	-1.156773e-07	-5.359916e-09	-8.323804e-01	-3.552274e+02
8.200000e-07	3.559942e-08	-4.299985e-09	2.561631e-01	-2.862295e+02
8.300000e-07	1.869347e-07	-3.239538e-09	1.345128e+00	-2.169383e+02
8.400000e-07	3.381874e-07	-2.180107e-09	2.433498e+00	-1.473712e+02
8.500000e-07	4.893414e-07	-1.114581e-09	3.521159e+00	-7.724903e+01
8.600000e-07	6.403102e-07	-3.636380e-11	4.607486e+00	-6.092926e+00
8.700000e-07	7.910374e-07	1.060429e-09	5.692076e+00	6.662373e+01
8.800000e-07	9.415250e-07	2.186125e-09	6.774941e+00	1.413004e+02
8.900000e-07	1.091690e-06	3.348723e-09	7.855488e+00	2.180500e+02
9.000000e-07	1.241455e-06	4.544936e-09	8.933147e+00	2.965919e+02
9.100000e-07	1.390767e-06	5.764773e-09	1.000756e+01	3.762221e+02
9.200000e-07	1.539585e-06	6.992094e-09	1.107841e+01	4.558683e+02
9.300000e-07	1.687869e-06	8.196242e-09	1.214541e+01	5.342210e+02
9.400000e-07	1.835597e-06	9.349625e-09	1.320842e+01	6.099110e+02
9.500000e-07	1.982780e-06	1.043027e-08	1.426751e+01	6.816991e+02
9.600000e-07	2.129248e-06	1.143099e-08	1.532145e+01	7.486375e+02
9.700000e-07	2.274859e-06	1.235218e-08	1.636923e+01	8.101740e+02
9.800000e-07	2.419666e-06	1.319418e-08	1.741121e+01	8.661807e+02
9.900000e-07	2.563556e-06	1.396339e-08	1.844660e+01	9.169085e+02
1.000000e-06	2.706363e-06	1.466418e-08	1.947421e+01	9.628842e+02
1.010000e-06	2.848109e-06	1.530677e-08	2.049416e+01	1.004776e+03
1.020000e-06	2.988705e-06	1.589721e-08	2.150585e+01	1.043259e+03
1.030000e-06	3.128063e-06	1.644355e-08	2.250863e+01	1.078913e+03
1.040000e-06	3.266178e-06	1.695065e-08	2.350247e+01	1.112160e+03
1.050000e-06	3.403085e-06	1.742105e-08	2.448761e+01	1.143259e+03
1.060000e-06	3.538754e-06	1.785899e-08	2.546385e+01	1.172336e+03
1.070000e-06	3.673061e-06	1.826362e-08	2.643028e+01	1.199446e+03
1.080000e-06	3.806013e-06	1.864210e-08	2.738697e+01	1.224637e+03
1.090000e-06	3.937592e-06	1.899519e-08	2.833377e+01	1.247996e+03
1.100000e-06	4.067768e-06	1.932694e-08	2.927048e+01	1.269672e+03
1.110000e-06	4.196532e-06	1.963885e-08	3.019703e+01	1.289872e+03
1.120000e-06	4.323781e-06	1.993320e-08	3.111268e+01	1.308827e+03
1.130000e-06	4.449505e-06	2.021053e-08	3.201735e+01	1.326753e+03
1.140000e-06	4.573722e-06	2.047112e-08	3.291118e+01	1.343817e+03
1.150000e-06	4.696357e-06	2.071934e-08	3.379363e+01	1.360113e+03
1.160000e-06	4.817408e-06	2.095461e-08	3.466467e+01	1.375664e+03
1.170000e-06	4.936718e-06	2.117413e-08	3.552319e+01	1.390443e+03
1.180000e-06	5.054175e-06	2.137911e-08	3.636838e+01	1.404402e+03
1.190000e-06	5.169776e-06	2.157286e-08	3.720021e+01	1.417511e+03
1.200000e-06	5.283392e-06	2.175574e-08	3.801776e+01	1.429780e+03
1.210000e-06	5.394922e-06	2.193111e-08	3.882030e+01	1.441269e+03
1.220000e-06	5.504511e-06	2.209949e-08	3.960886e+01	1.452078e+03
1.230000e-06	5.612198e-06	2.226152e-08	4.038375e+01	1.462326e+03
1.240000e-06	5.717860e-06	2.241615e-08	4.114407e+01	1.472119e+03
1.250000e-06	5.821402e-06	2.256208e-08	4.188912e+01	1.481527e+03
1.260000e-06	5.922770e-06	2.269907e-08	4.261854e+01	1.490570e+03
1.270000e-06	6.022007e-06	2.282774e-08	4.333262e+01	1.499220e+03
1.280000e-06	6.119033e-06	2.294773e-08	4.403079e+01	1.507417e+03
1.290000e-06	6.213770e-06	2.305821e-08	4.471249e+01	1.515101e+03
1.300000e-06	6.306231e-06	2.316274e-08	4.537781e+01	1.522232e+03
1.310000e-06	6.396445e-06	2.326333e-08	4.602697e+01	1.528816e+03
1.320000e-06	6.484363e-06	2.335881e-08	4.665959e+01	1.534905e+03
1.330000e-06	6.569996e-06	2.344864e-08	4.727578e+01	1.540594e+03
1.340000e-06	6.653368e-06	2.353429e-08	4.787571e+01	1.545992e+03
1.350000e-06	6.734258e-06	2.361659e-08	4.845777e+01	1.551203e+03
1.360000e-06	6.812601e-06	2.369555e-08	4.902150e+01	1.556294e+03
1.370000e-06	6.888417e-06	2.377075e-08	4.956705e+01	1.561287e+03
1.380000e-06	6.961614e-06	2.384106e-08	5.009376e+01	1.566155e+03
1.390000e-06	7.032290e-06	2.390881e-08	5.060232e+01	1.570837e+03
1.400000e-06	7.100540e-06	2.397350e-08	5.109343e+01	1.575262e+03
1.410000e-06	7.166252e-06	2.403419e-08	5.156627e+01	1.579369e+03
1.420000e-06	7.229417e-06	2.409247e-08	5.202079e+01	1.583132e+03
1.430000e-06	7.290171e-06	2.414780e-08	5.245796e+01	1.586561e+03
1.440000e-06	7.348401e-06	2.419832e-08	5.287696e+01	1.589703e+03
1.450000e-06	7.404001e-06	2.424485e-08	5.327705e+01	1.592625e+03
1.460000e-06	7.456852e-06	2.428859e-08	5.365734e+01	1.595391e+03
1.470000e-06	7.506645e-06	2.432956e-08	5.401564e+01	1.598041e+03
1.480000e-06	7.553468e-06	2.436757e-08	5.435257e+01	1.600585e+03
1.490000e-06	7.597638e-06	2.440184e-08	5.467040e+01	1.602996e+03
1.500000e-06	7.639089e-06	2.443330e-08	5.496867e+01	1.605222e+03
1.510000e-06	7.677756e-06	2.446147e-08	5.524691e+01	1.607206e+03
1.520000e-06	7.713899e-06	2.448696e-08	5.550698e+01	1.608907e+03
1.530000e-06	7.747350e-06	2.450864e-08	5.574768e+01	1.610313e+03
1.540000e-06	7.777950e-06	2.452734e-08	5.596787e+01	1.611448e+03
1.550000e-06	7.805880e-06	2.454303e-08	5.616885e+01	1.612367e+03
1.560000e-06	7.830906e-06	2.455627e-08	5.634893e+01	1.613141e+03
1.570000e-06	7.852982e-06	2.456989e-08	5.650778e+01	1.613837e+03
1.580000e-06	7.872397e-06	2.458294e-08	5.664748e+01	1.614498e+03
1.590000e-06	7.888995e-06	2.459587e-08	5.676692e+01	1.615132e+03
1.600000e-06	7.902576e-06	2.460473e-08	5.686465e+01	1.615713e+03
1.610000e-06	7.913058e-06	2.460885e-08	5.694007e+01	1.616191e+03
1.620000e-06	7.920524e-06	2.461032e-08	5.699379e+01	1.616504e+03
1.630000e-06	7.925259e-06	2.461171e-08	5.702787e+01	1.616605e+03
1.640000e-06	7.927154e-06	2.461371e-08	5.704150e+01	1.616473e+03
1.650000e-06	7.926215e-06	2.461169e-08	5.703474e+01	1.616118e+03
1.660000e-06	7.922738e-06	2.459755e-08	5.700973e+01	1.615582e+03
1.670000e-06	7.916614e-06	2.459216e-08	5.696566e+01	1.614918e+03
1.680000e-06	7.907759e-06	2.458650e-08	5.690194e+01	1.614180e+03
1.690000e-06	7.896220e-06	2.457516e-08	5.681891e+01	1.613400e+03
1.700000e-06	7.881866e-06	2.456553e-08	5.671562e+01	1.612582e+03
1.710000e-06	7.864889e-06	2.456320e-08	5.659346e+01	1.611698e+03
1.720000e-06	7.845679e-06	2.456897e-08	5.645523e+01	1.610703e+03
1.730000e-06	7.824078e-06	2.447873e-08	5.629980e+01	1.609549e+03
1.740000e-06	7.799444e-06	2.438567e-08	5.612254e+01	1.608203e+03
1.750000e-06	7.771183e-06	2.444318e-08	5.591918e+01	1.606662e+03
1.760000e-06	7.739384e-06	2.444825e-08	5.569037e+01	1.604954e+03
1.770000e-06	7.704956e-06	2.439298e-08	5.544263e+01	1.603134e+03
1.780000e-06	7.668324e-06	2.442016e-08	5.517903e+01	1.601265e+03
1.790000e-06	7.629427e-06	2.449035e-08	5.489915e+01	1.599397e+03
1.800000e-06	7.588603e-06	2.427116e-08	5.460539e+01	1.597550e+03
1.810000e-06	7.545562e-06	2.427309e-08	5.429568e+01	1.595703e+03
1.820000e-06	7.499806e-06	2.435377e-08	5.396643e+01	1.593791e+03
1.830000e-06	7.451489e-06	2.418957e-08	5.361875e+01	1.591727e+03
1.840000e-06	7.400215e-06	2.432048e-08	5.324980e+01	1.589415e+03
1.850000e-06	7.345854e-06	2.419709e-08	5.285863e+01	1.586779e+03
1.860000e-06	7.288799e-06	2.418716e-08	5.244808e+01	1.583783e+03
1.870000e-06	7.229153e-06	2.418144e-08	5.201889e+01	1.580435e+03
1.880000e-06	7.166899e-06	2.398657e-08	5.157093e+01	1.576785e+03
1.890000e-06	7.101813e-06	2.404947e-08	5.110259e+01	1.572910e+03
1.900000e-06	7.033989e-06	2.391369e-08	5.061455e+01	1.568886e+03
1.910000e-06	6.963466e-06	2.389869e-08	5.010708e+01	1.564768e+03
1.920000e-06	6.890192e-06	2.384402e-08	4.957982e+01	1.560571e+03
1.930000e-06	6.814280e-06	2.375195e-08	4.903358e+01	1.556268e+03
1.940000e-06	6.735622e-06	2.374343e-08	4.846758e+01	1.551797e+03
1.950000e-06	6.654429e-06	2.357378e-08	4.788334e+01	1.547078e+03
1.960000e-06	6.570754e-06	2.354574e-08	4.728124e+01	1.542043e+03
1.970000e-06	6.484554e-06	2.342702e-08	4.666097e+01	1.536648e+03
1.980000e-06	6.396008e-06	2.337810e-08	4.602382e+01	1.530893e+03
1.990000e-06	6.305208e-06	2.330273e-08	4.537045e+01	1.524812e+03
2.000000e-06	6.212201e-06	2.318096e-08	4.470120e+01	1.518463e+03
2.010000e-06	6.116896e-06	2.310888e-08	4.401541e+01	1.511905e+03
2.020000e-06	6.019436e-06	2.297798e-08	4.331412e+01	1.505176e+03
2.030000e-06	5.919888e-06	2.289652e-08	4.259780e+01	1.498274e+03
2.040000e-06	5.818239e-06	2.276502e-08	4.186636e+01	1.491154e+03
2.050000e-06	5.714501e-06	2.267748e-08	4.111989e+01	1.483738e+03
2.060000e-06	5.608820e-06	2.253762e-08	4.035945e+01	1.475934e+03
2.070000e-06	5.501276e-06	2.240152e-08	3.958559e+01	1.467660e+03
2.080000e-06	5.391771e-06	2.226128e-08	3.879762e+01	1.458870e+03
2.090000e-06	5.280265e-06	2.212188e-08	3.799526e+01	1.449560e+03
2.100000e-06	5.166798e-06	2.199178e-08	3.717878e+01	1.439769e+03
2.110000e-06	5.051428e-06	2.184135e-08	3.634861e+01	1.429561e+03
2.120000e-06	4.934069e-06	2.169728e-08	3.550413e+01	1.418997e+03
2.130000e-06	4.814778e-06	2.151979e-08	3.464575e+01	1.408113e+03
2.140000e-06	4.693676e-06	2.134686e-08	3.377433e+01	1.396896e+03
2.150000e-06	4.570910e-06	2.115532e-08	3.289094e+01	1.385280e+03
2.160000e-06	4.446437e-06	2.097345e-08	3.199527e+01	1.373156e+03
2.170000e-06	4.320303e-06	2.077483e-08	3.108765e+01	1.360397e+03
2.180000e-06	4.192606e-06	2.057433e-08	3.016878e+01	1.346888e+03
2.190000e-06	4.063357e-06	2.035689e-08	2.923874e+01	1.332553e+03
2.200000e-06	3.932636e-06	2.013234e-08	2.829811e+01	1.317369e+03
2.210000e-06	3.800441e-06	1.989509e-08	2.734687e+01	1.301363e+03
2.220000e-06	3.666801e-06	1.964771e-08	2.638524e+01	1.284592e+03
2.230000e-06	3.531852e-06	1.939126e-08	2.541418e+01	1.267112e+03
2.240000e-06	3.395629e-06	1.911390e-08	2.443397e+01	1.248940e+03
2.250000e-06	3.258090e-06	1.882381e-08	2.344427e+01	1.230028e+03
2.260000e-06	3.119225e-06	1.851202e-08	2.244504e+01	1.210257e+03
2.270000e-06	2.979129e-06	1.818968e-08	2.143695e+01	1.189446e+03
2.280000e-06	2.837902e-06	1.784982e-08	2.042072e+01	1.167381e+03
2.290000e-06	2.695531e-06	1.749724e-08	1.939626e+01	1.143855e+03
2.300000e-06	2.552197e-06	1.711977e-08	1.836487e+01	1.118700e+03
2.310000e-06	2.407986e-06	1.671835e-08	1.732717e+01	1.091807e+03
2.320000e-06	2.262915e-06	1.628661e-08	1.628328e+01	1.063116e+03
2.330000e-06	2.117095e-06	1.582442e-08	1.523400e+01	1.032591e+03
2.340000e-06	1.970629e-06	1.533070e-08	1.418007e+01	1.000169e+03
2.350000e-06	1.823466e-06	1.480288e-08	1.312113e+01	9.657114e+02
2.360000e-06	1.675605e-06	1.424032e-08	1.205717e+01	9.289720e+02
2.370000e-06	1.527200e-06	1.363402e-08	1.098929e+01	8.895922e+02
2.380000e-06	1.378337e-06	1.297918e-08	9.918113e+00	8.471364e+02
2.390000e-06	1.229079e-06	1.227283e-08	8.844096e+00	8.011638e+02
2.400000e-06	1.079416e-06	1.151193e-08	7.767167e+00	7.513217e+02
2.410000e-06	9.293201e-07	1.069465e-08	6.687118e+00	6.974405e+02
2.420000e-06	7.788599e-07	9.825030e-09	5.604450e+00	6.396042e+02
2.430000e-06	6.281502e-07	8.902938e-09	4.519987e+00	5.781749e+02
2.440000e-06	4.772699e-07	7.927002e-09	3.434296e+00	5.137588e+02
2.450000e-06	3.262102e-07	6.905669e-09	2.347314e+00	4.471157e+02
2.460000e-06	1.749869e-07	5.856020e-09	1.259155e+00	3.790291e+02
2.470000e-06	2.370903e-08	4.791254e-09	1.706033e-01	3.101625e+02
2.480000e-06	-1.276095e-07	3.722540e-09	-9.182409e-01	2.409379e+02
2.490000e-06	-2.789245e-07	2.657852e-09	-2.007060e+00	1.714651e+02
2.500000e-06	-4.301235e-07	1.591432e-09	-3.095044e+00	1.015430e+02
2.510000e-06	-5.811921e-07	5.147488e-10	-4.182090e+00	3.073596e+01
2.520000e-06	-7.320978e-07	-5.807249e-10	-5.267964e+00	-4.148643e+01
2.530000e-06	-8.827697e-07	-1.703924e-09	-6.352155e+00	-1.155776e+02
2.540000e-06	-1.033123e-06	-2.862111e-09	-7.434053e+00	-1.917463e+02
2.550000e-06	-1.183020e-06	-4.054801e-09	-8.512668e+00	-2.698309e+02
2.560000e-06	-1.332465e-06	-5.271875e-09	-9.588030e+00	-3.492466e+02
2.570000e-06	-1.481534e-06	-6.502112e-09	-1.066069e+01	-4.290157e+02
2.580000e-06	-1.630180e-06	-7.723478e-09	-1.173030e+01	-5.078799e+02
2.590000e-06	-1.778156e-06	-8.906195e-09	-1.279509e+01	-5.844674e+02
2.600000e-06	-1.925359e-06	-1.002525e-08	-1.385432e+01	-6.574835e+02
2.610000e-06	-2.071851e-06	-1.106523e-08	-1.490844e+01	-7.258836e+02
2.620000e-06	-2.217514e-06	-1.201946e-08	-1.595659e+01	-7.889961e+02
2.630000e-06	-2.362284e-06	-1.289136e-08	-1.699831e+01	-8.465733e+02
2.640000e-06	-2.506195e-06	-1.368802e-08	-1.803385e+01	-8.987665e+02
2.650000e-06	-2.649137e-06	-1.441798e-08	-1.906242e+01	-9.460365e+02
2.660000e-06	-2.791073e-06	-1.508852e-08	-2.008375e+01	-9.890251e+02
2.670000e-06	-2.931992e-06	-1.570420e-08	-2.109777e+01	-1.028418e+03
2.680000e-06	-3.071692e-06	-1.627083e-08	-2.210301e+01	-1.064831e+03
2.690000e-06	-3.210087e-06	-1.679129e-08	-2.309886e+01	-1.098735e+03
2.700000e-06	-3.347180e-06	-1.727149e-08	-2.408534e+01	-1.130431e+03
2.710000e-06	-3.483027e-06	-1.771796e-08	-2.506285e+01	-1.160079e+03
2.720000e-06	-3.617578e-06	-1.813344e-08	-2.603104e+01	-1.187748e+03
2.730000e-06	-3.750838e-06	-1.852391e-08	-2.698994e+01	-1.213482e+03
2.740000e-06	-3.882787e-06	-1.888839e-08	-2.793941e+01	-1.237353e+03
2.750000e-06	-4.013360e-06	-1.922518e-08	-2.887897e+01	-1.259492e+03
2.760000e-06	-4.142568e-06	-1.954214e-08	-2.980872e+01	-1.280092e+03
2.770000e-06	-4.270372e-06	-1.984325e-08	-3.072836e+01	-1.299380e+03
2.780000e-06	-4.396797e-06	-2.012920e-08	-3.163808e+01	-1.317582e+03
2.790000e-06	-4.521726e-06	-2.039766e-08	-3.253703e+01	-1.334880e+03
2.800000e-06	-4.644980e-06	-2.064794e-08	-3.342393e+01	-1.351391e+03
2.810000e-06	-4.766544e-06	-2.088541e-08	-3.429867e+01	-1.367158e+03
2.820000e-06	-4.886378e-06	-2.111213e-08	-3.516096e+01	-1.382163e+03
2.830000e-06	-5.004293e-06	-2.132774e-08	-3.600944e+01	-1.396362e+03
2.840000e-06	-5.120113e-06	-2.153263e-08	-3.684285e+01	-1.409716e+03
2.850000e-06	-5.233853e-06	-2.172549e-08	-3.766129e+01	-1.422223e+03
2.860000e-06	-5.345602e-06	-2.190756e-08	-3.846540e+01	-1.433926e+03
2.870000e-06	-5.455336e-06	-2.207723e-08	-3.925502e+01	-1.444919e+03
2.880000e-06	-5.563194e-06	-2.223797e-08	-4.003113e+01	-1.455317e+03
2.890000e-06	-5.669222e-06	-2.239056e-08	-4.079408e+01	-1.465232e+03
2.900000e-06	-5.773176e-06	-2.253654e-08	-4.154210e+01	-1.474747e+03
2.910000e-06	-5.874865e-06	-2.267882e-08	-4.227383e+01	-1.483896e+03
2.920000e-06	-5.974362e-06	-2.281402e-08	-4.298978e+01	-1.492665e+03
2.930000e-06	-6.071785e-06	-2.293989e-08	-4.369080e+01	-1.500999e+03
2.940000e-06	-6.167059e-06	-2.305575e-08	-4.437637e+01	-1.508836e+03
