# Temperatura_=_32.06
# Concentracion g/m^3_=_28200.0
# C_Vs_to_Am_M_A/Vsm_=_65563218390.804596
# pendiente_HvsI_1/m_=_3716.3
# ordenada_HvsI_A/m_=_1297.0
# frecuencia_Hz_=_302507.39690275997

Tiempo_(s)	Campo_(V.s)	Magnetizacion_(V.s)	Campo_(kA/m)	Magnetizacion_(A/m)
0.000000e+00	-7.855551e-06	-2.397358e-08	-5.684305e+01	-1.569728e+03
1.000000e-08	-7.851461e-06	-2.397210e-08	-5.681345e+01	-1.569228e+03
2.000000e-08	-7.844864e-06	-2.396429e-08	-5.676571e+01	-1.568609e+03
3.000000e-08	-7.835594e-06	-2.395528e-08	-5.669863e+01	-1.567912e+03
4.000000e-08	-7.823480e-06	-2.394444e-08	-5.661098e+01	-1.567163e+03
5.000000e-08	-7.808424e-06	-2.392883e-08	-5.650204e+01	-1.566364e+03
6.000000e-08	-7.790685e-06	-2.390779e-08	-5.637367e+01	-1.565494e+03
7.000000e-08	-7.770739e-06	-2.388193e-08	-5.622934e+01	-1.564519e+03
8.000000e-08	-7.748454e-06	-2.386537e-08	-5.606809e+01	-1.563403e+03
9.000000e-08	-7.723257e-06	-2.390595e-08	-5.588576e+01	-1.562123e+03
1.000000e-07	-7.694915e-06	-2.388571e-08	-5.568068e+01	-1.560681e+03
1.100000e-07	-7.663640e-06	-2.381341e-08	-5.545437e+01	-1.559103e+03
1.200000e-07	-7.629575e-06	-2.378294e-08	-5.520788e+01	-1.557434e+03
1.300000e-07	-7.592893e-06	-2.375784e-08	-5.494244e+01	-1.555720e+03
1.400000e-07	-7.553949e-06	-2.369402e-08	-5.466065e+01	-1.553996e+03
1.500000e-07	-7.512838e-06	-2.362871e-08	-5.436316e+01	-1.552266e+03
1.600000e-07	-7.469378e-06	-2.368215e-08	-5.404869e+01	-1.550500e+03
1.700000e-07	-7.423373e-06	-2.366037e-08	-5.371579e+01	-1.548635e+03
1.800000e-07	-7.374587e-06	-2.354629e-08	-5.336277e+01	-1.546592e+03
1.900000e-07	-7.322856e-06	-2.356119e-08	-5.298844e+01	-1.544291e+03
2.000000e-07	-7.268253e-06	-2.350224e-08	-5.259333e+01	-1.541674e+03
2.100000e-07	-7.210917e-06	-2.342477e-08	-5.217845e+01	-1.538720e+03
2.200000e-07	-7.151006e-06	-2.340163e-08	-5.174493e+01	-1.535448e+03
2.300000e-07	-7.088637e-06	-2.335292e-08	-5.129363e+01	-1.531914e+03
2.400000e-07	-7.023599e-06	-2.331111e-08	-5.082301e+01	-1.528188e+03
2.500000e-07	-6.955763e-06	-2.320546e-08	-5.033215e+01	-1.524339e+03
2.600000e-07	-6.885263e-06	-2.317732e-08	-4.982201e+01	-1.520411e+03
2.700000e-07	-6.812075e-06	-2.313539e-08	-4.929241e+01	-1.516410e+03
2.800000e-07	-6.736213e-06	-2.304047e-08	-4.874348e+01	-1.512301e+03
2.900000e-07	-6.657580e-06	-2.296534e-08	-4.817448e+01	-1.508019e+03
3.000000e-07	-6.576209e-06	-2.290684e-08	-4.758568e+01	-1.503488e+03
3.100000e-07	-6.492555e-06	-2.284170e-08	-4.698036e+01	-1.498642e+03
3.200000e-07	-6.406786e-06	-2.272931e-08	-4.635973e+01	-1.493443e+03
3.300000e-07	-6.318736e-06	-2.267441e-08	-4.572259e+01	-1.487890e+03
3.400000e-07	-6.228306e-06	-2.260095e-08	-4.506824e+01	-1.482017e+03
3.500000e-07	-6.135684e-06	-2.248885e-08	-4.439803e+01	-1.475880e+03
3.600000e-07	-6.040940e-06	-2.239341e-08	-4.371246e+01	-1.469534e+03
3.700000e-07	-5.943888e-06	-2.230378e-08	-4.301019e+01	-1.463013e+03
3.800000e-07	-5.844579e-06	-2.220203e-08	-4.229158e+01	-1.456316e+03
3.900000e-07	-5.743267e-06	-2.208399e-08	-4.155849e+01	-1.449403e+03
4.000000e-07	-5.639987e-06	-2.197794e-08	-4.081115e+01	-1.442202e+03
4.100000e-07	-5.534645e-06	-2.185426e-08	-4.004889e+01	-1.434629e+03
4.200000e-07	-5.427317e-06	-2.172712e-08	-3.927226e+01	-1.426610e+03
4.300000e-07	-5.318105e-06	-2.160402e-08	-3.848199e+01	-1.418100e+03
4.400000e-07	-5.207042e-06	-2.147858e-08	-3.767834e+01	-1.409090e+03
4.500000e-07	-5.094048e-06	-2.133136e-08	-3.686071e+01	-1.399611e+03
4.600000e-07	-4.979041e-06	-2.117379e-08	-3.602851e+01	-1.389713e+03
4.700000e-07	-4.862097e-06	-2.101732e-08	-3.518231e+01	-1.379443e+03
4.800000e-07	-4.743384e-06	-2.085170e-08	-3.432329e+01	-1.368826e+03
4.900000e-07	-4.622962e-06	-2.067975e-08	-3.345192e+01	-1.357845e+03
5.000000e-07	-4.500807e-06	-2.050608e-08	-3.256800e+01	-1.346439e+03
5.100000e-07	-4.376971e-06	-2.032726e-08	-3.167192e+01	-1.334509e+03
5.200000e-07	-4.251584e-06	-2.012687e-08	-3.076461e+01	-1.321945e+03
5.300000e-07	-4.124741e-06	-1.991640e-08	-2.984677e+01	-1.308646e+03
5.400000e-07	-3.996342e-06	-1.970111e-08	-2.891767e+01	-1.294548e+03
5.500000e-07	-3.866379e-06	-1.947785e-08	-2.797726e+01	-1.279629e+03
5.600000e-07	-3.734911e-06	-1.923641e-08	-2.702595e+01	-1.263911e+03
5.700000e-07	-3.602015e-06	-1.898559e-08	-2.606431e+01	-1.247435e+03
5.800000e-07	-3.467809e-06	-1.872367e-08	-2.509319e+01	-1.230240e+03
5.900000e-07	-3.332305e-06	-1.844874e-08	-2.411268e+01	-1.212325e+03
6.000000e-07	-3.195437e-06	-1.816251e-08	-2.312229e+01	-1.193633e+03
6.100000e-07	-3.057312e-06	-1.786138e-08	-2.212282e+01	-1.174045e+03
6.200000e-07	-2.917999e-06	-1.754469e-08	-2.111475e+01	-1.153389e+03
6.300000e-07	-2.777387e-06	-1.720181e-08	-2.009727e+01	-1.131470e+03
6.400000e-07	-2.635564e-06	-1.683737e-08	-1.907104e+01	-1.108097e+03
6.500000e-07	-2.492683e-06	-1.645176e-08	-1.803714e+01	-1.083118e+03
6.600000e-07	-2.348869e-06	-1.604698e-08	-1.699650e+01	-1.056428e+03
6.700000e-07	-2.204260e-06	-1.561856e-08	-1.595010e+01	-1.027961e+03
6.800000e-07	-2.058859e-06	-1.516182e-08	-1.489798e+01	-9.976614e+02
6.900000e-07	-1.912676e-06	-1.467536e-08	-1.384019e+01	-9.654442e+02
7.000000e-07	-1.765914e-06	-1.415167e-08	-1.277822e+01	-9.311509e+02
7.100000e-07	-1.618719e-06	-1.359173e-08	-1.171311e+01	-8.945268e+02
7.200000e-07	-1.471014e-06	-1.298663e-08	-1.064431e+01	-8.552245e+02
7.300000e-07	-1.322869e-06	-1.232966e-08	-9.572330e+00	-8.128431e+02
7.400000e-07	-1.174397e-06	-1.162152e-08	-8.497982e+00	-7.669988e+02
7.500000e-07	-1.025509e-06	-1.086312e-08	-7.420620e+00	-7.174124e+02
7.600000e-07	-8.762601e-07	-1.005294e-08	-6.340649e+00	-6.639949e+02
7.700000e-07	-7.267410e-07	-9.192003e-09	-5.258724e+00	-6.069058e+02
7.800000e-07	-5.769465e-07	-8.283157e-09	-4.174805e+00	-5.465678e+02
7.900000e-07	-4.269391e-07	-7.329332e-09	-3.089346e+00	-4.836252e+02
8.000000e-07	-2.767769e-07	-6.340229e-09	-2.002767e+00	-4.188509e+02
8.100000e-07	-1.264930e-07	-5.328975e-09	-9.153078e-01	-3.530184e+02
8.200000e-07	2.390836e-08	-4.312002e-09	1.730017e-01	-2.867645e+02
8.300000e-07	1.743268e-07	-3.297750e-09	1.261435e+00	-2.204742e+02
8.400000e-07	3.246568e-07	-2.287605e-09	2.349228e+00	-1.542179e+02
8.500000e-07	4.749237e-07	-1.278466e-09	3.436565e+00	-8.775569e+01
8.600000e-07	6.250892e-07	-2.629028e-10	4.523168e+00	-2.061454e+01
8.700000e-07	7.750794e-07	7.693800e-10	5.608502e+00	4.777599e+01
8.800000e-07	9.247479e-07	1.827843e-09	6.691509e+00	1.179174e+02
8.900000e-07	1.074023e-06	2.920806e-09	7.771667e+00	1.900804e+02
9.000000e-07	1.222991e-06	4.049302e-09	8.849607e+00	2.641822e+02
9.100000e-07	1.371634e-06	5.208458e-09	9.925189e+00	3.397322e+02
9.200000e-07	1.519797e-06	6.382857e-09	1.099730e+01	4.158562e+02
9.300000e-07	1.667410e-06	7.543506e-09	1.206544e+01	4.913973e+02
9.400000e-07	1.814466e-06	8.666028e-09	1.312954e+01	5.650699e+02
9.500000e-07	1.960889e-06	9.730898e-09	1.418906e+01	6.356373e+02
9.600000e-07	2.106584e-06	1.072652e-08	1.524331e+01	7.020758e+02
9.700000e-07	2.251431e-06	1.164876e-08	1.629144e+01	7.636937e+02
9.800000e-07	2.395382e-06	1.249522e-08	1.733307e+01	8.201865e+02
9.900000e-07	2.538451e-06	1.327068e-08	1.836832e+01	8.716217e+02
1.000000e-06	2.680580e-06	1.398332e-08	1.939677e+01	9.183634e+02
1.010000e-06	2.821696e-06	1.463740e-08	2.041789e+01	9.609604e+02
1.020000e-06	2.961640e-06	1.523627e-08	2.143053e+01	1.000022e+03
1.030000e-06	3.100260e-06	1.578879e-08	2.243359e+01	1.036112e+03
1.040000e-06	3.237582e-06	1.630006e-08	2.342726e+01	1.069678e+03
1.050000e-06	3.373693e-06	1.677361e-08	2.441217e+01	1.101025e+03
1.060000e-06	3.508607e-06	1.721349e-08	2.538841e+01	1.130327e+03
1.070000e-06	3.642251e-06	1.762354e-08	2.635546e+01	1.157678e+03
1.080000e-06	3.774594e-06	1.800822e-08	2.731309e+01	1.183137e+03
1.090000e-06	3.905586e-06	1.836758e-08	2.826096e+01	1.206785e+03
1.100000e-06	4.035132e-06	1.870400e-08	2.919836e+01	1.228744e+03
1.110000e-06	4.163251e-06	1.901837e-08	3.012543e+01	1.249188e+03
1.120000e-06	4.289909e-06	1.931442e-08	3.104194e+01	1.268322e+03
1.130000e-06	4.415109e-06	1.959222e-08	3.194789e+01	1.286348e+03
1.140000e-06	4.538850e-06	1.985214e-08	3.284328e+01	1.303436e+03
1.150000e-06	4.660990e-06	2.009821e-08	3.372709e+01	1.319701e+03
1.160000e-06	4.781463e-06	2.033185e-08	3.459884e+01	1.335194e+03
1.170000e-06	4.900173e-06	2.055190e-08	3.545783e+01	1.349917e+03
1.180000e-06	5.017098e-06	2.075853e-08	3.630390e+01	1.363846e+03
1.190000e-06	5.132120e-06	2.095168e-08	3.713620e+01	1.376959e+03
1.200000e-06	5.245123e-06	2.113478e-08	3.795390e+01	1.389261e+03
1.210000e-06	5.356169e-06	2.131184e-08	3.875743e+01	1.400796e+03
1.220000e-06	5.465323e-06	2.148091e-08	3.954727e+01	1.411642e+03
1.230000e-06	5.572564e-06	2.164192e-08	4.032327e+01	1.421897e+03
1.240000e-06	5.677782e-06	2.179494e-08	4.108463e+01	1.431656e+03
1.250000e-06	5.780880e-06	2.193996e-08	4.183066e+01	1.440987e+03
1.260000e-06	5.881888e-06	2.207619e-08	4.256155e+01	1.449922e+03
1.270000e-06	5.980769e-06	2.220428e-08	4.327705e+01	1.458451e+03
1.280000e-06	6.077311e-06	2.232460e-08	4.397564e+01	1.466537e+03
1.290000e-06	6.171570e-06	2.243718e-08	4.465770e+01	1.474135e+03
1.300000e-06	6.263687e-06	2.254390e-08	4.532426e+01	1.481215e+03
1.310000e-06	6.353582e-06	2.264414e-08	4.597474e+01	1.487780e+03
1.320000e-06	6.441185e-06	2.273745e-08	4.660864e+01	1.493875e+03
1.330000e-06	6.526555e-06	2.282578e-08	4.722638e+01	1.499576e+03
1.340000e-06	6.609668e-06	2.291013e-08	4.782780e+01	1.504978e+03
1.350000e-06	6.690388e-06	2.299190e-08	4.841188e+01	1.510172e+03
1.360000e-06	6.768596e-06	2.307005e-08	4.897780e+01	1.515222e+03
1.370000e-06	6.844233e-06	2.314433e-08	4.952511e+01	1.520152e+03
1.380000e-06	6.917258e-06	2.321578e-08	5.005352e+01	1.524944e+03
1.390000e-06	6.987758e-06	2.328360e-08	5.056366e+01	1.529549e+03
1.400000e-06	7.055837e-06	2.334714e-08	5.105629e+01	1.533903e+03
1.410000e-06	7.121356e-06	2.340802e-08	5.153039e+01	1.537949e+03
1.420000e-06	7.184328e-06	2.346544e-08	5.198605e+01	1.541658e+03
1.430000e-06	7.244927e-06	2.351721e-08	5.242455e+01	1.545036e+03
1.440000e-06	7.303017e-06	2.356386e-08	5.284489e+01	1.548121e+03
1.450000e-06	7.358470e-06	2.360742e-08	5.324615e+01	1.550973e+03
1.460000e-06	7.411178e-06	2.365001e-08	5.362755e+01	1.553654e+03
1.470000e-06	7.460917e-06	2.369118e-08	5.398746e+01	1.556209e+03
1.480000e-06	7.507745e-06	2.372994e-08	5.432631e+01	1.558657e+03
1.490000e-06	7.551870e-06	2.376489e-08	5.464560e+01	1.560983e+03
1.500000e-06	7.593271e-06	2.379525e-08	5.494518e+01	1.563148e+03
1.510000e-06	7.631946e-06	2.382289e-08	5.522503e+01	1.565101e+03
1.520000e-06	7.668075e-06	2.384847e-08	5.548646e+01	1.566801e+03
1.530000e-06	7.701538e-06	2.386952e-08	5.572860e+01	1.568226e+03
1.540000e-06	7.732185e-06	2.388692e-08	5.595037e+01	1.569390e+03
1.550000e-06	7.760165e-06	2.390174e-08	5.615283e+01	1.570331e+03
1.560000e-06	7.785342e-06	2.391515e-08	5.633501e+01	1.571108e+03
1.570000e-06	7.807628e-06	2.392683e-08	5.649627e+01	1.571782e+03
1.580000e-06	7.827226e-06	2.393803e-08	5.663808e+01	1.572399e+03
1.590000e-06	7.844004e-06	2.395047e-08	5.675949e+01	1.572975e+03
1.600000e-06	7.857758e-06	2.395913e-08	5.685902e+01	1.573500e+03
1.610000e-06	7.868410e-06	2.396392e-08	5.693609e+01	1.573937e+03
1.620000e-06	7.876014e-06	2.396674e-08	5.699112e+01	1.574238e+03
1.630000e-06	7.880858e-06	2.396966e-08	5.702617e+01	1.574360e+03
1.640000e-06	7.882977e-06	2.397202e-08	5.704150e+01	1.574279e+03
1.650000e-06	7.882322e-06	2.397051e-08	5.703676e+01	1.573995e+03
1.660000e-06	7.879020e-06	2.396009e-08	5.701287e+01	1.573537e+03
1.670000e-06	7.873053e-06	2.395329e-08	5.696969e+01	1.572946e+03
1.680000e-06	7.864461e-06	2.394706e-08	5.690752e+01	1.572266e+03
1.690000e-06	7.853247e-06	2.393636e-08	5.682637e+01	1.571530e+03
1.700000e-06	7.839166e-06	2.392507e-08	5.672449e+01	1.570745e+03
1.710000e-06	7.822475e-06	2.392124e-08	5.660371e+01	1.569898e+03
1.720000e-06	7.803604e-06	2.392183e-08	5.646715e+01	1.568956e+03
1.730000e-06	7.782311e-06	2.387386e-08	5.631308e+01	1.567882e+03
1.740000e-06	7.758004e-06	2.378407e-08	5.613719e+01	1.566649e+03
1.750000e-06	7.730144e-06	2.379987e-08	5.593560e+01	1.565250e+03
1.760000e-06	7.698761e-06	2.381246e-08	5.570851e+01	1.563707e+03
1.770000e-06	7.664664e-06	2.376792e-08	5.546178e+01	1.562057e+03
1.780000e-06	7.628351e-06	2.377134e-08	5.519902e+01	1.560351e+03
1.790000e-06	7.589813e-06	2.382982e-08	5.492015e+01	1.558627e+03
1.800000e-06	7.549309e-06	2.373250e-08	5.462707e+01	1.556899e+03
1.810000e-06	7.506696e-06	2.367524e-08	5.431872e+01	1.555148e+03
1.820000e-06	7.461414e-06	2.373743e-08	5.399106e+01	1.553318e+03
1.830000e-06	7.413444e-06	2.362420e-08	5.364394e+01	1.551333e+03
1.840000e-06	7.362612e-06	2.366242e-08	5.327612e+01	1.549112e+03
1.850000e-06	7.308785e-06	2.362227e-08	5.288663e+01	1.546589e+03
1.860000e-06	7.252232e-06	2.355687e-08	5.247741e+01	1.543730e+03
1.870000e-06	7.193116e-06	2.353546e-08	5.204964e+01	1.540543e+03
1.880000e-06	7.131418e-06	2.339692e-08	5.160319e+01	1.537076e+03
1.890000e-06	7.066881e-06	2.344307e-08	5.113620e+01	1.533396e+03
1.900000e-06	6.999613e-06	2.336141e-08	5.064945e+01	1.529576e+03
1.910000e-06	6.929691e-06	2.327729e-08	5.014349e+01	1.525667e+03
1.920000e-06	6.857059e-06	2.326692e-08	4.961792e+01	1.521688e+03
1.930000e-06	6.781798e-06	2.317567e-08	4.907333e+01	1.517614e+03
1.940000e-06	6.703767e-06	2.312475e-08	4.850870e+01	1.513388e+03
1.950000e-06	6.623107e-06	2.301638e-08	4.792503e+01	1.508935e+03
1.960000e-06	6.540075e-06	2.299113e-08	4.732421e+01	1.504184e+03
1.970000e-06	6.454633e-06	2.288960e-08	4.670595e+01	1.499086e+03
1.980000e-06	6.366746e-06	2.278178e-08	4.607000e+01	1.493630e+03
1.990000e-06	6.276610e-06	2.273093e-08	4.541777e+01	1.487843e+03
2.000000e-06	6.184343e-06	2.262853e-08	4.475012e+01	1.481774e+03
2.010000e-06	6.089836e-06	2.255080e-08	4.406627e+01	1.475482e+03
2.020000e-06	5.993151e-06	2.243403e-08	4.336665e+01	1.469009e+03
2.030000e-06	5.894400e-06	2.234917e-08	4.265209e+01	1.462364e+03
2.040000e-06	5.793556e-06	2.222512e-08	4.192237e+01	1.455518e+03
2.050000e-06	5.690575e-06	2.211411e-08	4.117721e+01	1.448407e+03
2.060000e-06	5.585571e-06	2.200813e-08	4.041739e+01	1.440947e+03
2.070000e-06	5.478726e-06	2.188274e-08	3.964425e+01	1.433061e+03
2.080000e-06	5.370031e-06	2.175064e-08	3.885774e+01	1.424693e+03
2.090000e-06	5.259378e-06	2.161204e-08	3.805704e+01	1.415823e+03
2.100000e-06	5.146758e-06	2.148731e-08	3.724213e+01	1.406473e+03
2.110000e-06	5.032234e-06	2.134024e-08	3.641342e+01	1.396687e+03
2.120000e-06	4.915708e-06	2.119678e-08	3.557024e+01	1.386519e+03
2.130000e-06	4.797247e-06	2.103434e-08	3.471305e+01	1.376000e+03
2.140000e-06	4.676961e-06	2.086369e-08	3.384266e+01	1.365127e+03
2.150000e-06	4.554965e-06	2.067432e-08	3.295989e+01	1.353849e+03
2.160000e-06	4.431362e-06	2.049806e-08	3.206549e+01	1.342079e+03
2.170000e-06	4.306096e-06	2.031718e-08	3.115906e+01	1.329706e+03
2.180000e-06	4.179208e-06	2.012044e-08	3.024090e+01	1.316625e+03
2.190000e-06	4.050778e-06	1.991045e-08	2.931157e+01	1.302759e+03
2.200000e-06	3.920879e-06	1.968929e-08	2.837162e+01	1.288073e+03
2.210000e-06	3.789533e-06	1.945764e-08	2.742120e+01	1.272578e+03
2.220000e-06	3.656750e-06	1.920970e-08	2.646037e+01	1.256313e+03
2.230000e-06	3.522587e-06	1.895746e-08	2.548956e+01	1.239320e+03
2.240000e-06	3.387122e-06	1.868998e-08	2.450934e+01	1.221613e+03
2.250000e-06	3.250468e-06	1.840619e-08	2.352050e+01	1.203152e+03
2.260000e-06	3.112605e-06	1.810325e-08	2.252292e+01	1.183834e+03
2.270000e-06	2.973475e-06	1.779215e-08	2.151617e+01	1.163502e+03
2.280000e-06	2.833166e-06	1.746582e-08	2.050089e+01	1.141963e+03
2.290000e-06	2.691756e-06	1.712159e-08	1.947764e+01	1.119022e+03
2.300000e-06	2.549304e-06	1.675242e-08	1.844685e+01	1.094514e+03
2.310000e-06	2.405895e-06	1.635678e-08	1.740914e+01	1.068320e+03
2.320000e-06	2.261651e-06	1.593289e-08	1.636539e+01	1.040364e+03
2.330000e-06	2.116648e-06	1.548060e-08	1.531614e+01	1.010594e+03
2.340000e-06	1.970966e-06	1.500085e-08	1.426198e+01	9.789365e+02
2.350000e-06	1.824681e-06	1.448791e-08	1.320346e+01	9.452570e+02
2.360000e-06	1.677746e-06	1.393902e-08	1.214023e+01	9.093297e+02
2.370000e-06	1.530239e-06	1.334729e-08	1.107286e+01	8.708312e+02
2.380000e-06	1.382299e-06	1.270731e-08	1.000237e+01	8.293700e+02
2.390000e-06	1.233923e-06	1.201885e-08	8.928710e+00	7.845489e+02
2.400000e-06	1.085143e-06	1.128060e-08	7.852131e+00	7.360495e+02
2.410000e-06	9.359945e-07	1.048773e-08	6.772889e+00	6.837209e+02
2.420000e-06	7.864994e-07	9.640200e-09	5.691137e+00	6.276480e+02
2.430000e-06	6.367149e-07	8.741186e-09	4.607291e+00	5.681799e+02
2.440000e-06	4.867240e-07	7.796769e-09	3.521952e+00	5.059050e+02
2.450000e-06	3.365740e-07	6.813097e-09	2.435462e+00	4.415715e+02
2.460000e-06	1.862534e-07	5.803284e-09	1.347736e+00	3.759670e+02
2.470000e-06	3.580913e-08	4.782616e-09	2.591161e-01	3.097804e+02
2.480000e-06	-1.146911e-07	3.760936e-09	-8.299090e-01	2.434781e+02
2.490000e-06	-2.651472e-07	2.744491e-09	-1.918614e+00	1.772229e+02
2.500000e-06	-4.154955e-07	1.729191e-09	-3.006540e+00	1.108587e+02
2.510000e-06	-5.657180e-07	7.084368e-10	-4.093556e+00	4.396746e+01
2.520000e-06	-7.157524e-07	-3.254000e-10	-5.179210e+00	-2.400968e+01
2.530000e-06	-8.655377e-07	-1.381747e-09	-6.263061e+00	-9.361139e+01
2.540000e-06	-1.015021e-06	-2.467835e-09	-7.344731e+00	-1.651890e+02
2.550000e-06	-1.164154e-06	-3.588023e-09	-8.423861e+00	-2.387699e+02
2.560000e-06	-1.312864e-06	-4.738562e-09	-9.499927e+00	-3.139808e+02
2.570000e-06	-1.461110e-06	-5.908054e-09	-1.057265e+01	-3.900500e+02
2.580000e-06	-1.608829e-06	-7.079384e-09	-1.164154e+01	-4.658875e+02
2.590000e-06	-1.755955e-06	-8.226395e-09	-1.270615e+01	-5.402266e+02
2.600000e-06	-1.902452e-06	-9.325299e-09	-1.376621e+01	-6.117987e+02
2.610000e-06	-2.048204e-06	-1.035748e-08	-1.482088e+01	-6.795046e+02
2.620000e-06	-2.193202e-06	-1.131319e-08	-1.587009e+01	-7.425491e+02
2.630000e-06	-2.337420e-06	-1.219263e-08	-1.691365e+01	-8.005156e+02
2.640000e-06	-2.480701e-06	-1.299888e-08	-1.795044e+01	-8.533707e+02
2.650000e-06	-2.622933e-06	-1.373914e-08	-1.897964e+01	-9.014042e+02
2.660000e-06	-2.764087e-06	-1.441937e-08	-2.000103e+01	-9.451246e+02
2.670000e-06	-2.904175e-06	-1.504435e-08	-2.101471e+01	-9.851361e+02
2.680000e-06	-3.043082e-06	-1.561754e-08	-2.201985e+01	-1.022025e+03
2.690000e-06	-3.180722e-06	-1.614226e-08	-2.301581e+01	-1.056276e+03
2.700000e-06	-3.317243e-06	-1.662610e-08	-2.400369e+01	-1.088234e+03
2.710000e-06	-3.452537e-06	-1.707693e-08	-2.498268e+01	-1.118110e+03
2.720000e-06	-3.586442e-06	-1.749763e-08	-2.595162e+01	-1.146012e+03
2.730000e-06	-3.719097e-06	-1.789202e-08	-2.691152e+01	-1.172007e+03
2.740000e-06	-3.850512e-06	-1.826129e-08	-2.786244e+01	-1.196162e+03
2.750000e-06	-3.980559e-06	-1.860376e-08	-2.880347e+01	-1.218589e+03
2.760000e-06	-4.109231e-06	-1.892374e-08	-2.973454e+01	-1.239447e+03
2.770000e-06	-4.236452e-06	-1.922603e-08	-3.065512e+01	-1.258935e+03
2.780000e-06	-4.362164e-06	-1.951148e-08	-3.156477e+01	-1.277259e+03
2.790000e-06	-4.486474e-06	-1.977983e-08	-3.246428e+01	-1.294602e+03
2.800000e-06	-4.609199e-06	-2.003178e-08	-3.335233e+01	-1.311095e+03
2.810000e-06	-4.730271e-06	-2.026988e-08	-3.422841e+01	-1.326807e+03
2.820000e-06	-4.849567e-06	-2.049747e-08	-3.509164e+01	-1.341753e+03
2.830000e-06	-4.966915e-06	-2.071384e-08	-3.594078e+01	-1.355913e+03
2.840000e-06	-5.082320e-06	-2.091918e-08	-3.677585e+01	-1.369261e+03
2.850000e-06	-5.195585e-06	-2.111227e-08	-3.759544e+01	-1.381793e+03
2.860000e-06	-5.306718e-06	-2.129271e-08	-3.839960e+01	-1.393542e+03
2.870000e-06	-5.415963e-06	-2.146134e-08	-3.919010e+01	-1.404576e+03
2.880000e-06	-5.523384e-06	-2.161898e-08	-3.996741e+01	-1.414991e+03
2.890000e-06	-5.628916e-06	-2.177115e-08	-4.073104e+01	-1.424884e+03
2.900000e-06	-5.732379e-06	-2.191808e-08	-4.147970e+01	-1.434333e+03
2.910000e-06	-5.833671e-06	-2.205773e-08	-4.221265e+01	-1.443382e+03
2.920000e-06	-5.932849e-06	-2.218943e-08	-4.293030e+01	-1.452031e+03
2.930000e-06	-6.029996e-06	-2.231236e-08	-4.363327e+01	-1.460249e+03
2.940000e-06	-6.124993e-06	-2.242941e-08	-4.432067e+01	-1.467991e+03
