# Temperatura_=_80.82
# Concentracion g/m^3_=_28200.0
# C_Vs_to_Am_M_A/Vsm_=_65563218390.804596
# pendiente_HvsI_1/m_=_3716.3
# ordenada_HvsI_A/m_=_1297.0
# frecuencia_Hz_=_302506.75986085186

Tiempo_(s)	Campo_(V.s)	Magnetizacion_(V.s)	Campo_(kA/m)	Magnetizacion_(A/m)
0.000000e+00	-7.883488e-06	-2.702709e-08	-5.684097e+01	-1.769349e+03
1.000000e-08	-7.878754e-06	-2.702110e-08	-5.680683e+01	-1.768638e+03
2.000000e-08	-7.871506e-06	-2.700773e-08	-5.675458e+01	-1.767810e+03
3.000000e-08	-7.861559e-06	-2.699716e-08	-5.668286e+01	-1.766912e+03
4.000000e-08	-7.848795e-06	-2.698493e-08	-5.659083e+01	-1.765963e+03
5.000000e-08	-7.833126e-06	-2.696236e-08	-5.647785e+01	-1.764947e+03
6.000000e-08	-7.814850e-06	-2.693381e-08	-5.634608e+01	-1.763819e+03
7.000000e-08	-7.794426e-06	-2.689357e-08	-5.619882e+01	-1.762520e+03
8.000000e-08	-7.771590e-06	-2.690590e-08	-5.603417e+01	-1.761001e+03
9.000000e-08	-7.745751e-06	-2.696582e-08	-5.584787e+01	-1.759237e+03
1.000000e-07	-7.716711e-06	-2.688496e-08	-5.563849e+01	-1.757242e+03
1.100000e-07	-7.684766e-06	-2.679685e-08	-5.540815e+01	-1.755063e+03
1.200000e-07	-7.650073e-06	-2.677889e-08	-5.515802e+01	-1.752776e+03
1.300000e-07	-7.612796e-06	-2.674637e-08	-5.488924e+01	-1.750452e+03
1.400000e-07	-7.573249e-06	-2.664608e-08	-5.460410e+01	-1.748143e+03
1.500000e-07	-7.531462e-06	-2.657264e-08	-5.430282e+01	-1.745858e+03
1.600000e-07	-7.487221e-06	-2.669450e-08	-5.398383e+01	-1.743555e+03
1.700000e-07	-7.440417e-06	-2.654940e-08	-5.364637e+01	-1.741153e+03
1.800000e-07	-7.390844e-06	-2.644402e-08	-5.328894e+01	-1.738543e+03
1.900000e-07	-7.338243e-06	-2.650242e-08	-5.290968e+01	-1.735621e+03
2.000000e-07	-7.282865e-06	-2.637305e-08	-5.251040e+01	-1.732311e+03
2.100000e-07	-7.224858e-06	-2.634873e-08	-5.209216e+01	-1.728583e+03
2.200000e-07	-7.164166e-06	-2.626316e-08	-5.165456e+01	-1.724458e+03
2.300000e-07	-7.100964e-06	-2.619764e-08	-5.119887e+01	-1.720002e+03
2.400000e-07	-7.035131e-06	-2.615815e-08	-5.072420e+01	-1.715299e+03
2.500000e-07	-6.966600e-06	-2.605185e-08	-5.023009e+01	-1.710427e+03
2.600000e-07	-6.895398e-06	-2.599790e-08	-4.971671e+01	-1.705437e+03
2.700000e-07	-6.821407e-06	-2.590111e-08	-4.918323e+01	-1.700333e+03
2.800000e-07	-6.744665e-06	-2.582465e-08	-4.862991e+01	-1.695078e+03
2.900000e-07	-6.665117e-06	-2.571639e-08	-4.805635e+01	-1.689600e+03
3.000000e-07	-6.583002e-06	-2.562114e-08	-4.746429e+01	-1.683822e+03
3.100000e-07	-6.498701e-06	-2.555538e-08	-4.685648e+01	-1.677678e+03
3.200000e-07	-6.412223e-06	-2.544640e-08	-4.623296e+01	-1.671140e+03
3.300000e-07	-6.323435e-06	-2.536926e-08	-4.559278e+01	-1.664217e+03
3.400000e-07	-6.232224e-06	-2.522784e-08	-4.493514e+01	-1.656954e+03
3.500000e-07	-6.138810e-06	-2.512130e-08	-4.426161e+01	-1.649414e+03
3.600000e-07	-6.043235e-06	-2.501834e-08	-4.357251e+01	-1.641648e+03
3.700000e-07	-5.945323e-06	-2.488466e-08	-4.286655e+01	-1.633681e+03
3.800000e-07	-5.845269e-06	-2.475886e-08	-4.214514e+01	-1.625495e+03
3.900000e-07	-5.743242e-06	-2.462929e-08	-4.140952e+01	-1.617028e+03
4.000000e-07	-5.639185e-06	-2.450052e-08	-4.065925e+01	-1.608195e+03
4.100000e-07	-5.533095e-06	-2.433553e-08	-3.989433e+01	-1.598905e+03
4.200000e-07	-5.425066e-06	-2.420192e-08	-3.911543e+01	-1.589087e+03
4.300000e-07	-5.315109e-06	-2.404717e-08	-3.832262e+01	-1.578713e+03
4.400000e-07	-5.203135e-06	-2.388322e-08	-3.751528e+01	-1.567798e+03
4.500000e-07	-5.089170e-06	-2.370751e-08	-3.669357e+01	-1.556392e+03
4.600000e-07	-4.973264e-06	-2.353068e-08	-3.585787e+01	-1.544562e+03
4.700000e-07	-4.855520e-06	-2.334190e-08	-3.500893e+01	-1.532358e+03
4.800000e-07	-4.736042e-06	-2.314017e-08	-3.414748e+01	-1.519795e+03
4.900000e-07	-4.614840e-06	-2.294769e-08	-3.327360e+01	-1.506831e+03
5.000000e-07	-4.491891e-06	-2.273886e-08	-3.238712e+01	-1.493379e+03
5.100000e-07	-4.367261e-06	-2.252150e-08	-3.148852e+01	-1.479315e+03
5.200000e-07	-4.241106e-06	-2.228813e-08	-3.057892e+01	-1.464515e+03
5.300000e-07	-4.113463e-06	-2.205304e-08	-2.965860e+01	-1.448879e+03
5.400000e-07	-3.984271e-06	-2.179798e-08	-2.872711e+01	-1.432358e+03
5.500000e-07	-3.853499e-06	-2.153227e-08	-2.778423e+01	-1.414957e+03
5.600000e-07	-3.721212e-06	-2.125540e-08	-2.683042e+01	-1.396723e+03
5.700000e-07	-3.587528e-06	-2.096640e-08	-2.586654e+01	-1.377716e+03
5.800000e-07	-3.452506e-06	-2.066485e-08	-2.489302e+01	-1.357973e+03
5.900000e-07	-3.316221e-06	-2.034888e-08	-2.391038e+01	-1.337478e+03
6.000000e-07	-3.178648e-06	-2.002563e-08	-2.291847e+01	-1.316137e+03
6.100000e-07	-3.039768e-06	-1.968172e-08	-2.191712e+01	-1.293784e+03
6.200000e-07	-2.899538e-06	-1.931873e-08	-2.090605e+01	-1.270206e+03
6.300000e-07	-2.758035e-06	-1.892946e-08	-1.988579e+01	-1.245177e+03
6.400000e-07	-2.615452e-06	-1.851788e-08	-1.885775e+01	-1.218498e+03
6.500000e-07	-2.471809e-06	-1.808227e-08	-1.782206e+01	-1.190029e+03
6.600000e-07	-2.327310e-06	-1.762431e-08	-1.678021e+01	-1.159692e+03
6.700000e-07	-2.182080e-06	-1.713868e-08	-1.573308e+01	-1.127452e+03
6.800000e-07	-2.036086e-06	-1.662144e-08	-1.468044e+01	-1.093274e+03
6.900000e-07	-1.889413e-06	-1.607436e-08	-1.362291e+01	-1.057066e+03
7.000000e-07	-1.742170e-06	-1.548462e-08	-1.256127e+01	-1.018632e+03
7.100000e-07	-1.594410e-06	-1.485584e-08	-1.149590e+01	-9.776523e+02
7.200000e-07	-1.446176e-06	-1.417669e-08	-1.042712e+01	-9.336910e+02
7.300000e-07	-1.297509e-06	-1.344191e-08	-9.355207e+00	-8.862573e+02
7.400000e-07	-1.148454e-06	-1.264852e-08	-8.280499e+00	-8.348919e+02
7.500000e-07	-9.990447e-07	-1.179926e-08	-7.203242e+00	-7.792696e+02
7.600000e-07	-8.493192e-07	-1.089532e-08	-6.123702e+00	-7.192899e+02
7.700000e-07	-6.993262e-07	-9.928891e-09	-5.042233e+00	-6.551316e+02
7.800000e-07	-5.490758e-07	-8.905513e-09	-3.958907e+00	-5.872507e+02
7.900000e-07	-3.986036e-07	-7.829184e-09	-2.873983e+00	-5.163176e+02
8.000000e-07	-2.479069e-07	-6.709322e-09	-1.787441e+00	-4.431029e+02
8.100000e-07	-9.703106e-08	-5.555383e-09	-6.996065e-01	-3.683346e+02
8.200000e-07	5.389328e-08	-4.386240e-09	3.885775e-01	-2.925616e+02
8.300000e-07	2.047902e-07	-3.213235e-09	1.476564e+00	-2.160552e+02
8.400000e-07	3.555898e-07	-2.036269e-09	2.563849e+00	-1.387774e+02
8.500000e-07	5.062869e-07	-8.497941e-10	3.650394e+00	-6.042758e+01
8.600000e-07	6.568484e-07	3.546073e-10	4.735962e+00	1.943949e+01
8.700000e-07	8.071957e-07	1.583859e-09	5.819985e+00	1.012470e+02
8.800000e-07	9.572741e-07	2.850502e-09	6.902070e+00	1.852186e+02
8.900000e-07	1.107007e-06	4.156663e-09	7.981661e+00	2.712303e+02
9.000000e-07	1.256396e-06	5.495491e-09	9.058776e+00	3.587279e+02
9.100000e-07	1.405416e-06	6.850996e-09	1.013323e+01	4.467310e+02
9.200000e-07	1.553969e-06	8.198392e-09	1.120432e+01	5.339261e+02
9.300000e-07	1.701974e-06	9.500864e-09	1.227145e+01	6.188302e+02
9.400000e-07	1.849426e-06	1.072984e-08	1.333460e+01	6.999932e+02
9.500000e-07	1.996259e-06	1.186983e-08	1.439329e+01	7.761943e+02
9.600000e-07	2.142300e-06	1.291613e-08	1.544626e+01	8.465971e+02
9.700000e-07	2.287589e-06	1.387414e-08	1.649381e+01	9.108295e+02
9.800000e-07	2.432168e-06	1.474965e-08	1.753625e+01	9.689809e+02
9.900000e-07	2.575758e-06	1.555232e-08	1.857155e+01	1.021521e+03
1.000000e-06	2.718170e-06	1.628566e-08	1.959836e+01	1.069162e+03
1.010000e-06	2.859428e-06	1.695608e-08	2.061684e+01	1.112707e+03
1.020000e-06	2.999553e-06	1.757313e-08	2.162717e+01	1.152902e+03
1.030000e-06	3.138534e-06	1.814283e-08	2.262924e+01	1.190338e+03
1.040000e-06	3.276244e-06	1.867422e-08	2.362215e+01	1.225404e+03
1.050000e-06	3.412654e-06	1.916636e-08	2.460568e+01	1.258303e+03
1.060000e-06	3.547780e-06	1.962578e-08	2.557995e+01	1.289106e+03
1.070000e-06	3.681608e-06	2.005488e-08	2.654487e+01	1.317827e+03
1.080000e-06	3.814141e-06	2.045674e-08	2.750045e+01	1.344500e+03
1.090000e-06	3.945344e-06	2.083313e-08	2.844644e+01	1.369227e+03
1.100000e-06	4.075115e-06	2.118699e-08	2.938211e+01	1.392190e+03
1.110000e-06	4.203371e-06	2.152148e-08	3.030685e+01	1.413639e+03
1.120000e-06	4.330165e-06	2.183747e-08	3.122105e+01	1.433841e+03
1.130000e-06	4.455530e-06	2.213435e-08	3.212495e+01	1.453036e+03
1.140000e-06	4.579438e-06	2.241279e-08	3.301834e+01	1.471393e+03
1.150000e-06	4.701726e-06	2.267767e-08	3.390005e+01	1.488992e+03
1.160000e-06	4.822268e-06	2.292526e-08	3.476917e+01	1.505827e+03
1.170000e-06	4.941046e-06	2.315963e-08	3.562558e+01	1.521842e+03
1.180000e-06	5.058052e-06	2.338373e-08	3.646921e+01	1.536965e+03
1.190000e-06	5.173224e-06	2.359890e-08	3.729961e+01	1.551158e+03
1.200000e-06	5.286363e-06	2.380273e-08	3.811536e+01	1.564438e+03
1.210000e-06	5.397417e-06	2.399545e-08	3.891608e+01	1.576887e+03
1.220000e-06	5.506543e-06	2.417743e-08	3.970289e+01	1.588637e+03
1.230000e-06	5.613862e-06	2.435070e-08	4.047667e+01	1.599836e+03
1.240000e-06	5.719140e-06	2.451559e-08	4.123574e+01	1.610614e+03
1.250000e-06	5.822193e-06	2.467393e-08	4.197876e+01	1.621051e+03
1.260000e-06	5.923144e-06	2.482630e-08	4.270664e+01	1.631162e+03
1.270000e-06	6.021904e-06	2.497123e-08	4.341871e+01	1.640901e+03
1.280000e-06	6.118291e-06	2.510940e-08	4.411367e+01	1.650183e+03
1.290000e-06	6.212423e-06	2.524113e-08	4.479237e+01	1.658919e+03
1.300000e-06	6.304449e-06	2.536670e-08	4.545589e+01	1.667047e+03
1.310000e-06	6.394183e-06	2.548389e-08	4.610288e+01	1.674559e+03
1.320000e-06	6.481584e-06	2.559306e-08	4.673306e+01	1.681502e+03
1.330000e-06	6.566764e-06	2.569565e-08	4.734722e+01	1.687974e+03
1.340000e-06	6.649719e-06	2.579158e-08	4.794534e+01	1.694096e+03
1.350000e-06	6.730215e-06	2.588322e-08	4.852572e+01	1.699982e+03
1.360000e-06	6.808202e-06	2.597094e-08	4.908801e+01	1.705711e+03
1.370000e-06	6.883730e-06	2.605517e-08	4.963258e+01	1.711311e+03
1.380000e-06	6.956577e-06	2.613476e-08	5.015782e+01	1.716760e+03
1.390000e-06	7.026869e-06	2.621139e-08	5.066464e+01	1.721999e+03
1.400000e-06	7.094743e-06	2.628613e-08	5.115402e+01	1.726955e+03
1.410000e-06	7.160041e-06	2.635601e-08	5.162482e+01	1.731570e+03
1.420000e-06	7.222761e-06	2.642171e-08	5.207704e+01	1.735822e+03
1.430000e-06	7.283071e-06	2.648429e-08	5.251189e+01	1.739727e+03
1.440000e-06	7.340832e-06	2.654301e-08	5.292835e+01	1.743339e+03
1.450000e-06	7.395956e-06	2.659603e-08	5.332580e+01	1.746729e+03
1.460000e-06	7.448314e-06	2.664522e-08	5.370331e+01	1.749962e+03
1.470000e-06	7.497580e-06	2.669299e-08	5.405852e+01	1.753079e+03
1.480000e-06	7.543957e-06	2.673883e-08	5.439291e+01	1.756080e+03
1.490000e-06	7.587784e-06	2.678110e-08	5.470891e+01	1.758929e+03
1.500000e-06	7.628884e-06	2.681848e-08	5.500524e+01	1.761566e+03
1.510000e-06	7.667164e-06	2.685403e-08	5.528125e+01	1.763925e+03
1.520000e-06	7.702814e-06	2.688767e-08	5.553828e+01	1.765959e+03
1.530000e-06	7.735718e-06	2.691497e-08	5.577552e+01	1.767656e+03
1.540000e-06	7.765865e-06	2.693652e-08	5.599289e+01	1.769043e+03
1.550000e-06	7.793340e-06	2.695372e-08	5.619099e+01	1.770178e+03
1.560000e-06	7.817946e-06	2.696900e-08	5.636840e+01	1.771136e+03
1.570000e-06	7.839689e-06	2.698359e-08	5.652517e+01	1.771986e+03
1.580000e-06	7.858744e-06	2.699705e-08	5.666256e+01	1.772770e+03
1.590000e-06	7.874958e-06	2.701109e-08	5.677946e+01	1.773494e+03
1.600000e-06	7.888191e-06	2.702267e-08	5.687488e+01	1.774128e+03
1.610000e-06	7.898343e-06	2.703070e-08	5.694807e+01	1.774617e+03
1.620000e-06	7.905465e-06	2.703422e-08	5.699943e+01	1.774902e+03
1.630000e-06	7.909798e-06	2.703469e-08	5.703067e+01	1.774937e+03
1.640000e-06	7.911300e-06	2.703519e-08	5.704150e+01	1.774709e+03
1.650000e-06	7.909989e-06	2.702851e-08	5.703204e+01	1.774236e+03
1.660000e-06	7.906136e-06	2.701136e-08	5.700426e+01	1.773569e+03
1.670000e-06	7.899712e-06	2.700323e-08	5.695794e+01	1.772767e+03
1.680000e-06	7.890595e-06	2.699525e-08	5.689221e+01	1.771884e+03
1.690000e-06	7.878739e-06	2.698327e-08	5.680673e+01	1.770948e+03
1.700000e-06	7.864061e-06	2.697404e-08	5.670090e+01	1.769953e+03
1.710000e-06	7.846870e-06	2.697169e-08	5.657695e+01	1.768861e+03
1.720000e-06	7.827447e-06	2.697570e-08	5.643691e+01	1.767616e+03
1.730000e-06	7.805560e-06	2.685642e-08	5.627910e+01	1.766162e+03
1.740000e-06	7.780573e-06	2.677319e-08	5.609894e+01	1.764467e+03
1.750000e-06	7.751886e-06	2.682991e-08	5.589210e+01	1.762532e+03
1.760000e-06	7.719732e-06	2.681284e-08	5.566027e+01	1.760398e+03
1.770000e-06	7.685053e-06	2.674674e-08	5.541023e+01	1.758132e+03
1.780000e-06	7.648200e-06	2.678323e-08	5.514451e+01	1.755810e+03
1.790000e-06	7.609155e-06	2.684751e-08	5.486300e+01	1.753493e+03
1.800000e-06	7.568141e-06	2.660868e-08	5.456728e+01	1.751201e+03
1.810000e-06	7.524796e-06	2.666832e-08	5.425475e+01	1.748909e+03
1.820000e-06	7.478792e-06	2.670153e-08	5.392305e+01	1.746544e+03
1.830000e-06	7.430196e-06	2.654056e-08	5.357267e+01	1.744003e+03
1.840000e-06	7.378624e-06	2.665463e-08	5.320083e+01	1.741178e+03
1.850000e-06	7.324045e-06	2.645830e-08	5.280731e+01	1.737982e+03
1.860000e-06	7.266783e-06	2.648622e-08	5.239445e+01	1.734372e+03
1.870000e-06	7.206985e-06	2.644896e-08	5.196330e+01	1.730355e+03
1.880000e-06	7.144511e-06	2.627741e-08	5.151285e+01	1.725984e+03
1.890000e-06	7.079155e-06	2.634967e-08	5.104162e+01	1.721341e+03
1.900000e-06	7.011138e-06	2.617973e-08	5.055121e+01	1.716509e+03
1.910000e-06	6.940402e-06	2.615824e-08	5.004119e+01	1.711548e+03
1.920000e-06	6.866947e-06	2.605547e-08	4.951158e+01	1.706477e+03
1.930000e-06	6.790884e-06	2.597825e-08	4.896315e+01	1.701270e+03
1.940000e-06	6.712064e-06	2.595152e-08	4.839485e+01	1.695863e+03
1.950000e-06	6.630691e-06	2.577841e-08	4.780814e+01	1.690176e+03
1.960000e-06	6.546853e-06	2.573912e-08	4.720366e+01	1.684140e+03
1.970000e-06	6.460576e-06	2.557709e-08	4.658159e+01	1.677714e+03
1.980000e-06	6.371955e-06	2.552887e-08	4.594262e+01	1.670896e+03
1.990000e-06	6.281071e-06	2.542131e-08	4.528733e+01	1.663723e+03
2.000000e-06	6.188022e-06	2.529903e-08	4.461644e+01	1.656254e+03
2.010000e-06	6.092742e-06	2.520812e-08	4.392946e+01	1.648547e+03
2.020000e-06	5.995323e-06	2.505606e-08	4.322705e+01	1.640636e+03
2.030000e-06	5.895801e-06	2.494237e-08	4.250949e+01	1.632515e+03
2.040000e-06	5.794139e-06	2.478490e-08	4.177649e+01	1.624135e+03
2.050000e-06	5.690353e-06	2.468543e-08	4.102818e+01	1.615415e+03
2.060000e-06	5.584615e-06	2.452118e-08	4.026579e+01	1.606262e+03
2.070000e-06	5.477015e-06	2.437529e-08	3.948998e+01	1.596599e+03
2.080000e-06	5.367528e-06	2.421617e-08	3.870057e+01	1.586383e+03
2.090000e-06	5.256085e-06	2.406256e-08	3.789705e+01	1.575616e+03
2.100000e-06	5.142633e-06	2.390042e-08	3.707905e+01	1.564343e+03
2.110000e-06	5.027266e-06	2.372544e-08	3.624724e+01	1.552626e+03
2.120000e-06	4.909953e-06	2.355391e-08	3.540139e+01	1.540524e+03
2.130000e-06	4.790672e-06	2.334846e-08	3.454137e+01	1.528064e+03
2.140000e-06	4.669565e-06	2.314910e-08	3.366816e+01	1.515220e+03
2.150000e-06	4.546835e-06	2.293720e-08	3.278327e+01	1.501917e+03
2.160000e-06	4.422449e-06	2.273556e-08	3.188643e+01	1.488040e+03
2.170000e-06	4.296395e-06	2.250572e-08	3.097757e+01	1.473460e+03
2.180000e-06	4.168757e-06	2.227642e-08	3.005728e+01	1.458069e+03
2.190000e-06	4.039595e-06	2.203120e-08	2.912600e+01	1.441801e+03
2.200000e-06	3.908952e-06	2.177908e-08	2.818405e+01	1.424647e+03
2.210000e-06	3.776859e-06	2.150830e-08	2.723165e+01	1.406643e+03
2.220000e-06	3.643358e-06	2.122875e-08	2.626908e+01	1.387849e+03
2.230000e-06	3.508518e-06	2.093532e-08	2.529687e+01	1.368315e+03
2.240000e-06	3.372372e-06	2.061942e-08	2.431524e+01	1.348039e+03
2.250000e-06	3.234900e-06	2.029201e-08	2.332405e+01	1.326952e+03
2.260000e-06	3.096158e-06	1.994900e-08	2.232370e+01	1.304907e+03
2.270000e-06	2.956244e-06	1.959694e-08	2.131490e+01	1.281701e+03
2.280000e-06	2.815210e-06	1.922136e-08	2.029803e+01	1.257107e+03
2.290000e-06	2.673014e-06	1.882716e-08	1.927278e+01	1.230915e+03
2.300000e-06	2.529858e-06	1.840544e-08	1.824060e+01	1.202967e+03
2.310000e-06	2.385812e-06	1.796020e-08	1.720202e+01	1.173167e+03
2.320000e-06	2.240859e-06	1.748149e-08	1.615688e+01	1.141472e+03
2.330000e-06	2.095241e-06	1.696848e-08	1.510696e+01	1.107852e+03
2.340000e-06	1.949004e-06	1.642506e-08	1.405257e+01	1.072236e+03
2.350000e-06	1.802081e-06	1.584754e-08	1.299324e+01	1.034465e+03
2.360000e-06	1.654487e-06	1.523240e-08	1.192906e+01	9.942507e+02
2.370000e-06	1.506399e-06	1.457087e-08	1.086133e+01	9.511886e+02
2.380000e-06	1.357921e-06	1.386002e-08	9.790786e+00	9.047957e+02
2.390000e-06	1.208941e-06	1.309295e-08	8.716624e+00	8.545931e+02
2.400000e-06	1.059518e-06	1.226277e-08	7.639263e+00	8.002070e+02
2.410000e-06	9.096950e-07	1.137237e-08	6.559019e+00	7.414652e+02
2.420000e-06	7.595839e-07	1.042374e-08	5.476698e+00	6.784643e+02
2.430000e-06	6.092704e-07	9.414328e-09	4.392919e+00	6.115846e+02
2.440000e-06	4.586850e-07	8.346956e-09	3.307178e+00	5.414453e+02
2.450000e-06	3.078847e-07	7.234667e-09	2.219889e+00	4.688020e+02
2.460000e-06	1.569637e-07	6.090158e-09	1.131729e+00	3.944100e+02
2.470000e-06	5.948222e-09	4.923118e-09	4.288745e-02	3.188814e+02
2.480000e-06	-1.450902e-07	3.746495e-09	-1.046119e+00	2.425736e+02
2.490000e-06	-2.960521e-07	2.566381e-09	-2.134574e+00	1.655355e+02
2.500000e-06	-4.469311e-07	1.377101e-09	-3.222431e+00	8.753244e+01
2.510000e-06	-5.976514e-07	1.706379e-10	-4.309144e+00	8.144894e+00
2.520000e-06	-7.481698e-07	-1.059737e-09	-5.394401e+00	-7.307501e+01
2.530000e-06	-8.984556e-07	-2.321255e-09	-6.477981e+00	-1.564250e+02
2.540000e-06	-1.048410e-06	-3.621104e-09	-7.559170e+00	-2.418924e+02
2.550000e-06	-1.197942e-06	-4.955339e-09	-8.637317e+00	-3.290493e+02
2.560000e-06	-1.347035e-06	-6.309450e-09	-9.712295e+00	-4.170316e+02
2.570000e-06	-1.495710e-06	-7.663610e-09	-1.078427e+01	-5.046066e+02
2.580000e-06	-1.643879e-06	-8.989396e-09	-1.185258e+01	-5.903201e+02
2.590000e-06	-1.791421e-06	-1.025648e-08	-1.291638e+01	-6.726915e+02
2.600000e-06	-1.938251e-06	-1.144313e-08	-1.397504e+01	-7.504162e+02
2.610000e-06	-2.084398e-06	-1.253748e-08	-1.502878e+01	-8.225361e+02
2.620000e-06	-2.229864e-06	-1.353693e-08	-1.607761e+01	-8.885431e+02
2.630000e-06	-2.374475e-06	-1.444689e-08	-1.712027e+01	-9.484000e+02
2.640000e-06	-2.518096e-06	-1.527696e-08	-1.815579e+01	-1.002480e+03
2.650000e-06	-2.660656e-06	-1.603699e-08	-1.918368e+01	-1.051441e+03
2.660000e-06	-2.802178e-06	-1.673344e-08	-2.020406e+01	-1.096077e+03
2.670000e-06	-2.942606e-06	-1.737449e-08	-2.121657e+01	-1.137163e+03
2.680000e-06	-3.081736e-06	-1.796803e-08	-2.221972e+01	-1.175340e+03
2.690000e-06	-3.219572e-06	-1.851666e-08	-2.321353e+01	-1.211056e+03
2.700000e-06	-3.356210e-06	-1.902253e-08	-2.419871e+01	-1.244564e+03
2.710000e-06	-3.491680e-06	-1.949277e-08	-2.517546e+01	-1.275965e+03
2.720000e-06	-3.625918e-06	-1.993351e-08	-2.614334e+01	-1.305281e+03
2.730000e-06	-3.758819e-06	-2.034577e-08	-2.710157e+01	-1.332534e+03
2.740000e-06	-3.890358e-06	-2.073253e-08	-2.804999e+01	-1.357803e+03
2.750000e-06	-4.020559e-06	-2.109485e-08	-2.898875e+01	-1.381249e+03
2.760000e-06	-4.149391e-06	-2.143228e-08	-2.991764e+01	-1.403104e+03
2.770000e-06	-4.276836e-06	-2.175112e-08	-3.083654e+01	-1.423637e+03
2.780000e-06	-4.402804e-06	-2.205519e-08	-3.174478e+01	-1.443100e+03
2.790000e-06	-4.527181e-06	-2.234361e-08	-3.264156e+01	-1.461686e+03
2.800000e-06	-4.649972e-06	-2.261498e-08	-3.352690e+01	-1.479500e+03
2.810000e-06	-4.771103e-06	-2.287018e-08	-3.440027e+01	-1.496560e+03
2.820000e-06	-4.890482e-06	-2.311273e-08	-3.526101e+01	-1.512818e+03
2.830000e-06	-5.007926e-06	-2.334402e-08	-3.610779e+01	-1.528203e+03
2.840000e-06	-5.123294e-06	-2.356626e-08	-3.693961e+01	-1.542664e+03
2.850000e-06	-5.236598e-06	-2.377929e-08	-3.775655e+01	-1.556201e+03
2.860000e-06	-5.347857e-06	-2.397924e-08	-3.855874e+01	-1.568877e+03
2.870000e-06	-5.457136e-06	-2.416537e-08	-3.934665e+01	-1.580813e+03
2.880000e-06	-5.564558e-06	-2.434202e-08	-4.012118e+01	-1.592157e+03
2.890000e-06	-5.670103e-06	-2.451042e-08	-4.088218e+01	-1.603046e+03
2.900000e-06	-5.773560e-06	-2.467111e-08	-4.162812e+01	-1.613578e+03
2.910000e-06	-5.874786e-06	-2.482564e-08	-4.235797e+01	-1.623786e+03
2.920000e-06	-5.973888e-06	-2.497389e-08	-4.307250e+01	-1.633640e+03
2.930000e-06	-6.070993e-06	-2.511545e-08	-4.377264e+01	-1.643063e+03
2.940000e-06	-6.165907e-06	-2.524821e-08	-4.445699e+01	-1.651965e+03
