# Temperatura_=_83.81
# Concentracion g/m^3_=_28200.0
# C_Vs_to_Am_M_A/Vsm_=_65563218390.804596
# pendiente_HvsI_1/m_=_3716.3
# ordenada_HvsI_A/m_=_1297.0
# frecuencia_Hz_=_302503.8462012801

Tiempo_(s)	Campo_(V.s)	Magnetizacion_(V.s)	Campo_(kA/m)	Magnetizacion_(A/m)
0.000000e+00	-7.863890e-06	-2.864826e-08	-5.684778e+01	-1.877209e+03
1.000000e-08	-7.859519e-06	-2.864410e-08	-5.681618e+01	-1.876468e+03
2.000000e-08	-7.852623e-06	-2.863281e-08	-5.676633e+01	-1.875596e+03
3.000000e-08	-7.843037e-06	-2.862026e-08	-5.669704e+01	-1.874644e+03
4.000000e-08	-7.830648e-06	-2.860561e-08	-5.660748e+01	-1.873631e+03
5.000000e-08	-7.815362e-06	-2.858519e-08	-5.649697e+01	-1.872544e+03
6.000000e-08	-7.797415e-06	-2.855681e-08	-5.636724e+01	-1.871336e+03
7.000000e-08	-7.777298e-06	-2.852195e-08	-5.622182e+01	-1.869951e+03
8.000000e-08	-7.754821e-06	-2.850609e-08	-5.605932e+01	-1.868334e+03
9.000000e-08	-7.729381e-06	-2.855400e-08	-5.587542e+01	-1.866462e+03
1.000000e-07	-7.700777e-06	-2.851526e-08	-5.566865e+01	-1.864345e+03
1.100000e-07	-7.669218e-06	-2.842425e-08	-5.544051e+01	-1.862033e+03
1.200000e-07	-7.634831e-06	-2.838609e-08	-5.519192e+01	-1.859597e+03
1.300000e-07	-7.597874e-06	-2.835027e-08	-5.492477e+01	-1.857113e+03
1.400000e-07	-7.558707e-06	-2.826802e-08	-5.464162e+01	-1.854632e+03
1.500000e-07	-7.517361e-06	-2.818540e-08	-5.434274e+01	-1.852163e+03
1.600000e-07	-7.473584e-06	-2.824398e-08	-5.402627e+01	-1.849667e+03
1.700000e-07	-7.427214e-06	-2.818363e-08	-5.369107e+01	-1.847059e+03
1.800000e-07	-7.378165e-06	-2.805347e-08	-5.333650e+01	-1.844234e+03
1.900000e-07	-7.326228e-06	-2.808295e-08	-5.296105e+01	-1.841087e+03
2.000000e-07	-7.271464e-06	-2.799400e-08	-5.256515e+01	-1.837542e+03
2.100000e-07	-7.214006e-06	-2.791064e-08	-5.214980e+01	-1.833573e+03
2.200000e-07	-7.153827e-06	-2.785816e-08	-5.171476e+01	-1.829203e+03
2.300000e-07	-7.091055e-06	-2.777307e-08	-5.126099e+01	-1.824499e+03
2.400000e-07	-7.025647e-06	-2.774233e-08	-5.078815e+01	-1.819545e+03
2.500000e-07	-6.957549e-06	-2.764164e-08	-5.029588e+01	-1.814417e+03
2.600000e-07	-6.886821e-06	-2.757741e-08	-4.978459e+01	-1.809161e+03
2.700000e-07	-6.813314e-06	-2.748296e-08	-4.925320e+01	-1.803773e+03
2.800000e-07	-6.737049e-06	-2.738465e-08	-4.870189e+01	-1.798205e+03
2.900000e-07	-6.658102e-06	-2.728580e-08	-4.813118e+01	-1.792378e+03
3.000000e-07	-6.576575e-06	-2.717834e-08	-4.754183e+01	-1.786206e+03
3.100000e-07	-6.492750e-06	-2.710950e-08	-4.693586e+01	-1.779626e+03
3.200000e-07	-6.406711e-06	-2.699620e-08	-4.631389e+01	-1.772610e+03
3.300000e-07	-6.318371e-06	-2.689419e-08	-4.567528e+01	-1.765180e+03
3.400000e-07	-6.227672e-06	-2.676063e-08	-4.501962e+01	-1.757394e+03
3.500000e-07	-6.134738e-06	-2.664178e-08	-4.434780e+01	-1.749328e+03
3.600000e-07	-6.039609e-06	-2.653406e-08	-4.366012e+01	-1.741045e+03
3.700000e-07	-5.942254e-06	-2.639864e-08	-4.295635e+01	-1.732576e+03
3.800000e-07	-5.842746e-06	-2.626284e-08	-4.223700e+01	-1.723901e+03
3.900000e-07	-5.741158e-06	-2.612138e-08	-4.150263e+01	-1.714950e+03
4.000000e-07	-5.637551e-06	-2.597908e-08	-4.075366e+01	-1.705621e+03
4.100000e-07	-5.531922e-06	-2.581366e-08	-3.999007e+01	-1.695806e+03
4.200000e-07	-5.424333e-06	-2.566311e-08	-3.921231e+01	-1.685420e+03
4.300000e-07	-5.314853e-06	-2.550496e-08	-3.842089e+01	-1.674423e+03
4.400000e-07	-5.203452e-06	-2.533188e-08	-3.761557e+01	-1.662828e+03
4.500000e-07	-5.090115e-06	-2.514842e-08	-3.679626e+01	-1.650693e+03
4.600000e-07	-4.974806e-06	-2.496165e-08	-3.596269e+01	-1.638094e+03
4.700000e-07	-4.857543e-06	-2.476412e-08	-3.511501e+01	-1.625100e+03
4.800000e-07	-4.738488e-06	-2.455401e-08	-3.425436e+01	-1.611736e+03
4.900000e-07	-4.617747e-06	-2.434402e-08	-3.338153e+01	-1.597972e+03
5.000000e-07	-4.495299e-06	-2.412386e-08	-3.249636e+01	-1.583719e+03
5.100000e-07	-4.371170e-06	-2.389162e-08	-3.159903e+01	-1.568847e+03
5.200000e-07	-4.245526e-06	-2.364634e-08	-3.069076e+01	-1.553217e+03
5.300000e-07	-4.118354e-06	-2.339686e-08	-2.977144e+01	-1.536712e+03
5.400000e-07	-3.989646e-06	-2.313013e-08	-2.884101e+01	-1.519267e+03
5.500000e-07	-3.859419e-06	-2.285117e-08	-2.789961e+01	-1.500876e+03
5.600000e-07	-3.727659e-06	-2.256056e-08	-2.694711e+01	-1.481582e+03
5.700000e-07	-3.594488e-06	-2.225812e-08	-2.598443e+01	-1.461450e+03
5.800000e-07	-3.459985e-06	-2.193863e-08	-2.501211e+01	-1.440528e+03
5.900000e-07	-3.324199e-06	-2.160353e-08	-2.403052e+01	-1.418807e+03
6.000000e-07	-3.187136e-06	-2.125554e-08	-2.303970e+01	-1.396204e+03
6.100000e-07	-3.048777e-06	-2.089148e-08	-2.203950e+01	-1.372554e+03
6.200000e-07	-2.909078e-06	-2.050970e-08	-2.102962e+01	-1.347638e+03
6.300000e-07	-2.768138e-06	-2.010110e-08	-2.001077e+01	-1.321217e+03
6.400000e-07	-2.626106e-06	-1.966795e-08	-1.898402e+01	-1.293073e+03
6.500000e-07	-2.483043e-06	-1.920737e-08	-1.794983e+01	-1.263047e+03
6.600000e-07	-2.339036e-06	-1.872407e-08	-1.690881e+01	-1.231048e+03
6.700000e-07	-2.194208e-06	-1.821213e-08	-1.586185e+01	-1.197031e+03
6.800000e-07	-2.048663e-06	-1.766890e-08	-1.480971e+01	-1.160957e+03
6.900000e-07	-1.902439e-06	-1.709421e-08	-1.375267e+01	-1.122738e+03
7.000000e-07	-1.755572e-06	-1.647658e-08	-1.269097e+01	-1.082181e+03
7.100000e-07	-1.608111e-06	-1.581279e-08	-1.162498e+01	-1.038962e+03
7.200000e-07	-1.460155e-06	-1.509569e-08	-1.055541e+01	-9.926345e+02
7.300000e-07	-1.311831e-06	-1.432014e-08	-9.483181e+00	-9.426869e+02
7.400000e-07	-1.163150e-06	-1.348486e-08	-8.408371e+00	-8.886293e+02
7.500000e-07	-1.014147e-06	-1.259370e-08	-7.331232e+00	-8.301023e+02
7.600000e-07	-8.647944e-07	-1.164373e-08	-6.251568e+00	-7.669743e+02
7.700000e-07	-7.150848e-07	-1.062876e-08	-5.169323e+00	-6.994039e+02
7.800000e-07	-5.651263e-07	-9.549477e-09	-4.085278e+00	-6.278441e+02
7.900000e-07	-4.149432e-07	-8.410603e-09	-2.999610e+00	-5.529824e+02
8.000000e-07	-2.646313e-07	-7.223283e-09	-1.913010e+00	-4.756248e+02
8.100000e-07	-1.142236e-07	-6.002950e-09	-8.257182e-01	-3.965471e+02
8.200000e-07	3.634204e-08	-4.767981e-09	2.627153e-01	-3.163485e+02
8.300000e-07	1.870093e-07	-3.527706e-09	1.351884e+00	-2.353427e+02
8.400000e-07	3.376374e-07	-2.280664e-09	2.440769e+00	-1.535166e+02
8.500000e-07	4.881557e-07	-1.021462e-09	3.528861e+00	-7.057199e+01
8.600000e-07	6.385309e-07	2.542963e-10	4.615918e+00	1.395601e+01
8.700000e-07	7.886898e-07	1.555035e-09	5.701411e+00	1.005260e+02
8.800000e-07	9.385552e-07	2.894145e-09	6.784782e+00	1.894013e+02
8.900000e-07	1.088078e-06	4.277555e-09	7.865674e+00	2.804890e+02
9.000000e-07	1.237204e-06	5.696192e-09	8.943707e+00	3.732434e+02
9.100000e-07	1.385895e-06	7.135116e-09	1.001859e+01	4.666621e+02
9.200000e-07	1.534213e-06	8.569850e-09	1.109077e+01	5.593753e+02
9.300000e-07	1.682053e-06	9.959445e-09	1.215950e+01	6.498139e+02
9.400000e-07	1.829245e-06	1.127213e-08	1.322355e+01	7.364222e+02
9.500000e-07	1.975733e-06	1.249150e-08	1.428250e+01	8.178695e+02
9.600000e-07	2.121459e-06	1.361376e-08	1.533595e+01	8.932206e+02
9.700000e-07	2.266415e-06	1.464193e-08	1.638384e+01	9.620301e+02
9.800000e-07	2.410528e-06	1.558042e-08	1.742562e+01	1.024348e+03
9.900000e-07	2.553786e-06	1.643848e-08	1.846123e+01	1.080639e+03
1.000000e-06	2.696057e-06	1.722288e-08	1.948970e+01	1.131647e+03
1.010000e-06	2.837160e-06	1.794094e-08	2.050973e+01	1.178223e+03
1.020000e-06	2.977094e-06	1.860072e-08	2.152131e+01	1.221173e+03
1.030000e-06	3.115760e-06	1.921277e-08	2.252372e+01	1.261144e+03
1.040000e-06	3.253128e-06	1.978254e-08	2.351675e+01	1.298572e+03
1.050000e-06	3.389255e-06	2.031195e-08	2.450081e+01	1.333684e+03
1.060000e-06	3.524104e-06	2.080278e-08	2.547562e+01	1.366560e+03
1.070000e-06	3.657686e-06	2.125757e-08	2.644128e+01	1.397212e+03
1.080000e-06	3.790099e-06	2.168438e-08	2.739849e+01	1.425666e+03
1.090000e-06	3.921152e-06	2.208378e-08	2.834587e+01	1.452016e+03
1.100000e-06	4.050679e-06	2.245924e-08	2.928222e+01	1.476448e+03
1.110000e-06	4.178800e-06	2.281492e-08	3.020840e+01	1.499224e+03
1.120000e-06	4.305495e-06	2.315170e-08	3.112427e+01	1.520636e+03
1.130000e-06	4.430705e-06	2.346860e-08	3.202941e+01	1.540955e+03
1.140000e-06	4.554421e-06	2.376652e-08	3.292375e+01	1.560378e+03
1.150000e-06	4.676463e-06	2.404666e-08	3.380598e+01	1.579009e+03
1.160000e-06	4.796772e-06	2.431057e-08	3.467570e+01	1.596859e+03
1.170000e-06	4.915409e-06	2.456066e-08	3.553332e+01	1.613869e+03
1.180000e-06	5.032335e-06	2.479837e-08	3.637857e+01	1.629964e+03
1.190000e-06	5.147311e-06	2.502611e-08	3.720973e+01	1.645087e+03
1.200000e-06	5.260210e-06	2.524354e-08	3.802587e+01	1.659241e+03
1.210000e-06	5.371180e-06	2.544816e-08	3.882807e+01	1.672496e+03
1.220000e-06	5.480310e-06	2.564148e-08	3.961697e+01	1.684980e+03
1.230000e-06	5.587518e-06	2.582722e-08	4.039197e+01	1.696846e+03
1.240000e-06	5.692623e-06	2.600393e-08	4.115177e+01	1.708238e+03
1.250000e-06	5.795628e-06	2.617141e-08	4.189639e+01	1.719254e+03
1.260000e-06	5.896617e-06	2.633053e-08	4.262643e+01	1.729928e+03
1.270000e-06	5.995450e-06	2.648181e-08	4.334089e+01	1.740229e+03
1.280000e-06	6.091962e-06	2.662693e-08	4.403858e+01	1.750080e+03
1.290000e-06	6.186183e-06	2.676630e-08	4.471970e+01	1.759392e+03
1.300000e-06	6.278171e-06	2.690042e-08	4.538467e+01	1.768095e+03
1.310000e-06	6.367882e-06	2.702868e-08	4.603319e+01	1.776167e+03
1.320000e-06	6.455291e-06	2.714820e-08	4.666507e+01	1.783642e+03
1.330000e-06	6.540521e-06	2.725901e-08	4.728119e+01	1.790606e+03
1.340000e-06	6.623464e-06	2.736419e-08	4.788079e+01	1.797171e+03
1.350000e-06	6.703963e-06	2.746428e-08	4.846271e+01	1.803450e+03
1.360000e-06	6.782059e-06	2.755673e-08	4.902726e+01	1.809525e+03
1.370000e-06	6.857622e-06	2.764409e-08	4.957351e+01	1.815432e+03
1.380000e-06	6.930533e-06	2.772832e-08	5.010058e+01	1.821159e+03
1.390000e-06	7.000895e-06	2.780917e-08	5.060922e+01	1.826657e+03
1.400000e-06	7.068823e-06	2.788634e-08	5.110027e+01	1.831862e+03
1.410000e-06	7.134178e-06	2.796022e-08	5.157272e+01	1.836722e+03
1.420000e-06	7.196984e-06	2.803144e-08	5.202674e+01	1.841218e+03
1.430000e-06	7.257418e-06	2.809824e-08	5.246362e+01	1.845367e+03
1.440000e-06	7.315316e-06	2.815925e-08	5.288216e+01	1.849224e+03
1.450000e-06	7.370587e-06	2.821714e-08	5.328171e+01	1.852856e+03
1.460000e-06	7.423152e-06	2.827245e-08	5.366170e+01	1.856329e+03
1.470000e-06	7.472735e-06	2.832415e-08	5.402014e+01	1.859679e+03
1.480000e-06	7.519387e-06	2.837322e-08	5.435738e+01	1.862905e+03
1.490000e-06	7.563382e-06	2.841887e-08	5.467542e+01	1.865968e+03
1.500000e-06	7.604693e-06	2.846098e-08	5.497406e+01	1.868802e+03
1.510000e-06	7.643245e-06	2.849838e-08	5.525275e+01	1.871339e+03
1.520000e-06	7.679182e-06	2.853188e-08	5.551254e+01	1.873529e+03
1.530000e-06	7.712400e-06	2.856124e-08	5.575267e+01	1.875358e+03
1.540000e-06	7.742815e-06	2.858621e-08	5.597254e+01	1.876851e+03
1.550000e-06	7.770521e-06	2.860737e-08	5.617282e+01	1.878070e+03
1.560000e-06	7.795318e-06	2.862669e-08	5.635208e+01	1.879093e+03
1.570000e-06	7.817255e-06	2.864392e-08	5.651066e+01	1.879993e+03
1.580000e-06	7.836534e-06	2.865812e-08	5.665002e+01	1.880816e+03
1.590000e-06	7.852980e-06	2.867158e-08	5.676892e+01	1.881574e+03
1.600000e-06	7.866439e-06	2.868075e-08	5.686621e+01	1.882237e+03
1.610000e-06	7.876811e-06	2.868563e-08	5.694119e+01	1.882751e+03
1.620000e-06	7.884183e-06	2.868942e-08	5.699448e+01	1.883054e+03
1.630000e-06	7.888813e-06	2.869284e-08	5.702795e+01	1.883100e+03
1.640000e-06	7.890687e-06	2.869474e-08	5.704150e+01	1.882871e+03
1.650000e-06	7.889776e-06	2.869077e-08	5.703491e+01	1.882386e+03
1.660000e-06	7.886248e-06	2.867531e-08	5.700941e+01	1.881692e+03
1.670000e-06	7.880086e-06	2.866721e-08	5.696487e+01	1.880850e+03
1.680000e-06	7.871245e-06	2.865861e-08	5.690096e+01	1.879916e+03
1.690000e-06	7.859698e-06	2.864317e-08	5.681748e+01	1.878919e+03
1.700000e-06	7.845321e-06	2.862690e-08	5.671355e+01	1.877854e+03
1.710000e-06	7.828359e-06	2.861674e-08	5.659093e+01	1.876685e+03
1.720000e-06	7.809201e-06	2.861208e-08	5.645244e+01	1.875355e+03
1.730000e-06	7.787718e-06	2.854519e-08	5.629714e+01	1.873807e+03
1.740000e-06	7.763213e-06	2.843547e-08	5.611999e+01	1.872007e+03
1.750000e-06	7.735049e-06	2.845497e-08	5.591639e+01	1.869955e+03
1.760000e-06	7.703369e-06	2.846058e-08	5.568738e+01	1.867690e+03
1.770000e-06	7.669038e-06	2.840387e-08	5.543920e+01	1.865280e+03
1.780000e-06	7.632542e-06	2.840107e-08	5.517538e+01	1.862802e+03
1.790000e-06	7.593847e-06	2.845904e-08	5.489565e+01	1.860315e+03
1.800000e-06	7.553182e-06	2.832432e-08	5.460168e+01	1.857843e+03
1.810000e-06	7.510290e-06	2.827070e-08	5.429162e+01	1.855360e+03
1.820000e-06	7.464688e-06	2.835285e-08	5.396196e+01	1.852793e+03
1.830000e-06	7.416459e-06	2.820043e-08	5.361332e+01	1.850040e+03
1.840000e-06	7.365335e-06	2.823746e-08	5.324374e+01	1.846992e+03
1.850000e-06	7.311238e-06	2.815088e-08	5.285268e+01	1.843565e+03
1.860000e-06	7.254470e-06	2.808152e-08	5.244230e+01	1.839715e+03
1.870000e-06	7.195109e-06	2.808630e-08	5.201319e+01	1.835453e+03
1.880000e-06	7.133148e-06	2.790184e-08	5.156527e+01	1.830834e+03
1.890000e-06	7.068355e-06	2.791797e-08	5.109689e+01	1.825941e+03
1.900000e-06	7.000812e-06	2.780718e-08	5.060862e+01	1.820855e+03
1.910000e-06	6.930597e-06	2.772694e-08	5.010104e+01	1.815632e+03
1.920000e-06	6.857595e-06	2.768370e-08	4.957331e+01	1.810283e+03
1.930000e-06	6.781957e-06	2.756334e-08	4.902652e+01	1.804772e+03
1.940000e-06	6.703623e-06	2.753102e-08	4.846025e+01	1.799026e+03
1.950000e-06	6.622705e-06	2.736544e-08	4.787530e+01	1.792960e+03
1.960000e-06	6.539396e-06	2.728440e-08	4.727306e+01	1.786499e+03
1.970000e-06	6.453675e-06	2.716793e-08	4.665339e+01	1.779606e+03
1.980000e-06	6.365556e-06	2.706739e-08	4.601638e+01	1.772288e+03
1.990000e-06	6.275136e-06	2.698480e-08	4.536273e+01	1.764595e+03
2.000000e-06	6.182577e-06	2.683372e-08	4.469363e+01	1.756600e+03
2.010000e-06	6.087844e-06	2.673743e-08	4.400881e+01	1.748372e+03
2.020000e-06	5.990922e-06	2.658155e-08	4.330816e+01	1.739955e+03
2.030000e-06	5.891841e-06	2.645658e-08	4.259191e+01	1.731342e+03
2.040000e-06	5.790644e-06	2.630654e-08	4.186036e+01	1.722478e+03
2.050000e-06	5.687321e-06	2.617959e-08	4.111344e+01	1.713266e+03
2.060000e-06	5.582009e-06	2.602565e-08	4.035214e+01	1.703599e+03
2.070000e-06	5.474859e-06	2.585304e-08	3.957756e+01	1.693381e+03
2.080000e-06	5.365826e-06	2.569468e-08	3.878936e+01	1.682558e+03
2.090000e-06	5.254795e-06	2.552193e-08	3.798673e+01	1.671128e+03
2.100000e-06	5.141779e-06	2.535515e-08	3.716974e+01	1.659138e+03
2.110000e-06	5.026927e-06	2.516324e-08	3.633948e+01	1.646662e+03
2.120000e-06	4.910197e-06	2.497909e-08	3.549564e+01	1.633775e+03
2.130000e-06	4.791529e-06	2.476318e-08	3.463779e+01	1.620515e+03
2.140000e-06	4.670981e-06	2.454596e-08	3.376635e+01	1.606871e+03
2.150000e-06	4.548734e-06	2.432212e-08	3.288264e+01	1.592768e+03
2.160000e-06	4.424823e-06	2.410465e-08	3.198689e+01	1.578086e+03
2.170000e-06	4.299279e-06	2.387274e-08	3.107934e+01	1.562684e+03
2.180000e-06	4.172154e-06	2.362720e-08	3.016036e+01	1.546437e+03
2.190000e-06	4.043460e-06	2.336901e-08	2.923003e+01	1.529262e+03
2.200000e-06	3.913302e-06	2.309456e-08	2.828912e+01	1.511137e+03
2.210000e-06	3.781708e-06	2.280881e-08	2.733783e+01	1.492093e+03
2.220000e-06	3.648745e-06	2.250873e-08	2.637665e+01	1.472192e+03
2.230000e-06	3.514413e-06	2.220011e-08	2.540556e+01	1.451492e+03
2.240000e-06	3.378747e-06	2.186979e-08	2.442484e+01	1.430003e+03
2.250000e-06	3.241829e-06	2.152500e-08	2.343507e+01	1.407664e+03
2.260000e-06	3.103640e-06	2.116113e-08	2.243611e+01	1.384332e+03
2.270000e-06	2.964223e-06	2.078535e-08	2.142827e+01	1.359801e+03
2.280000e-06	2.823655e-06	2.038787e-08	2.041210e+01	1.333832e+03
2.290000e-06	2.682033e-06	1.996956e-08	1.938832e+01	1.306198e+03
2.300000e-06	2.539353e-06	1.952575e-08	1.835689e+01	1.276720e+03
2.310000e-06	2.395664e-06	1.905411e-08	1.731817e+01	1.245289e+03
2.320000e-06	2.251177e-06	1.854779e-08	1.627368e+01	1.211850e+03
2.330000e-06	2.106017e-06	1.800610e-08	1.522432e+01	1.176369e+03
2.340000e-06	1.960173e-06	1.743306e-08	1.417002e+01	1.138776e+03
2.350000e-06	1.813602e-06	1.682293e-08	1.311046e+01	1.098912e+03
2.360000e-06	1.666397e-06	1.617191e-08	1.204633e+01	1.056493e+03
2.370000e-06	1.518724e-06	1.547425e-08	1.097880e+01	1.011102e+03
2.380000e-06	1.370594e-06	1.472280e-08	9.907978e+00	9.622405e+02
2.390000e-06	1.221998e-06	1.391184e-08	8.833781e+00	9.094000e+02
2.400000e-06	1.073008e-06	1.303734e-08	7.756736e+00	8.521734e+02
2.410000e-06	9.237067e-07	1.210001e-08	6.677443e+00	7.903555e+02
2.420000e-06	7.741764e-07	1.110160e-08	5.596494e+00	7.240189e+02
2.430000e-06	6.244472e-07	1.004041e-08	4.514107e+00	6.535357e+02
2.440000e-06	4.744758e-07	8.920248e-09	3.429968e+00	5.795361e+02
2.450000e-06	3.242635e-07	7.747185e-09	2.344089e+00	5.028067e+02
2.460000e-06	1.739319e-07	6.535699e-09	1.257347e+00	4.241475e+02
2.470000e-06	2.355587e-08	5.300657e-09	1.702845e-01	3.442217e+02
2.480000e-06	-1.268535e-07	4.054631e-09	-9.170198e-01	2.634320e+02
2.490000e-06	-2.773020e-07	2.803855e-09	-2.004607e+00	1.818583e+02
2.500000e-06	-4.276975e-07	1.542904e-09	-3.091810e+00	9.927475e+01
2.510000e-06	-5.778733e-07	2.651890e-10	-4.177425e+00	1.524821e+01
2.520000e-06	-7.278124e-07	-1.037284e-09	-5.261330e+00	-7.070106e+01
2.530000e-06	-8.775544e-07	-2.371932e-09	-6.343810e+00	-1.589107e+02
2.540000e-06	-1.027116e-06	-3.745048e-09	-7.424988e+00	-2.494028e+02
2.550000e-06	-1.176426e-06	-5.155286e-09	-8.504341e+00	-3.417658e+02
2.560000e-06	-1.325350e-06	-6.588778e-09	-9.580908e+00	-4.351226e+02
2.570000e-06	-1.473757e-06	-8.026656e-09	-1.065374e+01	-5.281941e+02
2.580000e-06	-1.621604e-06	-9.439205e-09	-1.172252e+01	-6.194476e+02
2.590000e-06	-1.768880e-06	-1.079368e-08	-1.278717e+01	-7.073011e+02
2.600000e-06	-1.915511e-06	-1.206440e-08	-1.384716e+01	-7.903399e+02
2.610000e-06	-2.061379e-06	-1.323458e-08	-1.490163e+01	-8.675021e+02
2.620000e-06	-2.206473e-06	-1.430302e-08	-1.595051e+01	-9.381979e+02
2.630000e-06	-2.350866e-06	-1.527604e-08	-1.699433e+01	-1.002340e+03
2.640000e-06	-2.494323e-06	-1.616291e-08	-1.803138e+01	-1.060288e+03
2.650000e-06	-2.636639e-06	-1.697495e-08	-1.906017e+01	-1.112722e+03
2.660000e-06	-2.777835e-06	-1.771996e-08	-2.008087e+01	-1.160479e+03
2.670000e-06	-2.917910e-06	-1.840534e-08	-2.109347e+01	-1.204392e+03
2.680000e-06	-3.056841e-06	-1.903792e-08	-2.209780e+01	-1.245162e+03
2.690000e-06	-3.194596e-06	-1.962415e-08	-2.309362e+01	-1.283286e+03
2.700000e-06	-3.331164e-06	-2.016797e-08	-2.408087e+01	-1.319048e+03
2.710000e-06	-3.466453e-06	-2.067181e-08	-2.505887e+01	-1.352562e+03
2.720000e-06	-3.600391e-06	-2.114040e-08	-2.602710e+01	-1.383851e+03
2.730000e-06	-3.733063e-06	-2.157818e-08	-2.698618e+01	-1.412928e+03
2.740000e-06	-3.864447e-06	-2.198778e-08	-2.793595e+01	-1.439866e+03
2.750000e-06	-3.994489e-06	-2.237173e-08	-2.887602e+01	-1.464824e+03
2.760000e-06	-4.123222e-06	-2.273258e-08	-2.980663e+01	-1.488045e+03
2.770000e-06	-4.250482e-06	-2.307234e-08	-3.072658e+01	-1.509819e+03
2.780000e-06	-4.376201e-06	-2.339337e-08	-3.163540e+01	-1.530427e+03
2.790000e-06	-4.500500e-06	-2.369781e-08	-3.253395e+01	-1.550093e+03
2.800000e-06	-4.623219e-06	-2.398576e-08	-3.342109e+01	-1.568947e+03
2.810000e-06	-4.744250e-06	-2.425586e-08	-3.429601e+01	-1.587025e+03
2.820000e-06	-4.863506e-06	-2.451170e-08	-3.515811e+01	-1.604285e+03
2.830000e-06	-4.980797e-06	-2.475564e-08	-3.600600e+01	-1.620650e+03
2.840000e-06	-5.096079e-06	-2.498916e-08	-3.683937e+01	-1.636055e+03
2.850000e-06	-5.209340e-06	-2.521307e-08	-3.765814e+01	-1.650484e+03
2.860000e-06	-5.320582e-06	-2.542539e-08	-3.846230e+01	-1.663986e+03
2.870000e-06	-5.429861e-06	-2.562515e-08	-3.925227e+01	-1.676676e+03
2.880000e-06	-5.537274e-06	-2.581376e-08	-4.002876e+01	-1.688705e+03
2.890000e-06	-5.642823e-06	-2.599246e-08	-4.079177e+01	-1.700221e+03
2.900000e-06	-5.746280e-06	-2.616343e-08	-4.153966e+01	-1.711340e+03
2.910000e-06	-5.847500e-06	-2.632842e-08	-4.227137e+01	-1.722114e+03
2.920000e-06	-5.946597e-06	-2.648477e-08	-4.298774e+01	-1.732529e+03
2.930000e-06	-6.043657e-06	-2.663365e-08	-4.368938e+01	-1.742519e+03
2.940000e-06	-6.138541e-06	-2.677418e-08	-4.437529e+01	-1.751995e+03
