# Temperatura_=_65.29
# Concentracion g/m^3_=_28200.0
# C_Vs_to_Am_M_A/Vsm_=_65563218390.804596
# pendiente_HvsI_1/m_=_3716.3
# ordenada_HvsI_A/m_=_1297.0
# frecuencia_Hz_=_302507.7667072423

Tiempo_(s)	Campo_(V.s)	Magnetizacion_(V.s)	Campo_(kA/m)	Magnetizacion_(A/m)
0.000000e+00	-7.886016e-06	-2.570729e-08	-5.684098e+01	-1.683699e+03
1.000000e-08	-7.881794e-06	-2.570542e-08	-5.681054e+01	-1.683050e+03
2.000000e-08	-7.875039e-06	-2.569596e-08	-5.676186e+01	-1.682267e+03
3.000000e-08	-7.865566e-06	-2.568498e-08	-5.669358e+01	-1.681412e+03
4.000000e-08	-7.853247e-06	-2.567222e-08	-5.660479e+01	-1.680525e+03
5.000000e-08	-7.837986e-06	-2.565349e-08	-5.649479e+01	-1.679606e+03
6.000000e-08	-7.820040e-06	-2.562898e-08	-5.636544e+01	-1.678622e+03
7.000000e-08	-7.799930e-06	-2.559682e-08	-5.622049e+01	-1.677515e+03
8.000000e-08	-7.777524e-06	-2.558882e-08	-5.605899e+01	-1.676225e+03
9.000000e-08	-7.752155e-06	-2.564413e-08	-5.587614e+01	-1.674713e+03
1.000000e-07	-7.723562e-06	-2.560401e-08	-5.567004e+01	-1.672971e+03
1.100000e-07	-7.692111e-06	-2.552104e-08	-5.544335e+01	-1.671033e+03
1.200000e-07	-7.657897e-06	-2.549328e-08	-5.519674e+01	-1.668962e+03
1.300000e-07	-7.621041e-06	-2.546521e-08	-5.493109e+01	-1.666836e+03
1.400000e-07	-7.581894e-06	-2.539041e-08	-5.464892e+01	-1.664716e+03
1.500000e-07	-7.540523e-06	-2.530766e-08	-5.435073e+01	-1.662632e+03
1.600000e-07	-7.496783e-06	-2.537860e-08	-5.403546e+01	-1.660564e+03
1.700000e-07	-7.450426e-06	-2.531310e-08	-5.370132e+01	-1.658447e+03
1.800000e-07	-7.401289e-06	-2.519371e-08	-5.334715e+01	-1.656182e+03
1.900000e-07	-7.349216e-06	-2.524705e-08	-5.297182e+01	-1.653664e+03
2.000000e-07	-7.294301e-06	-2.517098e-08	-5.257601e+01	-1.650804e+03
2.100000e-07	-7.236748e-06	-2.512014e-08	-5.216117e+01	-1.647554e+03
2.200000e-07	-7.176526e-06	-2.506961e-08	-5.172711e+01	-1.643915e+03
2.300000e-07	-7.113698e-06	-2.497264e-08	-5.127425e+01	-1.639938e+03
2.400000e-07	-7.048202e-06	-2.494024e-08	-5.080216e+01	-1.635699e+03
2.500000e-07	-6.980017e-06	-2.484889e-08	-5.031070e+01	-1.631281e+03
2.600000e-07	-6.909182e-06	-2.479290e-08	-4.980014e+01	-1.626743e+03
2.700000e-07	-6.835605e-06	-2.471727e-08	-4.926981e+01	-1.622108e+03
2.800000e-07	-6.759316e-06	-2.464679e-08	-4.871993e+01	-1.617351e+03
2.900000e-07	-6.680269e-06	-2.455452e-08	-4.815017e+01	-1.612414e+03
3.000000e-07	-6.598520e-06	-2.445454e-08	-4.756094e+01	-1.607219e+03
3.100000e-07	-6.514483e-06	-2.439966e-08	-4.695521e+01	-1.601696e+03
3.200000e-07	-6.428316e-06	-2.430078e-08	-4.633414e+01	-1.595804e+03
3.300000e-07	-6.339848e-06	-2.422735e-08	-4.569648e+01	-1.589540e+03
3.400000e-07	-6.248999e-06	-2.411407e-08	-4.504165e+01	-1.582938e+03
3.500000e-07	-6.155897e-06	-2.400478e-08	-4.437059e+01	-1.576057e+03
3.600000e-07	-6.060593e-06	-2.391101e-08	-4.368366e+01	-1.568954e+03
3.700000e-07	-5.963047e-06	-2.379558e-08	-4.298057e+01	-1.561665e+03
3.800000e-07	-5.863389e-06	-2.367814e-08	-4.226225e+01	-1.554186e+03
3.900000e-07	-5.761669e-06	-2.355603e-08	-4.152907e+01	-1.546472e+03
4.000000e-07	-5.657827e-06	-2.343855e-08	-4.078060e+01	-1.538443e+03
4.100000e-07	-5.551976e-06	-2.329168e-08	-4.001764e+01	-1.530007e+03
4.200000e-07	-5.444242e-06	-2.316314e-08	-3.924111e+01	-1.521085e+03
4.300000e-07	-5.334587e-06	-2.302524e-08	-3.845074e+01	-1.511632e+03
4.400000e-07	-5.222824e-06	-2.287361e-08	-3.764517e+01	-1.501644e+03
4.500000e-07	-5.109039e-06	-2.271172e-08	-3.682503e+01	-1.491160e+03
4.600000e-07	-4.993415e-06	-2.255056e-08	-3.599163e+01	-1.480239e+03
4.700000e-07	-4.875982e-06	-2.238040e-08	-3.514520e+01	-1.468941e+03
4.800000e-07	-4.756787e-06	-2.219662e-08	-3.428606e+01	-1.457291e+03
4.900000e-07	-4.635837e-06	-2.201683e-08	-3.341428e+01	-1.445270e+03
5.000000e-07	-4.513175e-06	-2.182456e-08	-3.253015e+01	-1.432808e+03
5.100000e-07	-4.388766e-06	-2.162045e-08	-3.163344e+01	-1.419794e+03
5.200000e-07	-4.262738e-06	-2.140148e-08	-3.072505e+01	-1.406105e+03
5.300000e-07	-4.135279e-06	-2.118112e-08	-2.980635e+01	-1.391634e+03
5.400000e-07	-4.006277e-06	-2.094587e-08	-2.887652e+01	-1.376312e+03
5.500000e-07	-3.875706e-06	-2.069789e-08	-2.793539e+01	-1.360125e+03
5.600000e-07	-3.743647e-06	-2.043875e-08	-2.698353e+01	-1.343102e+03
5.700000e-07	-3.610194e-06	-2.017187e-08	-2.602163e+01	-1.325299e+03
5.800000e-07	-3.475414e-06	-1.989081e-08	-2.505016e+01	-1.306760e+03
5.900000e-07	-3.339266e-06	-1.959484e-08	-2.406883e+01	-1.287486e+03
6.000000e-07	-3.201800e-06	-1.929010e-08	-2.307800e+01	-1.267415e+03
6.100000e-07	-3.063058e-06	-1.896770e-08	-2.207797e+01	-1.246408e+03
6.200000e-07	-2.923014e-06	-1.862648e-08	-2.106856e+01	-1.224276e+03
6.300000e-07	-2.781668e-06	-1.826039e-08	-2.004976e+01	-1.200803e+03
6.400000e-07	-2.639168e-06	-1.787348e-08	-1.902264e+01	-1.175786e+03
6.500000e-07	-2.495649e-06	-1.746246e-08	-1.798819e+01	-1.149069e+03
6.600000e-07	-2.351203e-06	-1.702946e-08	-1.694705e+01	-1.120552e+03
6.700000e-07	-2.206016e-06	-1.657086e-08	-1.590056e+01	-1.090180e+03
6.800000e-07	-2.060150e-06	-1.608349e-08	-1.484919e+01	-1.057909e+03
6.900000e-07	-1.913524e-06	-1.556702e-08	-1.379234e+01	-1.023655e+03
7.000000e-07	-1.766258e-06	-1.501190e-08	-1.273087e+01	-9.872485e+02
7.100000e-07	-1.618503e-06	-1.441724e-08	-1.166588e+01	-9.484056e+02
7.200000e-07	-1.470270e-06	-1.377474e-08	-1.059744e+01	-9.067337e+02
7.300000e-07	-1.321673e-06	-1.308106e-08	-9.526380e+00	-8.617767e+02
7.400000e-07	-1.172673e-06	-1.233007e-08	-8.452414e+00	-8.130941e+02
7.500000e-07	-1.023166e-06	-1.152163e-08	-7.374795e+00	-7.603576e+02
7.600000e-07	-8.732759e-07	-1.065975e-08	-6.294415e+00	-7.034434e+02
7.700000e-07	-7.231193e-07	-9.742395e-09	-5.212113e+00	-6.424934e+02
7.800000e-07	-5.727135e-07	-8.769952e-09	-4.128015e+00	-5.779255e+02
7.900000e-07	-4.220663e-07	-7.746419e-09	-3.042178e+00	-5.103850e+02
8.000000e-07	-2.712903e-07	-6.681954e-09	-1.955412e+00	-4.406409e+02
8.100000e-07	-1.204384e-07	-5.586231e-09	-8.680984e-01	-3.694490e+02
8.200000e-07	3.054153e-08	-4.475538e-09	2.201379e-01	-2.974112e+02
8.300000e-07	1.815838e-07	-3.360664e-09	1.308823e+00	-2.248653e+02
8.400000e-07	3.325783e-07	-2.244964e-09	2.397164e+00	-1.518342e+02
8.500000e-07	4.834801e-07	-1.124976e-09	3.484837e+00	-7.805115e+01
8.600000e-07	6.342377e-07	6.609386e-12	4.571471e+00	-3.058721e+00
8.700000e-07	7.847770e-07	1.160095e-09	5.656531e+00	7.363555e+01
8.800000e-07	9.350210e-07	2.347465e-09	6.739462e+00	1.523820e+02
8.900000e-07	1.084912e-06	3.574951e-09	7.819847e+00	2.332289e+02
9.000000e-07	1.234407e-06	4.838079e-09	8.897383e+00	3.158175e+02
9.100000e-07	1.383464e-06	6.123989e-09	9.971759e+00	3.993571e+02
9.200000e-07	1.532071e-06	7.412539e-09	1.104289e+01	4.826893e+02
9.300000e-07	1.680218e-06	8.669386e-09	1.211071e+01	5.644275e+02
9.400000e-07	1.827823e-06	9.865580e-09	1.317462e+01	6.431454e+02
9.500000e-07	1.974748e-06	1.098265e-08	1.423363e+01	7.175739e+02
9.600000e-07	2.120932e-06	1.201554e-08	1.528729e+01	7.867663e+02
9.700000e-07	2.266400e-06	1.296493e-08	1.633580e+01	8.502020e+02
9.800000e-07	2.411069e-06	1.383038e-08	1.737855e+01	9.078091e+02
9.900000e-07	2.554740e-06	1.462147e-08	1.841411e+01	9.599093e+02
1.000000e-06	2.697298e-06	1.534446e-08	1.944164e+01	1.007103e+03
1.010000e-06	2.838752e-06	1.600718e-08	2.046121e+01	1.050124e+03
1.020000e-06	2.979091e-06	1.661572e-08	2.147275e+01	1.089697e+03
1.030000e-06	3.118267e-06	1.717649e-08	2.247591e+01	1.126427e+03
1.040000e-06	3.256241e-06	1.769664e-08	2.347040e+01	1.160743e+03
1.050000e-06	3.392954e-06	1.817950e-08	2.445580e+01	1.192892e+03
1.060000e-06	3.528329e-06	1.863018e-08	2.543156e+01	1.222981e+03
1.070000e-06	3.662338e-06	1.905020e-08	2.639747e+01	1.251046e+03
1.080000e-06	3.795024e-06	1.944271e-08	2.735385e+01	1.277121e+03
1.090000e-06	3.926417e-06	1.981002e-08	2.830091e+01	1.301291e+03
1.100000e-06	4.056437e-06	2.015403e-08	2.923806e+01	1.323715e+03
1.110000e-06	4.184992e-06	2.047624e-08	3.016466e+01	1.344616e+03
1.120000e-06	4.312082e-06	2.078070e-08	3.108071e+01	1.364245e+03
1.130000e-06	4.437702e-06	2.106745e-08	3.198616e+01	1.382837e+03
1.140000e-06	4.561817e-06	2.133725e-08	3.288075e+01	1.400568e+03
1.150000e-06	4.684346e-06	2.159253e-08	3.376392e+01	1.417533e+03
1.160000e-06	4.805178e-06	2.183435e-08	3.463486e+01	1.433746e+03
1.170000e-06	4.924260e-06	2.206252e-08	3.549318e+01	1.449166e+03
1.180000e-06	5.041537e-06	2.227772e-08	3.633848e+01	1.463732e+03
1.190000e-06	5.156955e-06	2.248250e-08	3.717040e+01	1.477405e+03
1.200000e-06	5.270381e-06	2.267561e-08	3.798796e+01	1.490194e+03
1.210000e-06	5.381776e-06	2.285858e-08	3.879087e+01	1.502166e+03
1.220000e-06	5.491290e-06	2.303347e-08	3.958023e+01	1.513437e+03
1.230000e-06	5.598904e-06	2.320068e-08	4.035589e+01	1.524145e+03
1.240000e-06	5.704492e-06	2.336023e-08	4.111695e+01	1.534412e+03
1.250000e-06	5.807902e-06	2.351251e-08	4.186231e+01	1.544318e+03
1.260000e-06	5.909149e-06	2.365840e-08	4.259208e+01	1.553884e+03
1.270000e-06	6.008303e-06	2.379652e-08	4.330676e+01	1.563073e+03
1.280000e-06	6.105191e-06	2.392487e-08	4.400512e+01	1.571813e+03
1.290000e-06	6.199758e-06	2.404494e-08	4.468674e+01	1.580023e+03
1.300000e-06	6.292115e-06	2.415889e-08	4.535243e+01	1.587648e+03
1.310000e-06	6.382225e-06	2.426549e-08	4.600192e+01	1.594684e+03
1.320000e-06	6.469997e-06	2.436617e-08	4.663457e+01	1.601181e+03
1.330000e-06	6.555495e-06	2.446268e-08	4.725083e+01	1.607239e+03
1.340000e-06	6.638734e-06	2.455545e-08	4.785080e+01	1.612978e+03
1.350000e-06	6.719615e-06	2.464313e-08	4.843377e+01	1.618512e+03
1.360000e-06	6.798019e-06	2.472499e-08	4.899890e+01	1.623921e+03
1.370000e-06	6.873884e-06	2.480417e-08	4.954572e+01	1.629228e+03
1.380000e-06	6.947144e-06	2.487990e-08	5.007376e+01	1.634408e+03
1.390000e-06	7.017875e-06	2.495180e-08	5.058357e+01	1.639392e+03
1.400000e-06	7.086201e-06	2.502059e-08	5.107606e+01	1.644101e+03
1.410000e-06	7.151927e-06	2.508458e-08	5.154980e+01	1.648467e+03
1.420000e-06	7.215081e-06	2.514498e-08	5.200500e+01	1.652460e+03
1.430000e-06	7.275848e-06	2.520234e-08	5.244300e+01	1.656096e+03
1.440000e-06	7.334067e-06	2.525712e-08	5.286263e+01	1.659432e+03
1.450000e-06	7.389631e-06	2.530956e-08	5.326313e+01	1.662544e+03
1.460000e-06	7.442454e-06	2.535849e-08	5.364387e+01	1.665508e+03
1.470000e-06	7.492257e-06	2.540410e-08	5.400284e+01	1.668375e+03
1.480000e-06	7.539117e-06	2.544376e-08	5.434059e+01	1.671152e+03
1.490000e-06	7.583367e-06	2.548034e-08	5.465954e+01	1.673805e+03
1.500000e-06	7.624888e-06	2.551564e-08	5.495882e+01	1.676271e+03
1.510000e-06	7.663585e-06	2.554761e-08	5.523773e+01	1.678476e+03
1.520000e-06	7.699740e-06	2.557528e-08	5.549834e+01	1.680364e+03
1.530000e-06	7.733190e-06	2.559821e-08	5.573944e+01	1.681915e+03
1.540000e-06	7.763808e-06	2.561947e-08	5.596013e+01	1.683150e+03
1.550000e-06	7.791768e-06	2.563828e-08	5.616165e+01	1.684134e+03
1.560000e-06	7.816868e-06	2.565478e-08	5.634257e+01	1.684951e+03
1.570000e-06	7.839085e-06	2.566889e-08	5.650271e+01	1.685682e+03
1.580000e-06	7.858651e-06	2.567988e-08	5.664373e+01	1.686385e+03
1.590000e-06	7.875391e-06	2.569024e-08	5.676439e+01	1.687078e+03
1.600000e-06	7.889111e-06	2.569857e-08	5.686329e+01	1.687732e+03
1.610000e-06	7.899694e-06	2.570501e-08	5.693957e+01	1.688289e+03
1.620000e-06	7.907190e-06	2.570974e-08	5.699360e+01	1.688673e+03
1.630000e-06	7.911905e-06	2.571429e-08	5.702759e+01	1.688824e+03
1.640000e-06	7.913836e-06	2.571865e-08	5.704150e+01	1.688705e+03
1.650000e-06	7.912934e-06	2.571705e-08	5.703500e+01	1.688325e+03
1.660000e-06	7.909482e-06	2.570166e-08	5.701012e+01	1.687726e+03
1.670000e-06	7.903384e-06	2.569152e-08	5.696617e+01	1.686972e+03
1.680000e-06	7.894575e-06	2.568331e-08	5.690267e+01	1.686132e+03
1.690000e-06	7.883122e-06	2.567190e-08	5.682012e+01	1.685251e+03
1.700000e-06	7.868904e-06	2.566117e-08	5.671764e+01	1.684342e+03
1.710000e-06	7.852131e-06	2.565510e-08	5.659674e+01	1.683380e+03
1.720000e-06	7.833047e-06	2.565473e-08	5.645919e+01	1.682313e+03
1.730000e-06	7.811550e-06	2.558230e-08	5.630424e+01	1.681080e+03
1.740000e-06	7.787018e-06	2.548659e-08	5.612742e+01	1.679632e+03
1.750000e-06	7.758865e-06	2.551857e-08	5.592450e+01	1.677952e+03
1.760000e-06	7.727248e-06	2.552222e-08	5.569661e+01	1.676063e+03
1.770000e-06	7.692952e-06	2.546857e-08	5.544941e+01	1.674022e+03
1.780000e-06	7.656484e-06	2.547912e-08	5.518656e+01	1.671903e+03
1.790000e-06	7.617819e-06	2.553807e-08	5.490787e+01	1.669775e+03
1.800000e-06	7.577135e-06	2.538422e-08	5.461462e+01	1.667679e+03
1.810000e-06	7.534243e-06	2.535686e-08	5.430546e+01	1.665610e+03
1.820000e-06	7.488635e-06	2.543456e-08	5.397673e+01	1.663515e+03
1.830000e-06	7.440373e-06	2.529634e-08	5.362886e+01	1.661302e+03
1.840000e-06	7.389250e-06	2.535757e-08	5.326038e+01	1.658865e+03
1.850000e-06	7.335066e-06	2.523986e-08	5.286983e+01	1.656108e+03
1.860000e-06	7.278164e-06	2.518589e-08	5.245969e+01	1.652970e+03
1.870000e-06	7.218750e-06	2.521516e-08	5.203145e+01	1.649438e+03
1.880000e-06	7.156702e-06	2.506713e-08	5.158421e+01	1.645550e+03
1.890000e-06	7.091798e-06	2.510311e-08	5.111640e+01	1.641376e+03
1.900000e-06	7.024185e-06	2.499193e-08	5.062906e+01	1.637000e+03
1.910000e-06	6.953867e-06	2.491812e-08	5.012222e+01	1.632491e+03
1.920000e-06	6.880731e-06	2.485714e-08	4.959507e+01	1.627882e+03
1.930000e-06	6.804963e-06	2.476846e-08	4.904894e+01	1.623164e+03
1.940000e-06	6.726529e-06	2.476214e-08	4.848361e+01	1.618284e+03
1.950000e-06	6.645525e-06	2.462239e-08	4.789974e+01	1.613169e+03
1.960000e-06	6.562071e-06	2.456635e-08	4.729823e+01	1.607745e+03
1.970000e-06	6.476166e-06	2.444080e-08	4.667903e+01	1.601959e+03
1.980000e-06	6.387850e-06	2.435321e-08	4.604247e+01	1.595797e+03
1.990000e-06	6.297271e-06	2.428381e-08	4.538959e+01	1.589286e+03
2.000000e-06	6.204548e-06	2.416422e-08	4.472126e+01	1.582477e+03
2.010000e-06	6.109590e-06	2.408647e-08	4.403682e+01	1.575431e+03
2.020000e-06	6.012440e-06	2.394962e-08	4.333658e+01	1.568192e+03
2.030000e-06	5.913184e-06	2.384268e-08	4.262116e+01	1.560769e+03
2.040000e-06	5.811834e-06	2.370785e-08	4.189065e+01	1.553128e+03
2.050000e-06	5.708374e-06	2.360575e-08	4.114493e+01	1.545197e+03
2.060000e-06	5.602944e-06	2.347177e-08	4.038501e+01	1.536885e+03
2.070000e-06	5.495612e-06	2.332759e-08	3.961138e+01	1.528107e+03
2.080000e-06	5.386359e-06	2.319025e-08	3.882390e+01	1.518806e+03
2.090000e-06	5.275174e-06	2.304179e-08	3.802250e+01	1.508967e+03
2.100000e-06	5.162047e-06	2.289758e-08	3.720710e+01	1.498618e+03
2.110000e-06	5.046946e-06	2.273334e-08	3.637747e+01	1.487815e+03
2.120000e-06	4.929830e-06	2.257430e-08	3.553333e+01	1.476618e+03
2.130000e-06	4.810821e-06	2.238461e-08	3.467553e+01	1.465067e+03
2.140000e-06	4.690020e-06	2.219366e-08	3.380482e+01	1.453156e+03
2.150000e-06	4.567519e-06	2.199809e-08	3.292185e+01	1.440828e+03
2.160000e-06	4.443305e-06	2.180981e-08	3.202654e+01	1.427983e+03
2.170000e-06	4.317437e-06	2.160415e-08	3.111930e+01	1.414499e+03
2.180000e-06	4.190054e-06	2.139046e-08	3.020115e+01	1.400259e+03
2.190000e-06	4.061139e-06	2.116768e-08	2.927196e+01	1.385183e+03
2.200000e-06	3.930761e-06	2.093241e-08	2.833222e+01	1.369240e+03
2.210000e-06	3.798877e-06	2.068097e-08	2.738162e+01	1.352449e+03
2.220000e-06	3.665463e-06	2.041571e-08	2.641999e+01	1.334862e+03
2.230000e-06	3.530713e-06	2.013960e-08	2.544874e+01	1.316529e+03
2.240000e-06	3.394735e-06	1.984099e-08	2.446864e+01	1.297468e+03
2.250000e-06	3.257472e-06	1.953230e-08	2.347927e+01	1.277634e+03
2.260000e-06	3.118923e-06	1.921180e-08	2.248063e+01	1.256911e+03
2.270000e-06	2.979123e-06	1.888247e-08	2.147298e+01	1.235120e+03
2.280000e-06	2.838117e-06	1.853113e-08	2.045664e+01	1.212051e+03
2.290000e-06	2.696034e-06	1.815986e-08	1.943253e+01	1.187492e+03
2.300000e-06	2.552962e-06	1.776566e-08	1.840129e+01	1.161272e+03
2.310000e-06	2.409064e-06	1.734692e-08	1.736410e+01	1.133275e+03
2.320000e-06	2.264334e-06	1.689896e-08	1.632091e+01	1.103436e+03
2.330000e-06	2.118746e-06	1.641909e-08	1.527154e+01	1.071712e+03
2.340000e-06	1.972496e-06	1.590585e-08	1.421740e+01	1.038036e+03
2.350000e-06	1.825653e-06	1.535453e-08	1.315898e+01	1.002267e+03
2.360000e-06	1.678182e-06	1.476585e-08	1.209603e+01	9.641550e+02
2.370000e-06	1.530097e-06	1.413744e-08	1.102866e+01	9.233350e+02
2.380000e-06	1.381520e-06	1.346404e-08	9.957750e+00	8.793628e+02
2.390000e-06	1.232603e-06	1.273967e-08	8.884380e+00	8.317836e+02
2.400000e-06	1.083277e-06	1.195589e-08	7.808061e+00	7.802271e+02
2.410000e-06	9.334643e-07	1.110959e-08	6.728242e+00	7.245030e+02
2.420000e-06	7.832981e-07	1.020544e-08	5.645871e+00	6.646738e+02
2.430000e-06	6.328511e-07	9.244605e-09	4.561477e+00	6.010809e+02
2.440000e-06	4.821660e-07	8.229245e-09	3.475366e+00	5.343130e+02
2.450000e-06	3.313382e-07	7.168334e-09	2.388226e+00	4.651167e+02
2.460000e-06	1.803950e-07	6.077673e-09	1.300254e+00	3.942665e+02
2.470000e-06	2.932948e-08	4.971109e-09	2.114016e-01	3.224215e+02
2.480000e-06	-1.218022e-07	3.857514e-09	-8.779281e-01	2.500032e+02
2.490000e-06	-2.728695e-07	2.741768e-09	-1.966794e+00	1.771252e+02
2.500000e-06	-4.238306e-07	1.620383e-09	-3.054894e+00	1.035966e+02
2.510000e-06	-5.746639e-07	4.864756e-10	-4.142074e+00	2.900036e+01
2.520000e-06	-7.252938e-07	-6.686962e-10	-5.227787e+00	-4.716370e+01
2.530000e-06	-8.757069e-07	-1.854021e-09	-6.311937e+00	-1.253044e+02
2.540000e-06	-1.025799e-06	-3.075036e-09	-7.393775e+00	-2.055701e+02
2.550000e-06	-1.175494e-06	-4.330437e-09	-8.472752e+00	-2.877246e+02
2.560000e-06	-1.324779e-06	-5.609529e-09	-9.548769e+00	-3.710980e+02
2.570000e-06	-1.473612e-06	-6.896069e-09	-1.062153e+01	-4.546255e+02
2.580000e-06	-1.621969e-06	-8.165757e-09	-1.169086e+01	-5.369680e+02
2.590000e-06	-1.769720e-06	-9.391215e-09	-1.275582e+01	-6.166901e+02
2.600000e-06	-1.916778e-06	-1.054954e-08	-1.381579e+01	-6.924587e+02
2.610000e-06	-2.063083e-06	-1.162468e-08	-1.487033e+01	-7.632213e+02
2.620000e-06	-2.208517e-06	-1.261194e-08	-1.591859e+01	-8.283297e+02
2.630000e-06	-2.353122e-06	-1.351382e-08	-1.696088e+01	-8.875860e+02
2.640000e-06	-2.496875e-06	-1.433561e-08	-1.799702e+01	-9.412093e+02
2.650000e-06	-2.639668e-06	-1.508608e-08	-1.902625e+01	-9.897344e+02
2.660000e-06	-2.781369e-06	-1.577320e-08	-2.004760e+01	-1.033872e+03
2.670000e-06	-2.921904e-06	-1.640487e-08	-2.106056e+01	-1.074363e+03
2.680000e-06	-3.061303e-06	-1.698741e-08	-2.206532e+01	-1.111854e+03
2.690000e-06	-3.199496e-06	-1.752414e-08	-2.306139e+01	-1.146829e+03
2.700000e-06	-3.336440e-06	-1.801987e-08	-2.404846e+01	-1.179582e+03
2.710000e-06	-3.472161e-06	-1.848076e-08	-2.502671e+01	-1.210256e+03
2.720000e-06	-3.606613e-06	-1.891145e-08	-2.599582e+01	-1.238898e+03
2.730000e-06	-3.739743e-06	-1.931650e-08	-2.695539e+01	-1.265538e+03
2.740000e-06	-3.871491e-06	-1.969663e-08	-2.790501e+01	-1.290240e+03
2.750000e-06	-4.001861e-06	-2.004926e-08	-2.884469e+01	-1.313144e+03
2.760000e-06	-4.130875e-06	-2.037654e-08	-2.977460e+01	-1.334456e+03
2.770000e-06	-4.258529e-06	-2.068640e-08	-3.069471e+01	-1.354424e+03
2.780000e-06	-4.384745e-06	-2.098235e-08	-3.160445e+01	-1.373293e+03
2.790000e-06	-4.509422e-06	-2.126101e-08	-3.250310e+01	-1.391258e+03
2.800000e-06	-4.632487e-06	-2.152279e-08	-3.339013e+01	-1.408438e+03
2.810000e-06	-4.753850e-06	-2.177010e-08	-3.426489e+01	-1.424869e+03
2.820000e-06	-4.873491e-06	-2.200622e-08	-3.512725e+01	-1.440523e+03
2.830000e-06	-4.991257e-06	-2.223156e-08	-3.597608e+01	-1.455341e+03
2.840000e-06	-5.106928e-06	-2.244543e-08	-3.680982e+01	-1.469272e+03
2.850000e-06	-5.220527e-06	-2.264715e-08	-3.762861e+01	-1.482310e+03
2.860000e-06	-5.332123e-06	-2.283520e-08	-3.843298e+01	-1.494506e+03
2.870000e-06	-5.441731e-06	-2.301190e-08	-3.922302e+01	-1.505966e+03
2.880000e-06	-5.549468e-06	-2.318037e-08	-3.999956e+01	-1.516822e+03
2.890000e-06	-5.655348e-06	-2.334170e-08	-4.076273e+01	-1.527206e+03
2.900000e-06	-5.759211e-06	-2.349560e-08	-4.151135e+01	-1.537211e+03
2.910000e-06	-5.860849e-06	-2.364255e-08	-4.224394e+01	-1.546877e+03
2.920000e-06	-5.960254e-06	-2.378252e-08	-4.296043e+01	-1.556182e+03
2.930000e-06	-6.057545e-06	-2.391557e-08	-4.366169e+01	-1.565060e+03
2.940000e-06	-6.152754e-06	-2.404087e-08	-4.434794e+01	-1.573429e+03
