# Temperatura_=_83.11
# Concentracion g/m^3_=_28200.0
# C_Vs_to_Am_M_A/Vsm_=_65563218390.804596
# pendiente_HvsI_1/m_=_3716.3
# ordenada_HvsI_A/m_=_1297.0
# frecuencia_Hz_=_302504.67865909985

Tiempo_(s)	Campo_(V.s)	Magnetizacion_(V.s)	Campo_(kA/m)	Magnetizacion_(A/m)
0.000000e+00	-7.829505e-06	-2.859916e-08	-5.684138e+01	-1.872622e+03
1.000000e-08	-7.824900e-06	-2.859310e-08	-5.680795e+01	-1.871862e+03
2.000000e-08	-7.817864e-06	-2.857960e-08	-5.675687e+01	-1.870964e+03
3.000000e-08	-7.808150e-06	-2.856449e-08	-5.668635e+01	-1.869981e+03
4.000000e-08	-7.795559e-06	-2.854785e-08	-5.659494e+01	-1.868936e+03
5.000000e-08	-7.780083e-06	-2.852512e-08	-5.648259e+01	-1.867816e+03
6.000000e-08	-7.762006e-06	-2.849701e-08	-5.635135e+01	-1.866580e+03
7.000000e-08	-7.741773e-06	-2.845683e-08	-5.620446e+01	-1.865170e+03
8.000000e-08	-7.719174e-06	-2.845707e-08	-5.604039e+01	-1.863534e+03
9.000000e-08	-7.693566e-06	-2.850698e-08	-5.585448e+01	-1.861650e+03
1.000000e-07	-7.664751e-06	-2.844385e-08	-5.564529e+01	-1.859530e+03
1.100000e-07	-7.633117e-06	-2.836453e-08	-5.541563e+01	-1.857225e+03
1.200000e-07	-7.598773e-06	-2.833760e-08	-5.516629e+01	-1.854811e+03
1.300000e-07	-7.561829e-06	-2.829510e-08	-5.489808e+01	-1.852362e+03
1.400000e-07	-7.522678e-06	-2.819606e-08	-5.461385e+01	-1.849927e+03
1.500000e-07	-7.481318e-06	-2.812731e-08	-5.431358e+01	-1.847513e+03
1.600000e-07	-7.437499e-06	-2.822220e-08	-5.399546e+01	-1.845073e+03
1.700000e-07	-7.391113e-06	-2.808890e-08	-5.365870e+01	-1.842517e+03
1.800000e-07	-7.342050e-06	-2.800234e-08	-5.330251e+01	-1.839727e+03
1.900000e-07	-7.290039e-06	-2.803801e-08	-5.292491e+01	-1.836594e+03
2.000000e-07	-7.235167e-06	-2.790546e-08	-5.252655e+01	-1.833036e+03
2.100000e-07	-7.177668e-06	-2.787017e-08	-5.210912e+01	-1.829024e+03
2.200000e-07	-7.117509e-06	-2.778270e-08	-5.167237e+01	-1.824584e+03
2.300000e-07	-7.054807e-06	-2.771553e-08	-5.121716e+01	-1.819788e+03
2.400000e-07	-6.989470e-06	-2.767667e-08	-5.074282e+01	-1.814731e+03
2.500000e-07	-6.921407e-06	-2.757226e-08	-5.024869e+01	-1.809499e+03
2.600000e-07	-6.850680e-06	-2.749988e-08	-4.973521e+01	-1.804148e+03
2.700000e-07	-6.777187e-06	-2.739962e-08	-4.920166e+01	-1.798686e+03
2.800000e-07	-6.701028e-06	-2.731650e-08	-4.864876e+01	-1.793069e+03
2.900000e-07	-6.622151e-06	-2.720798e-08	-4.807612e+01	-1.787222e+03
3.000000e-07	-6.540597e-06	-2.711262e-08	-4.748405e+01	-1.781056e+03
3.100000e-07	-6.456791e-06	-2.704305e-08	-4.687562e+01	-1.774499e+03
3.200000e-07	-6.370851e-06	-2.692601e-08	-4.625170e+01	-1.767518e+03
3.300000e-07	-6.282651e-06	-2.682871e-08	-4.561139e+01	-1.760122e+03
3.400000e-07	-6.192091e-06	-2.668014e-08	-4.495393e+01	-1.752361e+03
3.500000e-07	-6.099324e-06	-2.656318e-08	-4.428045e+01	-1.744303e+03
3.600000e-07	-6.004439e-06	-2.645462e-08	-4.359159e+01	-1.736012e+03
3.700000e-07	-5.907291e-06	-2.631860e-08	-4.288631e+01	-1.727517e+03
3.800000e-07	-5.807967e-06	-2.618907e-08	-4.216523e+01	-1.718804e+03
3.900000e-07	-5.706616e-06	-2.604945e-08	-4.142943e+01	-1.709813e+03
4.000000e-07	-5.603261e-06	-2.590766e-08	-4.067909e+01	-1.700450e+03
4.100000e-07	-5.497941e-06	-2.573576e-08	-3.991447e+01	-1.690616e+03
4.200000e-07	-5.390647e-06	-2.558998e-08	-3.913553e+01	-1.680230e+03
4.300000e-07	-5.281421e-06	-2.542655e-08	-3.834256e+01	-1.669253e+03
4.400000e-07	-5.170284e-06	-2.525324e-08	-3.753572e+01	-1.657692e+03
4.500000e-07	-5.057212e-06	-2.507052e-08	-3.671483e+01	-1.645598e+03
4.600000e-07	-4.942181e-06	-2.488505e-08	-3.587971e+01	-1.633039e+03
4.700000e-07	-4.825257e-06	-2.468682e-08	-3.503086e+01	-1.620069e+03
4.800000e-07	-4.706547e-06	-2.447399e-08	-3.416903e+01	-1.606710e+03
4.900000e-07	-4.586183e-06	-2.426778e-08	-3.329520e+01	-1.592926e+03
5.000000e-07	-4.464093e-06	-2.404574e-08	-3.240884e+01	-1.578630e+03
5.100000e-07	-4.340281e-06	-2.381494e-08	-3.150998e+01	-1.563699e+03
5.200000e-07	-4.214981e-06	-2.356653e-08	-3.060032e+01	-1.548003e+03
5.300000e-07	-4.088224e-06	-2.331552e-08	-2.968008e+01	-1.531436e+03
5.400000e-07	-3.959959e-06	-2.304695e-08	-2.874889e+01	-1.513942e+03
5.500000e-07	-3.830109e-06	-2.276468e-08	-2.780619e+01	-1.495521e+03
5.600000e-07	-3.698730e-06	-2.247458e-08	-2.685239e+01	-1.476217e+03
5.700000e-07	-3.565999e-06	-2.217151e-08	-2.588878e+01	-1.456088e+03
5.800000e-07	-3.432002e-06	-2.185289e-08	-2.491597e+01	-1.435173e+03
5.900000e-07	-3.296714e-06	-2.151585e-08	-2.393380e+01	-1.413453e+03
6.000000e-07	-3.160127e-06	-2.116796e-08	-2.294219e+01	-1.390831e+03
6.100000e-07	-3.022267e-06	-2.080245e-08	-2.194134e+01	-1.367138e+03
6.200000e-07	-2.883099e-06	-2.041937e-08	-2.093099e+01	-1.342150e+03
6.300000e-07	-2.742639e-06	-2.000904e-08	-1.991127e+01	-1.315629e+03
6.400000e-07	-2.601144e-06	-1.957167e-08	-1.888403e+01	-1.287367e+03
6.500000e-07	-2.458720e-06	-1.910887e-08	-1.785005e+01	-1.257212e+03
6.600000e-07	-2.315298e-06	-1.862405e-08	-1.680882e+01	-1.225080e+03
6.700000e-07	-2.171000e-06	-1.811160e-08	-1.576123e+01	-1.190933e+03
6.800000e-07	-2.025917e-06	-1.756636e-08	-1.470794e+01	-1.154731e+03
6.900000e-07	-1.880084e-06	-1.698956e-08	-1.364921e+01	-1.116383e+03
7.000000e-07	-1.733690e-06	-1.636885e-08	-1.258641e+01	-1.075688e+03
7.100000e-07	-1.586838e-06	-1.570369e-08	-1.152028e+01	-1.032315e+03
7.200000e-07	-1.439558e-06	-1.498247e-08	-1.045104e+01	-9.858161e+02
7.300000e-07	-1.291844e-06	-1.420136e-08	-9.378651e+00	-9.356811e+02
7.400000e-07	-1.143653e-06	-1.336211e-08	-8.302798e+00	-8.814305e+02
7.500000e-07	-9.950297e-07	-1.246743e-08	-7.223811e+00	-8.227226e+02
7.600000e-07	-8.460926e-07	-1.151590e-08	-6.142543e+00	-7.594486e+02
7.700000e-07	-6.969634e-07	-1.050005e-08	-5.059881e+00	-6.917906e+02
7.800000e-07	-5.476449e-07	-9.422214e-09	-3.975845e+00	-6.202215e+02
7.900000e-07	-3.981635e-07	-8.285514e-09	-2.890625e+00	-5.454407e+02
8.000000e-07	-2.485700e-07	-7.102314e-09	-1.804592e+00	-4.682552e+02
8.100000e-07	-9.887949e-08	-5.886519e-09	-7.178547e-01	-3.894302e+02
8.200000e-07	5.088506e-08	-4.656427e-09	3.694202e-01	-3.095446e+02
8.300000e-07	2.006679e-07	-3.420798e-09	1.456828e+00	-2.288863e+02
8.400000e-07	3.504149e-07	-2.179534e-09	2.543975e+00	-1.474166e+02
8.500000e-07	5.000557e-07	-9.258070e-10	3.630351e+00	-6.481690e+01
8.600000e-07	6.495578e-07	3.477034e-10	4.715721e+00	1.938774e+01
8.700000e-07	7.989036e-07	1.646482e-09	5.799956e+00	1.056542e+02
8.800000e-07	9.480454e-07	2.982392e-09	6.882710e+00	1.942327e+02
8.900000e-07	1.096984e-06	4.359069e-09	7.963987e+00	2.850090e+02
9.000000e-07	1.245605e-06	5.770878e-09	9.042961e+00	3.774141e+02
9.100000e-07	1.393763e-06	7.203185e-09	1.011857e+01	4.704247e+02
9.200000e-07	1.541415e-06	8.630305e-09	1.119051e+01	5.626594e+02
9.300000e-07	1.688500e-06	1.001198e-08	1.225834e+01	6.525493e+02
9.400000e-07	1.834997e-06	1.131713e-08	1.332189e+01	7.385519e+02
9.500000e-07	1.980850e-06	1.252905e-08	1.438076e+01	8.193603e+02
9.600000e-07	2.125929e-06	1.364201e-08	1.543402e+01	8.940699e+02
9.700000e-07	2.270167e-06	1.466112e-08	1.648118e+01	9.622665e+02
9.800000e-07	2.413548e-06	1.559009e-08	1.752211e+01	1.024027e+03
9.900000e-07	2.556066e-06	1.643829e-08	1.855677e+01	1.079835e+03
1.000000e-06	2.697608e-06	1.721474e-08	1.958435e+01	1.130441e+03
1.010000e-06	2.838043e-06	1.792744e-08	2.060390e+01	1.176692e+03
1.020000e-06	2.977191e-06	1.858594e-08	2.161410e+01	1.219382e+03
1.030000e-06	3.115054e-06	1.919488e-08	2.261496e+01	1.259142e+03
1.040000e-06	3.251718e-06	1.976121e-08	2.360713e+01	1.296389e+03
1.050000e-06	3.387145e-06	2.028696e-08	2.459032e+01	1.331338e+03
1.060000e-06	3.521310e-06	2.077552e-08	2.556434e+01	1.364059e+03
1.070000e-06	3.654266e-06	2.122868e-08	2.652959e+01	1.394561e+03
1.080000e-06	3.785936e-06	2.165239e-08	2.748550e+01	1.422872e+03
1.090000e-06	3.916190e-06	2.204872e-08	2.843113e+01	1.449091e+03
1.100000e-06	4.045028e-06	2.242194e-08	2.936648e+01	1.473407e+03
1.110000e-06	4.172440e-06	2.277629e-08	3.029147e+01	1.496084e+03
1.120000e-06	4.298420e-06	2.311219e-08	3.120608e+01	1.517414e+03
1.130000e-06	4.423004e-06	2.342802e-08	3.211054e+01	1.537661e+03
1.140000e-06	4.546106e-06	2.372442e-08	3.300425e+01	1.557020e+03
1.150000e-06	4.667484e-06	2.400365e-08	3.388544e+01	1.575586e+03
1.160000e-06	4.787150e-06	2.426516e-08	3.475421e+01	1.593364e+03
1.170000e-06	4.905175e-06	2.451344e-08	3.561105e+01	1.610298e+03
1.180000e-06	5.021463e-06	2.474833e-08	3.645529e+01	1.626310e+03
1.190000e-06	5.135751e-06	2.497356e-08	3.728501e+01	1.641349e+03
1.200000e-06	5.247983e-06	2.518850e-08	3.809981e+01	1.655424e+03
1.210000e-06	5.358310e-06	2.539220e-08	3.890077e+01	1.668609e+03
1.220000e-06	5.466819e-06	2.558528e-08	3.968853e+01	1.681034e+03
1.230000e-06	5.573434e-06	2.576896e-08	4.046254e+01	1.692853e+03
1.240000e-06	5.677966e-06	2.594425e-08	4.122144e+01	1.704207e+03
1.250000e-06	5.780370e-06	2.611205e-08	4.196488e+01	1.715187e+03
1.260000e-06	5.880686e-06	2.627189e-08	4.269316e+01	1.725823e+03
1.270000e-06	5.978775e-06	2.642317e-08	4.340528e+01	1.736079e+03
1.280000e-06	6.074539e-06	2.656785e-08	4.410051e+01	1.745877e+03
1.290000e-06	6.168150e-06	2.670701e-08	4.478012e+01	1.755130e+03
1.300000e-06	6.259642e-06	2.684006e-08	4.544434e+01	1.763771e+03
1.310000e-06	6.348841e-06	2.696555e-08	4.609192e+01	1.771785e+03
1.320000e-06	6.435725e-06	2.708295e-08	4.672269e+01	1.779211e+03
1.330000e-06	6.520400e-06	2.719322e-08	4.733742e+01	1.786140e+03
1.340000e-06	6.602741e-06	2.729835e-08	4.793521e+01	1.792684e+03
1.350000e-06	6.682671e-06	2.739858e-08	4.851549e+01	1.798955e+03
1.360000e-06	6.760198e-06	2.749179e-08	4.907833e+01	1.805030e+03
1.370000e-06	6.835130e-06	2.757893e-08	4.962232e+01	1.810940e+03
1.380000e-06	6.907465e-06	2.766045e-08	5.014747e+01	1.816667e+03
1.390000e-06	6.977337e-06	2.773926e-08	5.065473e+01	1.822157e+03
1.400000e-06	7.044748e-06	2.781720e-08	5.114413e+01	1.827347e+03
1.410000e-06	7.109642e-06	2.789258e-08	5.161526e+01	1.832186e+03
1.420000e-06	7.171988e-06	2.796398e-08	5.206788e+01	1.836656e+03
1.430000e-06	7.231904e-06	2.802985e-08	5.250286e+01	1.840782e+03
1.440000e-06	7.289351e-06	2.809028e-08	5.291992e+01	1.844619e+03
1.450000e-06	7.344193e-06	2.814645e-08	5.331807e+01	1.848239e+03
1.460000e-06	7.396186e-06	2.819979e-08	5.369553e+01	1.851706e+03
1.470000e-06	7.445164e-06	2.825083e-08	5.405111e+01	1.855053e+03
1.480000e-06	7.491361e-06	2.830012e-08	5.438649e+01	1.858274e+03
1.490000e-06	7.534977e-06	2.834663e-08	5.470314e+01	1.861326e+03
1.500000e-06	7.575865e-06	2.838871e-08	5.499998e+01	1.864141e+03
1.510000e-06	7.614003e-06	2.842659e-08	5.527686e+01	1.866649e+03
1.520000e-06	7.649536e-06	2.846055e-08	5.553483e+01	1.868803e+03
1.530000e-06	7.682325e-06	2.848825e-08	5.577287e+01	1.870592e+03
1.540000e-06	7.712355e-06	2.851084e-08	5.599088e+01	1.872049e+03
1.550000e-06	7.739749e-06	2.852902e-08	5.618976e+01	1.873243e+03
1.560000e-06	7.764325e-06	2.854447e-08	5.636818e+01	1.874256e+03
1.570000e-06	7.786031e-06	2.855922e-08	5.652577e+01	1.875164e+03
1.580000e-06	7.804964e-06	2.857376e-08	5.666321e+01	1.876013e+03
1.590000e-06	7.821026e-06	2.859024e-08	5.677983e+01	1.876810e+03
1.600000e-06	7.834177e-06	2.860281e-08	5.687530e+01	1.877519e+03
1.610000e-06	7.844208e-06	2.860941e-08	5.694812e+01	1.878080e+03
1.620000e-06	7.851186e-06	2.861256e-08	5.699878e+01	1.878423e+03
1.630000e-06	7.855486e-06	2.861411e-08	5.703000e+01	1.878496e+03
1.640000e-06	7.857070e-06	2.861533e-08	5.704150e+01	1.878280e+03
1.650000e-06	7.855907e-06	2.860956e-08	5.703306e+01	1.877792e+03
1.660000e-06	7.852189e-06	2.859358e-08	5.700606e+01	1.877083e+03
1.670000e-06	7.845773e-06	2.858516e-08	5.695949e+01	1.876217e+03
1.680000e-06	7.836654e-06	2.857557e-08	5.689329e+01	1.875252e+03
1.690000e-06	7.824949e-06	2.856096e-08	5.680830e+01	1.874222e+03
1.700000e-06	7.810480e-06	2.854914e-08	5.670326e+01	1.873126e+03
1.710000e-06	7.793434e-06	2.854223e-08	5.657951e+01	1.871927e+03
1.720000e-06	7.774156e-06	2.853956e-08	5.643955e+01	1.870571e+03
1.730000e-06	7.752403e-06	2.843680e-08	5.628163e+01	1.869002e+03
1.740000e-06	7.727561e-06	2.835074e-08	5.610128e+01	1.867187e+03
1.750000e-06	7.699130e-06	2.838164e-08	5.589487e+01	1.865129e+03
1.760000e-06	7.667292e-06	2.836436e-08	5.566373e+01	1.862869e+03
1.770000e-06	7.632914e-06	2.830971e-08	5.541415e+01	1.860477e+03
1.780000e-06	7.596357e-06	2.834031e-08	5.514875e+01	1.858029e+03
1.790000e-06	7.557573e-06	2.838907e-08	5.486718e+01	1.855586e+03
1.800000e-06	7.516867e-06	2.818788e-08	5.457166e+01	1.853167e+03
1.810000e-06	7.473895e-06	2.822267e-08	5.425969e+01	1.850740e+03
1.820000e-06	7.428170e-06	2.822568e-08	5.392773e+01	1.848227e+03
1.830000e-06	7.379874e-06	2.809007e-08	5.357711e+01	1.845514e+03
1.840000e-06	7.328741e-06	2.819595e-08	5.320589e+01	1.842488e+03
1.850000e-06	7.274651e-06	2.802608e-08	5.281320e+01	1.839055e+03
1.860000e-06	7.217843e-06	2.803774e-08	5.240078e+01	1.835171e+03
1.870000e-06	7.158463e-06	2.799565e-08	5.196969e+01	1.830846e+03
1.880000e-06	7.096546e-06	2.781789e-08	5.152017e+01	1.826141e+03
1.890000e-06	7.031802e-06	2.785611e-08	5.105014e+01	1.821147e+03
1.900000e-06	6.964364e-06	2.770426e-08	5.056055e+01	1.815956e+03
1.910000e-06	6.894239e-06	2.766831e-08	5.005145e+01	1.810635e+03
1.920000e-06	6.821353e-06	2.757954e-08	4.952230e+01	1.805205e+03
1.930000e-06	6.745881e-06	2.749918e-08	4.897439e+01	1.799637e+03
1.940000e-06	6.667703e-06	2.744885e-08	4.840682e+01	1.793863e+03
1.950000e-06	6.586939e-06	2.726502e-08	4.782048e+01	1.787795e+03
1.960000e-06	6.503781e-06	2.721151e-08	4.721676e+01	1.781354e+03
1.970000e-06	6.418228e-06	2.706071e-08	4.659566e+01	1.774493e+03
1.980000e-06	6.330223e-06	2.699757e-08	4.595675e+01	1.767211e+03
1.990000e-06	6.239952e-06	2.689493e-08	4.530139e+01	1.759546e+03
2.000000e-06	6.147610e-06	2.676436e-08	4.463100e+01	1.751564e+03
2.010000e-06	6.053017e-06	2.666075e-08	4.394427e+01	1.743333e+03
2.020000e-06	5.956230e-06	2.649712e-08	4.324160e+01	1.734894e+03
2.030000e-06	5.857392e-06	2.637402e-08	4.252405e+01	1.726246e+03
2.040000e-06	5.756529e-06	2.621885e-08	4.179179e+01	1.717341e+03
2.050000e-06	5.653563e-06	2.610802e-08	4.104427e+01	1.708093e+03
2.060000e-06	5.548577e-06	2.593859e-08	4.028208e+01	1.698402e+03
2.070000e-06	5.441729e-06	2.577792e-08	3.950638e+01	1.688178e+03
2.080000e-06	5.332988e-06	2.561036e-08	3.871693e+01	1.677369e+03
2.090000e-06	5.222277e-06	2.544183e-08	3.791318e+01	1.665970e+03
2.100000e-06	5.109605e-06	2.527013e-08	3.709520e+01	1.654021e+03
2.110000e-06	4.995100e-06	2.508497e-08	3.626390e+01	1.641586e+03
2.120000e-06	4.878671e-06	2.490404e-08	3.541864e+01	1.628728e+03
2.130000e-06	4.760289e-06	2.468589e-08	3.455919e+01	1.615479e+03
2.140000e-06	4.640088e-06	2.446922e-08	3.368655e+01	1.601822e+03
2.150000e-06	4.518176e-06	2.424438e-08	3.280149e+01	1.587682e+03
2.160000e-06	4.394643e-06	2.403144e-08	3.190465e+01	1.572944e+03
2.170000e-06	4.269578e-06	2.379254e-08	3.099668e+01	1.557477e+03
2.180000e-06	4.142912e-06	2.354745e-08	3.007711e+01	1.541166e+03
2.190000e-06	4.014644e-06	2.328729e-08	2.914589e+01	1.523938e+03
2.200000e-06	3.884885e-06	2.301550e-08	2.820385e+01	1.505778e+03
2.210000e-06	3.753664e-06	2.272579e-08	2.725120e+01	1.486718e+03
2.220000e-06	3.621096e-06	2.242842e-08	2.628878e+01	1.466818e+03
2.230000e-06	3.487255e-06	2.212180e-08	2.531710e+01	1.446125e+03
2.240000e-06	3.352074e-06	2.179194e-08	2.433571e+01	1.424639e+03
2.250000e-06	3.215541e-06	2.144679e-08	2.334449e+01	1.402288e+03
2.260000e-06	3.077773e-06	2.108279e-08	2.234431e+01	1.378920e+03
2.270000e-06	2.938866e-06	2.070678e-08	2.133586e+01	1.354325e+03
2.280000e-06	2.798847e-06	2.030583e-08	2.031934e+01	1.328263e+03
2.290000e-06	2.657758e-06	1.988650e-08	1.929505e+01	1.300516e+03
2.300000e-06	2.515672e-06	1.944082e-08	1.826352e+01	1.270911e+03
2.310000e-06	2.372655e-06	1.896938e-08	1.722523e+01	1.239348e+03
2.320000e-06	2.228713e-06	1.846220e-08	1.618022e+01	1.205778e+03
2.330000e-06	2.083930e-06	1.791892e-08	1.512912e+01	1.170168e+03
2.340000e-06	1.938502e-06	1.734268e-08	1.407332e+01	1.132446e+03
2.350000e-06	1.792548e-06	1.672999e-08	1.301371e+01	1.092448e+03
2.360000e-06	1.646014e-06	1.607719e-08	1.194989e+01	1.049880e+03
2.370000e-06	1.498904e-06	1.537670e-08	1.088189e+01	1.004323e+03
2.380000e-06	1.351346e-06	1.462464e-08	9.810633e+00	9.552778e+02
2.390000e-06	1.203353e-06	1.381277e-08	8.736217e+00	9.022444e+02
2.400000e-06	1.054891e-06	1.293619e-08	7.658399e+00	8.448312e+02
2.410000e-06	9.060891e-07	1.199756e-08	6.578112e+00	7.828549e+02
2.420000e-06	7.570104e-07	1.099737e-08	5.495816e+00	7.164117e+02
2.430000e-06	6.076902e-07	9.935172e-09	4.411767e+00	6.458951e+02
2.440000e-06	4.581912e-07	8.813836e-09	3.326420e+00	5.719500e+02
2.450000e-06	3.084845e-07	7.640343e-09	2.239565e+00	4.953672e+02
2.460000e-06	1.586433e-07	6.429715e-09	1.151733e+00	4.169394e+02
2.470000e-06	8.779095e-09	5.197844e-09	6.373531e-02	3.373118e+02
2.480000e-06	-1.410518e-07	3.957238e-09	-1.024021e+00	2.568625e+02
2.490000e-06	-2.908367e-07	2.712675e-09	-2.111443e+00	1.756450e+02
2.500000e-06	-4.405289e-07	1.460384e-09	-3.198193e+00	9.341114e+01
2.510000e-06	-5.901495e-07	1.909306e-10	-4.284423e+00	9.714462e+00
2.520000e-06	-7.396300e-07	-1.105537e-09	-5.369636e+00	-7.592651e+01
2.530000e-06	-8.889019e-07	-2.436064e-09	-6.453334e+00	-1.638393e+02
2.540000e-06	-1.037910e-06	-3.806473e-09	-7.535118e+00	-2.540267e+02
2.550000e-06	-1.186514e-06	-5.214198e-09	-8.613967e+00	-3.460535e+02
2.560000e-06	-1.334704e-06	-6.643749e-09	-9.689811e+00	-4.390207e+02
2.570000e-06	-1.482439e-06	-8.075281e-09	-1.076235e+01	-5.316344e+02
2.580000e-06	-1.629588e-06	-9.478137e-09	-1.183064e+01	-6.223586e+02
2.590000e-06	-1.776105e-06	-1.081948e-08	-1.289433e+01	-7.096207e+02
2.600000e-06	-1.921991e-06	-1.207697e-08	-1.395345e+01	-7.920271e+02
2.610000e-06	-2.067256e-06	-1.323656e-08	-1.500806e+01	-8.685452e+02
2.620000e-06	-2.211856e-06	-1.429830e-08	-1.605784e+01	-9.386170e+02
2.630000e-06	-2.355474e-06	-1.526586e-08	-1.710049e+01	-1.002184e+03
2.640000e-06	-2.497991e-06	-1.614700e-08	-1.813515e+01	-1.059627e+03
2.650000e-06	-2.639457e-06	-1.695227e-08	-1.916218e+01	-1.111635e+03
2.660000e-06	-2.779860e-06	-1.769066e-08	-2.018149e+01	-1.159046e+03
2.670000e-06	-2.919238e-06	-1.837051e-08	-2.119336e+01	-1.202682e+03
2.680000e-06	-3.057471e-06	-1.899840e-08	-2.219692e+01	-1.243229e+03
2.690000e-06	-3.194562e-06	-1.958113e-08	-2.319219e+01	-1.281165e+03
2.700000e-06	-3.330512e-06	-2.012329e-08	-2.417917e+01	-1.316760e+03
2.710000e-06	-3.465081e-06	-2.062604e-08	-2.515612e+01	-1.350117e+03
2.720000e-06	-3.598291e-06	-2.109425e-08	-2.612321e+01	-1.381255e+03
2.730000e-06	-3.730291e-06	-2.153170e-08	-2.708152e+01	-1.410187e+03
2.740000e-06	-3.860973e-06	-2.193927e-08	-2.803026e+01	-1.436989e+03
2.750000e-06	-3.990340e-06	-2.232053e-08	-2.896944e+01	-1.461826e+03
2.760000e-06	-4.118345e-06	-2.267695e-08	-2.989875e+01	-1.484944e+03
2.770000e-06	-4.244828e-06	-2.301306e-08	-3.081700e+01	-1.506631e+03
2.780000e-06	-4.369881e-06	-2.333404e-08	-3.172488e+01	-1.527166e+03
2.790000e-06	-4.493490e-06	-2.363967e-08	-3.262227e+01	-1.546766e+03
2.800000e-06	-4.615524e-06	-2.392858e-08	-3.350822e+01	-1.565556e+03
2.810000e-06	-4.735903e-06	-2.419979e-08	-3.438216e+01	-1.583565e+03
2.820000e-06	-4.854386e-06	-2.445468e-08	-3.524233e+01	-1.600749e+03
2.830000e-06	-4.970910e-06	-2.469755e-08	-3.608828e+01	-1.617033e+03
2.840000e-06	-5.085509e-06	-2.493133e-08	-3.692026e+01	-1.632354e+03
2.850000e-06	-5.198041e-06	-2.515527e-08	-3.773723e+01	-1.646701e+03
2.860000e-06	-5.308538e-06	-2.536685e-08	-3.853943e+01	-1.660131e+03
2.870000e-06	-5.417196e-06	-2.556654e-08	-3.932827e+01	-1.672759e+03
2.880000e-06	-5.524040e-06	-2.575564e-08	-4.010395e+01	-1.684737e+03
2.890000e-06	-5.628962e-06	-2.593405e-08	-4.086567e+01	-1.696213e+03
2.900000e-06	-5.731693e-06	-2.610412e-08	-4.161148e+01	-1.707296e+03
2.910000e-06	-5.832227e-06	-2.626696e-08	-4.234135e+01	-1.718033e+03
2.920000e-06	-5.930769e-06	-2.642208e-08	-4.305676e+01	-1.728406e+03
2.930000e-06	-6.027273e-06	-2.657030e-08	-4.375737e+01	-1.738346e+03
2.940000e-06	-6.121529e-06	-2.671040e-08	-4.444166e+01	-1.747764e+03
