# Temperatura_=_58.38
# Concentracion g/m^3_=_28200.0
# C_Vs_to_Am_M_A/Vsm_=_65563218390.804596
# pendiente_HvsI_1/m_=_3716.3
# ordenada_HvsI_A/m_=_1297.0
# frecuencia_Hz_=_302399.50027079455

Tiempo_(s)	Campo_(V.s)	Magnetizacion_(V.s)	Campo_(kA/m)	Magnetizacion_(A/m)
0.000000e+00	-7.358535e-06	-2.634510e-08	-5.318619e+01	-1.725482e+03
1.000000e-08	-7.355087e-06	-2.634582e-08	-5.316127e+01	-1.724963e+03
2.000000e-08	-7.349227e-06	-2.633394e-08	-5.311891e+01	-1.724281e+03
3.000000e-08	-7.341067e-06	-2.631930e-08	-5.305993e+01	-1.723469e+03
4.000000e-08	-7.330372e-06	-2.630451e-08	-5.298263e+01	-1.722554e+03
5.000000e-08	-7.316876e-06	-2.628589e-08	-5.288508e+01	-1.721549e+03
6.000000e-08	-7.300629e-06	-2.626205e-08	-5.276765e+01	-1.720452e+03
7.000000e-08	-7.282070e-06	-2.623795e-08	-5.263351e+01	-1.719243e+03
8.000000e-08	-7.261418e-06	-2.621236e-08	-5.248424e+01	-1.717900e+03
9.000000e-08	-7.238245e-06	-2.627161e-08	-5.231675e+01	-1.716404e+03
1.000000e-07	-7.212132e-06	-2.626672e-08	-5.212802e+01	-1.714749e+03
1.100000e-07	-7.183149e-06	-2.616068e-08	-5.191853e+01	-1.712948e+03
1.200000e-07	-7.151674e-06	-2.610906e-08	-5.169103e+01	-1.711028e+03
1.300000e-07	-7.117700e-06	-2.609001e-08	-5.144547e+01	-1.709020e+03
1.400000e-07	-7.081372e-06	-2.601780e-08	-5.118290e+01	-1.706952e+03
1.500000e-07	-7.043217e-06	-2.590430e-08	-5.090712e+01	-1.704830e+03
1.600000e-07	-7.003071e-06	-2.601200e-08	-5.061696e+01	-1.702635e+03
1.700000e-07	-6.960414e-06	-2.598129e-08	-5.030864e+01	-1.700321e+03
1.800000e-07	-6.915310e-06	-2.579485e-08	-4.998263e+01	-1.697821e+03
1.900000e-07	-6.867676e-06	-2.588597e-08	-4.963835e+01	-1.695064e+03
2.000000e-07	-6.817122e-06	-2.579960e-08	-4.927295e+01	-1.691988e+03
2.100000e-07	-6.763853e-06	-2.569708e-08	-4.888793e+01	-1.688559e+03
2.200000e-07	-6.708063e-06	-2.567498e-08	-4.848469e+01	-1.684776e+03
2.300000e-07	-6.649736e-06	-2.556675e-08	-4.806312e+01	-1.680672e+03
2.400000e-07	-6.588989e-06	-2.555754e-08	-4.762405e+01	-1.676306e+03
2.500000e-07	-6.525840e-06	-2.545607e-08	-4.716762e+01	-1.671741e+03
2.600000e-07	-6.460184e-06	-2.540583e-08	-4.669307e+01	-1.667030e+03
2.700000e-07	-6.392018e-06	-2.534890e-08	-4.620037e+01	-1.662199e+03
2.800000e-07	-6.321495e-06	-2.525116e-08	-4.569065e+01	-1.657239e+03
2.900000e-07	-6.248576e-06	-2.515523e-08	-4.516360e+01	-1.652108e+03
3.000000e-07	-6.173125e-06	-2.505967e-08	-4.461826e+01	-1.646745e+03
3.100000e-07	-6.095091e-06	-2.501977e-08	-4.405424e+01	-1.641083e+03
3.200000e-07	-6.014556e-06	-2.490026e-08	-4.347214e+01	-1.635068e+03
3.300000e-07	-5.931897e-06	-2.481792e-08	-4.287470e+01	-1.628673e+03
3.400000e-07	-5.847303e-06	-2.471888e-08	-4.226327e+01	-1.621904e+03
3.500000e-07	-5.760780e-06	-2.458045e-08	-4.163790e+01	-1.614789e+03
3.600000e-07	-5.672265e-06	-2.448364e-08	-4.099813e+01	-1.607371e+03
3.700000e-07	-5.581634e-06	-2.437782e-08	-4.034306e+01	-1.599687e+03
3.800000e-07	-5.488983e-06	-2.425507e-08	-3.967340e+01	-1.591755e+03
3.900000e-07	-5.394448e-06	-2.411359e-08	-3.899012e+01	-1.583561e+03
4.000000e-07	-5.297953e-06	-2.399024e-08	-3.829267e+01	-1.575064e+03
4.100000e-07	-5.199509e-06	-2.385092e-08	-3.758113e+01	-1.566202e+03
4.200000e-07	-5.099265e-06	-2.370639e-08	-3.685658e+01	-1.556907e+03
4.300000e-07	-4.997277e-06	-2.356298e-08	-3.611943e+01	-1.547126e+03
4.400000e-07	-4.893464e-06	-2.340963e-08	-3.536909e+01	-1.536829e+03
4.500000e-07	-4.787879e-06	-2.324082e-08	-3.460594e+01	-1.526017e+03
4.600000e-07	-4.680642e-06	-2.306351e-08	-3.383086e+01	-1.514714e+03
4.700000e-07	-4.571733e-06	-2.288887e-08	-3.304368e+01	-1.502956e+03
4.800000e-07	-4.461275e-06	-2.271075e-08	-3.224531e+01	-1.490767e+03
4.900000e-07	-4.349144e-06	-2.251980e-08	-3.143484e+01	-1.478149e+03
5.000000e-07	-4.235191e-06	-2.231292e-08	-3.061121e+01	-1.465069e+03
5.100000e-07	-4.119479e-06	-2.209930e-08	-2.977487e+01	-1.451459e+03
5.200000e-07	-4.002172e-06	-2.187542e-08	-2.892699e+01	-1.437231e+03
5.300000e-07	-3.883493e-06	-2.164656e-08	-2.806920e+01	-1.422289e+03
5.400000e-07	-3.763343e-06	-2.140634e-08	-2.720078e+01	-1.406555e+03
5.500000e-07	-3.641679e-06	-2.115611e-08	-2.632141e+01	-1.389979e+03
5.600000e-07	-3.518654e-06	-2.089003e-08	-2.543221e+01	-1.372542e+03
5.700000e-07	-3.394271e-06	-2.061045e-08	-2.453319e+01	-1.354254e+03
5.800000e-07	-3.268636e-06	-2.031800e-08	-2.362512e+01	-1.335127e+03
5.900000e-07	-3.141891e-06	-2.001478e-08	-2.270903e+01	-1.315159e+03
6.000000e-07	-3.013984e-06	-1.969745e-08	-2.178455e+01	-1.294307e+03
6.100000e-07	-2.884866e-06	-1.935795e-08	-2.085130e+01	-1.272482e+03
6.200000e-07	-2.754682e-06	-1.900078e-08	-1.991036e+01	-1.249542e+03
6.300000e-07	-2.623529e-06	-1.862531e-08	-1.896240e+01	-1.225312e+03
6.400000e-07	-2.491364e-06	-1.823293e-08	-1.800714e+01	-1.199608e+03
6.500000e-07	-2.358242e-06	-1.781441e-08	-1.704496e+01	-1.172257e+03
6.600000e-07	-2.224418e-06	-1.737200e-08	-1.607770e+01	-1.143123e+03
6.700000e-07	-2.089985e-06	-1.690224e-08	-1.510604e+01	-1.112103e+03
6.800000e-07	-1.954700e-06	-1.640247e-08	-1.412823e+01	-1.079116e+03
6.900000e-07	-1.818566e-06	-1.587147e-08	-1.314427e+01	-1.044080e+03
7.000000e-07	-1.681750e-06	-1.530676e-08	-1.215539e+01	-1.006875e+03
7.100000e-07	-1.544352e-06	-1.470326e-08	-1.116230e+01	-9.673185e+02
7.200000e-07	-1.406473e-06	-1.405283e-08	-1.016574e+01	-9.251584e+02
7.300000e-07	-1.268131e-06	-1.335910e-08	-9.165828e+00	-8.800908e+02
7.400000e-07	-1.129346e-06	-1.261658e-08	-8.162715e+00	-8.318056e+02
7.500000e-07	-9.901490e-07	-1.182671e-08	-7.156622e+00	-7.800518e+02
7.600000e-07	-8.505614e-07	-1.098886e-08	-6.147707e+00	-7.247103e+02
7.700000e-07	-7.106029e-07	-1.010173e-08	-5.136112e+00	-6.658532e+02
7.800000e-07	-5.703996e-07	-9.162068e-09	-4.122747e+00	-6.037737e+02
7.900000e-07	-4.299882e-07	-8.175344e-09	-3.107879e+00	-5.389734e+02
8.000000e-07	-2.893166e-07	-7.155628e-09	-2.091129e+00	-4.721026e+02
8.100000e-07	-1.484733e-07	-6.112811e-09	-1.073139e+00	-4.038633e+02
8.200000e-07	-7.468470e-09	-5.057501e-09	-5.398078e-02	-3.348917e+02
8.300000e-07	1.335723e-07	-3.998003e-09	9.654370e-01	-2.656466e+02
8.400000e-07	2.745570e-07	-2.942484e-09	1.984450e+00	-1.963286e+02
8.500000e-07	4.154106e-07	-1.888115e-09	3.002514e+00	-1.268520e+02
8.600000e-07	5.560991e-07	-8.286185e-10	4.019385e+00	-5.688031e+01
8.700000e-07	6.965989e-07	2.452703e-10	5.034893e+00	1.408048e+01
8.800000e-07	8.367790e-07	1.342984e-09	6.048090e+00	8.654486e+01
8.900000e-07	9.766485e-07	2.472467e-09	7.059042e+00	1.608969e+02
9.000000e-07	1.116167e-06	3.637168e-09	8.067457e+00	2.372559e+02
9.100000e-07	1.255283e-06	4.829926e-09	9.072963e+00	3.153883e+02
9.200000e-07	1.393918e-06	6.041463e-09	1.007499e+01	3.946843e+02
9.300000e-07	1.531956e-06	7.256093e-09	1.107271e+01	4.742069e+02
9.400000e-07	1.669417e-06	8.455699e-09	1.206625e+01	5.528022e+02
9.500000e-07	1.806315e-06	9.617754e-09	1.305572e+01	6.292486e+02
9.600000e-07	1.942538e-06	1.072551e-08	1.404032e+01	7.024173e+02
9.700000e-07	2.077915e-06	1.176699e-08	1.501880e+01	7.714099e+02
9.800000e-07	2.212374e-06	1.273620e-08	1.599065e+01	8.356504e+02
9.900000e-07	2.346050e-06	1.363348e-08	1.695683e+01	8.949171e+02
1.000000e-06	2.478950e-06	1.446155e-08	1.791741e+01	9.493138e+02
1.010000e-06	2.610915e-06	1.522215e-08	1.887123e+01	9.991924e+02
1.020000e-06	2.741845e-06	1.592131e-08	1.981757e+01	1.045048e+03
1.030000e-06	2.871763e-06	1.656757e-08	2.075659e+01	1.087414e+03
1.040000e-06	3.000709e-06	1.716688e-08	2.168859e+01	1.126771e+03
1.050000e-06	3.128484e-06	1.772373e-08	2.261213e+01	1.163495e+03
1.060000e-06	3.254993e-06	1.824228e-08	2.352651e+01	1.197843e+03
1.070000e-06	3.380409e-06	1.872690e-08	2.443299e+01	1.229973e+03
1.080000e-06	3.504755e-06	1.917979e-08	2.533175e+01	1.259982e+03
1.090000e-06	3.627876e-06	1.960215e-08	2.622165e+01	1.287955e+03
1.100000e-06	3.749694e-06	1.999534e-08	2.710212e+01	1.314000e+03
1.110000e-06	3.870147e-06	2.036519e-08	2.797273e+01	1.338268e+03
1.120000e-06	3.989145e-06	2.071521e-08	2.883284e+01	1.360950e+03
1.130000e-06	4.106726e-06	2.104382e-08	2.968269e+01	1.382255e+03
1.140000e-06	4.222823e-06	2.135219e-08	3.052181e+01	1.402382e+03
1.150000e-06	4.337271e-06	2.164283e-08	3.134902e+01	1.421492e+03
1.160000e-06	4.450029e-06	2.191847e-08	3.216402e+01	1.439689e+03
1.170000e-06	4.561080e-06	2.218103e-08	3.296668e+01	1.457022e+03
1.180000e-06	4.670541e-06	2.242953e-08	3.375785e+01	1.473493e+03
1.190000e-06	4.778501e-06	2.266671e-08	3.453816e+01	1.489086e+03
1.200000e-06	4.884841e-06	2.289035e-08	3.530677e+01	1.503792e+03
1.210000e-06	4.989408e-06	2.310151e-08	3.606256e+01	1.517627e+03
1.220000e-06	5.092073e-06	2.329934e-08	3.680460e+01	1.530644e+03
1.230000e-06	5.192865e-06	2.348644e-08	3.753311e+01	1.542928e+03
1.240000e-06	5.291769e-06	2.366368e-08	3.824797e+01	1.554581e+03
1.250000e-06	5.388634e-06	2.383042e-08	3.894809e+01	1.565700e+03
1.260000e-06	5.483452e-06	2.399191e-08	3.963342e+01	1.576357e+03
1.270000e-06	5.576416e-06	2.414926e-08	4.030534e+01	1.586586e+03
1.280000e-06	5.667503e-06	2.430073e-08	4.096371e+01	1.596384e+03
1.290000e-06	5.756459e-06	2.444361e-08	4.160667e+01	1.605717e+03
1.300000e-06	5.843212e-06	2.457832e-08	4.223370e+01	1.614541e+03
1.310000e-06	5.927941e-06	2.470483e-08	4.284611e+01	1.622819e+03
1.320000e-06	6.010629e-06	2.482430e-08	4.344376e+01	1.630540e+03
1.330000e-06	6.091102e-06	2.493559e-08	4.402541e+01	1.637730e+03
1.340000e-06	6.169343e-06	2.503959e-08	4.459092e+01	1.644441e+03
1.350000e-06	6.245305e-06	2.513801e-08	4.513996e+01	1.650749e+03
1.360000e-06	6.318846e-06	2.523065e-08	4.567150e+01	1.656731e+03
1.370000e-06	6.390025e-06	2.531819e-08	4.618597e+01	1.662450e+03
1.380000e-06	6.458961e-06	2.540224e-08	4.668423e+01	1.667945e+03
1.390000e-06	6.525598e-06	2.548375e-08	4.716587e+01	1.673224e+03
1.400000e-06	6.589873e-06	2.555971e-08	4.763044e+01	1.678270e+03
1.410000e-06	6.651856e-06	2.562881e-08	4.807844e+01	1.683056e+03
1.420000e-06	6.711623e-06	2.569249e-08	4.851042e+01	1.687552e+03
1.430000e-06	6.769015e-06	2.575411e-08	4.892524e+01	1.691745e+03
1.440000e-06	6.823967e-06	2.581427e-08	4.932243e+01	1.695640e+03
1.450000e-06	6.876290e-06	2.587240e-08	4.970060e+01	1.699260e+03
1.460000e-06	6.925728e-06	2.592721e-08	5.005793e+01	1.702641e+03
1.470000e-06	6.972506e-06	2.597801e-08	5.039604e+01	1.705817e+03
1.480000e-06	7.016943e-06	2.602613e-08	5.071722e+01	1.708812e+03
1.490000e-06	7.058876e-06	2.607035e-08	5.102030e+01	1.711631e+03
1.500000e-06	7.098146e-06	2.610898e-08	5.130414e+01	1.714259e+03
1.510000e-06	7.135011e-06	2.614296e-08	5.157059e+01	1.716669e+03
1.520000e-06	7.169440e-06	2.617459e-08	5.181945e+01	1.718832e+03
1.530000e-06	7.201259e-06	2.620375e-08	5.204942e+01	1.720725e+03
1.540000e-06	7.230571e-06	2.622942e-08	5.226129e+01	1.722345e+03
1.550000e-06	7.257352e-06	2.625150e-08	5.245485e+01	1.723709e+03
1.560000e-06	7.281399e-06	2.627083e-08	5.262866e+01	1.724850e+03
1.570000e-06	7.302839e-06	2.628801e-08	5.278363e+01	1.725812e+03
1.580000e-06	7.321832e-06	2.630192e-08	5.292090e+01	1.726636e+03
1.590000e-06	7.338158e-06	2.631326e-08	5.303891e+01	1.727347e+03
1.600000e-06	7.351637e-06	2.632214e-08	5.313633e+01	1.727954e+03
1.610000e-06	7.362208e-06	2.632907e-08	5.321273e+01	1.728441e+03
1.620000e-06	7.369972e-06	2.633380e-08	5.326885e+01	1.728782e+03
1.630000e-06	7.375165e-06	2.633624e-08	5.330639e+01	1.728945e+03
1.640000e-06	7.377768e-06	2.633701e-08	5.332520e+01	1.728905e+03
1.650000e-06	7.377696e-06	2.633871e-08	5.332468e+01	1.728654e+03
1.660000e-06	7.375129e-06	2.632726e-08	5.330613e+01	1.728201e+03
1.670000e-06	7.370168e-06	2.631666e-08	5.327027e+01	1.727573e+03
1.680000e-06	7.362690e-06	2.630955e-08	5.321622e+01	1.726803e+03
1.690000e-06	7.352782e-06	2.629673e-08	5.314460e+01	1.725921e+03
1.700000e-06	7.340291e-06	2.628249e-08	5.305432e+01	1.724948e+03
1.710000e-06	7.325139e-06	2.627309e-08	5.294481e+01	1.723884e+03
1.720000e-06	7.307716e-06	2.627138e-08	5.281887e+01	1.722717e+03
1.730000e-06	7.288228e-06	2.624344e-08	5.267802e+01	1.721424e+03
1.740000e-06	7.266221e-06	2.610899e-08	5.251896e+01	1.719983e+03
1.750000e-06	7.240948e-06	2.611388e-08	5.233629e+01	1.718384e+03
1.760000e-06	7.212173e-06	2.615834e-08	5.212831e+01	1.716633e+03
1.770000e-06	7.180524e-06	2.610673e-08	5.189956e+01	1.714750e+03
1.780000e-06	7.146784e-06	2.609393e-08	5.165569e+01	1.712770e+03
1.790000e-06	7.111315e-06	2.620214e-08	5.139932e+01	1.710720e+03
1.800000e-06	7.074238e-06	2.605694e-08	5.113134e+01	1.708618e+03
1.810000e-06	7.034912e-06	2.593383e-08	5.084710e+01	1.706452e+03
1.820000e-06	6.992906e-06	2.609043e-08	5.054349e+01	1.704187e+03
1.830000e-06	6.948647e-06	2.590054e-08	5.022359e+01	1.701762e+03
1.840000e-06	6.901922e-06	2.596782e-08	4.988587e+01	1.699103e+03
1.850000e-06	6.852519e-06	2.593407e-08	4.952880e+01	1.696146e+03
1.860000e-06	6.800509e-06	2.577525e-08	4.915288e+01	1.692844e+03
1.870000e-06	6.745672e-06	2.586340e-08	4.875652e+01	1.689185e+03
1.880000e-06	6.688360e-06	2.566792e-08	4.834229e+01	1.685190e+03
1.890000e-06	6.628550e-06	2.569272e-08	4.790999e+01	1.680910e+03
1.900000e-06	6.566047e-06	2.562919e-08	4.745823e+01	1.676408e+03
1.910000e-06	6.501111e-06	2.546877e-08	4.698888e+01	1.671744e+03
1.920000e-06	6.433770e-06	2.548437e-08	4.650215e+01	1.666954e+03
1.930000e-06	6.363990e-06	2.535016e-08	4.599780e+01	1.662042e+03
1.940000e-06	6.291733e-06	2.534784e-08	4.547553e+01	1.656979e+03
1.950000e-06	6.217069e-06	2.521534e-08	4.493587e+01	1.651706e+03
1.960000e-06	6.139846e-06	2.513008e-08	4.437772e+01	1.646157e+03
1.970000e-06	6.060077e-06	2.505473e-08	4.380116e+01	1.640272e+03
1.980000e-06	5.978205e-06	2.489837e-08	4.320941e+01	1.634013e+03
1.990000e-06	5.894282e-06	2.488065e-08	4.260282e+01	1.627375e+03
2.000000e-06	5.808242e-06	2.474028e-08	4.198094e+01	1.620378e+03
2.010000e-06	5.720030e-06	2.465106e-08	4.134336e+01	1.613063e+03
2.020000e-06	5.629810e-06	2.451069e-08	4.069127e+01	1.605470e+03
2.030000e-06	5.537663e-06	2.438888e-08	4.002525e+01	1.597626e+03
2.040000e-06	5.443425e-06	2.427820e-08	3.934411e+01	1.589528e+03
2.050000e-06	5.347218e-06	2.414351e-08	3.864875e+01	1.581145e+03
2.060000e-06	5.249280e-06	2.403859e-08	3.794086e+01	1.572421e+03
2.070000e-06	5.149684e-06	2.387224e-08	3.722101e+01	1.563287e+03
2.080000e-06	5.048196e-06	2.372916e-08	3.648746e+01	1.553684e+03
2.090000e-06	4.944756e-06	2.355896e-08	3.573982e+01	1.543572e+03
2.100000e-06	4.839524e-06	2.341674e-08	3.497922e+01	1.532941e+03
2.110000e-06	4.732752e-06	2.324868e-08	3.420750e+01	1.521810e+03
2.120000e-06	4.624438e-06	2.307073e-08	3.342462e+01	1.510209e+03
2.130000e-06	4.514477e-06	2.288260e-08	3.262984e+01	1.498172e+03
2.140000e-06	4.402805e-06	2.269086e-08	3.182269e+01	1.485708e+03
2.150000e-06	4.289402e-06	2.250001e-08	3.100304e+01	1.472799e+03
2.160000e-06	4.174301e-06	2.229805e-08	3.017111e+01	1.459387e+03
2.170000e-06	4.057421e-06	2.209515e-08	2.932632e+01	1.445390e+03
2.180000e-06	3.938933e-06	2.186263e-08	2.846991e+01	1.430713e+03
2.190000e-06	3.818892e-06	2.162552e-08	2.760227e+01	1.415269e+03
2.200000e-06	3.697388e-06	2.136944e-08	2.672406e+01	1.398996e+03
2.210000e-06	3.574603e-06	2.111607e-08	2.583660e+01	1.381867e+03
2.220000e-06	3.450472e-06	2.084592e-08	2.493940e+01	1.363880e+03
2.230000e-06	3.325009e-06	2.056621e-08	2.403257e+01	1.345051e+03
2.240000e-06	3.198295e-06	2.026790e-08	2.311671e+01	1.325385e+03
2.250000e-06	3.070413e-06	1.995803e-08	2.219240e+01	1.304856e+03
2.260000e-06	2.941401e-06	1.963418e-08	2.125993e+01	1.283392e+03
2.270000e-06	2.811390e-06	1.928959e-08	2.032023e+01	1.260868e+03
2.280000e-06	2.680416e-06	1.892564e-08	1.937357e+01	1.237119e+03
2.290000e-06	2.548335e-06	1.853681e-08	1.841892e+01	1.211962e+03
2.300000e-06	2.415306e-06	1.812834e-08	1.745740e+01	1.185216e+03
2.310000e-06	2.281513e-06	1.769407e-08	1.649037e+01	1.156732e+03
2.320000e-06	2.147008e-06	1.723903e-08	1.551819e+01	1.126395e+03
2.330000e-06	2.011774e-06	1.675272e-08	1.454074e+01	1.094118e+03
2.340000e-06	1.875807e-06	1.623297e-08	1.355800e+01	1.059825e+03
2.350000e-06	1.739190e-06	1.567477e-08	1.257056e+01	1.023411e+03
2.360000e-06	1.601957e-06	1.508127e-08	1.157866e+01	9.847192e+02
2.370000e-06	1.464185e-06	1.445220e-08	1.058287e+01	9.435212e+02
2.380000e-06	1.325980e-06	1.377938e-08	9.583949e+00	8.995279e+02
2.390000e-06	1.187397e-06	1.305850e-08	8.582294e+00	8.524246e+02
2.400000e-06	1.048365e-06	1.228425e-08	7.577396e+00	8.019310e+02
2.410000e-06	9.087966e-07	1.145559e-08	6.568621e+00	7.478729e+02
2.420000e-06	7.688274e-07	1.057687e-08	5.556948e+00	6.902487e+02
2.430000e-06	6.286235e-07	9.653312e-09	4.543579e+00	6.292719e+02
2.440000e-06	4.881991e-07	8.686617e-09	3.528616e+00	5.653740e+02
2.450000e-06	3.475548e-07	7.679384e-09	2.512065e+00	4.991617e+02
2.460000e-06	2.067339e-07	6.640888e-09	1.494236e+00	4.313316e+02
2.470000e-06	6.578408e-08	5.582889e-09	4.754757e-01	3.625569e+02
2.480000e-06	-7.525462e-08	4.517401e-09	-5.439271e-01	2.933713e+02
2.490000e-06	-2.162711e-07	3.452487e-09	-1.563170e+00	2.240737e+02
2.500000e-06	-3.571712e-07	2.388372e-09	-2.581570e+00	1.546802e+02
2.510000e-06	-4.979992e-07	1.321760e-09	-3.599450e+00	8.493585e+01
2.520000e-06	-6.387150e-07	2.460768e-10	-4.616519e+00	1.438888e+01
2.530000e-06	-7.792041e-07	-8.473796e-10	-5.631949e+00	-5.748507e+01
2.540000e-06	-9.193229e-07	-1.967547e-09	-6.644703e+00	-1.311337e+02
2.550000e-06	-1.058956e-06	-3.119882e-09	-7.653947e+00	-2.067838e+02
2.560000e-06	-1.198076e-06	-4.303583e-09	-8.659483e+00	-2.843342e+02
2.570000e-06	-1.336706e-06	-5.513908e-09	-9.661471e+00	-3.633076e+02
2.580000e-06	-1.474905e-06	-6.736206e-09	-1.066035e+01	-4.428741e+02
2.590000e-06	-1.612613e-06	-7.953001e-09	-1.165568e+01	-5.219413e+02
2.600000e-06	-1.749730e-06	-9.142047e-09	-1.264674e+01	-5.992935e+02
2.610000e-06	-1.886149e-06	-1.028093e-08	-1.363275e+01	-6.737511e+02
2.620000e-06	-2.021797e-06	-1.135754e-08	-1.461319e+01	-7.443199e+02
2.630000e-06	-2.156619e-06	-1.236297e-08	-1.558766e+01	-8.103020e+02
2.640000e-06	-2.290603e-06	-1.329368e-08	-1.655608e+01	-8.713494e+02
2.650000e-06	-2.423828e-06	-1.415026e-08	-1.751900e+01	-9.274565e+02
2.660000e-06	-2.556140e-06	-1.493890e-08	-1.847533e+01	-9.788975e+02
2.670000e-06	-2.687356e-06	-1.566488e-08	-1.942373e+01	-1.026129e+03
2.680000e-06	-2.817613e-06	-1.633576e-08	-2.036521e+01	-1.069683e+03
2.690000e-06	-2.946926e-06	-1.696166e-08	-2.129986e+01	-1.110066e+03
2.700000e-06	-3.075170e-06	-1.754408e-08	-2.222678e+01	-1.147695e+03
2.710000e-06	-3.202332e-06	-1.808558e-08	-2.314589e+01	-1.182869e+03
2.720000e-06	-3.328388e-06	-1.858538e-08	-2.405700e+01	-1.215779e+03
2.730000e-06	-3.453250e-06	-1.904989e-08	-2.495948e+01	-1.246537e+03
2.740000e-06	-3.576738e-06	-1.948349e-08	-2.585203e+01	-1.275227e+03
2.750000e-06	-3.698938e-06	-1.988991e-08	-2.673527e+01	-1.301946e+03
2.760000e-06	-3.819918e-06	-2.027297e-08	-2.760969e+01	-1.326829e+03
2.770000e-06	-3.939475e-06	-2.063029e-08	-2.847383e+01	-1.350055e+03
2.780000e-06	-4.057558e-06	-2.096582e-08	-2.932731e+01	-1.371828e+03
2.790000e-06	-4.174028e-06	-2.128313e-08	-3.016913e+01	-1.392355e+03
2.800000e-06	-4.288760e-06	-2.158486e-08	-3.099840e+01	-1.411814e+03
2.810000e-06	-4.401763e-06	-2.186902e-08	-3.181516e+01	-1.430330e+03
2.820000e-06	-4.513049e-06	-2.213451e-08	-3.261952e+01	-1.447969e+03
2.830000e-06	-4.622686e-06	-2.238547e-08	-3.341196e+01	-1.464750e+03
2.840000e-06	-4.730796e-06	-2.262424e-08	-3.419335e+01	-1.480660e+03
2.850000e-06	-4.837430e-06	-2.285034e-08	-3.496409e+01	-1.495683e+03
2.860000e-06	-4.942405e-06	-2.306656e-08	-3.572282e+01	-1.509825e+03
2.870000e-06	-5.045477e-06	-2.327262e-08	-3.646782e+01	-1.523126e+03
2.880000e-06	-5.146531e-06	-2.346851e-08	-3.719822e+01	-1.535662e+03
2.890000e-06	-5.245700e-06	-2.365529e-08	-3.791499e+01	-1.547529e+03
2.900000e-06	-5.343162e-06	-2.383147e-08	-3.861943e+01	-1.558829e+03
2.910000e-06	-5.438782e-06	-2.399861e-08	-3.931056e+01	-1.569645e+03
2.920000e-06	-5.532347e-06	-2.415626e-08	-3.998683e+01	-1.580027e+03
2.930000e-06	-5.623853e-06	-2.430493e-08	-4.064821e+01	-1.589982e+03
2.940000e-06	-5.713403e-06	-2.444515e-08	-4.129547e+01	-1.599487e+03
