# Temperatura_=_89.7
# Concentracion g/m^3_=_28200.0
# C_Vs_to_Am_M_A/Vsm_=_65563218390.804596
# pendiente_HvsI_1/m_=_3716.3
# ordenada_HvsI_A/m_=_1297.0
# frecuencia_Hz_=_302391.55073688406

Tiempo_(s)	Campo_(V.s)	Magnetizacion_(V.s)	Campo_(kA/m)	Magnetizacion_(A/m)
0.000000e+00	-7.293903e-06	-2.846628e-08	-5.318594e+01	-1.864811e+03
1.000000e-08	-7.290151e-06	-2.846536e-08	-5.315858e+01	-1.864133e+03
2.000000e-08	-7.284090e-06	-2.845038e-08	-5.311438e+01	-1.863278e+03
3.000000e-08	-7.275690e-06	-2.843223e-08	-5.305313e+01	-1.862282e+03
4.000000e-08	-7.264743e-06	-2.841278e-08	-5.297331e+01	-1.861171e+03
5.000000e-08	-7.251021e-06	-2.839103e-08	-5.287325e+01	-1.859949e+03
6.000000e-08	-7.234583e-06	-2.836289e-08	-5.275339e+01	-1.858600e+03
7.000000e-08	-7.215945e-06	-2.832896e-08	-5.261748e+01	-1.857096e+03
8.000000e-08	-7.195308e-06	-2.830505e-08	-5.246700e+01	-1.855404e+03
9.000000e-08	-7.172086e-06	-2.837206e-08	-5.229767e+01	-1.853505e+03
1.000000e-07	-7.145829e-06	-2.834745e-08	-5.210621e+01	-1.851400e+03
1.100000e-07	-7.116728e-06	-2.823119e-08	-5.189401e+01	-1.849113e+03
1.200000e-07	-7.085152e-06	-2.817772e-08	-5.166376e+01	-1.846684e+03
1.300000e-07	-7.051102e-06	-2.814689e-08	-5.141547e+01	-1.844158e+03
1.400000e-07	-7.014838e-06	-2.805231e-08	-5.115104e+01	-1.841568e+03
1.500000e-07	-6.976825e-06	-2.796101e-08	-5.087386e+01	-1.838919e+03
1.600000e-07	-6.936701e-06	-2.808399e-08	-5.058128e+01	-1.836185e+03
1.700000e-07	-6.894062e-06	-2.796133e-08	-5.027036e+01	-1.833304e+03
1.800000e-07	-6.849070e-06	-2.781303e-08	-4.994229e+01	-1.830198e+03
1.900000e-07	-6.801557e-06	-2.789810e-08	-4.959583e+01	-1.826781e+03
2.000000e-07	-6.751168e-06	-2.775946e-08	-4.922841e+01	-1.822991e+03
2.100000e-07	-6.698081e-06	-2.769958e-08	-4.884130e+01	-1.818793e+03
2.200000e-07	-6.642496e-06	-2.764714e-08	-4.843598e+01	-1.814199e+03
2.300000e-07	-6.584401e-06	-2.751803e-08	-4.801236e+01	-1.809253e+03
2.400000e-07	-6.523905e-06	-2.749330e-08	-4.757124e+01	-1.804025e+03
2.500000e-07	-6.461062e-06	-2.739789e-08	-4.711300e+01	-1.798588e+03
2.600000e-07	-6.395709e-06	-2.732299e-08	-4.663646e+01	-1.792992e+03
2.700000e-07	-6.327867e-06	-2.723141e-08	-4.614176e+01	-1.787258e+03
2.800000e-07	-6.257730e-06	-2.715142e-08	-4.563034e+01	-1.781364e+03
2.900000e-07	-6.185274e-06	-2.704005e-08	-4.510200e+01	-1.775255e+03
3.000000e-07	-6.110323e-06	-2.690582e-08	-4.455547e+01	-1.768857e+03
3.100000e-07	-6.032763e-06	-2.685992e-08	-4.398991e+01	-1.762102e+03
3.200000e-07	-5.952672e-06	-2.674100e-08	-4.340590e+01	-1.754940e+03
3.300000e-07	-5.870396e-06	-2.662086e-08	-4.280596e+01	-1.747356e+03
3.400000e-07	-5.786254e-06	-2.647903e-08	-4.219241e+01	-1.739372e+03
3.500000e-07	-5.700251e-06	-2.635608e-08	-4.156529e+01	-1.731033e+03
3.600000e-07	-5.612215e-06	-2.625058e-08	-4.092334e+01	-1.722394e+03
3.700000e-07	-5.521993e-06	-2.610295e-08	-4.026546e+01	-1.713495e+03
3.800000e-07	-5.429764e-06	-2.596696e-08	-3.959295e+01	-1.704346e+03
3.900000e-07	-5.335664e-06	-2.581560e-08	-3.890678e+01	-1.694921e+03
4.000000e-07	-5.239690e-06	-2.566527e-08	-3.820695e+01	-1.685158e+03
4.100000e-07	-5.141804e-06	-2.549703e-08	-3.749318e+01	-1.674979e+03
4.200000e-07	-5.042155e-06	-2.534922e-08	-3.676656e+01	-1.664302e+03
4.300000e-07	-4.940845e-06	-2.518581e-08	-3.602783e+01	-1.653069e+03
4.400000e-07	-4.837767e-06	-2.499451e-08	-3.527620e+01	-1.641255e+03
4.500000e-07	-4.733000e-06	-2.480187e-08	-3.451225e+01	-1.628870e+03
4.600000e-07	-4.626484e-06	-2.460916e-08	-3.373556e+01	-1.615954e+03
4.700000e-07	-4.518264e-06	-2.441219e-08	-3.294643e+01	-1.602554e+03
4.800000e-07	-4.408467e-06	-2.420563e-08	-3.214581e+01	-1.588703e+03
4.900000e-07	-4.297058e-06	-2.399450e-08	-3.133344e+01	-1.574403e+03
5.000000e-07	-4.184014e-06	-2.375578e-08	-3.050914e+01	-1.559616e+03
5.100000e-07	-4.069212e-06	-2.350460e-08	-2.967202e+01	-1.544264e+03
5.200000e-07	-3.952714e-06	-2.325326e-08	-2.882254e+01	-1.528248e+03
5.300000e-07	-3.834783e-06	-2.300386e-08	-2.796261e+01	-1.511466e+03
5.400000e-07	-3.715497e-06	-2.273852e-08	-2.709279e+01	-1.493837e+03
5.500000e-07	-3.594860e-06	-2.245678e-08	-2.621313e+01	-1.475314e+03
5.600000e-07	-3.472783e-06	-2.216166e-08	-2.532296e+01	-1.455886e+03
5.700000e-07	-3.349277e-06	-2.185412e-08	-2.442237e+01	-1.435569e+03
5.800000e-07	-3.224575e-06	-2.153329e-08	-2.351307e+01	-1.414379e+03
5.900000e-07	-3.098725e-06	-2.119729e-08	-2.259539e+01	-1.392312e+03
6.000000e-07	-2.971750e-06	-2.084723e-08	-2.166951e+01	-1.369317e+03
6.100000e-07	-2.843715e-06	-2.047313e-08	-2.073590e+01	-1.345288e+03
6.200000e-07	-2.714632e-06	-2.007991e-08	-1.979465e+01	-1.320068e+03
6.300000e-07	-2.584539e-06	-1.966707e-08	-1.884603e+01	-1.293471e+03
6.400000e-07	-2.453382e-06	-1.923899e-08	-1.788966e+01	-1.265304e+03
6.500000e-07	-2.321269e-06	-1.878690e-08	-1.692631e+01	-1.235397e+03
6.600000e-07	-2.188404e-06	-1.830433e-08	-1.595748e+01	-1.203617e+03
6.700000e-07	-2.054889e-06	-1.778983e-08	-1.498391e+01	-1.169873e+03
6.800000e-07	-1.920688e-06	-1.724646e-08	-1.400534e+01	-1.134090e+03
6.900000e-07	-1.785732e-06	-1.667415e-08	-1.302126e+01	-1.096182e+03
7.000000e-07	-1.650107e-06	-1.606327e-08	-1.203231e+01	-1.056015e+03
7.100000e-07	-1.513916e-06	-1.541073e-08	-1.103922e+01	-1.013383e+03
7.200000e-07	-1.377269e-06	-1.471135e-08	-1.004282e+01	-9.679989e+02
7.300000e-07	-1.240198e-06	-1.396464e-08	-9.043319e+00	-9.195259e+02
7.400000e-07	-1.102673e-06	-1.316355e-08	-8.040506e+00	-8.676267e+02
7.500000e-07	-9.647511e-07	-1.231374e-08	-7.034806e+00	-8.120363e+02
7.600000e-07	-8.264742e-07	-1.141629e-08	-6.026513e+00	-7.526366e+02
7.700000e-07	-6.878690e-07	-1.046261e-08	-5.015828e+00	-6.895136e+02
7.800000e-07	-5.489321e-07	-9.453776e-09	-4.002722e+00	-6.229786e+02
7.900000e-07	-4.097465e-07	-8.399879e-09	-2.987804e+00	-5.535446e+02
8.000000e-07	-2.704425e-07	-7.308907e-09	-1.972022e+00	-4.818554e+02
8.100000e-07	-1.309786e-07	-6.186777e-09	-9.550745e-01	-4.085802e+02
8.200000e-07	8.705466e-09	-5.048021e-09	6.347882e-02	-3.342956e+02
8.300000e-07	1.484561e-07	-3.902084e-09	1.082517e+00	-2.593811e+02
8.400000e-07	2.881197e-07	-2.752147e-09	2.100921e+00	-1.839548e+02
8.500000e-07	4.277276e-07	-1.593205e-09	3.118919e+00	-1.078679e+02
8.600000e-07	5.671362e-07	-4.223484e-10	4.135464e+00	-3.076336e+01
8.700000e-07	7.062791e-07	7.657581e-10	5.150071e+00	4.781046e+01
8.800000e-07	8.451751e-07	1.983547e-09	6.162878e+00	1.282522e+02
8.900000e-07	9.837312e-07	3.236386e-09	7.173205e+00	2.107587e+02
9.000000e-07	1.121884e-06	4.522514e-09	8.180590e+00	2.952063e+02
9.100000e-07	1.259567e-06	5.832622e-09	9.184554e+00	3.810905e+02
9.200000e-07	1.396806e-06	7.155959e-09	1.018528e+01	4.675385e+02
9.300000e-07	1.533547e-06	8.470136e-09	1.118237e+01	5.533930e+02
9.400000e-07	1.669713e-06	9.751424e-09	1.217527e+01	6.373529e+02
9.500000e-07	1.805271e-06	1.098059e-08	1.316374e+01	7.181409e+02
9.600000e-07	1.940162e-06	1.213950e-08	1.414734e+01	7.946666e+02
9.700000e-07	2.074252e-06	1.321443e-08	1.512511e+01	8.661522e+02
9.800000e-07	2.207552e-06	1.420563e-08	1.609710e+01	9.321999e+02
9.900000e-07	2.340178e-06	1.512049e-08	1.706419e+01	9.927922e+02
1.000000e-06	2.471970e-06	1.596394e-08	1.802520e+01	1.048230e+03
1.010000e-06	2.602682e-06	1.674033e-08	1.897833e+01	1.099031e+03
1.020000e-06	2.732265e-06	1.745653e-08	1.992323e+01	1.145805e+03
1.030000e-06	2.860877e-06	1.812100e-08	2.086104e+01	1.189144e+03
1.040000e-06	2.988517e-06	1.873997e-08	2.179177e+01	1.229540e+03
1.050000e-06	3.115048e-06	1.931253e-08	2.271441e+01	1.267348e+03
1.060000e-06	3.240464e-06	1.984334e-08	2.362893e+01	1.302788e+03
1.070000e-06	3.364874e-06	2.033953e-08	2.453611e+01	1.335979e+03
1.080000e-06	3.488089e-06	2.080540e-08	2.543457e+01	1.366997e+03
1.090000e-06	3.609919e-06	2.124135e-08	2.632293e+01	1.395920e+03
1.100000e-06	3.730471e-06	2.164868e-08	2.720198e+01	1.422871e+03
1.110000e-06	3.849658e-06	2.203380e-08	2.807107e+01	1.448022e+03
1.120000e-06	3.967425e-06	2.240037e-08	2.892981e+01	1.471589e+03
1.130000e-06	4.083761e-06	2.274587e-08	2.977811e+01	1.493799e+03
1.140000e-06	4.198483e-06	2.306864e-08	3.061464e+01	1.514857e+03
1.150000e-06	4.311584e-06	2.337437e-08	3.143936e+01	1.534919e+03
1.160000e-06	4.423121e-06	2.366480e-08	3.225267e+01	1.554072e+03
1.170000e-06	4.533059e-06	2.393817e-08	3.305432e+01	1.572349e+03
1.180000e-06	4.641557e-06	2.419554e-08	3.384547e+01	1.589735e+03
1.190000e-06	4.748472e-06	2.444392e-08	3.462507e+01	1.606208e+03
1.200000e-06	4.853637e-06	2.468022e-08	3.539192e+01	1.621759e+03
1.210000e-06	4.957016e-06	2.490435e-08	3.614574e+01	1.636414e+03
1.220000e-06	5.058609e-06	2.511696e-08	3.688655e+01	1.650241e+03
1.230000e-06	5.158425e-06	2.532068e-08	3.761439e+01	1.663339e+03
1.240000e-06	5.256191e-06	2.551451e-08	3.832728e+01	1.675817e+03
1.250000e-06	5.351914e-06	2.569496e-08	3.902527e+01	1.687775e+03
1.260000e-06	5.445747e-06	2.586655e-08	3.970949e+01	1.699281e+03
1.270000e-06	5.537777e-06	2.603183e-08	4.038055e+01	1.710359e+03
1.280000e-06	5.627851e-06	2.619098e-08	4.103736e+01	1.720997e+03
1.290000e-06	5.715767e-06	2.634429e-08	4.167843e+01	1.731154e+03
1.300000e-06	5.801624e-06	2.649260e-08	4.230449e+01	1.740784e+03
1.310000e-06	5.885528e-06	2.663310e-08	4.291630e+01	1.749856e+03
1.320000e-06	5.967352e-06	2.676596e-08	4.351294e+01	1.758365e+03
1.330000e-06	6.046922e-06	2.689206e-08	4.409316e+01	1.766341e+03
1.340000e-06	6.124229e-06	2.701003e-08	4.465687e+01	1.773840e+03
1.350000e-06	6.199159e-06	2.711997e-08	4.520325e+01	1.780932e+03
1.360000e-06	6.271699e-06	2.722334e-08	4.573220e+01	1.787683e+03
1.370000e-06	6.342011e-06	2.732304e-08	4.624490e+01	1.794137e+03
1.380000e-06	6.410083e-06	2.741781e-08	4.674127e+01	1.800317e+03
1.390000e-06	6.475800e-06	2.750684e-08	4.722046e+01	1.806215e+03
1.400000e-06	6.539195e-06	2.759127e-08	4.768273e+01	1.811810e+03
1.410000e-06	6.600407e-06	2.767102e-08	4.812908e+01	1.817079e+03
1.420000e-06	6.659364e-06	2.774563e-08	4.855899e+01	1.822007e+03
1.430000e-06	6.715944e-06	2.781582e-08	4.897156e+01	1.826602e+03
1.440000e-06	6.770139e-06	2.788206e-08	4.936673e+01	1.830892e+03
1.450000e-06	6.821683e-06	2.794527e-08	4.974259e+01	1.834919e+03
1.460000e-06	6.870372e-06	2.800643e-08	5.009762e+01	1.838730e+03
1.470000e-06	6.916491e-06	2.806443e-08	5.043391e+01	1.842358e+03
1.480000e-06	6.960281e-06	2.811835e-08	5.075322e+01	1.845814e+03
1.490000e-06	7.001566e-06	2.816909e-08	5.105427e+01	1.849087e+03
1.500000e-06	7.040265e-06	2.821609e-08	5.133645e+01	1.852141e+03
1.510000e-06	7.076618e-06	2.825818e-08	5.160153e+01	1.854932e+03
1.520000e-06	7.110465e-06	2.829647e-08	5.184834e+01	1.857419e+03
1.530000e-06	7.141644e-06	2.832961e-08	5.207569e+01	1.859579e+03
1.540000e-06	7.170450e-06	2.835793e-08	5.228574e+01	1.861415e+03
1.550000e-06	7.196753e-06	2.838311e-08	5.247753e+01	1.862956e+03
1.560000e-06	7.220287e-06	2.840561e-08	5.264914e+01	1.864249e+03
1.570000e-06	7.241233e-06	2.842601e-08	5.280188e+01	1.865348e+03
1.580000e-06	7.259735e-06	2.844320e-08	5.293679e+01	1.866295e+03
1.590000e-06	7.275554e-06	2.845601e-08	5.305214e+01	1.867115e+03
1.600000e-06	7.288597e-06	2.846444e-08	5.314725e+01	1.867804e+03
1.610000e-06	7.298741e-06	2.847045e-08	5.322121e+01	1.868340e+03
1.620000e-06	7.306001e-06	2.847487e-08	5.327416e+01	1.868685e+03
1.630000e-06	7.310774e-06	2.847686e-08	5.330896e+01	1.868804e+03
1.640000e-06	7.313001e-06	2.847696e-08	5.332520e+01	1.868675e+03
1.650000e-06	7.312601e-06	2.847595e-08	5.332228e+01	1.868297e+03
1.660000e-06	7.309816e-06	2.846072e-08	5.330197e+01	1.867691e+03
1.670000e-06	7.304595e-06	2.844974e-08	5.326390e+01	1.866893e+03
1.680000e-06	7.296827e-06	2.844015e-08	5.320726e+01	1.865943e+03
1.690000e-06	7.286703e-06	2.842511e-08	5.313344e+01	1.864871e+03
1.700000e-06	7.274063e-06	2.841068e-08	5.304127e+01	1.863688e+03
1.710000e-06	7.258818e-06	2.840137e-08	5.293010e+01	1.862387e+03
1.720000e-06	7.241328e-06	2.839986e-08	5.280257e+01	1.860941e+03
1.730000e-06	7.221810e-06	2.834457e-08	5.266024e+01	1.859318e+03
1.740000e-06	7.199735e-06	2.819975e-08	5.249928e+01	1.857493e+03
1.750000e-06	7.174318e-06	2.821210e-08	5.231394e+01	1.855459e+03
1.760000e-06	7.145467e-06	2.824388e-08	5.210356e+01	1.853233e+03
1.770000e-06	7.113836e-06	2.818669e-08	5.187292e+01	1.850848e+03
1.780000e-06	7.080111e-06	2.819964e-08	5.162700e+01	1.848352e+03
1.790000e-06	7.044704e-06	2.827168e-08	5.136882e+01	1.845781e+03
1.800000e-06	7.007761e-06	2.806234e-08	5.109943e+01	1.843154e+03
1.810000e-06	6.968475e-06	2.801237e-08	5.081297e+01	1.840455e+03
1.820000e-06	6.926449e-06	2.811215e-08	5.050653e+01	1.837634e+03
1.830000e-06	6.882217e-06	2.792285e-08	5.018399e+01	1.834617e+03
1.840000e-06	6.835547e-06	2.803962e-08	4.984368e+01	1.831319e+03
1.850000e-06	6.786270e-06	2.790851e-08	4.948436e+01	1.827667e+03
1.860000e-06	6.734430e-06	2.777385e-08	4.910635e+01	1.823615e+03
1.870000e-06	6.679741e-06	2.783851e-08	4.870757e+01	1.819158e+03
1.880000e-06	6.622567e-06	2.763603e-08	4.829067e+01	1.814330e+03
1.890000e-06	6.563004e-06	2.766024e-08	4.785635e+01	1.809193e+03
1.900000e-06	6.500826e-06	2.754432e-08	4.740295e+01	1.803822e+03
1.910000e-06	6.436166e-06	2.742556e-08	4.693146e+01	1.798278e+03
1.920000e-06	6.369151e-06	2.739832e-08	4.644280e+01	1.792593e+03
1.930000e-06	6.299776e-06	2.724452e-08	4.593693e+01	1.786760e+03
1.940000e-06	6.227868e-06	2.725455e-08	4.541258e+01	1.780735e+03
1.950000e-06	6.153575e-06	2.707658e-08	4.487085e+01	1.774448e+03
1.960000e-06	6.076766e-06	2.697959e-08	4.431078e+01	1.767827e+03
1.970000e-06	5.997382e-06	2.688254e-08	4.373192e+01	1.760812e+03
1.980000e-06	5.915869e-06	2.674339e-08	4.313754e+01	1.753378e+03
1.990000e-06	5.832371e-06	2.668877e-08	4.252869e+01	1.745531e+03
2.000000e-06	5.746838e-06	2.652016e-08	4.190499e+01	1.737312e+03
2.010000e-06	5.659164e-06	2.642840e-08	4.126569e+01	1.728774e+03
2.020000e-06	5.569465e-06	2.625529e-08	4.061162e+01	1.719963e+03
2.030000e-06	5.477879e-06	2.612033e-08	3.994379e+01	1.710904e+03
2.040000e-06	5.384287e-06	2.599690e-08	3.926133e+01	1.701582e+03
2.050000e-06	5.288695e-06	2.585473e-08	3.856429e+01	1.691948e+03
2.060000e-06	5.191320e-06	2.570092e-08	3.785425e+01	1.681926e+03
2.070000e-06	5.092250e-06	2.550460e-08	3.713185e+01	1.671434e+03
2.080000e-06	4.991438e-06	2.535653e-08	3.639674e+01	1.660404e+03
2.090000e-06	4.888726e-06	2.517096e-08	3.564779e+01	1.648797e+03
2.100000e-06	4.784148e-06	2.500303e-08	3.488522e+01	1.636612e+03
2.110000e-06	4.678007e-06	2.480734e-08	3.411125e+01	1.623879e+03
2.120000e-06	4.570344e-06	2.460893e-08	3.332619e+01	1.610646e+03
2.130000e-06	4.461148e-06	2.438567e-08	3.252995e+01	1.596953e+03
2.140000e-06	4.350329e-06	2.416921e-08	3.172188e+01	1.582815e+03
2.150000e-06	4.237789e-06	2.396420e-08	3.090126e+01	1.568208e+03
2.160000e-06	4.123573e-06	2.373973e-08	3.006841e+01	1.553067e+03
2.170000e-06	4.007679e-06	2.350087e-08	2.922334e+01	1.537300e+03
2.180000e-06	3.890145e-06	2.323576e-08	2.836630e+01	1.520801e+03
2.190000e-06	3.770972e-06	2.297198e-08	2.749730e+01	1.503481e+03
2.200000e-06	3.650345e-06	2.268915e-08	2.661771e+01	1.485280e+03
2.210000e-06	3.528391e-06	2.240635e-08	2.572845e+01	1.466174e+03
2.220000e-06	3.405084e-06	2.210555e-08	2.482931e+01	1.446171e+03
2.230000e-06	3.280584e-06	2.179373e-08	2.392148e+01	1.425291e+03
2.240000e-06	3.154954e-06	2.145834e-08	2.300540e+01	1.403539e+03
2.250000e-06	3.028072e-06	2.111311e-08	2.208020e+01	1.380884e+03
2.260000e-06	2.899958e-06	2.075576e-08	2.114602e+01	1.357238e+03
2.270000e-06	2.770793e-06	2.037910e-08	2.020417e+01	1.332464e+03
2.280000e-06	2.640652e-06	1.997887e-08	1.925520e+01	1.306380e+03
2.290000e-06	2.509553e-06	1.955165e-08	1.829924e+01	1.278794e+03
2.300000e-06	2.377630e-06	1.910234e-08	1.733728e+01	1.249525e+03
2.310000e-06	2.244991e-06	1.862726e-08	1.637010e+01	1.218425e+03
2.320000e-06	2.111656e-06	1.813071e-08	1.539785e+01	1.185391e+03
2.330000e-06	1.977559e-06	1.760000e-08	1.442004e+01	1.150343e+03
2.340000e-06	1.842687e-06	1.703682e-08	1.343657e+01	1.113206e+03
2.350000e-06	1.707150e-06	1.643740e-08	1.244826e+01	1.073865e+03
2.360000e-06	1.570986e-06	1.579955e-08	1.145537e+01	1.032141e+03
2.370000e-06	1.434250e-06	1.512041e-08	1.045832e+01	9.877757e+02
2.380000e-06	1.297083e-06	1.439603e-08	9.458118e+00	9.404452e+02
2.390000e-06	1.159579e-06	1.361885e-08	8.455457e+00	8.898046e+02
2.400000e-06	1.021704e-06	1.278414e-08	7.450099e+00	8.355543e+02
2.410000e-06	8.834351e-07	1.189667e-08	6.441863e+00	7.775158e+02
2.420000e-06	7.448711e-07	1.096008e-08	5.431477e+00	7.156977e+02
2.430000e-06	6.060696e-07	9.972839e-09	4.419360e+00	6.503309e+02
2.440000e-06	4.670129e-07	8.936574e-09	3.405381e+00	5.818623e+02
2.450000e-06	3.277653e-07	7.856835e-09	2.390010e+00	5.108996e+02
2.460000e-06	1.883799e-07	6.742940e-09	1.373635e+00	4.381165e+02
2.470000e-06	4.890536e-08	5.603136e-09	3.566098e-01	3.641359e+02
2.480000e-06	-9.056729e-08	4.449668e-09	-6.604017e-01	2.894176e+02
2.490000e-06	-2.300419e-07	3.292952e-09	-1.677428e+00	2.141770e+02
2.500000e-06	-3.694857e-07	2.129867e-09	-2.694229e+00	1.383573e+02
2.510000e-06	-5.087938e-07	9.582794e-10	-3.710040e+00	6.166522e+01
2.520000e-06	-6.479187e-07	-2.277045e-10	-4.724516e+00	-1.633290e+01
2.530000e-06	-7.868124e-07	-1.436095e-09	-5.737306e+00	-9.607236e+01
2.540000e-06	-9.254269e-07	-2.673612e-09	-6.748060e+00	-1.778379e+02
2.550000e-06	-1.063682e-06	-3.945743e-09	-7.756196e+00	-2.616307e+02
2.560000e-06	-1.201524e-06	-5.251082e-09	-8.761313e+00	-3.470849e+02
2.570000e-06	-1.338986e-06	-6.579650e-09	-9.763663e+00	-4.334531e+02
2.580000e-06	-1.476065e-06	-7.910165e-09	-1.076322e+01	-5.196657e+02
2.590000e-06	-1.612662e-06	-9.217478e-09	-1.175927e+01	-6.044546e+02
2.600000e-06	-1.748630e-06	-1.047666e-08	-1.275072e+01	-6.865144e+02
2.610000e-06	-1.883839e-06	-1.167063e-08	-1.373665e+01	-7.646708e+02
2.620000e-06	-2.018254e-06	-1.278747e-08	-1.471677e+01	-8.380234e+02
2.630000e-06	-2.151885e-06	-1.381953e-08	-1.569119e+01	-9.060350e+02
2.640000e-06	-2.284692e-06	-1.476939e-08	-1.665960e+01	-9.685566e+02
2.650000e-06	-2.416620e-06	-1.564351e-08	-1.762160e+01	-1.025786e+03
2.660000e-06	-2.547660e-06	-1.644984e-08	-1.857712e+01	-1.078176e+03
2.670000e-06	-2.677783e-06	-1.719416e-08	-1.952595e+01	-1.126318e+03
2.680000e-06	-2.807025e-06	-1.788354e-08	-2.046836e+01	-1.170821e+03
2.690000e-06	-2.935320e-06	-1.852590e-08	-2.140387e+01	-1.212221e+03
2.700000e-06	-3.062399e-06	-1.912296e-08	-2.233050e+01	-1.250923e+03
2.710000e-06	-3.188310e-06	-1.967739e-08	-2.324863e+01	-1.287191e+03
2.720000e-06	-3.313134e-06	-2.019310e-08	-2.415882e+01	-1.321177e+03
2.730000e-06	-3.436655e-06	-2.067387e-08	-2.505952e+01	-1.352964e+03
2.740000e-06	-3.558865e-06	-2.112387e-08	-2.595066e+01	-1.382625e+03
2.750000e-06	-3.679948e-06	-2.154425e-08	-2.683358e+01	-1.410263e+03
2.760000e-06	-3.799751e-06	-2.193857e-08	-2.770716e+01	-1.436035e+03
2.770000e-06	-3.918015e-06	-2.231102e-08	-2.856952e+01	-1.460143e+03
2.780000e-06	-4.034817e-06	-2.266441e-08	-2.942122e+01	-1.482813e+03
2.790000e-06	-4.150075e-06	-2.299727e-08	-3.026167e+01	-1.504262e+03
2.800000e-06	-4.263512e-06	-2.330971e-08	-3.108882e+01	-1.524667e+03
2.810000e-06	-4.375187e-06	-2.360577e-08	-3.190314e+01	-1.544139e+03
2.820000e-06	-4.485265e-06	-2.388769e-08	-3.270581e+01	-1.562729e+03
2.830000e-06	-4.593865e-06	-2.415623e-08	-3.349770e+01	-1.580437e+03
2.840000e-06	-4.700997e-06	-2.440939e-08	-3.427889e+01	-1.597240e+03
2.850000e-06	-4.806550e-06	-2.464767e-08	-3.504857e+01	-1.613120e+03
2.860000e-06	-4.910329e-06	-2.487321e-08	-3.580531e+01	-1.628090e+03
2.870000e-06	-5.012229e-06	-2.508906e-08	-3.654835e+01	-1.642204e+03
2.880000e-06	-5.112307e-06	-2.529760e-08	-3.727810e+01	-1.655550e+03
2.890000e-06	-5.210561e-06	-2.549860e-08	-3.799455e+01	-1.668238e+03
2.900000e-06	-5.307016e-06	-2.569005e-08	-3.869789e+01	-1.680373e+03
2.910000e-06	-5.401528e-06	-2.587172e-08	-3.938705e+01	-1.692036e+03
2.920000e-06	-5.494065e-06	-2.604419e-08	-4.006182e+01	-1.703267e+03
2.930000e-06	-5.584703e-06	-2.620778e-08	-4.072273e+01	-1.714067e+03
2.940000e-06	-5.673305e-06	-2.636148e-08	-4.136881e+01	-1.724402e+03
