# Temperatura_=_88.56
# Concentracion g/m^3_=_28200.0
# C_Vs_to_Am_M_A/Vsm_=_65563218390.804596
# pendiente_HvsI_1/m_=_3716.3
# ordenada_HvsI_A/m_=_1297.0
# frecuencia_Hz_=_302391.7169130869

Tiempo_(s)	Campo_(V.s)	Magnetizacion_(V.s)	Campo_(kA/m)	Magnetizacion_(A/m)
0.000000e+00	-7.277864e-06	-2.915678e-08	-5.318570e+01	-1.909920e+03
1.000000e-08	-7.274228e-06	-2.915624e-08	-5.315913e+01	-1.909225e+03
2.000000e-08	-7.268268e-06	-2.914302e-08	-5.311558e+01	-1.908340e+03
3.000000e-08	-7.260028e-06	-2.912559e-08	-5.305536e+01	-1.907303e+03
4.000000e-08	-7.249261e-06	-2.910632e-08	-5.297667e+01	-1.906141e+03
5.000000e-08	-7.235815e-06	-2.908251e-08	-5.287841e+01	-1.904862e+03
6.000000e-08	-7.219643e-06	-2.905398e-08	-5.276023e+01	-1.903455e+03
7.000000e-08	-7.201099e-06	-2.902113e-08	-5.262471e+01	-1.901893e+03
8.000000e-08	-7.180572e-06	-2.898946e-08	-5.247470e+01	-1.900148e+03
9.000000e-08	-7.157629e-06	-2.903921e-08	-5.230704e+01	-1.898203e+03
1.000000e-07	-7.131716e-06	-2.903616e-08	-5.211767e+01	-1.896059e+03
1.100000e-07	-7.102928e-06	-2.892597e-08	-5.190729e+01	-1.893743e+03
1.200000e-07	-7.071709e-06	-2.886092e-08	-5.167915e+01	-1.891293e+03
1.300000e-07	-7.038024e-06	-2.883107e-08	-5.143298e+01	-1.888757e+03
1.400000e-07	-7.002003e-06	-2.875107e-08	-5.116974e+01	-1.886167e+03
1.500000e-07	-6.964183e-06	-2.865221e-08	-5.089336e+01	-1.883528e+03
1.600000e-07	-6.924346e-06	-2.873861e-08	-5.060224e+01	-1.880809e+03
1.700000e-07	-6.882004e-06	-2.867073e-08	-5.029281e+01	-1.877948e+03
1.800000e-07	-6.837283e-06	-2.848816e-08	-4.996599e+01	-1.874856e+03
1.900000e-07	-6.790097e-06	-2.855471e-08	-4.962116e+01	-1.871442e+03
2.000000e-07	-6.740064e-06	-2.845062e-08	-4.925553e+01	-1.867633e+03
2.100000e-07	-6.687261e-06	-2.835784e-08	-4.886965e+01	-1.863390e+03
2.200000e-07	-6.631941e-06	-2.832932e-08	-4.846538e+01	-1.858718e+03
2.300000e-07	-6.574116e-06	-2.819748e-08	-4.804280e+01	-1.853662e+03
2.400000e-07	-6.513853e-06	-2.816358e-08	-4.760241e+01	-1.848296e+03
2.500000e-07	-6.451269e-06	-2.806824e-08	-4.714505e+01	-1.842700e+03
2.600000e-07	-6.386231e-06	-2.798182e-08	-4.666976e+01	-1.836936e+03
2.700000e-07	-6.318717e-06	-2.788901e-08	-4.617638e+01	-1.831034e+03
2.800000e-07	-6.248923e-06	-2.780273e-08	-4.566633e+01	-1.824981e+03
2.900000e-07	-6.176801e-06	-2.770441e-08	-4.513928e+01	-1.818727e+03
3.000000e-07	-6.102156e-06	-2.756889e-08	-4.459378e+01	-1.812198e+03
3.100000e-07	-6.024937e-06	-2.751149e-08	-4.402947e+01	-1.805318e+03
3.200000e-07	-5.945176e-06	-2.739940e-08	-4.344659e+01	-1.798031e+03
3.300000e-07	-5.863186e-06	-2.726762e-08	-4.284741e+01	-1.790312e+03
3.400000e-07	-5.779286e-06	-2.713287e-08	-4.223429e+01	-1.782173e+03
3.500000e-07	-5.693525e-06	-2.700624e-08	-4.160756e+01	-1.773656e+03
3.600000e-07	-5.605818e-06	-2.689824e-08	-4.096661e+01	-1.764812e+03
3.700000e-07	-5.516066e-06	-2.674905e-08	-4.031070e+01	-1.755688e+03
3.800000e-07	-5.424292e-06	-2.660154e-08	-3.964004e+01	-1.746302e+03
3.900000e-07	-5.330599e-06	-2.644570e-08	-3.895534e+01	-1.736637e+03
4.000000e-07	-5.234999e-06	-2.628643e-08	-3.825671e+01	-1.726639e+03
4.100000e-07	-5.137581e-06	-2.612286e-08	-3.754478e+01	-1.716235e+03
4.200000e-07	-5.038386e-06	-2.597169e-08	-3.681988e+01	-1.705347e+03
4.300000e-07	-4.937397e-06	-2.581252e-08	-3.608187e+01	-1.693911e+03
4.400000e-07	-4.834647e-06	-2.561980e-08	-3.533098e+01	-1.681898e+03
4.500000e-07	-4.730157e-06	-2.542115e-08	-3.456738e+01	-1.669308e+03
4.600000e-07	-4.623982e-06	-2.522242e-08	-3.379147e+01	-1.656173e+03
4.700000e-07	-4.516087e-06	-2.501752e-08	-3.300299e+01	-1.642532e+03
4.800000e-07	-4.406625e-06	-2.480798e-08	-3.220305e+01	-1.628415e+03
4.900000e-07	-4.295648e-06	-2.459307e-08	-3.139205e+01	-1.613824e+03
5.000000e-07	-4.183010e-06	-2.435533e-08	-3.056890e+01	-1.598722e+03
5.100000e-07	-4.068678e-06	-2.409991e-08	-2.973338e+01	-1.583033e+03
5.200000e-07	-3.952654e-06	-2.384321e-08	-2.888549e+01	-1.566662e+03
5.300000e-07	-3.835082e-06	-2.358491e-08	-2.802629e+01	-1.549508e+03
5.400000e-07	-3.716140e-06	-2.331270e-08	-2.715708e+01	-1.531490e+03
5.500000e-07	-3.595826e-06	-2.302492e-08	-2.627784e+01	-1.512562e+03
5.600000e-07	-3.474146e-06	-2.272290e-08	-2.538861e+01	-1.492710e+03
5.700000e-07	-3.351038e-06	-2.240737e-08	-2.448896e+01	-1.471949e+03
5.800000e-07	-3.226563e-06	-2.207609e-08	-2.357931e+01	-1.450295e+03
5.900000e-07	-3.101004e-06	-2.173173e-08	-2.266174e+01	-1.427744e+03
6.000000e-07	-2.974383e-06	-2.137241e-08	-2.173641e+01	-1.404246e+03
6.100000e-07	-2.846621e-06	-2.099312e-08	-2.080274e+01	-1.379696e+03
6.200000e-07	-2.717829e-06	-2.059408e-08	-1.986155e+01	-1.353933e+03
6.300000e-07	-2.588097e-06	-2.017439e-08	-1.891348e+01	-1.326766e+03
6.400000e-07	-2.457315e-06	-1.973568e-08	-1.795774e+01	-1.297992e+03
6.500000e-07	-2.325488e-06	-1.927093e-08	-1.699437e+01	-1.267431e+03
6.600000e-07	-2.192884e-06	-1.877629e-08	-1.602532e+01	-1.234940e+03
6.700000e-07	-2.059673e-06	-1.824960e-08	-1.505182e+01	-1.200415e+03
6.800000e-07	-1.925822e-06	-1.769498e-08	-1.407366e+01	-1.163779e+03
6.900000e-07	-1.791248e-06	-1.710760e-08	-1.309021e+01	-1.124945e+03
7.000000e-07	-1.655958e-06	-1.648207e-08	-1.210153e+01	-1.083784e+03
7.100000e-07	-1.520088e-06	-1.581413e-08	-1.110861e+01	-1.040098e+03
7.200000e-07	-1.383725e-06	-1.509721e-08	-1.011208e+01	-9.936128e+02
7.300000e-07	-1.246910e-06	-1.433265e-08	-9.112261e+00	-9.439995e+02
7.400000e-07	-1.109697e-06	-1.351476e-08	-8.109527e+00	-8.909260e+02
7.500000e-07	-9.721248e-07	-1.264713e-08	-7.104164e+00	-8.341266e+02
7.600000e-07	-8.342615e-07	-1.172952e-08	-6.096677e+00	-7.734767e+02
7.700000e-07	-6.961057e-07	-1.075566e-08	-5.087052e+00	-7.090518e+02
7.800000e-07	-5.576421e-07	-9.724457e-09	-4.075178e+00	-6.411528e+02
7.900000e-07	-4.189024e-07	-8.646791e-09	-3.061286e+00	-5.702855e+02
8.000000e-07	-2.798881e-07	-7.534132e-09	-2.045387e+00	-4.970939e+02
8.100000e-07	-1.406975e-07	-6.391330e-09	-1.028200e+00	-4.222562e+02
8.200000e-07	-1.454416e-09	-5.229584e-09	-1.062869e-02	-3.463664e+02
8.300000e-07	1.378227e-07	-4.058040e-09	1.007191e+00	-2.698264e+02
8.400000e-07	2.771331e-07	-2.880944e-09	2.025254e+00	-1.927776e+02
8.500000e-07	4.164028e-07	-1.696476e-09	3.043019e+00	-1.150883e+02
8.600000e-07	5.554713e-07	-5.017173e-10	4.059313e+00	-3.640806e+01
8.700000e-07	6.942166e-07	7.088225e-10	5.073247e+00	4.372233e+01
8.800000e-07	8.326593e-07	1.946920e-09	6.084968e+00	1.257235e+02
8.900000e-07	9.708007e-07	3.222811e-09	7.094488e+00	2.098253e+02
9.000000e-07	1.108577e-06	4.535651e-09	8.101340e+00	2.959422e+02
9.100000e-07	1.245991e-06	5.875357e-09	9.105542e+00	3.836049e+02
9.200000e-07	1.383010e-06	7.228329e-09	1.010686e+01	4.719644e+02
9.300000e-07	1.519569e-06	8.573250e-09	1.110482e+01	5.598699e+02
9.400000e-07	1.655571e-06	9.887053e-09	1.209870e+01	6.460059e+02
9.500000e-07	1.790895e-06	1.114804e-08	1.308763e+01	7.290605e+02
9.600000e-07	1.925505e-06	1.234222e-08	1.407134e+01	8.078928e+02
9.700000e-07	2.059350e-06	1.345544e-08	1.504947e+01	8.816661e+02
9.800000e-07	2.192454e-06	1.448240e-08	1.602218e+01	9.499244e+02
9.900000e-07	2.324899e-06	1.542819e-08	1.699006e+01	1.012601e+03
1.000000e-06	2.456553e-06	1.629984e-08	1.795217e+01	1.069962e+03
1.010000e-06	2.587108e-06	1.710237e-08	1.890625e+01	1.122509e+03
1.020000e-06	2.716588e-06	1.784096e-08	1.985248e+01	1.170855e+03
1.030000e-06	2.845125e-06	1.852390e-08	2.079181e+01	1.215609e+03
1.040000e-06	2.972572e-06	1.916026e-08	2.172318e+01	1.257287e+03
1.050000e-06	3.098865e-06	1.975246e-08	2.264611e+01	1.296273e+03
1.060000e-06	3.224105e-06	2.030309e-08	2.356135e+01	1.332808e+03
1.070000e-06	3.348372e-06	2.081585e-08	2.446948e+01	1.367029e+03
1.080000e-06	3.471456e-06	2.129491e-08	2.536896e+01	1.399018e+03
1.090000e-06	3.593136e-06	2.174276e-08	2.625818e+01	1.428855e+03
1.100000e-06	3.713472e-06	2.216210e-08	2.713758e+01	1.456657e+03
1.110000e-06	3.832480e-06	2.255841e-08	2.800727e+01	1.482590e+03
1.120000e-06	3.950161e-06	2.293429e-08	2.886728e+01	1.506867e+03
1.130000e-06	4.066408e-06	2.328922e-08	2.971679e+01	1.529716e+03
1.140000e-06	4.180993e-06	2.362196e-08	3.055417e+01	1.551349e+03
1.150000e-06	4.293946e-06	2.393609e-08	3.137961e+01	1.571930e+03
1.160000e-06	4.405339e-06	2.423491e-08	3.219365e+01	1.591560e+03
1.170000e-06	4.515173e-06	2.451692e-08	3.299631e+01	1.610281e+03
1.180000e-06	4.623570e-06	2.478225e-08	3.378846e+01	1.628089e+03
1.190000e-06	4.730391e-06	2.503614e-08	3.456909e+01	1.644965e+03
1.200000e-06	4.835413e-06	2.527729e-08	3.533659e+01	1.660899e+03
1.210000e-06	4.938672e-06	2.550718e-08	3.609118e+01	1.675918e+03
1.220000e-06	5.040222e-06	2.572504e-08	3.683330e+01	1.690084e+03
1.230000e-06	5.139997e-06	2.593409e-08	3.756244e+01	1.703493e+03
1.240000e-06	5.237757e-06	2.613203e-08	3.827686e+01	1.716256e+03
1.250000e-06	5.333478e-06	2.631582e-08	3.897638e+01	1.728475e+03
1.260000e-06	5.427293e-06	2.649078e-08	3.966196e+01	1.740222e+03
1.270000e-06	5.519256e-06	2.666015e-08	4.033402e+01	1.751530e+03
1.280000e-06	5.609243e-06	2.682345e-08	4.099163e+01	1.762392e+03
1.290000e-06	5.697128e-06	2.697901e-08	4.163388e+01	1.772773e+03
1.300000e-06	5.782971e-06	2.712922e-08	4.226121e+01	1.782632e+03
1.310000e-06	5.866881e-06	2.727373e-08	4.287442e+01	1.791935e+03
1.320000e-06	5.948678e-06	2.741074e-08	4.347218e+01	1.800678e+03
1.330000e-06	6.028159e-06	2.753987e-08	4.405302e+01	1.808885e+03
1.340000e-06	6.105425e-06	2.766118e-08	4.461766e+01	1.816610e+03
1.350000e-06	6.180413e-06	2.777443e-08	4.516567e+01	1.823916e+03
1.360000e-06	6.253053e-06	2.788127e-08	4.569651e+01	1.830866e+03
1.370000e-06	6.323405e-06	2.798326e-08	4.621064e+01	1.837504e+03
1.380000e-06	6.391515e-06	2.807969e-08	4.670838e+01	1.843850e+03
1.390000e-06	6.457265e-06	2.817011e-08	4.718887e+01	1.849898e+03
1.400000e-06	6.520633e-06	2.825409e-08	4.765195e+01	1.855627e+03
1.410000e-06	6.581845e-06	2.833408e-08	4.809929e+01	1.861014e+03
1.420000e-06	6.640853e-06	2.841170e-08	4.853051e+01	1.866048e+03
1.430000e-06	6.697480e-06	2.848638e-08	4.894433e+01	1.870738e+03
1.440000e-06	6.751674e-06	2.855666e-08	4.934037e+01	1.875113e+03
1.450000e-06	6.803185e-06	2.862039e-08	4.971681e+01	1.879220e+03
1.460000e-06	6.851910e-06	2.868090e-08	5.007288e+01	1.883107e+03
1.470000e-06	6.898123e-06	2.873834e-08	5.041060e+01	1.886811e+03
1.480000e-06	6.942002e-06	2.879155e-08	5.073127e+01	1.890347e+03
1.490000e-06	6.983387e-06	2.884218e-08	5.103370e+01	1.893701e+03
1.500000e-06	7.022199e-06	2.889054e-08	5.131733e+01	1.896840e+03
1.510000e-06	7.058643e-06	2.893506e-08	5.158366e+01	1.899716e+03
1.520000e-06	7.092624e-06	2.897350e-08	5.183200e+01	1.902285e+03
1.530000e-06	7.123985e-06	2.900790e-08	5.206118e+01	1.904520e+03
1.540000e-06	7.152910e-06	2.903893e-08	5.227255e+01	1.906420e+03
1.550000e-06	7.179296e-06	2.906611e-08	5.246538e+01	1.908013e+03
1.560000e-06	7.202919e-06	2.908849e-08	5.263801e+01	1.909344e+03
1.570000e-06	7.224009e-06	2.910671e-08	5.279213e+01	1.910469e+03
1.580000e-06	7.242618e-06	2.912185e-08	5.292813e+01	1.911433e+03
1.590000e-06	7.258517e-06	2.913385e-08	5.304432e+01	1.912264e+03
1.600000e-06	7.271701e-06	2.914339e-08	5.314066e+01	1.912963e+03
1.610000e-06	7.282068e-06	2.915121e-08	5.321642e+01	1.913508e+03
1.620000e-06	7.289591e-06	2.915692e-08	5.327140e+01	1.913863e+03
1.630000e-06	7.294546e-06	2.915955e-08	5.330762e+01	1.913991e+03
1.640000e-06	7.296953e-06	2.915978e-08	5.332520e+01	1.913868e+03
1.650000e-06	7.296705e-06	2.916007e-08	5.332339e+01	1.913488e+03
1.660000e-06	7.294017e-06	2.914701e-08	5.330374e+01	1.912869e+03
1.670000e-06	7.288978e-06	2.913213e-08	5.326693e+01	1.912046e+03
1.680000e-06	7.281465e-06	2.911950e-08	5.321202e+01	1.911059e+03
1.690000e-06	7.271582e-06	2.910394e-08	5.313979e+01	1.909939e+03
1.700000e-06	7.259219e-06	2.908907e-08	5.304945e+01	1.908701e+03
1.710000e-06	7.244231e-06	2.907686e-08	5.293992e+01	1.907341e+03
1.720000e-06	7.226910e-06	2.907265e-08	5.281334e+01	1.905837e+03
1.730000e-06	7.207536e-06	2.903458e-08	5.267175e+01	1.904159e+03
1.740000e-06	7.185627e-06	2.889503e-08	5.251165e+01	1.902286e+03
1.750000e-06	7.160404e-06	2.887907e-08	5.232732e+01	1.900211e+03
1.760000e-06	7.131747e-06	2.891665e-08	5.211790e+01	1.897951e+03
1.770000e-06	7.100297e-06	2.887211e-08	5.188807e+01	1.895543e+03
1.780000e-06	7.066783e-06	2.886057e-08	5.164315e+01	1.893032e+03
1.790000e-06	7.031554e-06	2.892814e-08	5.138570e+01	1.890458e+03
1.800000e-06	6.994773e-06	2.876408e-08	5.111691e+01	1.887837e+03
1.810000e-06	6.955767e-06	2.865991e-08	5.083186e+01	1.885152e+03
1.820000e-06	6.914042e-06	2.878477e-08	5.052694e+01	1.882349e+03
1.830000e-06	6.870064e-06	2.862295e-08	5.020555e+01	1.879350e+03
1.840000e-06	6.823695e-06	2.869475e-08	4.986669e+01	1.876060e+03
1.850000e-06	6.774717e-06	2.863376e-08	4.950877e+01	1.872398e+03
1.860000e-06	6.723149e-06	2.844852e-08	4.913192e+01	1.868311e+03
1.870000e-06	6.668767e-06	2.851629e-08	4.873450e+01	1.863787e+03
1.880000e-06	6.611940e-06	2.834442e-08	4.831922e+01	1.858860e+03
1.890000e-06	6.552749e-06	2.833435e-08	4.788665e+01	1.853595e+03
1.900000e-06	6.490938e-06	2.825801e-08	4.743494e+01	1.848071e+03
1.910000e-06	6.426644e-06	2.810688e-08	4.696509e+01	1.842361e+03
1.920000e-06	6.359940e-06	2.808754e-08	4.647763e+01	1.836507e+03
1.930000e-06	6.290853e-06	2.792491e-08	4.597275e+01	1.830511e+03
1.940000e-06	6.219293e-06	2.790934e-08	4.544980e+01	1.824336e+03
1.950000e-06	6.145326e-06	2.776313e-08	4.490926e+01	1.817913e+03
1.960000e-06	6.068843e-06	2.763704e-08	4.435033e+01	1.811166e+03
1.970000e-06	5.989818e-06	2.756646e-08	4.377283e+01	1.804028e+03
1.980000e-06	5.908644e-06	2.740964e-08	4.317961e+01	1.796463e+03
1.990000e-06	5.825466e-06	2.734866e-08	4.257176e+01	1.788469e+03
2.000000e-06	5.740258e-06	2.718064e-08	4.194907e+01	1.780080e+03
2.010000e-06	5.652868e-06	2.707015e-08	4.131044e+01	1.771346e+03
2.020000e-06	5.563400e-06	2.691198e-08	4.065661e+01	1.762318e+03
2.030000e-06	5.472080e-06	2.676242e-08	3.998927e+01	1.753025e+03
2.040000e-06	5.378884e-06	2.664947e-08	3.930820e+01	1.743462e+03
2.050000e-06	5.283736e-06	2.649655e-08	3.861287e+01	1.733590e+03
2.060000e-06	5.186718e-06	2.634459e-08	3.790388e+01	1.723340e+03
2.070000e-06	5.088033e-06	2.613965e-08	3.718270e+01	1.712632e+03
2.080000e-06	4.987614e-06	2.598366e-08	3.644885e+01	1.701396e+03
2.090000e-06	4.885322e-06	2.580001e-08	3.570131e+01	1.689590e+03
2.100000e-06	4.781138e-06	2.562461e-08	3.493995e+01	1.677203e+03
2.110000e-06	4.675304e-06	2.542984e-08	3.416652e+01	1.664257e+03
2.120000e-06	4.568004e-06	2.522024e-08	3.338239e+01	1.650791e+03
2.130000e-06	4.459175e-06	2.499669e-08	3.258708e+01	1.636842e+03
2.140000e-06	4.348696e-06	2.477205e-08	3.177971e+01	1.622421e+03
2.150000e-06	4.236443e-06	2.456540e-08	3.095939e+01	1.607507e+03
2.160000e-06	4.122573e-06	2.433643e-08	3.012724e+01	1.592037e+03
2.170000e-06	4.007104e-06	2.409575e-08	2.928340e+01	1.575921e+03
2.180000e-06	3.889988e-06	2.382452e-08	2.842754e+01	1.559056e+03
2.190000e-06	3.771269e-06	2.355055e-08	2.755995e+01	1.541354e+03
2.200000e-06	3.650984e-06	2.326152e-08	2.668092e+01	1.522753e+03
2.210000e-06	3.529323e-06	2.297349e-08	2.579184e+01	1.503229e+03
2.220000e-06	3.406406e-06	2.266884e-08	2.489358e+01	1.482790e+03
2.230000e-06	3.282224e-06	2.234762e-08	2.398607e+01	1.461453e+03
2.240000e-06	3.156874e-06	2.200652e-08	2.307003e+01	1.439224e+03
2.250000e-06	3.030384e-06	2.165305e-08	2.214566e+01	1.416073e+03
2.260000e-06	2.902693e-06	2.128811e-08	2.121251e+01	1.391913e+03
2.270000e-06	2.773884e-06	2.090035e-08	2.027119e+01	1.366604e+03
2.280000e-06	2.644147e-06	2.049249e-08	1.932309e+01	1.339960e+03
2.290000e-06	2.513528e-06	2.005887e-08	1.836854e+01	1.311782e+03
2.300000e-06	2.381997e-06	1.960286e-08	1.740733e+01	1.281877e+03
2.310000e-06	2.249641e-06	1.911689e-08	1.644009e+01	1.250088e+03
2.320000e-06	2.116526e-06	1.860534e-08	1.546730e+01	1.216298e+03
2.330000e-06	1.982769e-06	1.806121e-08	1.448982e+01	1.180424e+03
2.340000e-06	1.848411e-06	1.748458e-08	1.350795e+01	1.142386e+03
2.350000e-06	1.713297e-06	1.687114e-08	1.252056e+01	1.102074e+03
2.360000e-06	1.577413e-06	1.621814e-08	1.152753e+01	1.059317e+03
2.370000e-06	1.440959e-06	1.552318e-08	1.053034e+01	1.013866e+03
2.380000e-06	1.304046e-06	1.478047e-08	9.529805e+00	9.654082e+02
2.390000e-06	1.166805e-06	1.398414e-08	8.526863e+00	9.136052e+02
2.400000e-06	1.029278e-06	1.313236e-08	7.521834e+00	8.581588e+02
2.410000e-06	8.914059e-07	1.222941e-08	6.514281e+00	7.988858e+02
2.420000e-06	7.532328e-07	1.127494e-08	5.504529e+00	7.357855e+02
2.430000e-06	6.147716e-07	1.026535e-08	4.492672e+00	6.690779e+02
2.440000e-06	4.760555e-07	9.203723e-09	3.478953e+00	5.992012e+02
2.450000e-06	3.371492e-07	8.099415e-09	2.463843e+00	5.267602e+02
2.460000e-06	1.980573e-07	6.961010e-09	1.447377e+00	4.524345e+02
2.470000e-06	5.882812e-08	5.798655e-09	4.299084e-01	3.768615e+02
2.480000e-06	-8.043888e-08	4.625158e-09	-5.878371e-01	3.005222e+02
2.490000e-06	-2.196387e-07	3.446900e-09	-1.605092e+00	2.236556e+02
2.500000e-06	-3.587664e-07	2.260206e-09	-2.621819e+00	1.462249e+02
2.510000e-06	-4.978464e-07	1.062126e-09	-3.638198e+00	6.794767e+01
2.520000e-06	-6.367395e-07	-1.506873e-10	-4.653211e+00	-1.161205e+01
2.530000e-06	-7.753261e-07	-1.385359e-09	-5.665984e+00	-9.290659e+01
2.540000e-06	-9.136133e-07	-2.649494e-09	-6.676569e+00	-1.762503e+02
2.550000e-06	-1.051578e-06	-3.946999e-09	-7.684800e+00	-2.616817e+02
2.560000e-06	-1.189177e-06	-5.276941e-09	-8.690355e+00	-3.488719e+02
2.570000e-06	-1.326444e-06	-6.631615e-09	-9.693484e+00	-4.371023e+02
2.580000e-06	-1.463342e-06	-7.990172e-09	-1.069392e+01	-5.253167e+02
2.590000e-06	-1.599740e-06	-9.329203e-09	-1.169070e+01	-6.122400e+02
2.600000e-06	-1.735417e-06	-1.062350e-08	-1.268221e+01	-6.965392e+02
2.610000e-06	-1.870172e-06	-1.185344e-08	-1.366698e+01	-7.769945e+02
2.620000e-06	-2.004128e-06	-1.300698e-08	-1.464591e+01	-8.526484e+02
2.630000e-06	-2.137435e-06	-1.407593e-08	-1.562010e+01	-9.229046e+02
2.640000e-06	-2.270017e-06	-1.506180e-08	-1.658900e+01	-9.875601e+02
2.650000e-06	-2.401762e-06	-1.596789e-08	-1.755177e+01	-1.046773e+03
2.660000e-06	-2.532585e-06	-1.680186e-08	-1.850781e+01	-1.100973e+03
2.670000e-06	-2.662458e-06	-1.757029e-08	-1.945691e+01	-1.150748e+03
2.680000e-06	-2.791460e-06	-1.828033e-08	-2.039963e+01	-1.196720e+03
2.690000e-06	-2.919460e-06	-1.894115e-08	-2.133504e+01	-1.239446e+03
2.700000e-06	-3.046287e-06	-1.955641e-08	-2.226188e+01	-1.279360e+03
2.710000e-06	-3.172020e-06	-2.013008e-08	-2.318072e+01	-1.316750e+03
2.720000e-06	-3.296657e-06	-2.066476e-08	-2.409155e+01	-1.351788e+03
2.730000e-06	-3.420033e-06	-2.116325e-08	-2.499317e+01	-1.384567e+03
2.740000e-06	-3.542124e-06	-2.162804e-08	-2.588539e+01	-1.415163e+03
2.750000e-06	-3.663101e-06	-2.206178e-08	-2.676947e+01	-1.443675e+03
2.760000e-06	-3.782780e-06	-2.246802e-08	-2.764407e+01	-1.470254e+03
2.770000e-06	-3.900874e-06	-2.285038e-08	-2.850709e+01	-1.495097e+03
2.780000e-06	-4.017462e-06	-2.321365e-08	-2.935910e+01	-1.518432e+03
2.790000e-06	-4.132484e-06	-2.355662e-08	-3.019967e+01	-1.540478e+03
2.800000e-06	-4.245744e-06	-2.387754e-08	-3.102736e+01	-1.561420e+03
2.810000e-06	-4.357320e-06	-2.417962e-08	-3.184274e+01	-1.581383e+03
2.820000e-06	-4.467346e-06	-2.446765e-08	-3.264679e+01	-1.600429e+03
2.830000e-06	-4.575889e-06	-2.474275e-08	-3.344001e+01	-1.618566e+03
2.840000e-06	-4.682986e-06	-2.500258e-08	-3.422266e+01	-1.635777e+03
2.850000e-06	-4.788512e-06	-2.524725e-08	-3.499383e+01	-1.652048e+03
2.860000e-06	-4.892207e-06	-2.547906e-08	-3.575162e+01	-1.667389e+03
2.870000e-06	-4.993978e-06	-2.570031e-08	-3.649535e+01	-1.681851e+03
2.880000e-06	-5.093929e-06	-2.591263e-08	-3.722578e+01	-1.695519e+03
2.890000e-06	-5.192140e-06	-2.611754e-08	-3.794350e+01	-1.708501e+03
2.900000e-06	-5.288567e-06	-2.631370e-08	-3.864817e+01	-1.720905e+03
2.910000e-06	-5.383036e-06	-2.649950e-08	-3.933854e+01	-1.732815e+03
2.920000e-06	-5.475549e-06	-2.667461e-08	-4.001461e+01	-1.744280e+03
2.930000e-06	-5.566161e-06	-2.684050e-08	-4.067679e+01	-1.755305e+03
2.940000e-06	-5.654759e-06	-2.699827e-08	-4.132425e+01	-1.765863e+03
