# Temperatura_=_26.65
# Concentracion g/m^3_=_28200.0
# C_Vs_to_Am_M_A/Vsm_=_65563218390.804596
# pendiente_HvsI_1/m_=_3716.3
# ordenada_HvsI_A/m_=_1297.0
# frecuencia_Hz_=_302404.14888009307

Tiempo_(s)	Campo_(V.s)	Magnetizacion_(V.s)	Campo_(kA/m)	Magnetizacion_(A/m)
0.000000e+00	-7.332812e-06	-2.615924e-08	-5.318178e+01	-1.711823e+03
1.000000e-08	-7.329341e-06	-2.615570e-08	-5.315661e+01	-1.711340e+03
2.000000e-08	-7.323436e-06	-2.614409e-08	-5.311378e+01	-1.710694e+03
3.000000e-08	-7.315210e-06	-2.612968e-08	-5.305412e+01	-1.709916e+03
4.000000e-08	-7.304417e-06	-2.611498e-08	-5.297585e+01	-1.709031e+03
5.000000e-08	-7.290829e-06	-2.609871e-08	-5.287729e+01	-1.708055e+03
6.000000e-08	-7.274560e-06	-2.607911e-08	-5.275931e+01	-1.706988e+03
7.000000e-08	-7.256039e-06	-2.605717e-08	-5.262498e+01	-1.705815e+03
8.000000e-08	-7.235419e-06	-2.603481e-08	-5.247543e+01	-1.704515e+03
9.000000e-08	-7.212319e-06	-2.605675e-08	-5.230790e+01	-1.703064e+03
1.000000e-07	-7.186257e-06	-2.604065e-08	-5.211888e+01	-1.701447e+03
1.100000e-07	-7.157281e-06	-2.596233e-08	-5.190873e+01	-1.699668e+03
1.200000e-07	-7.125802e-06	-2.591213e-08	-5.168043e+01	-1.697742e+03
1.300000e-07	-7.091818e-06	-2.588867e-08	-5.143396e+01	-1.695700e+03
1.400000e-07	-7.055569e-06	-2.584454e-08	-5.117105e+01	-1.693572e+03
1.500000e-07	-7.017479e-06	-2.577378e-08	-5.089480e+01	-1.691382e+03
1.600000e-07	-6.977366e-06	-2.580385e-08	-5.060388e+01	-1.689133e+03
1.700000e-07	-6.934814e-06	-2.575240e-08	-5.029527e+01	-1.686805e+03
1.800000e-07	-6.889808e-06	-2.561517e-08	-4.996886e+01	-1.684354e+03
1.900000e-07	-6.842263e-06	-2.564186e-08	-4.962404e+01	-1.681720e+03
2.000000e-07	-6.791920e-06	-2.558925e-08	-4.925892e+01	-1.678840e+03
2.100000e-07	-6.738832e-06	-2.553293e-08	-4.887389e+01	-1.675659e+03
2.200000e-07	-6.683190e-06	-2.550630e-08	-4.847035e+01	-1.672145e+03
2.300000e-07	-6.625063e-06	-2.540985e-08	-4.804878e+01	-1.668295e+03
2.400000e-07	-6.564468e-06	-2.537037e-08	-4.760931e+01	-1.664131e+03
2.500000e-07	-6.501450e-06	-2.528314e-08	-4.715227e+01	-1.659693e+03
2.600000e-07	-6.435943e-06	-2.520788e-08	-4.667717e+01	-1.655030e+03
2.700000e-07	-6.367974e-06	-2.513407e-08	-4.618422e+01	-1.650181e+03
2.800000e-07	-6.297676e-06	-2.506051e-08	-4.567438e+01	-1.645166e+03
2.900000e-07	-6.224997e-06	-2.497648e-08	-4.514727e+01	-1.639983e+03
3.000000e-07	-6.149784e-06	-2.487400e-08	-4.460178e+01	-1.634606e+03
3.100000e-07	-6.071978e-06	-2.481749e-08	-4.403749e+01	-1.628995e+03
3.200000e-07	-5.991697e-06	-2.472642e-08	-4.345524e+01	-1.623104e+03
3.300000e-07	-5.909259e-06	-2.462689e-08	-4.285735e+01	-1.616895e+03
3.400000e-07	-5.824877e-06	-2.451656e-08	-4.224537e+01	-1.610347e+03
3.500000e-07	-5.738633e-06	-2.441028e-08	-4.161988e+01	-1.603453e+03
3.600000e-07	-5.650400e-06	-2.431892e-08	-4.097996e+01	-1.596224e+03
3.700000e-07	-5.560008e-06	-2.419931e-08	-4.032438e+01	-1.588674e+03
3.800000e-07	-5.467596e-06	-2.407430e-08	-3.965416e+01	-1.580815e+03
3.900000e-07	-5.373299e-06	-2.394676e-08	-3.897026e+01	-1.572647e+03
4.000000e-07	-5.277042e-06	-2.381486e-08	-3.827215e+01	-1.564155e+03
4.100000e-07	-5.178841e-06	-2.367385e-08	-3.755995e+01	-1.555307e+03
4.200000e-07	-5.078858e-06	-2.354031e-08	-3.683481e+01	-1.546065e+03
4.300000e-07	-4.977105e-06	-2.339962e-08	-3.609684e+01	-1.536389e+03
4.400000e-07	-4.873590e-06	-2.323433e-08	-3.534608e+01	-1.526250e+03
4.500000e-07	-4.768325e-06	-2.306135e-08	-3.458264e+01	-1.515628e+03
4.600000e-07	-4.661331e-06	-2.289150e-08	-3.380666e+01	-1.504521e+03
4.700000e-07	-4.552670e-06	-2.271991e-08	-3.301859e+01	-1.492930e+03
4.800000e-07	-4.442487e-06	-2.254503e-08	-3.221948e+01	-1.480857e+03
4.900000e-07	-4.330782e-06	-2.236092e-08	-3.140933e+01	-1.468290e+03
5.000000e-07	-4.217281e-06	-2.215578e-08	-3.058615e+01	-1.455202e+03
5.100000e-07	-4.101957e-06	-2.193372e-08	-2.974976e+01	-1.441545e+03
5.200000e-07	-3.984950e-06	-2.170656e-08	-2.890116e+01	-1.427257e+03
5.300000e-07	-3.866506e-06	-2.147851e-08	-2.804213e+01	-1.412271e+03
5.400000e-07	-3.746749e-06	-2.123866e-08	-2.717358e+01	-1.396526e+03
5.500000e-07	-3.625554e-06	-2.098412e-08	-2.629461e+01	-1.379972e+03
5.600000e-07	-3.502917e-06	-2.071576e-08	-2.540517e+01	-1.362582e+03
5.700000e-07	-3.378933e-06	-2.043593e-08	-2.450597e+01	-1.344337e+03
5.800000e-07	-3.253732e-06	-2.014404e-08	-2.359794e+01	-1.325224e+03
5.900000e-07	-3.127447e-06	-1.984346e-08	-2.268205e+01	-1.305216e+03
6.000000e-07	-3.000047e-06	-1.952836e-08	-2.175807e+01	-1.284261e+03
6.100000e-07	-2.871408e-06	-1.918935e-08	-2.082511e+01	-1.262271e+03
6.200000e-07	-2.741624e-06	-1.882713e-08	-1.988384e+01	-1.239122e+03
6.300000e-07	-2.610841e-06	-1.844472e-08	-1.893532e+01	-1.214663e+03
6.400000e-07	-2.479048e-06	-1.804530e-08	-1.797949e+01	-1.188729e+03
6.500000e-07	-2.346337e-06	-1.762398e-08	-1.701699e+01	-1.161159e+03
6.600000e-07	-2.212902e-06	-1.717828e-08	-1.604924e+01	-1.131810e+03
6.700000e-07	-2.078801e-06	-1.670215e-08	-1.507666e+01	-1.100559e+03
6.800000e-07	-1.944000e-06	-1.619592e-08	-1.409901e+01	-1.067298e+03
6.900000e-07	-1.808485e-06	-1.565850e-08	-1.311617e+01	-1.031918e+03
7.000000e-07	-1.672201e-06	-1.508515e-08	-1.212777e+01	-9.942915e+02
7.100000e-07	-1.535215e-06	-1.447284e-08	-1.113426e+01	-9.542512e+02
7.200000e-07	-1.397691e-06	-1.381888e-08	-1.013686e+01	-9.115931e+02
7.300000e-07	-1.259743e-06	-1.312314e-08	-9.136381e+00	-8.660886e+02
7.400000e-07	-1.121412e-06	-1.237877e-08	-8.133125e+00	-8.175216e+02
7.500000e-07	-9.826931e-07	-1.158581e-08	-7.127057e+00	-7.657391e+02
7.600000e-07	-8.436141e-07	-1.074710e-08	-6.118376e+00	-7.107085e+02
7.700000e-07	-7.041996e-07	-9.863080e-09	-5.107262e+00	-6.525654e+02
7.800000e-07	-5.644508e-07	-8.934907e-09	-4.093723e+00	-5.916389e+02
7.900000e-07	-4.244202e-07	-7.972960e-09	-3.078140e+00	-5.284424e+02
8.000000e-07	-2.841856e-07	-6.988756e-09	-2.061078e+00	-4.636254e+02
8.100000e-07	-1.437769e-07	-5.988328e-09	-1.042753e+00	-3.978910e+02
8.200000e-07	-3.254163e-09	-4.981634e-09	-2.360107e-02	-3.318926e+02
8.300000e-07	1.373001e-07	-3.979362e-09	9.957795e-01	-2.661281e+02
8.400000e-07	2.778407e-07	-2.987739e-09	2.015061e+00	-2.008558e+02
8.500000e-07	4.182855e-07	-2.003737e-09	3.033648e+00	-1.360513e+02
8.600000e-07	5.585384e-07	-1.023732e-09	4.050842e+00	-7.141647e+01
8.700000e-07	6.985811e-07	-3.973641e-11	5.066513e+00	-6.445372e+00
8.800000e-07	8.383766e-07	9.600350e-10	6.080391e+00	5.946560e+01
8.900000e-07	9.778214e-07	1.985028e-09	7.091725e+00	1.268813e+02
9.000000e-07	1.116865e-06	3.041807e-09	8.100150e+00	1.961919e+02
9.100000e-07	1.255467e-06	4.129604e-09	9.105369e+00	2.675043e+02
9.200000e-07	1.393594e-06	5.244101e-09	1.010715e+01	3.405815e+02
9.300000e-07	1.531260e-06	6.376022e-09	1.110558e+01	4.148430e+02
9.400000e-07	1.668354e-06	7.513791e-09	1.209987e+01	4.894250e+02
9.500000e-07	1.804740e-06	8.639730e-09	1.308902e+01	5.632879e+02
9.600000e-07	1.940293e-06	9.737019e-09	1.407213e+01	6.353502e+02
9.700000e-07	2.074977e-06	1.078853e-08	1.504893e+01	7.046232e+02
9.800000e-07	2.208935e-06	1.178095e-08	1.602047e+01	7.703212e+02
9.900000e-07	2.342240e-06	1.270952e-08	1.698728e+01	8.319308e+02
1.000000e-06	2.474777e-06	1.357453e-08	1.794851e+01	8.892300e+02
1.010000e-06	2.606361e-06	1.437694e-08	1.890283e+01	9.422599e+02
1.020000e-06	2.736880e-06	1.512038e-08	1.984943e+01	9.912611e+02
1.030000e-06	2.866422e-06	1.580953e-08	2.078894e+01	1.036592e+03
1.040000e-06	2.994858e-06	1.644950e-08	2.172044e+01	1.078649e+03
1.050000e-06	3.122011e-06	1.704523e-08	2.264262e+01	1.117799e+03
1.060000e-06	3.248059e-06	1.759997e-08	2.355679e+01	1.154346e+03
1.070000e-06	3.373071e-06	1.811620e-08	2.446345e+01	1.188514e+03
1.080000e-06	3.497007e-06	1.859647e-08	2.536231e+01	1.220467e+03
1.090000e-06	3.619714e-06	1.904453e-08	2.625225e+01	1.250332e+03
1.100000e-06	3.741077e-06	1.946311e-08	2.713245e+01	1.278227e+03
1.110000e-06	3.861025e-06	1.985780e-08	2.800238e+01	1.304284e+03
1.120000e-06	3.979560e-06	2.023191e-08	2.886206e+01	1.328656e+03
1.130000e-06	4.096738e-06	2.058391e-08	2.971190e+01	1.351516e+03
1.140000e-06	4.212381e-06	2.091383e-08	3.055062e+01	1.373035e+03
1.150000e-06	4.326349e-06	2.122442e-08	3.137718e+01	1.393368e+03
1.160000e-06	4.438643e-06	2.151762e-08	3.219160e+01	1.412640e+03
1.170000e-06	4.549316e-06	2.179395e-08	3.299427e+01	1.430932e+03
1.180000e-06	4.658438e-06	2.205335e-08	3.378568e+01	1.448290e+03
1.190000e-06	4.766073e-06	2.229998e-08	3.456631e+01	1.464734e+03
1.200000e-06	4.872035e-06	2.253471e-08	3.533481e+01	1.480277e+03
1.210000e-06	4.976053e-06	2.275788e-08	3.608921e+01	1.494940e+03
1.220000e-06	5.078217e-06	2.297027e-08	3.683016e+01	1.508764e+03
1.230000e-06	5.178617e-06	2.317253e-08	3.755832e+01	1.521811e+03
1.240000e-06	5.277132e-06	2.336186e-08	3.827281e+01	1.534159e+03
1.250000e-06	5.373595e-06	2.353716e-08	3.897241e+01	1.545890e+03
1.260000e-06	5.468027e-06	2.370433e-08	3.965728e+01	1.557076e+03
1.270000e-06	5.560595e-06	2.386553e-08	4.032864e+01	1.567765e+03
1.280000e-06	5.651256e-06	2.402018e-08	4.098617e+01	1.577978e+03
1.290000e-06	5.739778e-06	2.416831e-08	4.162818e+01	1.587710e+03
1.300000e-06	5.826144e-06	2.430984e-08	4.225455e+01	1.596942e+03
1.310000e-06	5.910537e-06	2.444418e-08	4.286662e+01	1.605650e+03
1.320000e-06	5.992929e-06	2.456996e-08	4.346418e+01	1.613821e+03
1.330000e-06	6.073114e-06	2.468792e-08	4.404573e+01	1.621464e+03
1.340000e-06	6.150977e-06	2.479943e-08	4.461044e+01	1.628607e+03
1.350000e-06	6.226552e-06	2.490282e-08	4.515854e+01	1.635298e+03
1.360000e-06	6.299716e-06	2.499868e-08	4.568917e+01	1.641595e+03
1.370000e-06	6.370568e-06	2.508924e-08	4.620303e+01	1.647555e+03
1.380000e-06	6.439266e-06	2.517489e-08	4.670127e+01	1.653221e+03
1.390000e-06	6.505585e-06	2.525605e-08	4.718226e+01	1.658622e+03
1.400000e-06	6.569518e-06	2.533362e-08	4.764593e+01	1.663767e+03
1.410000e-06	6.631234e-06	2.540874e-08	4.809353e+01	1.668652e+03
1.420000e-06	6.690770e-06	2.547848e-08	4.852533e+01	1.673269e+03
1.430000e-06	6.747910e-06	2.554216e-08	4.893974e+01	1.677611e+03
1.440000e-06	6.802527e-06	2.560297e-08	4.933585e+01	1.681680e+03
1.450000e-06	6.854582e-06	2.566232e-08	4.971338e+01	1.685488e+03
1.460000e-06	6.903825e-06	2.571837e-08	5.007052e+01	1.689050e+03
1.470000e-06	6.950368e-06	2.576942e-08	5.040808e+01	1.692385e+03
1.480000e-06	6.994580e-06	2.581773e-08	5.072873e+01	1.695505e+03
1.490000e-06	7.036317e-06	2.586314e-08	5.103143e+01	1.698414e+03
1.500000e-06	7.075389e-06	2.590347e-08	5.131480e+01	1.701100e+03
1.510000e-06	7.112059e-06	2.593975e-08	5.158076e+01	1.703549e+03
1.520000e-06	7.146287e-06	2.597374e-08	5.182900e+01	1.705741e+03
1.530000e-06	7.177894e-06	2.600248e-08	5.205823e+01	1.707665e+03
1.540000e-06	7.207045e-06	2.602556e-08	5.226965e+01	1.709321e+03
1.550000e-06	7.233678e-06	2.604635e-08	5.246281e+01	1.710725e+03
1.560000e-06	7.257568e-06	2.606548e-08	5.263607e+01	1.711906e+03
1.570000e-06	7.278861e-06	2.608244e-08	5.279050e+01	1.712898e+03
1.580000e-06	7.297641e-06	2.609587e-08	5.292670e+01	1.713737e+03
1.590000e-06	7.313731e-06	2.610627e-08	5.304339e+01	1.714447e+03
1.600000e-06	7.327093e-06	2.611406e-08	5.314031e+01	1.715038e+03
1.610000e-06	7.337597e-06	2.611975e-08	5.321649e+01	1.715503e+03
1.620000e-06	7.345196e-06	2.612433e-08	5.327160e+01	1.715822e+03
1.630000e-06	7.350186e-06	2.612728e-08	5.330779e+01	1.715973e+03
1.640000e-06	7.352587e-06	2.612924e-08	5.332520e+01	1.715934e+03
1.650000e-06	7.352351e-06	2.612994e-08	5.332349e+01	1.715699e+03
1.660000e-06	7.349699e-06	2.612041e-08	5.330425e+01	1.715272e+03
1.670000e-06	7.344682e-06	2.610925e-08	5.326787e+01	1.714674e+03
1.680000e-06	7.337162e-06	2.610010e-08	5.321333e+01	1.713935e+03
1.690000e-06	7.327181e-06	2.608910e-08	5.314095e+01	1.713081e+03
1.700000e-06	7.314684e-06	2.607729e-08	5.305031e+01	1.712133e+03
1.710000e-06	7.299584e-06	2.606705e-08	5.294079e+01	1.711095e+03
1.720000e-06	7.282149e-06	2.605959e-08	5.281434e+01	1.709958e+03
1.730000e-06	7.262658e-06	2.603324e-08	5.267298e+01	1.708701e+03
1.740000e-06	7.240656e-06	2.594714e-08	5.251341e+01	1.707299e+03
1.750000e-06	7.215294e-06	2.593912e-08	5.232948e+01	1.705736e+03
1.760000e-06	7.186454e-06	2.596141e-08	5.212031e+01	1.704007e+03
1.770000e-06	7.154854e-06	2.593162e-08	5.189113e+01	1.702125e+03
1.780000e-06	7.121143e-06	2.590899e-08	5.164664e+01	1.700116e+03
1.790000e-06	7.085688e-06	2.593994e-08	5.138950e+01	1.698012e+03
1.800000e-06	7.048641e-06	2.583754e-08	5.112081e+01	1.695839e+03
1.810000e-06	7.009351e-06	2.575976e-08	5.083586e+01	1.693610e+03
1.820000e-06	6.967380e-06	2.584369e-08	5.053146e+01	1.691310e+03
1.830000e-06	6.923174e-06	2.574009e-08	5.021085e+01	1.688904e+03
1.840000e-06	6.876512e-06	2.576877e-08	4.987243e+01	1.686335e+03
1.850000e-06	6.827151e-06	2.570646e-08	4.951444e+01	1.683540e+03
1.860000e-06	6.775206e-06	2.556155e-08	4.913770e+01	1.680459e+03
1.870000e-06	6.720455e-06	2.559638e-08	4.874061e+01	1.677054e+03
1.880000e-06	6.663192e-06	2.548170e-08	4.832531e+01	1.673310e+03
1.890000e-06	6.603449e-06	2.547750e-08	4.789202e+01	1.669242e+03
1.900000e-06	6.541099e-06	2.543695e-08	4.743982e+01	1.664887e+03
1.910000e-06	6.476307e-06	2.531771e-08	4.696991e+01	1.660290e+03
1.920000e-06	6.409092e-06	2.527485e-08	4.648243e+01	1.655497e+03
1.930000e-06	6.339443e-06	2.516686e-08	4.597730e+01	1.650533e+03
1.940000e-06	6.267346e-06	2.514227e-08	4.545441e+01	1.645406e+03
1.950000e-06	6.192864e-06	2.503898e-08	4.491422e+01	1.640094e+03
1.960000e-06	6.115803e-06	2.494510e-08	4.435533e+01	1.634563e+03
1.970000e-06	6.036230e-06	2.487105e-08	4.377822e+01	1.628765e+03
1.980000e-06	5.954571e-06	2.475308e-08	4.318598e+01	1.622662e+03
1.990000e-06	5.870854e-06	2.468919e-08	4.257882e+01	1.616223e+03
2.000000e-06	5.784963e-06	2.456122e-08	4.195589e+01	1.609439e+03
2.010000e-06	5.696909e-06	2.447187e-08	4.131727e+01	1.602316e+03
2.020000e-06	5.606869e-06	2.435140e-08	4.066425e+01	1.594866e+03
2.030000e-06	5.514895e-06	2.422751e-08	3.999720e+01	1.587105e+03
2.040000e-06	5.420903e-06	2.411504e-08	3.931552e+01	1.579037e+03
2.050000e-06	5.324989e-06	2.398707e-08	3.861989e+01	1.570651e+03
2.060000e-06	5.227312e-06	2.385638e-08	3.791148e+01	1.561921e+03
2.070000e-06	5.127923e-06	2.369293e-08	3.719066e+01	1.552809e+03
2.080000e-06	5.026629e-06	2.355832e-08	3.645601e+01	1.543276e+03
2.090000e-06	4.923364e-06	2.341199e-08	3.570707e+01	1.533287e+03
2.100000e-06	4.818330e-06	2.326898e-08	3.494531e+01	1.522821e+03
2.110000e-06	4.711807e-06	2.310367e-08	3.417274e+01	1.511869e+03
2.120000e-06	4.603870e-06	2.292307e-08	3.338992e+01	1.500433e+03
2.130000e-06	4.494260e-06	2.272859e-08	3.259497e+01	1.488514e+03
2.140000e-06	4.382859e-06	2.253368e-08	3.178702e+01	1.476107e+03
2.150000e-06	4.269725e-06	2.234684e-08	3.096651e+01	1.463190e+03
2.160000e-06	4.154923e-06	2.215022e-08	3.013390e+01	1.449722e+03
2.170000e-06	4.038375e-06	2.194178e-08	2.928862e+01	1.435643e+03
2.180000e-06	3.920132e-06	2.171234e-08	2.843106e+01	1.420888e+03
2.190000e-06	3.800368e-06	2.147741e-08	2.756246e+01	1.405392e+03
2.200000e-06	3.679198e-06	2.122900e-08	2.668366e+01	1.389102e+03
2.210000e-06	3.556753e-06	2.097664e-08	2.579563e+01	1.371982e+03
2.220000e-06	3.433059e-06	2.070847e-08	2.489852e+01	1.354012e+03
2.230000e-06	3.308035e-06	2.042347e-08	2.399178e+01	1.335179e+03
2.240000e-06	3.181731e-06	2.011430e-08	2.307575e+01	1.315463e+03
2.250000e-06	3.054272e-06	1.979234e-08	2.215135e+01	1.294819e+03
2.260000e-06	2.925666e-06	1.946378e-08	2.121862e+01	1.273173e+03
2.270000e-06	2.795978e-06	1.912209e-08	2.027805e+01	1.250411e+03
2.280000e-06	2.665348e-06	1.876220e-08	1.933064e+01	1.226390e+03
2.290000e-06	2.533807e-06	1.837562e-08	1.837663e+01	1.200947e+03
2.300000e-06	2.401273e-06	1.796493e-08	1.741542e+01	1.173919e+03
2.310000e-06	2.267826e-06	1.752667e-08	1.644758e+01	1.145156e+03
2.320000e-06	2.133674e-06	1.706195e-08	1.547463e+01	1.114528e+03
2.330000e-06	1.998866e-06	1.656546e-08	1.449693e+01	1.081923e+03
2.340000e-06	1.863376e-06	1.603720e-08	1.351427e+01	1.047237e+03
2.350000e-06	1.727181e-06	1.547431e-08	1.252651e+01	1.010348e+03
2.360000e-06	1.590316e-06	1.487306e-08	1.153389e+01	9.711032e+02
2.370000e-06	1.453000e-06	1.423322e-08	1.053800e+01	9.293100e+02
2.380000e-06	1.315322e-06	1.355426e-08	9.539471e+00	8.847448e+02
2.390000e-06	1.177226e-06	1.283161e-08	8.537924e+00	8.371823e+02
2.400000e-06	1.038778e-06	1.205739e-08	7.533819e+00	7.864431e+02
2.410000e-06	8.999606e-07	1.123225e-08	6.527033e+00	7.324499e+02
2.420000e-06	7.607843e-07	1.036153e-08	5.517646e+00	6.752801e+02
2.430000e-06	6.213147e-07	9.446483e-09	4.506133e+00	6.151998e+02
2.440000e-06	4.815429e-07	8.491691e-09	3.492427e+00	5.526665e+02
2.450000e-06	3.415552e-07	7.506826e-09	2.477155e+00	4.882936e+02
2.460000e-06	2.014183e-07	6.504079e-09	1.460802e+00	4.227776e+02
2.470000e-06	6.108459e-08	5.494876e-09	4.430207e-01	3.567996e+02
2.480000e-06	-7.936219e-08	4.486584e-09	-5.755804e-01	2.909181e+02
2.490000e-06	-2.197287e-07	3.485608e-09	-1.593599e+00	2.254756e+02
2.500000e-06	-3.599549e-07	2.490774e-09	-2.610601e+00	1.605402e+02
2.510000e-06	-5.000618e-07	1.497081e-09	-3.626736e+00	9.589717e+01
2.520000e-06	-6.400315e-07	5.012956e-10	-4.641877e+00	3.109720e+01
2.530000e-06	-7.797703e-07	-5.033046e-10	-5.655344e+00	-3.444608e+01
2.540000e-06	-9.191576e-07	-1.525124e-09	-6.666261e+00	-1.013253e+02
2.550000e-06	-1.058168e-06	-2.569315e-09	-7.674443e+00	-1.700006e+02
2.560000e-06	-1.196780e-06	-3.640800e-09	-8.679735e+00	-2.406790e+02
2.570000e-06	-1.334925e-06	-4.743624e-09	-9.681648e+00	-3.132372e+02
2.580000e-06	-1.472604e-06	-5.873928e-09	-1.068018e+01	-3.872011e+02
2.590000e-06	-1.609829e-06	-7.021003e-09	-1.167541e+01	-4.617883e+02
2.600000e-06	-1.746546e-06	-8.161545e-09	-1.266696e+01	-5.360018e+02
2.610000e-06	-1.882570e-06	-9.275893e-09	-1.365349e+01	-6.087584e+02
2.620000e-06	-2.017711e-06	-1.035405e-08	-1.463360e+01	-6.790260e+02
2.630000e-06	-2.152060e-06	-1.138016e-08	-1.560798e+01	-7.459438e+02
2.640000e-06	-2.285686e-06	-1.234387e-08	-1.657712e+01	-8.089063e+02
2.650000e-06	-2.418357e-06	-1.324104e-08	-1.753932e+01	-8.675988e+02
2.660000e-06	-2.549997e-06	-1.407294e-08	-1.849405e+01	-9.219834e+02
2.670000e-06	-2.680743e-06	-1.484173e-08	-1.944230e+01	-9.722452e+02
2.680000e-06	-2.810615e-06	-1.555448e-08	-2.038420e+01	-1.018714e+03
2.690000e-06	-2.939545e-06	-1.621963e-08	-2.131928e+01	-1.061781e+03
2.700000e-06	-3.067371e-06	-1.683863e-08	-2.224634e+01	-1.101830e+03
2.710000e-06	-3.194112e-06	-1.741701e-08	-2.316555e+01	-1.139186e+03
2.720000e-06	-3.319794e-06	-1.795542e-08	-2.407706e+01	-1.174099e+03
2.730000e-06	-3.444190e-06	-1.845411e-08	-2.497926e+01	-1.206750e+03
2.740000e-06	-3.567284e-06	-1.891746e-08	-2.587200e+01	-1.237274e+03
2.750000e-06	-3.689192e-06	-1.934822e-08	-2.675615e+01	-1.265789e+03
2.760000e-06	-3.809768e-06	-1.975256e-08	-2.763064e+01	-1.292422e+03
2.770000e-06	-3.928824e-06	-2.013270e-08	-2.849410e+01	-1.317319e+03
2.780000e-06	-4.046413e-06	-2.049372e-08	-2.934692e+01	-1.340646e+03
2.790000e-06	-4.162456e-06	-2.083598e-08	-3.018853e+01	-1.362578e+03
2.800000e-06	-4.276819e-06	-2.115572e-08	-3.101796e+01	-1.383278e+03
2.810000e-06	-4.389413e-06	-2.145749e-08	-3.183455e+01	-1.402881e+03
2.820000e-06	-4.500240e-06	-2.174126e-08	-3.263834e+01	-1.421482e+03
2.830000e-06	-4.609480e-06	-2.201160e-08	-3.343061e+01	-1.439138e+03
2.840000e-06	-4.717225e-06	-2.226586e-08	-3.421204e+01	-1.455875e+03
2.850000e-06	-4.823411e-06	-2.250235e-08	-3.498216e+01	-1.471707e+03
2.860000e-06	-4.927973e-06	-2.272621e-08	-3.574050e+01	-1.486650e+03
2.870000e-06	-5.030688e-06	-2.293986e-08	-3.648545e+01	-1.500739e+03
2.880000e-06	-5.131358e-06	-2.314618e-08	-3.721556e+01	-1.514028e+03
2.890000e-06	-5.230189e-06	-2.334456e-08	-3.793235e+01	-1.526592e+03
2.900000e-06	-5.327274e-06	-2.353423e-08	-3.863646e+01	-1.538514e+03
2.910000e-06	-5.422468e-06	-2.371242e-08	-3.932687e+01	-1.549869e+03
2.920000e-06	-5.515649e-06	-2.387802e-08	-4.000267e+01	-1.560715e+03
2.930000e-06	-5.606901e-06	-2.403324e-08	-4.066448e+01	-1.571081e+03
2.940000e-06	-5.696244e-06	-2.418144e-08	-4.131245e+01	-1.580970e+03
