# Temperatura_=_56.7
# Concentracion g/m^3_=_28200.0
# C_Vs_to_Am_M_A/Vsm_=_65563218390.804596
# pendiente_HvsI_1/m_=_3716.3
# ordenada_HvsI_A/m_=_1297.0
# frecuencia_Hz_=_302399.10816170194

Tiempo_(s)	Campo_(V.s)	Magnetizacion_(V.s)	Campo_(kA/m)	Magnetizacion_(A/m)
0.000000e+00	-7.331686e-06	-2.631724e-08	-5.318814e+01	-1.723586e+03
1.000000e-08	-7.328134e-06	-2.631552e-08	-5.316237e+01	-1.723026e+03
2.000000e-08	-7.322175e-06	-2.630362e-08	-5.311915e+01	-1.722297e+03
3.000000e-08	-7.313922e-06	-2.628808e-08	-5.305928e+01	-1.721436e+03
4.000000e-08	-7.303134e-06	-2.627156e-08	-5.298101e+01	-1.720477e+03
5.000000e-08	-7.289550e-06	-2.625283e-08	-5.288247e+01	-1.719435e+03
6.000000e-08	-7.273249e-06	-2.623179e-08	-5.276421e+01	-1.718312e+03
7.000000e-08	-7.254689e-06	-2.620910e-08	-5.262956e+01	-1.717089e+03
8.000000e-08	-7.234056e-06	-2.618647e-08	-5.247988e+01	-1.715741e+03
9.000000e-08	-7.210929e-06	-2.621971e-08	-5.231210e+01	-1.714248e+03
1.000000e-07	-7.184837e-06	-2.621203e-08	-5.212282e+01	-1.712597e+03
1.100000e-07	-7.155857e-06	-2.612571e-08	-5.191258e+01	-1.710796e+03
1.200000e-07	-7.124362e-06	-2.607355e-08	-5.168410e+01	-1.708864e+03
1.300000e-07	-7.090378e-06	-2.604918e-08	-5.143756e+01	-1.706832e+03
1.400000e-07	-7.054142e-06	-2.598844e-08	-5.117468e+01	-1.704721e+03
1.500000e-07	-7.016072e-06	-2.590798e-08	-5.089851e+01	-1.702541e+03
1.600000e-07	-6.975975e-06	-2.597179e-08	-5.060762e+01	-1.700276e+03
1.700000e-07	-6.933390e-06	-2.592323e-08	-5.029868e+01	-1.697884e+03
1.800000e-07	-6.888404e-06	-2.576855e-08	-4.997233e+01	-1.695307e+03
1.900000e-07	-6.840960e-06	-2.582029e-08	-4.962814e+01	-1.692481e+03
2.000000e-07	-6.790653e-06	-2.575213e-08	-4.926319e+01	-1.689349e+03
2.100000e-07	-6.737562e-06	-2.566402e-08	-4.887804e+01	-1.685882e+03
2.200000e-07	-6.681895e-06	-2.564446e-08	-4.847420e+01	-1.682079e+03
2.300000e-07	-6.623754e-06	-2.555110e-08	-4.805241e+01	-1.677970e+03
2.400000e-07	-6.563210e-06	-2.550710e-08	-4.761319e+01	-1.673607e+03
2.500000e-07	-6.500248e-06	-2.542939e-08	-4.715643e+01	-1.669049e+03
2.600000e-07	-6.434780e-06	-2.536988e-08	-4.668148e+01	-1.664342e+03
2.700000e-07	-6.366815e-06	-2.528949e-08	-4.618843e+01	-1.659506e+03
2.800000e-07	-6.296483e-06	-2.520627e-08	-4.567820e+01	-1.654530e+03
2.900000e-07	-6.223818e-06	-2.512743e-08	-4.515105e+01	-1.649373e+03
3.000000e-07	-6.148669e-06	-2.502032e-08	-4.460588e+01	-1.643976e+03
3.100000e-07	-6.070919e-06	-2.496452e-08	-4.404183e+01	-1.638277e+03
3.200000e-07	-5.990597e-06	-2.487546e-08	-4.345914e+01	-1.632228e+03
3.300000e-07	-5.908074e-06	-2.477188e-08	-4.286047e+01	-1.625806e+03
3.400000e-07	-5.823652e-06	-2.465940e-08	-4.224802e+01	-1.619019e+03
3.500000e-07	-5.737308e-06	-2.454595e-08	-4.162163e+01	-1.611898e+03
3.600000e-07	-5.648996e-06	-2.444696e-08	-4.098097e+01	-1.604484e+03
3.700000e-07	-5.558589e-06	-2.432773e-08	-4.032511e+01	-1.596812e+03
3.800000e-07	-5.466165e-06	-2.420709e-08	-3.965461e+01	-1.588898e+03
3.900000e-07	-5.371889e-06	-2.407358e-08	-3.897069e+01	-1.580727e+03
4.000000e-07	-5.275724e-06	-2.393915e-08	-3.827305e+01	-1.572256e+03
4.100000e-07	-5.177638e-06	-2.380251e-08	-3.756147e+01	-1.563423e+03
4.200000e-07	-5.077707e-06	-2.366869e-08	-3.683652e+01	-1.554163e+03
4.300000e-07	-4.975978e-06	-2.352572e-08	-3.609852e+01	-1.544420e+03
4.400000e-07	-4.872456e-06	-2.336479e-08	-3.534751e+01	-1.534166e+03
4.500000e-07	-4.767211e-06	-2.319821e-08	-3.458401e+01	-1.523399e+03
4.600000e-07	-4.660247e-06	-2.302416e-08	-3.380803e+01	-1.512137e+03
4.700000e-07	-4.551621e-06	-2.284574e-08	-3.302000e+01	-1.500412e+03
4.800000e-07	-4.441445e-06	-2.266730e-08	-3.222072e+01	-1.488243e+03
4.900000e-07	-4.329698e-06	-2.248130e-08	-3.141004e+01	-1.475628e+03
5.000000e-07	-4.216236e-06	-2.227270e-08	-3.058693e+01	-1.462531e+03
5.100000e-07	-4.100946e-06	-2.205179e-08	-2.975055e+01	-1.448888e+03
5.200000e-07	-3.984014e-06	-2.183093e-08	-2.890226e+01	-1.434612e+03
5.300000e-07	-3.865619e-06	-2.160404e-08	-2.804336e+01	-1.419615e+03
5.400000e-07	-3.745811e-06	-2.136240e-08	-2.717420e+01	-1.403826e+03
5.500000e-07	-3.624646e-06	-2.110985e-08	-2.629520e+01	-1.387199e+03
5.600000e-07	-3.502110e-06	-2.084366e-08	-2.540626e+01	-1.369722e+03
5.700000e-07	-3.378171e-06	-2.056198e-08	-2.450714e+01	-1.351401e+03
5.800000e-07	-3.252971e-06	-2.026878e-08	-2.359886e+01	-1.332248e+03
5.900000e-07	-3.126657e-06	-1.996920e-08	-2.268252e+01	-1.312255e+03
6.000000e-07	-2.999158e-06	-1.965435e-08	-2.175757e+01	-1.291376e+03
6.100000e-07	-2.870515e-06	-1.931418e-08	-2.082432e+01	-1.269514e+03
6.200000e-07	-2.740888e-06	-1.895486e-08	-1.988393e+01	-1.246527e+03
6.300000e-07	-2.610242e-06	-1.857898e-08	-1.893615e+01	-1.222239e+03
6.400000e-07	-2.478541e-06	-1.818444e-08	-1.798072e+01	-1.196470e+03
6.500000e-07	-2.345912e-06	-1.776605e-08	-1.701855e+01	-1.169052e+03
6.600000e-07	-2.212564e-06	-1.732361e-08	-1.605117e+01	-1.139852e+03
6.700000e-07	-2.078558e-06	-1.685191e-08	-1.507902e+01	-1.108771e+03
6.800000e-07	-1.943796e-06	-1.634977e-08	-1.410138e+01	-1.075731e+03
6.900000e-07	-1.808272e-06	-1.581750e-08	-1.311822e+01	-1.040646e+03
7.000000e-07	-1.672017e-06	-1.525223e-08	-1.212974e+01	-1.003393e+03
7.100000e-07	-1.535165e-06	-1.464825e-08	-1.113695e+01	-9.637877e+02
7.200000e-07	-1.397802e-06	-1.399902e-08	-1.014044e+01	-9.215762e+02
7.300000e-07	-1.259971e-06	-1.330531e-08	-9.140535e+00	-8.764575e+02
7.400000e-07	-1.121713e-06	-1.256136e-08	-8.137532e+00	-8.281287e+02
7.500000e-07	-9.829837e-07	-1.176834e-08	-7.131112e+00	-7.763502e+02
7.600000e-07	-8.438507e-07	-1.092962e-08	-6.121764e+00	-7.210167e+02
7.700000e-07	-7.044317e-07	-1.004238e-08	-5.110341e+00	-6.622142e+02
7.800000e-07	-5.647504e-07	-9.104343e-09	-4.097014e+00	-6.002468e+02
7.900000e-07	-4.247915e-07	-8.122564e-09	-3.081675e+00	-5.356220e+02
8.000000e-07	-2.845901e-07	-7.107332e-09	-2.064575e+00	-4.689890e+02
8.100000e-07	-1.442409e-07	-6.068634e-09	-1.046404e+00	-4.010428e+02
8.200000e-07	-3.801784e-09	-5.019193e-09	-2.758026e-02	-3.324077e+02
8.300000e-07	1.366911e-07	-3.968058e-09	9.916336e-01	-2.635288e+02
8.400000e-07	2.771860e-07	-2.919373e-09	2.010862e+00	-1.945945e+02
8.500000e-07	4.175752e-07	-1.869473e-09	3.029324e+00	-1.255111e+02
8.600000e-07	5.577731e-07	-8.142375e-10	4.046397e+00	-5.593963e+01
8.700000e-07	6.977466e-07	2.540552e-10	5.061843e+00	1.461101e+01
8.800000e-07	8.374560e-07	1.346860e-09	6.075373e+00	8.664927e+01
8.900000e-07	9.768891e-07	2.470019e-09	7.086899e+00	1.605532e+02
9.000000e-07	1.115945e-06	3.625639e-09	8.095685e+00	2.364401e+02
9.100000e-07	1.254514e-06	4.810015e-09	9.100944e+00	3.140811e+02
9.200000e-07	1.392557e-06	6.014099e-09	1.010239e+01	3.928799e+02
9.300000e-07	1.530042e-06	7.221092e-09	1.109978e+01	4.719208e+02
9.400000e-07	1.666975e-06	8.413145e-09	1.209317e+01	5.500764e+02
9.500000e-07	1.803270e-06	9.571323e-09	1.308193e+01	6.261526e+02
9.600000e-07	1.938784e-06	1.067723e-08	1.406502e+01	6.990434e+02
9.700000e-07	2.073552e-06	1.171699e-08	1.504270e+01	7.678642e+02
9.800000e-07	2.207594e-06	1.268454e-08	1.601512e+01	8.320410e+02
9.900000e-07	2.340869e-06	1.358050e-08	1.698197e+01	8.913408e+02
1.000000e-06	2.473326e-06	1.440783e-08	1.794288e+01	9.458452e+02
1.010000e-06	2.604844e-06	1.516900e-08	1.889700e+01	9.958770e+02
1.020000e-06	2.735309e-06	1.586994e-08	1.984346e+01	1.041901e+03
1.030000e-06	2.864769e-06	1.651968e-08	2.078263e+01	1.084422e+03
1.040000e-06	2.993202e-06	1.712274e-08	2.171436e+01	1.123904e+03
1.050000e-06	3.120475e-06	1.768237e-08	2.263767e+01	1.160714e+03
1.060000e-06	3.246595e-06	1.820354e-08	2.355261e+01	1.195114e+03
1.070000e-06	3.371634e-06	1.868849e-08	2.445972e+01	1.227271e+03
1.080000e-06	3.495628e-06	1.914069e-08	2.535924e+01	1.257298e+03
1.090000e-06	3.618378e-06	1.956094e-08	2.624974e+01	1.285295e+03
1.100000e-06	3.739692e-06	1.995208e-08	2.712981e+01	1.311382e+03
1.110000e-06	3.859589e-06	2.032205e-08	2.799962e+01	1.335714e+03
1.120000e-06	3.978138e-06	2.067430e-08	2.885964e+01	1.358477e+03
1.130000e-06	4.095334e-06	2.100733e-08	2.970984e+01	1.379873e+03
1.140000e-06	4.210961e-06	2.131922e-08	3.054866e+01	1.400088e+03
1.150000e-06	4.324855e-06	2.161235e-08	3.137491e+01	1.419270e+03
1.160000e-06	4.437041e-06	2.188883e-08	3.218877e+01	1.437515e+03
1.170000e-06	4.547638e-06	2.214926e-08	3.299111e+01	1.454868e+03
1.180000e-06	4.656757e-06	2.239422e-08	3.378272e+01	1.471333e+03
1.190000e-06	4.764321e-06	2.262896e-08	3.456304e+01	1.486903e+03
1.200000e-06	4.870180e-06	2.285240e-08	3.533100e+01	1.501578e+03
1.210000e-06	4.974194e-06	2.306325e-08	3.608558e+01	1.515385e+03
1.220000e-06	5.076402e-06	2.326204e-08	3.682705e+01	1.528387e+03
1.230000e-06	5.176877e-06	2.345065e-08	3.755595e+01	1.540673e+03
1.240000e-06	5.275418e-06	2.363065e-08	3.827082e+01	1.552346e+03
1.250000e-06	5.371837e-06	2.380083e-08	3.897030e+01	1.563500e+03
1.260000e-06	5.466271e-06	2.396247e-08	3.965538e+01	1.574202e+03
1.270000e-06	5.558914e-06	2.411642e-08	4.032746e+01	1.584480e+03
1.280000e-06	5.649621e-06	2.426352e-08	4.098551e+01	1.594327e+03
1.290000e-06	5.738169e-06	2.440525e-08	4.162788e+01	1.603707e+03
1.300000e-06	5.824544e-06	2.454184e-08	4.225450e+01	1.612574e+03
1.310000e-06	5.908928e-06	2.467192e-08	4.286666e+01	1.620895e+03
1.320000e-06	5.991320e-06	2.479366e-08	4.346438e+01	1.628661e+03
1.330000e-06	6.071499e-06	2.490640e-08	4.404604e+01	1.635896e+03
1.340000e-06	6.149435e-06	2.501115e-08	4.461143e+01	1.642652e+03
1.350000e-06	6.225043e-06	2.510822e-08	4.515994e+01	1.649002e+03
1.360000e-06	6.298208e-06	2.519939e-08	4.569072e+01	1.655017e+03
1.370000e-06	6.369061e-06	2.528830e-08	4.620472e+01	1.660758e+03
1.380000e-06	6.437709e-06	2.537344e-08	4.670273e+01	1.666258e+03
1.390000e-06	6.504049e-06	2.545321e-08	4.718400e+01	1.671525e+03
1.400000e-06	6.568001e-06	2.552831e-08	4.764795e+01	1.676546e+03
1.410000e-06	6.629722e-06	2.559824e-08	4.809571e+01	1.681295e+03
1.420000e-06	6.689188e-06	2.566342e-08	4.852711e+01	1.685754e+03
1.430000e-06	6.746203e-06	2.572516e-08	4.894072e+01	1.689916e+03
1.440000e-06	6.800819e-06	2.578510e-08	4.933694e+01	1.693792e+03
1.450000e-06	6.852860e-06	2.584213e-08	4.971447e+01	1.697411e+03
1.460000e-06	6.902049e-06	2.589639e-08	5.007131e+01	1.700807e+03
1.470000e-06	6.948612e-06	2.594790e-08	5.040911e+01	1.704013e+03
1.480000e-06	6.992817e-06	2.599562e-08	5.072980e+01	1.707045e+03
1.490000e-06	7.034478e-06	2.603923e-08	5.103203e+01	1.709901e+03
1.500000e-06	7.073566e-06	2.607779e-08	5.131560e+01	1.712560e+03
1.510000e-06	7.110287e-06	2.611250e-08	5.158199e+01	1.714989e+03
1.520000e-06	7.144530e-06	2.614583e-08	5.183041e+01	1.717154e+03
1.530000e-06	7.176152e-06	2.617577e-08	5.205981e+01	1.719036e+03
1.540000e-06	7.205279e-06	2.620057e-08	5.227111e+01	1.720633e+03
1.550000e-06	7.231905e-06	2.622195e-08	5.246428e+01	1.721968e+03
1.560000e-06	7.255824e-06	2.624111e-08	5.263780e+01	1.723080e+03
1.570000e-06	7.277111e-06	2.625788e-08	5.279223e+01	1.724018e+03
1.580000e-06	7.295901e-06	2.627251e-08	5.292854e+01	1.724824e+03
1.590000e-06	7.312007e-06	2.628511e-08	5.304538e+01	1.725527e+03
1.600000e-06	7.325306e-06	2.629361e-08	5.314186e+01	1.726130e+03
1.610000e-06	7.335691e-06	2.630045e-08	5.321720e+01	1.726617e+03
1.620000e-06	7.343226e-06	2.630586e-08	5.327186e+01	1.726956e+03
1.630000e-06	7.348188e-06	2.630775e-08	5.330786e+01	1.727110e+03
1.640000e-06	7.350579e-06	2.630665e-08	5.332520e+01	1.727052e+03
1.650000e-06	7.350382e-06	2.630643e-08	5.332377e+01	1.726772e+03
1.660000e-06	7.347760e-06	2.629763e-08	5.330476e+01	1.726281e+03
1.670000e-06	7.342729e-06	2.628731e-08	5.326826e+01	1.725607e+03
1.680000e-06	7.335156e-06	2.627832e-08	5.321332e+01	1.724789e+03
1.690000e-06	7.325176e-06	2.626658e-08	5.314092e+01	1.723861e+03
1.700000e-06	7.312613e-06	2.625436e-08	5.304978e+01	1.722847e+03
1.710000e-06	7.297442e-06	2.624225e-08	5.293972e+01	1.721754e+03
1.720000e-06	7.280032e-06	2.623330e-08	5.281342e+01	1.720568e+03
1.730000e-06	7.260537e-06	2.620067e-08	5.267199e+01	1.719267e+03
1.740000e-06	7.238531e-06	2.609990e-08	5.251235e+01	1.717827e+03
1.750000e-06	7.213208e-06	2.609351e-08	5.232864e+01	1.716232e+03
1.760000e-06	7.184465e-06	2.612289e-08	5.212012e+01	1.714482e+03
1.770000e-06	7.152934e-06	2.608888e-08	5.189138e+01	1.712594e+03
1.780000e-06	7.119262e-06	2.607976e-08	5.164710e+01	1.710593e+03
1.790000e-06	7.083841e-06	2.613472e-08	5.139014e+01	1.708508e+03
1.800000e-06	7.046792e-06	2.601003e-08	5.112137e+01	1.706352e+03
1.810000e-06	7.007490e-06	2.592037e-08	5.083624e+01	1.704120e+03
1.820000e-06	6.965552e-06	2.602235e-08	5.053200e+01	1.701779e+03
1.830000e-06	6.921386e-06	2.590405e-08	5.021160e+01	1.699275e+03
1.840000e-06	6.874784e-06	2.593577e-08	4.987352e+01	1.696544e+03
1.850000e-06	6.825521e-06	2.588645e-08	4.951614e+01	1.693526e+03
1.860000e-06	6.773634e-06	2.574324e-08	4.913973e+01	1.690180e+03
1.870000e-06	6.718922e-06	2.577819e-08	4.874281e+01	1.686494e+03
1.880000e-06	6.661737e-06	2.565230e-08	4.832796e+01	1.682488e+03
1.890000e-06	6.602120e-06	2.564553e-08	4.789546e+01	1.678209e+03
1.900000e-06	6.539835e-06	2.557346e-08	4.744361e+01	1.673714e+03
1.910000e-06	6.475062e-06	2.544802e-08	4.697372e+01	1.669055e+03
1.920000e-06	6.407923e-06	2.543145e-08	4.648665e+01	1.664264e+03
1.930000e-06	6.338403e-06	2.530827e-08	4.598231e+01	1.659340e+03
1.940000e-06	6.266367e-06	2.529195e-08	4.545972e+01	1.654254e+03
1.950000e-06	6.191919e-06	2.518721e-08	4.491963e+01	1.648949e+03
1.960000e-06	6.114953e-06	2.508207e-08	4.436128e+01	1.643364e+03
1.970000e-06	6.035428e-06	2.500863e-08	4.378437e+01	1.637443e+03
1.980000e-06	5.953770e-06	2.487934e-08	4.319197e+01	1.631155e+03
1.990000e-06	5.870096e-06	2.482212e-08	4.258496e+01	1.624495e+03
2.000000e-06	5.784327e-06	2.469517e-08	4.196274e+01	1.617488e+03
2.010000e-06	5.696371e-06	2.460088e-08	4.132465e+01	1.610173e+03
2.020000e-06	5.606405e-06	2.447120e-08	4.067199e+01	1.602589e+03
2.030000e-06	5.514498e-06	2.434731e-08	4.000525e+01	1.594761e+03
2.040000e-06	5.420542e-06	2.424447e-08	3.932364e+01	1.586685e+03
2.050000e-06	5.324667e-06	2.411419e-08	3.862811e+01	1.578326e+03
2.060000e-06	5.227021e-06	2.398624e-08	3.791973e+01	1.569630e+03
2.070000e-06	5.127679e-06	2.382460e-08	3.719904e+01	1.560529e+03
2.080000e-06	5.026511e-06	2.368595e-08	3.646512e+01	1.550963e+03
2.090000e-06	4.923366e-06	2.352820e-08	3.571684e+01	1.540893e+03
2.100000e-06	4.818393e-06	2.337931e-08	3.495531e+01	1.530306e+03
2.110000e-06	4.711912e-06	2.321494e-08	3.418284e+01	1.519217e+03
2.120000e-06	4.603939e-06	2.303691e-08	3.339954e+01	1.507654e+03
2.130000e-06	4.494348e-06	2.284291e-08	3.260451e+01	1.495642e+03
2.140000e-06	4.383003e-06	2.265067e-08	3.179675e+01	1.483187e+03
2.150000e-06	4.269929e-06	2.246707e-08	3.097645e+01	1.470268e+03
2.160000e-06	4.155200e-06	2.226661e-08	3.014414e+01	1.456828e+03
2.170000e-06	4.038759e-06	2.205769e-08	2.929941e+01	1.442788e+03
2.180000e-06	3.920648e-06	2.182519e-08	2.844257e+01	1.428057e+03
2.190000e-06	3.800917e-06	2.158538e-08	2.757398e+01	1.412557e+03
2.200000e-06	3.679791e-06	2.133267e-08	2.669526e+01	1.396232e+03
2.210000e-06	3.557347e-06	2.107939e-08	2.580698e+01	1.379058e+03
2.220000e-06	3.433595e-06	2.081153e-08	2.490922e+01	1.361036e+03
2.230000e-06	3.308615e-06	2.052685e-08	2.400254e+01	1.342179e+03
2.240000e-06	3.182372e-06	2.022422e-08	2.308670e+01	1.322489e+03
2.250000e-06	3.054921e-06	1.991166e-08	2.216210e+01	1.301934e+03
2.260000e-06	2.926337e-06	1.958596e-08	2.122928e+01	1.280436e+03
2.270000e-06	2.796717e-06	1.924197e-08	2.028895e+01	1.257869e+03
2.280000e-06	2.666110e-06	1.887907e-08	1.934145e+01	1.234066e+03
2.290000e-06	2.534532e-06	1.849073e-08	1.838691e+01	1.208846e+03
2.300000e-06	2.402047e-06	1.808118e-08	1.742579e+01	1.182033e+03
2.310000e-06	2.268706e-06	1.764687e-08	1.645846e+01	1.153482e+03
2.320000e-06	2.134599e-06	1.718954e-08	1.548557e+01	1.123082e+03
2.330000e-06	1.999810e-06	1.670073e-08	1.450774e+01	1.090749e+03
2.340000e-06	1.864296e-06	1.617879e-08	1.352464e+01	1.056405e+03
2.350000e-06	1.728043e-06	1.562245e-08	1.253619e+01	1.019944e+03
2.360000e-06	1.591205e-06	1.502962e-08	1.154349e+01	9.812035e+02
2.370000e-06	1.453931e-06	1.439817e-08	1.054762e+01	9.399549e+02
2.380000e-06	1.316267e-06	1.372379e-08	9.548935e+00	8.959098e+02
2.390000e-06	1.178198e-06	1.300221e-08	8.547304e+00	8.487591e+02
2.400000e-06	1.039737e-06	1.222789e-08	7.542829e+00	7.982324e+02
2.410000e-06	9.008372e-07	1.140139e-08	6.535176e+00	7.441689e+02
2.420000e-06	7.615054e-07	1.052735e-08	5.524385e+00	6.865812e+02
2.430000e-06	6.219173e-07	9.605702e-09	4.511735e+00	6.256949e+02
2.440000e-06	4.821450e-07	8.637527e-09	3.497749e+00	5.619496e+02
2.450000e-06	3.421478e-07	7.630040e-09	2.482131e+00	4.959533e+02
2.460000e-06	2.019471e-07	6.594490e-09	1.465037e+00	4.283976e+02
2.470000e-06	6.161391e-08	5.542413e-09	4.469817e-01	3.599454e+02
2.480000e-06	-7.877252e-08	4.483510e-09	-5.714598e-01	2.911168e+02
2.490000e-06	-2.191613e-07	3.424016e-09	-1.589918e+00	2.221978e+02
2.500000e-06	-3.594888e-07	2.365365e-09	-2.607932e+00	1.531947e+02
2.510000e-06	-4.996559e-07	1.304366e-09	-3.624783e+00	8.384789e+01
2.520000e-06	-6.396345e-07	2.358896e-10	-4.640266e+00	1.370689e+01
2.530000e-06	-7.793437e-07	-8.491195e-10	-5.653795e+00	-5.774749e+01
2.540000e-06	-9.187168e-07	-1.961556e-09	-6.664885e+00	-1.309564e+02
2.550000e-06	-1.057733e-06	-3.106280e-09	-7.673387e+00	-2.061430e+02
2.560000e-06	-1.196283e-06	-4.283787e-09	-8.678504e+00	-2.832078e+02
2.570000e-06	-1.334332e-06	-5.488896e-09	-9.679989e+00	-3.616841e+02
2.580000e-06	-1.471964e-06	-6.705965e-09	-1.067845e+01	-4.407605e+02
2.590000e-06	-1.609191e-06	-7.914676e-09	-1.167397e+01	-5.193699e+02
2.600000e-06	-1.745844e-06	-9.094215e-09	-1.266533e+01	-5.963241e+02
2.610000e-06	-1.881826e-06	-1.022788e-08	-1.365182e+01	-6.704687e+02
2.620000e-06	-2.017064e-06	-1.130115e-08	-1.463291e+01	-7.408271e+02
2.630000e-06	-2.151437e-06	-1.230336e-08	-1.560772e+01	-8.067076e+02
2.640000e-06	-2.284997e-06	-1.323398e-08	-1.657665e+01	-8.677556e+02
2.650000e-06	-2.417727e-06	-1.409449e-08	-1.753954e+01	-9.239469e+02
2.660000e-06	-2.549503e-06	-1.488805e-08	-1.849552e+01	-9.755285e+02
2.670000e-06	-2.680282e-06	-1.561877e-08	-1.944426e+01	-1.022926e+03
2.680000e-06	-2.810092e-06	-1.629325e-08	-2.038598e+01	-1.066643e+03
2.690000e-06	-2.938948e-06	-1.691966e-08	-2.132077e+01	-1.107163e+03
2.700000e-06	-3.066825e-06	-1.750054e-08	-2.224846e+01	-1.144892e+03
2.710000e-06	-3.193599e-06	-1.804018e-08	-2.316815e+01	-1.180130e+03
2.720000e-06	-3.319189e-06	-1.854067e-08	-2.407925e+01	-1.213074e+03
2.730000e-06	-3.443564e-06	-1.900574e-08	-2.498154e+01	-1.243851e+03
2.740000e-06	-3.566635e-06	-1.944110e-08	-2.587436e+01	-1.272562e+03
2.750000e-06	-3.688454e-06	-1.984932e-08	-2.675811e+01	-1.299316e+03
2.760000e-06	-3.809019e-06	-2.023407e-08	-2.763275e+01	-1.324255e+03
2.770000e-06	-3.928099e-06	-2.059477e-08	-2.849662e+01	-1.347556e+03
2.780000e-06	-4.045660e-06	-2.093287e-08	-2.934948e+01	-1.369419e+03
2.790000e-06	-4.161671e-06	-2.125044e-08	-3.019108e+01	-1.390037e+03
2.800000e-06	-4.275986e-06	-2.154882e-08	-3.102039e+01	-1.409574e+03
2.810000e-06	-4.388540e-06	-2.183122e-08	-3.183692e+01	-1.428147e+03
2.820000e-06	-4.499291e-06	-2.209802e-08	-3.264037e+01	-1.445817e+03
2.830000e-06	-4.608442e-06	-2.235045e-08	-3.343221e+01	-1.462600e+03
2.840000e-06	-4.716138e-06	-2.259179e-08	-3.421350e+01	-1.478492e+03
2.850000e-06	-4.822314e-06	-2.282075e-08	-3.498376e+01	-1.493485e+03
2.860000e-06	-4.926838e-06	-2.303729e-08	-3.574203e+01	-1.507598e+03
2.870000e-06	-5.029437e-06	-2.324271e-08	-3.648634e+01	-1.520879e+03
2.880000e-06	-5.130051e-06	-2.343713e-08	-3.721626e+01	-1.533410e+03
2.890000e-06	-5.228889e-06	-2.362252e-08	-3.793328e+01	-1.545291e+03
2.900000e-06	-5.325987e-06	-2.379742e-08	-3.863769e+01	-1.556621e+03
2.910000e-06	-5.421207e-06	-2.396345e-08	-3.932847e+01	-1.567480e+03
2.920000e-06	-5.514422e-06	-2.412171e-08	-4.000470e+01	-1.577909e+03
2.930000e-06	-5.605646e-06	-2.427190e-08	-4.066649e+01	-1.587914e+03
2.940000e-06	-5.694925e-06	-2.441622e-08	-4.131417e+01	-1.597466e+03
