# Temperatura_=_86.36
# Concentracion g/m^3_=_28200.0
# C_Vs_to_Am_M_A/Vsm_=_65563218390.804596
# pendiente_HvsI_1/m_=_3716.3
# ordenada_HvsI_A/m_=_1297.0
# frecuencia_Hz_=_302396.14151720377

Tiempo_(s)	Campo_(V.s)	Magnetizacion_(V.s)	Campo_(kA/m)	Magnetizacion_(A/m)
0.000000e+00	-7.364686e-06	-2.839892e-08	-5.318584e+01	-1.859478e+03
1.000000e-08	-7.360835e-06	-2.839459e-08	-5.315803e+01	-1.858867e+03
2.000000e-08	-7.354616e-06	-2.838144e-08	-5.311311e+01	-1.858077e+03
3.000000e-08	-7.345979e-06	-2.836637e-08	-5.305074e+01	-1.857140e+03
4.000000e-08	-7.334733e-06	-2.834936e-08	-5.296953e+01	-1.856077e+03
5.000000e-08	-7.320757e-06	-2.832763e-08	-5.286859e+01	-1.854893e+03
6.000000e-08	-7.304110e-06	-2.830173e-08	-5.274838e+01	-1.853572e+03
7.000000e-08	-7.285237e-06	-2.827424e-08	-5.261208e+01	-1.852093e+03
8.000000e-08	-7.264268e-06	-2.826461e-08	-5.246065e+01	-1.850430e+03
9.000000e-08	-7.240726e-06	-2.829609e-08	-5.229063e+01	-1.848573e+03
1.000000e-07	-7.214154e-06	-2.825763e-08	-5.209873e+01	-1.846530e+03
1.100000e-07	-7.184705e-06	-2.816967e-08	-5.188606e+01	-1.844331e+03
1.200000e-07	-7.152727e-06	-2.812043e-08	-5.165513e+01	-1.842019e+03
1.300000e-07	-7.118243e-06	-2.807925e-08	-5.140609e+01	-1.839638e+03
1.400000e-07	-7.081616e-06	-2.799913e-08	-5.114158e+01	-1.837217e+03
1.500000e-07	-7.043165e-06	-2.793794e-08	-5.086389e+01	-1.834755e+03
1.600000e-07	-7.002509e-06	-2.799923e-08	-5.057029e+01	-1.832215e+03
1.700000e-07	-6.959382e-06	-2.790236e-08	-5.025884e+01	-1.829530e+03
1.800000e-07	-6.913874e-06	-2.778861e-08	-4.993019e+01	-1.826611e+03
1.900000e-07	-6.865710e-06	-2.781864e-08	-4.958236e+01	-1.823369e+03
2.000000e-07	-6.814615e-06	-2.771892e-08	-4.921337e+01	-1.819735e+03
2.100000e-07	-6.760895e-06	-2.763798e-08	-4.882542e+01	-1.815676e+03
2.200000e-07	-6.704669e-06	-2.758964e-08	-4.841937e+01	-1.811203e+03
2.300000e-07	-6.645890e-06	-2.752222e-08	-4.799488e+01	-1.806365e+03
2.400000e-07	-6.584705e-06	-2.745445e-08	-4.755302e+01	-1.801234e+03
2.500000e-07	-6.521127e-06	-2.734489e-08	-4.709388e+01	-1.795886e+03
2.600000e-07	-6.455067e-06	-2.727503e-08	-4.661681e+01	-1.790378e+03
2.700000e-07	-6.386521e-06	-2.719306e-08	-4.612179e+01	-1.784731e+03
2.800000e-07	-6.315603e-06	-2.710003e-08	-4.560964e+01	-1.778928e+03
2.900000e-07	-6.242272e-06	-2.700252e-08	-4.508006e+01	-1.772915e+03
3.000000e-07	-6.166435e-06	-2.690964e-08	-4.453238e+01	-1.766621e+03
3.100000e-07	-6.087972e-06	-2.682752e-08	-4.396574e+01	-1.759975e+03
3.200000e-07	-6.007022e-06	-2.669199e-08	-4.338115e+01	-1.752928e+03
3.300000e-07	-5.924014e-06	-2.657760e-08	-4.278168e+01	-1.745465e+03
3.400000e-07	-5.839026e-06	-2.646122e-08	-4.216792e+01	-1.737606e+03
3.500000e-07	-5.752075e-06	-2.633733e-08	-4.153998e+01	-1.729393e+03
3.600000e-07	-5.663140e-06	-2.621716e-08	-4.089772e+01	-1.720878e+03
3.700000e-07	-5.572082e-06	-2.608412e-08	-4.024012e+01	-1.712101e+03
3.800000e-07	-5.479019e-06	-2.594469e-08	-3.956805e+01	-1.703072e+03
3.900000e-07	-5.384095e-06	-2.579078e-08	-3.888252e+01	-1.693764e+03
4.000000e-07	-5.287173e-06	-2.564640e-08	-3.818258e+01	-1.684119e+03
4.100000e-07	-5.188325e-06	-2.549132e-08	-3.746873e+01	-1.674061e+03
4.200000e-07	-5.087675e-06	-2.533422e-08	-3.674186e+01	-1.663515e+03
4.300000e-07	-4.985287e-06	-2.516685e-08	-3.600244e+01	-1.652426e+03
4.400000e-07	-4.881132e-06	-2.498685e-08	-3.525026e+01	-1.640773e+03
4.500000e-07	-4.775166e-06	-2.479690e-08	-3.448500e+01	-1.628568e+03
4.600000e-07	-4.667503e-06	-2.460344e-08	-3.370749e+01	-1.615848e+03
4.700000e-07	-4.558232e-06	-2.440969e-08	-3.291836e+01	-1.602656e+03
4.800000e-07	-4.447402e-06	-2.420522e-08	-3.211797e+01	-1.589019e+03
4.900000e-07	-4.334821e-06	-2.399024e-08	-3.130495e+01	-1.574932e+03
5.000000e-07	-4.220460e-06	-2.375882e-08	-3.047906e+01	-1.560348e+03
5.100000e-07	-4.104430e-06	-2.352008e-08	-2.964112e+01	-1.545185e+03
5.200000e-07	-3.986831e-06	-2.327182e-08	-2.879185e+01	-1.529338e+03
5.300000e-07	-3.867825e-06	-2.301735e-08	-2.793242e+01	-1.512707e+03
5.400000e-07	-3.747399e-06	-2.275392e-08	-2.706274e+01	-1.495214e+03
5.500000e-07	-3.625486e-06	-2.247729e-08	-2.618231e+01	-1.476816e+03
5.600000e-07	-3.502143e-06	-2.218354e-08	-2.529156e+01	-1.457510e+03
5.700000e-07	-3.377439e-06	-2.187382e-08	-2.439099e+01	-1.437315e+03
5.800000e-07	-3.251532e-06	-2.155292e-08	-2.348172e+01	-1.416253e+03
5.900000e-07	-3.124559e-06	-2.121741e-08	-2.256475e+01	-1.394321e+03
6.000000e-07	-2.996380e-06	-2.086778e-08	-2.163907e+01	-1.371465e+03
6.100000e-07	-2.866977e-06	-2.049901e-08	-2.070456e+01	-1.347577e+03
6.200000e-07	-2.736587e-06	-2.011094e-08	-1.976291e+01	-1.322497e+03
6.300000e-07	-2.605237e-06	-1.970165e-08	-1.881434e+01	-1.296033e+03
6.400000e-07	-2.472849e-06	-1.927131e-08	-1.785827e+01	-1.267991e+03
6.500000e-07	-2.339529e-06	-1.881578e-08	-1.689547e+01	-1.238200e+03
6.600000e-07	-2.205474e-06	-1.833362e-08	-1.592736e+01	-1.206530e+03
6.700000e-07	-2.070715e-06	-1.782430e-08	-1.495416e+01	-1.172890e+03
6.800000e-07	-1.935191e-06	-1.728497e-08	-1.397545e+01	-1.137208e+03
6.900000e-07	-1.798924e-06	-1.671295e-08	-1.299136e+01	-1.099399e+03
7.000000e-07	-1.661916e-06	-1.610195e-08	-1.200192e+01	-1.059324e+03
7.100000e-07	-1.524214e-06	-1.544910e-08	-1.100747e+01	-1.016769e+03
7.200000e-07	-1.385988e-06	-1.475018e-08	-1.000924e+01	-9.714371e+02
7.300000e-07	-1.247356e-06	-1.400323e-08	-9.008081e+00	-9.229788e+02
7.400000e-07	-1.108308e-06	-1.320241e-08	-8.003908e+00	-8.710449e+02
7.500000e-07	-9.688310e-07	-1.234930e-08	-6.996644e+00	-8.153608e+02
7.600000e-07	-8.290205e-07	-1.144502e-08	-5.986970e+00	-7.558037e+02
7.700000e-07	-6.889171e-07	-1.048590e-08	-4.975179e+00	-6.924600e+02
7.800000e-07	-5.484727e-07	-9.473781e-09	-3.960927e+00	-6.256474e+02
7.900000e-07	-4.077212e-07	-8.414949e-09	-2.944456e+00	-5.558899e+02
8.000000e-07	-2.667977e-07	-7.316937e-09	-1.926743e+00	-4.838447e+02
8.100000e-07	-1.257594e-07	-6.188432e-09	-9.082018e-01	-4.101950e+02
8.200000e-07	1.538727e-08	-5.043350e-09	1.111228e-01	-3.355294e+02
8.300000e-07	1.565003e-07	-3.889808e-09	1.130204e+00	-2.602361e+02
8.400000e-07	2.975606e-07	-2.732349e-09	2.148905e+00	-1.844381e+02
8.500000e-07	4.385957e-07	-1.569733e-09	3.167423e+00	-1.079881e+02
8.600000e-07	5.795213e-07	-3.967720e-10	4.185151e+00	-3.052880e+01
8.700000e-07	7.202041e-07	7.947169e-10	5.201126e+00	4.839145e+01
8.800000e-07	8.605385e-07	2.016667e-09	6.214584e+00	1.291692e+02
8.900000e-07	1.000518e-06	3.274245e-09	7.225477e+00	2.119956e+02
9.000000e-07	1.140126e-06	4.566867e-09	8.233692e+00	2.967378e+02
9.100000e-07	1.279320e-06	5.884938e-09	9.238914e+00	3.828791e+02
9.200000e-07	1.418079e-06	7.212996e-09	1.024100e+01	4.695328e+02
9.300000e-07	1.556361e-06	8.528985e-09	1.123964e+01	5.555292e+02
9.400000e-07	1.693981e-06	9.808387e-09	1.223349e+01	6.395582e+02
9.500000e-07	1.830815e-06	1.103260e-08	1.322167e+01	7.203387e+02
9.600000e-07	1.966884e-06	1.218581e-08	1.420432e+01	7.967827e+02
9.700000e-07	2.102135e-06	1.325677e-08	1.518107e+01	8.681210e+02
9.800000e-07	2.236551e-06	1.424530e-08	1.615179e+01	9.339691e+02
9.900000e-07	2.370228e-06	1.515615e-08	1.711717e+01	9.943253e+02
1.000000e-06	2.503133e-06	1.599455e-08	1.807697e+01	1.049507e+03
1.010000e-06	2.635065e-06	1.676530e-08	1.902975e+01	1.100046e+03
1.020000e-06	2.765969e-06	1.747489e-08	1.997511e+01	1.146561e+03
1.030000e-06	2.895904e-06	1.813336e-08	2.091346e+01	1.189653e+03
1.040000e-06	3.024751e-06	1.874588e-08	2.184396e+01	1.229816e+03
1.050000e-06	3.152355e-06	1.931449e-08	2.276548e+01	1.267404e+03
1.060000e-06	3.278758e-06	1.984404e-08	2.367833e+01	1.302635e+03
1.070000e-06	3.404098e-06	2.033885e-08	2.458351e+01	1.335626e+03
1.080000e-06	3.528337e-06	2.080163e-08	2.548073e+01	1.366450e+03
1.090000e-06	3.651379e-06	2.123372e-08	2.636931e+01	1.395187e+03
1.100000e-06	3.773131e-06	2.163749e-08	2.724857e+01	1.421959e+03
1.110000e-06	3.893420e-06	2.201931e-08	2.811726e+01	1.446943e+03
1.120000e-06	4.012254e-06	2.238182e-08	2.897545e+01	1.470355e+03
1.130000e-06	4.129704e-06	2.272318e-08	2.982365e+01	1.492423e+03
1.140000e-06	4.245622e-06	2.304372e-08	3.066077e+01	1.513353e+03
1.150000e-06	4.359904e-06	2.334730e-08	3.148609e+01	1.533297e+03
1.160000e-06	4.472457e-06	2.363471e-08	3.229892e+01	1.552342e+03
1.170000e-06	4.583328e-06	2.390560e-08	3.309960e+01	1.570513e+03
1.180000e-06	4.692691e-06	2.416342e-08	3.388939e+01	1.587794e+03
1.190000e-06	4.800485e-06	2.441124e-08	3.466785e+01	1.604160e+03
1.200000e-06	4.906585e-06	2.464685e-08	3.543408e+01	1.619598e+03
1.210000e-06	5.010829e-06	2.486937e-08	3.618690e+01	1.634138e+03
1.220000e-06	5.113220e-06	2.507972e-08	3.692634e+01	1.647845e+03
1.230000e-06	5.213854e-06	2.528030e-08	3.765309e+01	1.660823e+03
1.240000e-06	5.312542e-06	2.547012e-08	3.836579e+01	1.673182e+03
1.250000e-06	5.409094e-06	2.564791e-08	3.906306e+01	1.685026e+03
1.260000e-06	5.503621e-06	2.581861e-08	3.974572e+01	1.696422e+03
1.270000e-06	5.596342e-06	2.598349e-08	4.041532e+01	1.707396e+03
1.280000e-06	5.687173e-06	2.614233e-08	4.107128e+01	1.717934e+03
1.290000e-06	5.775858e-06	2.629400e-08	4.171174e+01	1.727996e+03
1.300000e-06	5.862364e-06	2.643933e-08	4.233646e+01	1.737533e+03
1.310000e-06	5.946892e-06	2.657849e-08	4.294690e+01	1.746514e+03
1.320000e-06	6.029440e-06	2.671026e-08	4.354304e+01	1.754935e+03
1.330000e-06	6.109709e-06	2.683466e-08	4.412272e+01	1.762824e+03
1.340000e-06	6.187667e-06	2.695209e-08	4.468571e+01	1.770241e+03
1.350000e-06	6.263307e-06	2.706146e-08	4.523197e+01	1.777254e+03
1.360000e-06	6.336484e-06	2.716344e-08	4.576043e+01	1.783931e+03
1.370000e-06	6.407294e-06	2.726092e-08	4.627180e+01	1.790319e+03
1.380000e-06	6.475919e-06	2.735345e-08	4.676739e+01	1.796438e+03
1.390000e-06	6.542242e-06	2.744107e-08	4.724636e+01	1.802282e+03
1.400000e-06	6.606139e-06	2.752443e-08	4.770781e+01	1.807827e+03
1.410000e-06	6.667773e-06	2.760314e-08	4.815291e+01	1.813048e+03
1.420000e-06	6.727201e-06	2.767731e-08	4.858208e+01	1.817932e+03
1.430000e-06	6.784251e-06	2.774810e-08	4.899409e+01	1.822482e+03
1.440000e-06	6.838831e-06	2.781553e-08	4.938825e+01	1.826728e+03
1.450000e-06	6.890737e-06	2.787945e-08	4.976310e+01	1.830712e+03
1.460000e-06	6.939770e-06	2.793913e-08	5.011721e+01	1.834479e+03
1.470000e-06	6.986131e-06	2.799448e-08	5.045201e+01	1.838064e+03
1.480000e-06	7.030126e-06	2.804765e-08	5.076974e+01	1.841481e+03
1.490000e-06	7.071637e-06	2.809872e-08	5.106952e+01	1.844717e+03
1.500000e-06	7.110506e-06	2.814515e-08	5.135022e+01	1.847738e+03
1.510000e-06	7.146991e-06	2.818630e-08	5.161370e+01	1.850498e+03
1.520000e-06	7.181020e-06	2.822294e-08	5.185945e+01	1.852958e+03
1.530000e-06	7.212416e-06	2.825557e-08	5.208618e+01	1.855093e+03
1.540000e-06	7.241356e-06	2.828366e-08	5.229518e+01	1.856903e+03
1.550000e-06	7.267724e-06	2.830770e-08	5.248560e+01	1.858418e+03
1.560000e-06	7.291347e-06	2.833010e-08	5.265620e+01	1.859683e+03
1.570000e-06	7.312379e-06	2.835045e-08	5.280809e+01	1.860751e+03
1.580000e-06	7.330872e-06	2.836632e-08	5.294164e+01	1.861669e+03
1.590000e-06	7.346687e-06	2.837708e-08	5.305585e+01	1.862462e+03
1.600000e-06	7.359699e-06	2.838413e-08	5.314982e+01	1.863132e+03
1.610000e-06	7.369806e-06	2.839010e-08	5.322281e+01	1.863659e+03
1.620000e-06	7.377115e-06	2.839385e-08	5.327560e+01	1.864009e+03
1.630000e-06	7.381865e-06	2.839515e-08	5.330990e+01	1.864149e+03
1.640000e-06	7.383984e-06	2.839545e-08	5.332520e+01	1.864057e+03
1.650000e-06	7.383430e-06	2.839482e-08	5.332120e+01	1.863728e+03
1.660000e-06	7.380463e-06	2.838588e-08	5.329978e+01	1.863181e+03
1.670000e-06	7.375042e-06	2.837674e-08	5.326062e+01	1.862443e+03
1.680000e-06	7.367059e-06	2.836591e-08	5.320297e+01	1.861549e+03
1.690000e-06	7.356655e-06	2.834963e-08	5.312784e+01	1.860525e+03
1.700000e-06	7.343676e-06	2.833327e-08	5.303411e+01	1.859379e+03
1.710000e-06	7.328124e-06	2.831914e-08	5.292179e+01	1.858104e+03
1.720000e-06	7.310390e-06	2.830574e-08	5.279373e+01	1.856678e+03
1.730000e-06	7.290568e-06	2.824503e-08	5.265058e+01	1.855075e+03
1.740000e-06	7.268067e-06	2.815394e-08	5.248808e+01	1.853279e+03
1.750000e-06	7.242204e-06	2.816116e-08	5.230130e+01	1.851293e+03
1.760000e-06	7.212940e-06	2.817071e-08	5.208997e+01	1.849138e+03
1.770000e-06	7.180972e-06	2.812882e-08	5.185910e+01	1.846857e+03
1.780000e-06	7.146937e-06	2.813831e-08	5.161331e+01	1.844493e+03
1.790000e-06	7.111176e-06	2.816738e-08	5.135506e+01	1.842082e+03
1.800000e-06	7.073799e-06	2.802001e-08	5.108513e+01	1.839634e+03
1.810000e-06	7.034046e-06	2.798371e-08	5.079804e+01	1.837125e+03
1.820000e-06	6.991612e-06	2.802463e-08	5.049160e+01	1.834495e+03
1.830000e-06	6.946860e-06	2.791659e-08	5.016841e+01	1.831660e+03
1.840000e-06	6.899541e-06	2.796047e-08	4.982668e+01	1.828530e+03
1.850000e-06	6.849627e-06	2.787452e-08	4.946622e+01	1.825027e+03
1.860000e-06	6.797063e-06	2.778808e-08	4.908662e+01	1.821104e+03
1.870000e-06	6.741687e-06	2.774889e-08	4.868670e+01	1.816760e+03
1.880000e-06	6.683906e-06	2.761335e-08	4.826942e+01	1.812031e+03
1.890000e-06	6.623631e-06	2.762663e-08	4.783414e+01	1.806984e+03
1.900000e-06	6.560714e-06	2.752631e-08	4.737976e+01	1.801697e+03
1.910000e-06	6.495326e-06	2.742389e-08	4.690755e+01	1.796235e+03
1.920000e-06	6.427558e-06	2.735991e-08	4.641815e+01	1.790633e+03
1.930000e-06	6.357363e-06	2.723770e-08	4.591122e+01	1.784883e+03
1.940000e-06	6.284668e-06	2.717948e-08	4.538623e+01	1.778944e+03
1.950000e-06	6.209619e-06	2.705038e-08	4.484425e+01	1.772747e+03
1.960000e-06	6.132030e-06	2.698045e-08	4.428392e+01	1.766220e+03
1.970000e-06	6.051901e-06	2.687203e-08	4.370525e+01	1.759305e+03
1.980000e-06	5.969608e-06	2.674784e-08	4.311095e+01	1.751974e+03
1.990000e-06	5.885252e-06	2.665570e-08	4.250175e+01	1.744237e+03
2.000000e-06	5.798734e-06	2.651071e-08	4.187694e+01	1.736131e+03
2.010000e-06	5.710050e-06	2.639468e-08	4.123649e+01	1.727708e+03
2.020000e-06	5.619450e-06	2.624836e-08	4.058220e+01	1.719011e+03
2.030000e-06	5.526893e-06	2.612731e-08	3.991378e+01	1.710063e+03
2.040000e-06	5.432293e-06	2.598644e-08	3.923060e+01	1.700849e+03
2.050000e-06	5.335776e-06	2.583765e-08	3.853358e+01	1.691319e+03
2.060000e-06	5.237476e-06	2.568536e-08	3.782369e+01	1.681401e+03
2.070000e-06	5.137457e-06	2.551425e-08	3.710137e+01	1.671018e+03
2.080000e-06	5.035552e-06	2.535063e-08	3.636544e+01	1.660107e+03
2.090000e-06	4.931754e-06	2.517557e-08	3.561584e+01	1.648634e+03
2.100000e-06	4.826202e-06	2.500567e-08	3.485357e+01	1.636603e+03
2.110000e-06	4.719069e-06	2.481335e-08	3.407989e+01	1.624042e+03
2.120000e-06	4.610360e-06	2.461440e-08	3.329482e+01	1.610997e+03
2.130000e-06	4.499972e-06	2.440311e-08	3.249762e+01	1.597501e+03
2.140000e-06	4.387865e-06	2.419459e-08	3.168802e+01	1.583561e+03
2.150000e-06	4.274062e-06	2.397812e-08	3.086616e+01	1.569144e+03
2.160000e-06	4.158569e-06	2.375341e-08	3.003210e+01	1.554176e+03
2.170000e-06	4.041297e-06	2.351536e-08	2.918519e+01	1.538560e+03
2.180000e-06	3.922406e-06	2.326007e-08	2.832659e+01	1.522190e+03
2.190000e-06	3.802047e-06	2.299683e-08	2.745739e+01	1.504979e+03
2.200000e-06	3.680252e-06	2.272021e-08	2.657782e+01	1.486873e+03
2.210000e-06	3.557175e-06	2.243701e-08	2.568899e+01	1.467856e+03
2.220000e-06	3.432795e-06	2.213584e-08	2.479075e+01	1.447944e+03
2.230000e-06	3.307009e-06	2.182323e-08	2.388235e+01	1.427158e+03
2.240000e-06	3.179942e-06	2.149244e-08	2.296471e+01	1.405508e+03
2.250000e-06	3.051783e-06	2.114799e-08	2.203918e+01	1.382957e+03
2.260000e-06	2.922530e-06	2.078981e-08	2.110575e+01	1.359415e+03
2.270000e-06	2.792211e-06	2.041470e-08	2.016462e+01	1.334738e+03
2.280000e-06	2.660920e-06	2.001744e-08	1.921647e+01	1.308739e+03
2.290000e-06	2.528712e-06	1.959558e-08	1.826170e+01	1.281223e+03
2.300000e-06	2.395575e-06	1.914880e-08	1.730022e+01	1.252009e+03
2.310000e-06	2.261495e-06	1.867414e-08	1.633192e+01	1.220954e+03
2.320000e-06	2.126605e-06	1.817240e-08	1.535779e+01	1.187954e+03
2.330000e-06	1.991085e-06	1.764075e-08	1.437910e+01	1.152936e+03
2.340000e-06	1.854978e-06	1.707962e-08	1.339617e+01	1.115822e+03
2.350000e-06	1.718174e-06	1.648424e-08	1.240820e+01	1.076494e+03
2.360000e-06	1.580703e-06	1.584801e-08	1.141542e+01	1.034763e+03
2.370000e-06	1.442714e-06	1.516694e-08	1.041890e+01	9.903593e+02
2.380000e-06	1.304336e-06	1.443899e-08	9.419570e+00	9.429446e+02
2.390000e-06	1.165604e-06	1.365969e-08	8.417689e+00	8.921620e+02
2.400000e-06	1.026411e-06	1.282613e-08	7.412470e+00	8.377045e+02
2.410000e-06	8.868058e-07	1.193925e-08	6.404280e+00	7.793928e+02
2.420000e-06	7.469108e-07	1.099844e-08	5.393994e+00	7.172416e+02
2.430000e-06	6.067002e-07	1.000383e-08	4.381430e+00	6.514948e+02
2.440000e-06	4.661653e-07	8.959101e-09	3.366524e+00	5.826157e+02
2.450000e-06	3.253598e-07	7.870845e-09	2.349664e+00	5.112291e+02
2.460000e-06	1.843749e-07	6.749196e-09	1.331507e+00	4.380231e+02
2.470000e-06	4.333667e-08	5.605362e-09	3.129661e-01	3.636294e+02
2.480000e-06	-9.773011e-08	4.450028e-09	-7.057813e-01	2.885100e+02
2.490000e-06	-2.387820e-07	3.287395e-09	-1.724421e+00	2.128770e+02
2.500000e-06	-3.797541e-07	2.118374e-09	-2.742485e+00	1.366664e+02
2.510000e-06	-5.206529e-07	9.423902e-10	-3.760019e+00	5.957804e+01
2.520000e-06	-6.613293e-07	-2.502777e-10	-4.775947e+00	-1.882453e+01
2.530000e-06	-8.016832e-07	-1.468188e-09	-5.789547e+00	-9.897264e+01
2.540000e-06	-9.417103e-07	-2.714109e-09	-6.800786e+00	-1.811386e+02
2.550000e-06	-1.081313e-06	-3.991454e-09	-7.808963e+00	-2.653035e+02
2.560000e-06	-1.220445e-06	-5.300925e-09	-8.813736e+00	-3.510760e+02
2.570000e-06	-1.359124e-06	-6.633592e-09	-9.815238e+00	-4.376824e+02
2.580000e-06	-1.497370e-06	-7.966852e-09	-1.081361e+01	-5.240305e+02
2.590000e-06	-1.635120e-06	-9.276406e-09	-1.180841e+01	-6.088374e+02
2.600000e-06	-1.772239e-06	-1.053820e-08	-1.279865e+01	-6.907939e+02
2.610000e-06	-1.908671e-06	-1.173118e-08	-1.378392e+01	-7.687340e+02
2.620000e-06	-2.044335e-06	-1.284253e-08	-1.476365e+01	-8.417754e+02
2.630000e-06	-2.179249e-06	-1.386996e-08	-1.573797e+01	-9.094069e+02
2.640000e-06	-2.313391e-06	-1.481865e-08	-1.670671e+01	-9.715082e+02
2.650000e-06	-2.446610e-06	-1.569004e-08	-1.766878e+01	-1.028304e+03
2.660000e-06	-2.578851e-06	-1.649080e-08	-1.862379e+01	-1.080270e+03
2.670000e-06	-2.710077e-06	-1.722897e-08	-1.957147e+01	-1.128012e+03
2.680000e-06	-2.840353e-06	-1.791154e-08	-2.051228e+01	-1.172145e+03
2.690000e-06	-2.969652e-06	-1.854658e-08	-2.144605e+01	-1.213205e+03
2.700000e-06	-3.097870e-06	-1.913797e-08	-2.237201e+01	-1.251592e+03
2.710000e-06	-3.225026e-06	-1.968990e-08	-2.329029e+01	-1.287564e+03
2.720000e-06	-3.351072e-06	-2.020307e-08	-2.420057e+01	-1.321267e+03
2.730000e-06	-3.475845e-06	-2.067911e-08	-2.510164e+01	-1.352781e+03
2.740000e-06	-3.599291e-06	-2.112396e-08	-2.599314e+01	-1.382179e+03
2.750000e-06	-3.721476e-06	-2.154064e-08	-2.687553e+01	-1.409567e+03
2.760000e-06	-3.842310e-06	-2.193237e-08	-2.774816e+01	-1.435105e+03
2.770000e-06	-3.961702e-06	-2.230269e-08	-2.861037e+01	-1.458997e+03
2.780000e-06	-4.079640e-06	-2.265372e-08	-2.946209e+01	-1.481474e+03
2.790000e-06	-4.195973e-06	-2.298531e-08	-3.030222e+01	-1.502752e+03
2.800000e-06	-4.310577e-06	-2.329746e-08	-3.112986e+01	-1.523001e+03
2.810000e-06	-4.423417e-06	-2.359226e-08	-3.194476e+01	-1.542330e+03
2.820000e-06	-4.534466e-06	-2.387266e-08	-3.274673e+01	-1.560783e+03
2.830000e-06	-4.643855e-06	-2.413802e-08	-3.353671e+01	-1.578355e+03
2.840000e-06	-4.751761e-06	-2.438671e-08	-3.431598e+01	-1.595018e+03
2.850000e-06	-4.858233e-06	-2.462030e-08	-3.508489e+01	-1.610755e+03
2.860000e-06	-4.963041e-06	-2.484371e-08	-3.584179e+01	-1.625578e+03
2.870000e-06	-5.065896e-06	-2.506027e-08	-3.658458e+01	-1.639544e+03
2.880000e-06	-5.166759e-06	-2.527016e-08	-3.731298e+01	-1.652745e+03
2.890000e-06	-5.265733e-06	-2.547166e-08	-3.802775e+01	-1.665292e+03
2.900000e-06	-5.362931e-06	-2.566181e-08	-3.872969e+01	-1.677294e+03
2.910000e-06	-5.458248e-06	-2.583972e-08	-3.941804e+01	-1.688829e+03
2.920000e-06	-5.551553e-06	-2.600674e-08	-4.009187e+01	-1.699940e+03
2.930000e-06	-5.642898e-06	-2.616468e-08	-4.075154e+01	-1.710623e+03
2.940000e-06	-5.732242e-06	-2.631630e-08	-4.139675e+01	-1.720844e+03
