# Temperatura_=_79.63
# Concentracion g/m^3_=_28200.0
# C_Vs_to_Am_M_A/Vsm_=_65563218390.804596
# pendiente_HvsI_1/m_=_3716.3
# ordenada_HvsI_A/m_=_1297.0
# frecuencia_Hz_=_302396.1631184819

Tiempo_(s)	Campo_(V.s)	Magnetizacion_(V.s)	Campo_(kA/m)	Magnetizacion_(A/m)
0.000000e+00	-7.353171e-06	-2.777874e-08	-5.318936e+01	-1.819637e+03
1.000000e-08	-7.349544e-06	-2.777691e-08	-5.316312e+01	-1.819011e+03
2.000000e-08	-7.343549e-06	-2.776560e-08	-5.311976e+01	-1.818208e+03
3.000000e-08	-7.335236e-06	-2.774970e-08	-5.305963e+01	-1.817262e+03
4.000000e-08	-7.324354e-06	-2.773183e-08	-5.298092e+01	-1.816200e+03
5.000000e-08	-7.310740e-06	-2.771154e-08	-5.288244e+01	-1.815029e+03
6.000000e-08	-7.294456e-06	-2.768829e-08	-5.276465e+01	-1.813737e+03
7.000000e-08	-7.275875e-06	-2.766378e-08	-5.263024e+01	-1.812305e+03
8.000000e-08	-7.255144e-06	-2.764123e-08	-5.248029e+01	-1.810707e+03
9.000000e-08	-7.231863e-06	-2.766905e-08	-5.231188e+01	-1.808931e+03
1.000000e-07	-7.205632e-06	-2.765611e-08	-5.212213e+01	-1.806980e+03
1.100000e-07	-7.176548e-06	-2.756942e-08	-5.191175e+01	-1.804879e+03
1.200000e-07	-7.144974e-06	-2.751330e-08	-5.168336e+01	-1.802665e+03
1.300000e-07	-7.110899e-06	-2.748101e-08	-5.143688e+01	-1.800381e+03
1.400000e-07	-7.074563e-06	-2.741608e-08	-5.117405e+01	-1.798053e+03
1.500000e-07	-7.036360e-06	-2.733351e-08	-5.089770e+01	-1.795684e+03
1.600000e-07	-6.996085e-06	-2.738132e-08	-5.060637e+01	-1.793243e+03
1.700000e-07	-6.953316e-06	-2.733365e-08	-5.029700e+01	-1.790667e+03
1.800000e-07	-6.908114e-06	-2.718148e-08	-4.997003e+01	-1.787873e+03
1.900000e-07	-6.860398e-06	-2.721860e-08	-4.962488e+01	-1.784776e+03
2.000000e-07	-6.809833e-06	-2.714736e-08	-4.925911e+01	-1.781304e+03
2.100000e-07	-6.756579e-06	-2.704635e-08	-4.887390e+01	-1.777420e+03
2.200000e-07	-6.700810e-06	-2.701828e-08	-4.847049e+01	-1.773128e+03
2.300000e-07	-6.642489e-06	-2.693123e-08	-4.804863e+01	-1.768468e+03
2.400000e-07	-6.581686e-06	-2.687365e-08	-4.760880e+01	-1.763508e+03
2.500000e-07	-6.518483e-06	-2.677381e-08	-4.715162e+01	-1.758319e+03
2.600000e-07	-6.452740e-06	-2.671055e-08	-4.667607e+01	-1.752960e+03
2.700000e-07	-6.384493e-06	-2.663218e-08	-4.618241e+01	-1.747460e+03
2.800000e-07	-6.313959e-06	-2.652785e-08	-4.567220e+01	-1.741809e+03
2.900000e-07	-6.241079e-06	-2.643328e-08	-4.514502e+01	-1.735965e+03
3.000000e-07	-6.165626e-06	-2.633133e-08	-4.459922e+01	-1.729864e+03
3.100000e-07	-6.087515e-06	-2.625682e-08	-4.403421e+01	-1.723440e+03
3.200000e-07	-6.006941e-06	-2.613854e-08	-4.345137e+01	-1.716645e+03
3.300000e-07	-5.924227e-06	-2.603396e-08	-4.285306e+01	-1.709456e+03
3.400000e-07	-5.839564e-06	-2.592724e-08	-4.224065e+01	-1.701882e+03
3.500000e-07	-5.752990e-06	-2.579295e-08	-4.161441e+01	-1.693959e+03
3.600000e-07	-5.664407e-06	-2.567725e-08	-4.097364e+01	-1.685727e+03
3.700000e-07	-5.573707e-06	-2.555501e-08	-4.031756e+01	-1.677223e+03
3.800000e-07	-5.480989e-06	-2.542037e-08	-3.964688e+01	-1.668455e+03
3.900000e-07	-5.386350e-06	-2.527023e-08	-3.896231e+01	-1.659405e+03
4.000000e-07	-5.289804e-06	-2.512646e-08	-3.826394e+01	-1.650021e+03
4.100000e-07	-5.191375e-06	-2.497664e-08	-3.755195e+01	-1.640239e+03
4.200000e-07	-5.091105e-06	-2.481687e-08	-3.682665e+01	-1.629992e+03
4.300000e-07	-4.989052e-06	-2.465751e-08	-3.608844e+01	-1.619228e+03
4.400000e-07	-4.885262e-06	-2.448766e-08	-3.533767e+01	-1.607927e+03
4.500000e-07	-4.779692e-06	-2.430518e-08	-3.457403e+01	-1.596097e+03
4.600000e-07	-4.672329e-06	-2.411557e-08	-3.379742e+01	-1.583766e+03
4.700000e-07	-4.563296e-06	-2.392546e-08	-3.300873e+01	-1.570970e+03
4.800000e-07	-4.452707e-06	-2.373116e-08	-3.220878e+01	-1.557731e+03
4.900000e-07	-4.340473e-06	-2.352215e-08	-3.139693e+01	-1.544043e+03
5.000000e-07	-4.226459e-06	-2.329610e-08	-3.057220e+01	-1.529862e+03
5.100000e-07	-4.110765e-06	-2.306281e-08	-2.973533e+01	-1.515114e+03
5.200000e-07	-3.993559e-06	-2.282348e-08	-2.888752e+01	-1.499703e+03
5.300000e-07	-3.874881e-06	-2.257499e-08	-2.802906e+01	-1.483539e+03
5.400000e-07	-3.754688e-06	-2.231747e-08	-2.715964e+01	-1.466549e+03
5.500000e-07	-3.633052e-06	-2.205108e-08	-2.627978e+01	-1.448694e+03
5.600000e-07	-3.510106e-06	-2.176915e-08	-2.539045e+01	-1.429967e+03
5.700000e-07	-3.385815e-06	-2.147048e-08	-2.449139e+01	-1.410384e+03
5.800000e-07	-3.260244e-06	-2.115804e-08	-2.358307e+01	-1.389956e+03
5.900000e-07	-3.133532e-06	-2.083373e-08	-2.266649e+01	-1.368673e+03
6.000000e-07	-3.005649e-06	-2.049372e-08	-2.174144e+01	-1.346478e+03
6.100000e-07	-2.876574e-06	-2.013340e-08	-2.080778e+01	-1.323261e+03
6.200000e-07	-2.746402e-06	-1.975395e-08	-1.986617e+01	-1.298865e+03
6.300000e-07	-2.615267e-06	-1.935561e-08	-1.891761e+01	-1.273105e+03
6.400000e-07	-2.483199e-06	-1.893857e-08	-1.796229e+01	-1.245796e+03
6.500000e-07	-2.350204e-06	-1.849822e-08	-1.700026e+01	-1.216777e+03
6.600000e-07	-2.216434e-06	-1.803208e-08	-1.603264e+01	-1.185929e+03
6.700000e-07	-2.081962e-06	-1.753530e-08	-1.505993e+01	-1.153168e+03
6.800000e-07	-1.946672e-06	-1.700792e-08	-1.408131e+01	-1.118431e+03
6.900000e-07	-1.810608e-06	-1.644979e-08	-1.309709e+01	-1.081638e+03
7.000000e-07	-1.673882e-06	-1.585659e-08	-1.210807e+01	-1.042657e+03
7.100000e-07	-1.536565e-06	-1.522400e-08	-1.111478e+01	-1.001281e+03
7.200000e-07	-1.398671e-06	-1.454670e-08	-1.011733e+01	-9.572197e+02
7.300000e-07	-1.260282e-06	-1.382460e-08	-9.116282e+00	-9.101255e+02
7.400000e-07	-1.121506e-06	-1.305153e-08	-8.112444e+00	-8.596491e+02
7.500000e-07	-9.823611e-07	-1.222594e-08	-7.105936e+00	-8.055107e+02
7.600000e-07	-8.429063e-07	-1.134882e-08	-6.097186e+00	-7.475769e+02
7.700000e-07	-7.031374e-07	-1.041686e-08	-5.086164e+00	-6.859200e+02
7.800000e-07	-5.630679e-07	-9.429260e-09	-4.072967e+00	-6.208424e+02
7.900000e-07	-4.227266e-07	-8.394947e-09	-3.057805e+00	-5.528553e+02
8.000000e-07	-2.821693e-07	-7.324738e-09	-2.041079e+00	-4.826099e+02
8.100000e-07	-1.415141e-07	-6.226749e-09	-1.023646e+00	-4.107929e+02
8.200000e-07	-7.847215e-10	-5.111661e-09	-5.676304e-03	-3.380068e+02
8.300000e-07	1.399920e-07	-3.988998e-09	1.012636e+00	-2.646617e+02
8.400000e-07	2.807033e-07	-2.864213e-09	2.030475e+00	-1.909059e+02
8.500000e-07	4.212698e-07	-1.734402e-09	3.047267e+00	-1.166140e+02
8.600000e-07	5.617071e-07	-5.940662e-10	4.063124e+00	-4.143832e+01
8.700000e-07	7.019716e-07	5.652916e-10	5.077731e+00	3.508152e+01
8.800000e-07	8.419348e-07	1.751796e-09	6.090158e+00	1.133738e+02
8.900000e-07	9.815763e-07	2.970356e-09	7.100259e+00	1.936843e+02
9.000000e-07	1.120960e-06	4.223194e-09	8.108495e+00	2.759529e+02
9.100000e-07	1.260032e-06	5.503670e-09	9.114473e+00	3.597455e+02
9.200000e-07	1.398631e-06	6.798252e-09	1.011704e+01	4.442562e+02
9.300000e-07	1.536684e-06	8.086175e-09	1.111565e+01	5.283825e+02
9.400000e-07	1.674155e-06	9.343912e-09	1.211005e+01	6.108574e+02
9.500000e-07	1.811021e-06	1.055128e-08	1.310007e+01	6.904139e+02
9.600000e-07	1.947122e-06	1.169440e-08	1.408456e+01	7.659469e+02
9.700000e-07	2.082280e-06	1.276066e-08	1.506223e+01	8.366436e+02
9.800000e-07	2.216645e-06	1.374547e-08	1.603416e+01	9.020581e+02
9.900000e-07	2.350320e-06	1.465331e-08	1.700110e+01	9.621203e+02
1.000000e-06	2.483107e-06	1.548932e-08	1.796162e+01	1.017083e+03
1.010000e-06	2.614883e-06	1.625644e-08	1.891483e+01	1.067427e+03
1.020000e-06	2.745681e-06	1.696345e-08	1.986096e+01	1.113738e+03
1.030000e-06	2.875534e-06	1.761971e-08	2.080026e+01	1.156601e+03
1.040000e-06	3.004310e-06	1.823119e-08	2.173176e+01	1.196515e+03
1.050000e-06	3.131845e-06	1.879878e-08	2.265429e+01	1.233846e+03
1.060000e-06	3.258235e-06	1.932536e-08	2.356854e+01	1.268826e+03
1.070000e-06	3.383588e-06	1.981655e-08	2.447528e+01	1.301587e+03
1.080000e-06	3.507753e-06	2.027529e-08	2.537343e+01	1.332209e+03
1.090000e-06	3.630668e-06	2.070387e-08	2.626253e+01	1.360768e+03
1.100000e-06	3.752388e-06	2.110565e-08	2.714300e+01	1.387379e+03
1.110000e-06	3.872719e-06	2.148645e-08	2.801342e+01	1.412207e+03
1.120000e-06	3.991550e-06	2.184890e-08	2.887298e+01	1.435456e+03
1.130000e-06	4.109006e-06	2.219014e-08	2.972261e+01	1.457348e+03
1.140000e-06	4.224973e-06	2.250860e-08	3.056146e+01	1.478087e+03
1.150000e-06	4.339255e-06	2.280873e-08	3.138812e+01	1.497829e+03
1.160000e-06	4.451810e-06	2.309340e-08	3.220229e+01	1.516669e+03
1.170000e-06	4.562691e-06	2.336232e-08	3.300435e+01	1.534640e+03
1.180000e-06	4.672029e-06	2.361643e-08	3.379525e+01	1.551735e+03
1.190000e-06	4.779861e-06	2.386012e-08	3.457525e+01	1.567928e+03
1.200000e-06	4.886084e-06	2.409256e-08	3.534362e+01	1.583206e+03
1.210000e-06	4.990479e-06	2.431376e-08	3.609876e+01	1.597590e+03
1.220000e-06	5.093010e-06	2.452336e-08	3.684043e+01	1.611141e+03
1.230000e-06	5.193685e-06	2.472258e-08	3.756866e+01	1.623953e+03
1.240000e-06	5.292424e-06	2.491093e-08	3.828290e+01	1.636136e+03
1.250000e-06	5.389132e-06	2.508685e-08	3.898244e+01	1.647792e+03
1.260000e-06	5.483846e-06	2.525328e-08	3.966755e+01	1.658996e+03
1.270000e-06	5.576685e-06	2.541259e-08	4.033910e+01	1.669782e+03
1.280000e-06	5.667564e-06	2.556696e-08	4.099648e+01	1.680144e+03
1.290000e-06	5.756330e-06	2.571748e-08	4.163857e+01	1.690047e+03
1.300000e-06	5.842988e-06	2.586329e-08	4.226542e+01	1.699445e+03
1.310000e-06	5.927598e-06	2.600207e-08	4.287744e+01	1.708302e+03
1.320000e-06	6.010119e-06	2.613149e-08	4.347436e+01	1.716608e+03
1.330000e-06	6.090454e-06	2.625334e-08	4.405547e+01	1.724383e+03
1.340000e-06	6.168527e-06	2.636953e-08	4.462021e+01	1.731676e+03
1.350000e-06	6.244270e-06	2.647740e-08	4.516810e+01	1.738553e+03
1.360000e-06	6.317583e-06	2.657715e-08	4.569841e+01	1.745080e+03
1.370000e-06	6.388576e-06	2.667047e-08	4.621194e+01	1.751308e+03
1.380000e-06	6.457355e-06	2.675961e-08	4.670945e+01	1.757266e+03
1.390000e-06	6.523808e-06	2.684528e-08	4.719015e+01	1.762957e+03
1.400000e-06	6.587846e-06	2.692640e-08	4.765336e+01	1.768367e+03
1.410000e-06	6.649646e-06	2.700489e-08	4.810040e+01	1.773475e+03
1.420000e-06	6.709274e-06	2.707940e-08	4.853172e+01	1.778267e+03
1.430000e-06	6.766501e-06	2.714927e-08	4.894567e+01	1.782744e+03
1.440000e-06	6.821242e-06	2.721457e-08	4.934164e+01	1.786925e+03
1.450000e-06	6.873336e-06	2.727650e-08	4.971846e+01	1.790845e+03
1.460000e-06	6.922591e-06	2.733469e-08	5.007475e+01	1.794541e+03
1.470000e-06	6.969200e-06	2.738710e-08	5.041190e+01	1.798044e+03
1.480000e-06	7.013442e-06	2.743640e-08	5.073192e+01	1.801365e+03
1.490000e-06	7.055242e-06	2.748393e-08	5.103429e+01	1.804498e+03
1.500000e-06	7.094442e-06	2.752865e-08	5.131784e+01	1.807413e+03
1.510000e-06	7.131194e-06	2.756928e-08	5.158369e+01	1.810075e+03
1.520000e-06	7.165485e-06	2.760688e-08	5.183173e+01	1.812448e+03
1.530000e-06	7.197144e-06	2.764004e-08	5.206074e+01	1.814514e+03
1.540000e-06	7.226321e-06	2.766736e-08	5.227179e+01	1.816275e+03
1.550000e-06	7.252955e-06	2.769034e-08	5.246445e+01	1.817757e+03
1.560000e-06	7.276848e-06	2.771038e-08	5.263728e+01	1.819005e+03
1.570000e-06	7.298153e-06	2.772735e-08	5.279139e+01	1.820066e+03
1.580000e-06	7.316978e-06	2.774101e-08	5.292756e+01	1.820981e+03
1.590000e-06	7.333140e-06	2.775333e-08	5.304447e+01	1.821773e+03
1.600000e-06	7.346462e-06	2.776355e-08	5.314083e+01	1.822443e+03
1.610000e-06	7.356873e-06	2.777242e-08	5.321614e+01	1.822968e+03
1.620000e-06	7.364468e-06	2.777940e-08	5.327108e+01	1.823316e+03
1.630000e-06	7.369497e-06	2.778168e-08	5.330745e+01	1.823452e+03
1.640000e-06	7.371950e-06	2.778034e-08	5.332520e+01	1.823355e+03
1.650000e-06	7.371743e-06	2.777826e-08	5.332370e+01	1.823021e+03
1.660000e-06	7.369069e-06	2.776707e-08	5.330436e+01	1.822465e+03
1.670000e-06	7.363974e-06	2.775492e-08	5.326751e+01	1.821720e+03
1.680000e-06	7.356335e-06	2.774412e-08	5.321225e+01	1.820821e+03
1.690000e-06	7.346283e-06	2.772917e-08	5.313954e+01	1.819798e+03
1.700000e-06	7.333703e-06	2.771457e-08	5.304854e+01	1.818665e+03
1.710000e-06	7.318502e-06	2.770109e-08	5.293859e+01	1.817418e+03
1.720000e-06	7.300998e-06	2.768801e-08	5.281197e+01	1.816038e+03
1.730000e-06	7.281398e-06	2.765051e-08	5.267019e+01	1.814501e+03
1.740000e-06	7.259243e-06	2.754796e-08	5.250993e+01	1.812788e+03
1.750000e-06	7.233822e-06	2.753163e-08	5.232605e+01	1.810897e+03
1.760000e-06	7.204962e-06	2.755080e-08	5.211729e+01	1.808845e+03
1.770000e-06	7.173226e-06	2.751359e-08	5.188773e+01	1.806666e+03
1.780000e-06	7.139426e-06	2.750056e-08	5.164323e+01	1.804402e+03
1.790000e-06	7.103969e-06	2.755481e-08	5.138675e+01	1.802086e+03
1.800000e-06	7.066881e-06	2.744634e-08	5.111847e+01	1.799733e+03
1.810000e-06	7.027462e-06	2.734617e-08	5.083334e+01	1.797323e+03
1.820000e-06	6.985369e-06	2.743826e-08	5.052886e+01	1.794803e+03
1.830000e-06	6.941030e-06	2.732650e-08	5.020813e+01	1.792097e+03
1.840000e-06	6.894182e-06	2.734079e-08	4.986925e+01	1.789116e+03
1.850000e-06	6.844651e-06	2.731389e-08	4.951097e+01	1.785783e+03
1.860000e-06	6.792567e-06	2.717309e-08	4.913422e+01	1.782048e+03
1.870000e-06	6.737686e-06	2.717134e-08	4.873724e+01	1.777898e+03
1.880000e-06	6.680249e-06	2.703511e-08	4.832176e+01	1.773362e+03
1.890000e-06	6.620393e-06	2.702360e-08	4.788879e+01	1.768499e+03
1.900000e-06	6.557942e-06	2.695525e-08	4.743706e+01	1.763383e+03
1.910000e-06	6.492985e-06	2.682153e-08	4.696719e+01	1.758079e+03
1.920000e-06	6.425598e-06	2.679923e-08	4.647974e+01	1.752628e+03
1.930000e-06	6.355793e-06	2.666660e-08	4.597480e+01	1.747034e+03
1.940000e-06	6.283493e-06	2.661267e-08	4.545182e+01	1.741264e+03
1.950000e-06	6.208768e-06	2.650094e-08	4.491129e+01	1.735262e+03
1.960000e-06	6.131543e-06	2.640047e-08	4.435268e+01	1.728960e+03
1.970000e-06	6.051755e-06	2.631531e-08	4.377554e+01	1.722300e+03
1.980000e-06	5.969783e-06	2.616904e-08	4.318259e+01	1.715252e+03
1.990000e-06	5.885811e-06	2.610307e-08	4.257517e+01	1.707812e+03
2.000000e-06	5.799733e-06	2.596658e-08	4.195253e+01	1.700008e+03
2.010000e-06	5.711490e-06	2.585055e-08	4.131422e+01	1.691881e+03
2.020000e-06	5.621232e-06	2.571026e-08	4.066134e+01	1.683470e+03
2.030000e-06	5.529038e-06	2.557718e-08	3.999444e+01	1.674797e+03
2.040000e-06	5.434842e-06	2.545170e-08	3.931308e+01	1.665851e+03
2.050000e-06	5.338728e-06	2.529892e-08	3.861783e+01	1.656593e+03
2.060000e-06	5.240829e-06	2.516548e-08	3.790968e+01	1.646960e+03
2.070000e-06	5.141179e-06	2.499559e-08	3.718886e+01	1.636885e+03
2.080000e-06	5.039628e-06	2.483770e-08	3.645429e+01	1.626309e+03
2.090000e-06	4.936148e-06	2.466536e-08	3.570576e+01	1.615200e+03
2.100000e-06	4.830976e-06	2.450217e-08	3.494500e+01	1.603555e+03
2.110000e-06	4.724267e-06	2.432030e-08	3.417312e+01	1.591398e+03
2.120000e-06	4.615977e-06	2.412243e-08	3.338980e+01	1.578764e+03
2.130000e-06	4.505995e-06	2.391549e-08	3.259424e+01	1.565682e+03
2.140000e-06	4.394252e-06	2.370713e-08	3.178594e+01	1.552156e+03
2.150000e-06	4.280779e-06	2.349844e-08	3.096513e+01	1.538158e+03
2.160000e-06	4.165642e-06	2.327935e-08	3.013229e+01	1.523621e+03
2.170000e-06	4.048774e-06	2.305658e-08	2.928692e+01	1.508457e+03
2.180000e-06	3.930285e-06	2.281034e-08	2.842983e+01	1.492571e+03
2.190000e-06	3.810280e-06	2.255388e-08	2.756176e+01	1.475882e+03
2.200000e-06	3.688812e-06	2.228130e-08	2.668312e+01	1.458337e+03
2.210000e-06	3.566023e-06	2.200654e-08	2.579493e+01	1.439920e+03
2.220000e-06	3.441895e-06	2.171559e-08	2.489704e+01	1.420640e+03
2.230000e-06	3.316429e-06	2.141128e-08	2.398948e+01	1.400512e+03
2.240000e-06	3.189789e-06	2.109066e-08	2.307343e+01	1.379538e+03
2.250000e-06	3.062059e-06	2.075726e-08	2.214949e+01	1.357678e+03
2.260000e-06	2.933162e-06	2.041165e-08	2.121711e+01	1.334841e+03
2.270000e-06	2.803166e-06	2.004734e-08	2.027677e+01	1.310885e+03
2.280000e-06	2.672172e-06	1.966379e-08	1.932923e+01	1.285633e+03
2.290000e-06	2.540205e-06	1.925483e-08	1.837464e+01	1.258897e+03
2.300000e-06	2.407320e-06	1.882063e-08	1.741342e+01	1.230504e+03
2.310000e-06	2.273580e-06	1.835771e-08	1.644600e+01	1.200320e+03
2.320000e-06	2.139069e-06	1.787215e-08	1.547302e+01	1.168249e+03
2.330000e-06	2.003914e-06	1.735736e-08	1.449536e+01	1.134224e+03
2.340000e-06	1.868109e-06	1.681043e-08	1.351302e+01	1.098176e+03
2.350000e-06	1.731617e-06	1.622868e-08	1.252570e+01	1.059996e+03
2.360000e-06	1.594499e-06	1.560999e-08	1.153385e+01	1.019504e+03
2.370000e-06	1.456847e-06	1.495052e-08	1.053814e+01	9.764382e+02
2.380000e-06	1.318735e-06	1.424352e-08	9.539104e+00	9.304677e+02
2.390000e-06	1.180256e-06	1.348625e-08	8.537414e+00	8.812359e+02
2.400000e-06	1.041312e-06	1.267537e-08	7.532360e+00	8.284290e+02
2.410000e-06	9.018590e-07	1.181158e-08	6.523622e+00	7.718533e+02
2.420000e-06	7.621086e-07	1.089678e-08	5.512734e+00	7.115026e+02
2.430000e-06	6.221000e-07	9.930172e-09	4.499978e+00	6.475970e+02
2.440000e-06	4.817873e-07	8.913239e-09	3.485021e+00	5.805788e+02
2.450000e-06	3.412137e-07	7.852436e-09	2.468179e+00	5.110596e+02
2.460000e-06	2.004391e-07	6.759403e-09	1.449882e+00	4.397271e+02
2.470000e-06	5.958884e-08	5.646437e-09	4.310375e-01	3.672272e+02
2.480000e-06	-8.127142e-08	4.522181e-09	-5.878790e-01	2.940494e+02
2.490000e-06	-2.221270e-07	3.393297e-09	-1.606762e+00	2.204402e+02
2.500000e-06	-3.629476e-07	2.259359e-09	-2.625392e+00	1.463692e+02
2.510000e-06	-5.036547e-07	1.116154e-09	-3.643200e+00	7.155822e+01
2.520000e-06	-6.441606e-07	-4.267796e-11	-4.659553e+00	-4.428212e+00
2.530000e-06	-7.844177e-07	-1.223183e-09	-5.674107e+00	-8.204751e+01
2.540000e-06	-9.243631e-07	-2.431370e-09	-6.686406e+00	-1.616269e+02
2.550000e-06	-1.063833e-06	-3.670996e-09	-7.695266e+00	-2.432267e+02
2.560000e-06	-1.202826e-06	-4.941985e-09	-8.700678e+00	-3.265499e+02
2.570000e-06	-1.341408e-06	-6.236879e-09	-9.703113e+00	-4.109185e+02
2.580000e-06	-1.479542e-06	-7.537296e-09	-1.070231e+01	-4.953230e+02
2.590000e-06	-1.617192e-06	-8.820716e-09	-1.169800e+01	-5.785375e+02
2.600000e-06	-1.754196e-06	-1.006021e-08	-1.268902e+01	-6.592756e+02
2.610000e-06	-1.890430e-06	-1.123724e-08	-1.367448e+01	-7.363570e+02
2.620000e-06	-2.025862e-06	-1.234050e-08	-1.465412e+01	-8.088529e+02
2.630000e-06	-2.160576e-06	-1.336436e-08	-1.562858e+01	-8.761817e+02
2.640000e-06	-2.294565e-06	-1.430934e-08	-1.659780e+01	-9.381422e+02
2.650000e-06	-2.427709e-06	-1.517760e-08	-1.756090e+01	-9.948815e+02
2.660000e-06	-2.559812e-06	-1.597637e-08	-1.851647e+01	-1.046811e+03
2.670000e-06	-2.690860e-06	-1.671250e-08	-1.946441e+01	-1.094493e+03
2.680000e-06	-2.820989e-06	-1.739223e-08	-2.040570e+01	-1.138526e+03
2.690000e-06	-2.950175e-06	-1.802395e-08	-2.134017e+01	-1.179445e+03
2.700000e-06	-3.078263e-06	-1.861319e-08	-2.226670e+01	-1.217666e+03
2.710000e-06	-3.205238e-06	-1.916304e-08	-2.318517e+01	-1.253467e+03
2.720000e-06	-3.331143e-06	-1.967359e-08	-2.409591e+01	-1.287011e+03
2.730000e-06	-3.455773e-06	-2.014809e-08	-2.499743e+01	-1.318389e+03
2.740000e-06	-3.579109e-06	-2.059093e-08	-2.588958e+01	-1.347675e+03
2.750000e-06	-3.701275e-06	-2.100489e-08	-2.677327e+01	-1.374967e+03
2.760000e-06	-3.822131e-06	-2.139449e-08	-2.764749e+01	-1.400410e+03
2.770000e-06	-3.941515e-06	-2.176169e-08	-2.851105e+01	-1.424198e+03
2.780000e-06	-4.059403e-06	-2.210914e-08	-2.936380e+01	-1.446551e+03
2.790000e-06	-4.175711e-06	-2.243726e-08	-3.020512e+01	-1.467681e+03
2.800000e-06	-4.290309e-06	-2.274598e-08	-3.103406e+01	-1.487766e+03
2.810000e-06	-4.403160e-06	-2.303787e-08	-3.185038e+01	-1.506922e+03
2.820000e-06	-4.514274e-06	-2.331426e-08	-3.265413e+01	-1.525204e+03
2.830000e-06	-4.623747e-06	-2.357644e-08	-3.344600e+01	-1.542615e+03
2.840000e-06	-4.731713e-06	-2.382505e-08	-3.422698e+01	-1.559133e+03
2.850000e-06	-4.838169e-06	-2.406047e-08	-3.499703e+01	-1.574739e+03
2.860000e-06	-4.942983e-06	-2.428339e-08	-3.575520e+01	-1.589438e+03
2.870000e-06	-5.045934e-06	-2.449510e-08	-3.649990e+01	-1.603278e+03
2.880000e-06	-5.146872e-06	-2.469826e-08	-3.723004e+01	-1.616342e+03
2.890000e-06	-5.245900e-06	-2.489460e-08	-3.794636e+01	-1.628738e+03
2.900000e-06	-5.343200e-06	-2.508276e-08	-3.865019e+01	-1.640573e+03
2.910000e-06	-5.438636e-06	-2.526047e-08	-3.934052e+01	-1.651933e+03
2.920000e-06	-5.532045e-06	-2.542677e-08	-4.001620e+01	-1.662867e+03
2.930000e-06	-5.623427e-06	-2.558184e-08	-4.067721e+01	-1.673384e+03
2.940000e-06	-5.712825e-06	-2.572884e-08	-4.132388e+01	-1.683457e+03
