# Temperatura_=_45.74
# Concentracion g/m^3_=_28200.0
# C_Vs_to_Am_M_A/Vsm_=_65563218390.804596
# pendiente_HvsI_1/m_=_3716.3
# ordenada_HvsI_A/m_=_1297.0
# frecuencia_Hz_=_302401.82671206095

Tiempo_(s)	Campo_(V.s)	Magnetizacion_(V.s)	Campo_(kA/m)	Magnetizacion_(A/m)
0.000000e+00	-7.345579e-06	-2.621625e-08	-5.318205e+01	-1.716802e+03
1.000000e-08	-7.342007e-06	-2.621422e-08	-5.315620e+01	-1.716252e+03
2.000000e-08	-7.336008e-06	-2.620346e-08	-5.311276e+01	-1.715536e+03
3.000000e-08	-7.327658e-06	-2.618941e-08	-5.305231e+01	-1.714691e+03
4.000000e-08	-7.316785e-06	-2.617401e-08	-5.297359e+01	-1.713752e+03
5.000000e-08	-7.303146e-06	-2.615773e-08	-5.287484e+01	-1.712735e+03
6.000000e-08	-7.286790e-06	-2.613758e-08	-5.275642e+01	-1.711640e+03
7.000000e-08	-7.268163e-06	-2.611546e-08	-5.262156e+01	-1.710450e+03
8.000000e-08	-7.247458e-06	-2.609927e-08	-5.247166e+01	-1.709135e+03
9.000000e-08	-7.224200e-06	-2.613093e-08	-5.230327e+01	-1.707671e+03
1.000000e-07	-7.197990e-06	-2.610695e-08	-5.211351e+01	-1.706044e+03
1.100000e-07	-7.168890e-06	-2.602657e-08	-5.190283e+01	-1.704258e+03
1.200000e-07	-7.137253e-06	-2.597930e-08	-5.167377e+01	-1.702334e+03
1.300000e-07	-7.103165e-06	-2.595208e-08	-5.142697e+01	-1.700306e+03
1.400000e-07	-7.066855e-06	-2.589881e-08	-5.116409e+01	-1.698205e+03
1.500000e-07	-7.028711e-06	-2.583351e-08	-5.088793e+01	-1.696049e+03
1.600000e-07	-6.988480e-06	-2.587764e-08	-5.059665e+01	-1.693831e+03
1.700000e-07	-6.945802e-06	-2.580491e-08	-5.028767e+01	-1.691516e+03
1.800000e-07	-6.900695e-06	-2.569560e-08	-4.996109e+01	-1.689047e+03
1.900000e-07	-6.853051e-06	-2.572267e-08	-4.961614e+01	-1.686351e+03
2.000000e-07	-6.802549e-06	-2.566026e-08	-4.925051e+01	-1.683364e+03
2.100000e-07	-6.749329e-06	-2.561018e-08	-4.886520e+01	-1.680039e+03
2.200000e-07	-6.693595e-06	-2.555162e-08	-4.846169e+01	-1.676359e+03
2.300000e-07	-6.635313e-06	-2.545910e-08	-4.803972e+01	-1.672342e+03
2.400000e-07	-6.574614e-06	-2.542383e-08	-4.760026e+01	-1.668034e+03
2.500000e-07	-6.511568e-06	-2.534677e-08	-4.714381e+01	-1.663494e+03
2.600000e-07	-6.446028e-06	-2.528332e-08	-4.666930e+01	-1.658779e+03
2.700000e-07	-6.377987e-06	-2.520996e-08	-4.617668e+01	-1.653926e+03
2.800000e-07	-6.307600e-06	-2.512525e-08	-4.566708e+01	-1.648944e+03
2.900000e-07	-6.234800e-06	-2.502959e-08	-4.514001e+01	-1.643809e+03
3.000000e-07	-6.159430e-06	-2.493282e-08	-4.459433e+01	-1.638474e+03
3.100000e-07	-6.081459e-06	-2.488135e-08	-4.402981e+01	-1.632881e+03
3.200000e-07	-6.000932e-06	-2.479446e-08	-4.344680e+01	-1.626976e+03
3.300000e-07	-5.918224e-06	-2.470252e-08	-4.284799e+01	-1.620724e+03
3.400000e-07	-5.833621e-06	-2.458156e-08	-4.223546e+01	-1.614115e+03
3.500000e-07	-5.747117e-06	-2.446494e-08	-4.160918e+01	-1.607161e+03
3.600000e-07	-5.658635e-06	-2.437221e-08	-4.096856e+01	-1.599890e+03
3.700000e-07	-5.568051e-06	-2.426130e-08	-4.031274e+01	-1.592333e+03
3.800000e-07	-5.475443e-06	-2.414519e-08	-3.964225e+01	-1.584505e+03
3.900000e-07	-5.380950e-06	-2.401085e-08	-3.895813e+01	-1.576401e+03
4.000000e-07	-5.284548e-06	-2.387600e-08	-3.826017e+01	-1.567994e+03
4.100000e-07	-5.186221e-06	-2.373458e-08	-3.754828e+01	-1.559235e+03
4.200000e-07	-5.086082e-06	-2.360506e-08	-3.682328e+01	-1.550069e+03
4.300000e-07	-4.984173e-06	-2.346458e-08	-3.608546e+01	-1.540448e+03
4.400000e-07	-4.880481e-06	-2.330583e-08	-3.533472e+01	-1.530339e+03
4.500000e-07	-4.775086e-06	-2.314022e-08	-3.457166e+01	-1.519733e+03
4.600000e-07	-4.667951e-06	-2.296871e-08	-3.379601e+01	-1.508638e+03
4.700000e-07	-4.559089e-06	-2.279545e-08	-3.300784e+01	-1.497071e+03
4.800000e-07	-4.448647e-06	-2.261972e-08	-3.220824e+01	-1.485043e+03
4.900000e-07	-4.336608e-06	-2.243897e-08	-3.139708e+01	-1.472549e+03
5.000000e-07	-4.222897e-06	-2.223212e-08	-3.057381e+01	-1.459555e+03
5.100000e-07	-4.107403e-06	-2.201082e-08	-2.973763e+01	-1.446001e+03
5.200000e-07	-3.990237e-06	-2.178723e-08	-2.888935e+01	-1.431813e+03
5.300000e-07	-3.871666e-06	-2.156235e-08	-2.803089e+01	-1.416910e+03
5.400000e-07	-3.751671e-06	-2.132218e-08	-2.716213e+01	-1.401228e+03
5.500000e-07	-3.630228e-06	-2.106798e-08	-2.628288e+01	-1.384722e+03
5.600000e-07	-3.507340e-06	-2.080412e-08	-2.539317e+01	-1.367375e+03
5.700000e-07	-3.383076e-06	-2.052643e-08	-2.449350e+01	-1.349190e+03
5.800000e-07	-3.257620e-06	-2.023740e-08	-2.358520e+01	-1.330167e+03
5.900000e-07	-3.131070e-06	-1.993990e-08	-2.266898e+01	-1.310293e+03
6.000000e-07	-3.003357e-06	-1.962773e-08	-2.174433e+01	-1.289514e+03
6.100000e-07	-2.874439e-06	-1.928794e-08	-2.081096e+01	-1.267736e+03
6.200000e-07	-2.744455e-06	-1.892775e-08	-1.986987e+01	-1.244816e+03
6.300000e-07	-2.613429e-06	-1.855060e-08	-1.892125e+01	-1.220586e+03
6.400000e-07	-2.481345e-06	-1.815554e-08	-1.796496e+01	-1.194870e+03
6.500000e-07	-2.348415e-06	-1.773813e-08	-1.700254e+01	-1.167503e+03
6.600000e-07	-2.214813e-06	-1.729673e-08	-1.603526e+01	-1.138353e+03
6.700000e-07	-2.080535e-06	-1.682724e-08	-1.506309e+01	-1.107318e+03
6.800000e-07	-1.945504e-06	-1.632753e-08	-1.408547e+01	-1.074316e+03
6.900000e-07	-1.809673e-06	-1.579740e-08	-1.310205e+01	-1.039255e+03
7.000000e-07	-1.673103e-06	-1.523209e-08	-1.211328e+01	-1.002010e+03
7.100000e-07	-1.535899e-06	-1.462669e-08	-1.111992e+01	-9.623961e+02
7.200000e-07	-1.398159e-06	-1.397551e-08	-1.012269e+01	-9.201638e+02
7.300000e-07	-1.259940e-06	-1.328002e-08	-9.121973e+00	-8.750198e+02
7.400000e-07	-1.121266e-06	-1.253519e-08	-8.117973e+00	-8.266706e+02
7.500000e-07	-9.821809e-07	-1.174386e-08	-7.110998e+00	-7.748866e+02
7.600000e-07	-8.427577e-07	-1.090840e-08	-6.101573e+00	-7.195706e+02
7.700000e-07	-7.030606e-07	-1.002234e-08	-5.090164e+00	-6.608140e+02
7.800000e-07	-5.630666e-07	-9.084485e-09	-4.076607e+00	-5.989238e+02
7.900000e-07	-4.228597e-07	-8.103580e-09	-3.061508e+00	-5.344082e+02
8.000000e-07	-2.824389e-07	-7.091026e-09	-2.044860e+00	-4.679181e+02
8.100000e-07	-1.418477e-07	-6.054822e-09	-1.026978e+00	-4.001512e+02
8.200000e-07	-1.175931e-09	-5.007852e-09	-8.513752e-03	-3.317380e+02
8.300000e-07	1.395461e-07	-3.959196e-09	1.010315e+00	-2.631321e+02
8.400000e-07	2.801990e-07	-2.913784e-09	2.028643e+00	-1.945313e+02
8.500000e-07	4.207369e-07	-1.869580e-09	3.046139e+00	-1.258495e+02
8.600000e-07	5.611317e-07	-8.214906e-10	4.062599e+00	-5.674946e+01
8.700000e-07	7.013503e-07	2.352726e-10	5.077782e+00	1.326615e+01
8.800000e-07	8.412877e-07	1.315487e-09	6.090930e+00	8.472213e+01
8.900000e-07	9.808890e-07	2.428017e-09	7.101645e+00	1.580222e+02
9.000000e-07	1.120180e-06	3.573899e-09	8.110115e+00	2.333156e+02
9.100000e-07	1.259122e-06	4.751108e-09	9.116051e+00	3.104077e+02
9.200000e-07	1.397607e-06	5.950859e-09	1.011869e+01	3.887327e+02
9.300000e-07	1.535552e-06	7.156014e-09	1.111741e+01	4.673967e+02
9.400000e-07	1.672850e-06	8.346147e-09	1.211145e+01	5.452820e+02
9.500000e-07	1.809460e-06	9.500918e-09	1.310051e+01	6.211907e+02
9.600000e-07	1.945306e-06	1.060320e-08	1.408403e+01	6.940010e+02
9.700000e-07	2.080344e-06	1.164100e-08	1.506171e+01	7.628045e+02
9.800000e-07	2.214630e-06	1.260804e-08	1.603394e+01	8.270000e+02
9.900000e-07	2.348140e-06	1.350375e-08	1.700056e+01	8.863306e+02
1.000000e-06	2.480766e-06	1.433215e-08	1.796077e+01	9.408601e+02
1.010000e-06	2.612407e-06	1.509556e-08	1.891385e+01	9.909029e+02
1.020000e-06	2.743103e-06	1.579884e-08	1.986009e+01	1.036924e+03
1.030000e-06	2.872828e-06	1.644971e-08	2.079930e+01	1.079436e+03
1.040000e-06	3.001432e-06	1.705298e-08	2.173039e+01	1.118912e+03
1.050000e-06	3.128879e-06	1.761176e-08	2.265311e+01	1.155729e+03
1.060000e-06	3.255236e-06	1.813007e-08	2.356794e+01	1.190150e+03
1.070000e-06	3.380497e-06	1.861344e-08	2.447483e+01	1.222344e+03
1.080000e-06	3.504575e-06	1.906465e-08	2.537315e+01	1.252415e+03
1.090000e-06	3.627434e-06	1.948535e-08	2.626265e+01	1.280453e+03
1.100000e-06	3.749031e-06	1.987957e-08	2.714302e+01	1.306565e+03
1.110000e-06	3.869229e-06	2.025194e-08	2.801325e+01	1.330901e+03
1.120000e-06	3.987975e-06	2.060536e-08	2.887297e+01	1.353644e+03
1.130000e-06	4.105277e-06	2.093828e-08	2.972224e+01	1.374999e+03
1.140000e-06	4.221086e-06	2.124814e-08	3.056070e+01	1.395161e+03
1.150000e-06	4.335276e-06	2.153842e-08	3.138744e+01	1.414290e+03
1.160000e-06	4.447683e-06	2.181165e-08	3.220126e+01	1.432493e+03
1.170000e-06	4.558401e-06	2.207046e-08	3.300286e+01	1.449819e+03
1.180000e-06	4.667619e-06	2.231569e-08	3.379360e+01	1.466278e+03
1.190000e-06	4.775300e-06	2.255008e-08	3.457321e+01	1.481856e+03
1.200000e-06	4.881343e-06	2.277423e-08	3.534096e+01	1.496543e+03
1.210000e-06	4.985579e-06	2.298646e-08	3.609564e+01	1.510357e+03
1.220000e-06	5.088012e-06	2.318713e-08	3.683725e+01	1.523347e+03
1.230000e-06	5.188627e-06	2.337700e-08	3.756571e+01	1.535597e+03
1.240000e-06	5.287264e-06	2.355588e-08	3.827984e+01	1.547207e+03
1.250000e-06	5.383867e-06	2.372251e-08	3.897924e+01	1.558274e+03
1.260000e-06	5.478489e-06	2.387988e-08	3.966430e+01	1.568875e+03
1.270000e-06	5.571179e-06	2.403141e-08	4.033538e+01	1.579046e+03
1.280000e-06	5.661907e-06	2.417795e-08	4.099226e+01	1.588788e+03
1.290000e-06	5.750542e-06	2.432045e-08	4.163397e+01	1.598073e+03
1.300000e-06	5.837070e-06	2.445740e-08	4.226043e+01	1.606856e+03
1.310000e-06	5.921589e-06	2.458525e-08	4.287236e+01	1.615102e+03
1.320000e-06	6.004059e-06	2.470393e-08	4.346944e+01	1.622799e+03
1.330000e-06	6.084392e-06	2.481486e-08	4.405105e+01	1.629964e+03
1.340000e-06	6.162472e-06	2.491836e-08	4.461635e+01	1.636647e+03
1.350000e-06	6.238196e-06	2.501521e-08	4.516459e+01	1.642920e+03
1.360000e-06	6.311481e-06	2.510615e-08	4.569518e+01	1.648857e+03
1.370000e-06	6.382398e-06	2.519289e-08	4.620862e+01	1.654522e+03
1.380000e-06	6.451087e-06	2.527532e-08	4.670593e+01	1.659956e+03
1.390000e-06	6.517516e-06	2.535322e-08	4.718687e+01	1.665171e+03
1.400000e-06	6.581560e-06	2.542771e-08	4.765055e+01	1.670155e+03
1.410000e-06	6.643295e-06	2.549825e-08	4.809752e+01	1.674885e+03
1.420000e-06	6.702832e-06	2.556432e-08	4.852856e+01	1.679334e+03
1.430000e-06	6.760009e-06	2.562675e-08	4.894253e+01	1.683491e+03
1.440000e-06	6.814778e-06	2.568668e-08	4.933905e+01	1.687358e+03
1.450000e-06	6.866959e-06	2.574340e-08	4.971684e+01	1.690958e+03
1.460000e-06	6.916270e-06	2.579753e-08	5.007385e+01	1.694324e+03
1.470000e-06	6.962893e-06	2.584779e-08	5.041141e+01	1.697487e+03
1.480000e-06	7.007130e-06	2.589408e-08	5.073168e+01	1.700470e+03
1.490000e-06	7.048901e-06	2.593707e-08	5.103410e+01	1.703275e+03
1.500000e-06	7.088095e-06	2.597631e-08	5.131787e+01	1.705888e+03
1.510000e-06	7.124860e-06	2.601215e-08	5.158405e+01	1.708280e+03
1.520000e-06	7.159097e-06	2.604425e-08	5.183193e+01	1.710423e+03
1.530000e-06	7.190684e-06	2.607226e-08	5.206061e+01	1.712294e+03
1.540000e-06	7.219793e-06	2.609677e-08	5.227137e+01	1.713889e+03
1.550000e-06	7.246372e-06	2.611987e-08	5.246380e+01	1.715226e+03
1.560000e-06	7.270209e-06	2.614031e-08	5.263638e+01	1.716340e+03
1.570000e-06	7.291449e-06	2.615692e-08	5.279015e+01	1.717276e+03
1.580000e-06	7.310271e-06	2.616967e-08	5.292643e+01	1.718075e+03
1.590000e-06	7.326478e-06	2.617859e-08	5.304376e+01	1.718765e+03
1.600000e-06	7.339872e-06	2.618509e-08	5.314073e+01	1.719354e+03
1.610000e-06	7.350325e-06	2.619204e-08	5.321641e+01	1.719828e+03
1.620000e-06	7.357889e-06	2.619893e-08	5.327118e+01	1.720156e+03
1.630000e-06	7.362902e-06	2.620346e-08	5.330747e+01	1.720305e+03
1.640000e-06	7.365350e-06	2.620532e-08	5.332520e+01	1.720247e+03
1.650000e-06	7.365157e-06	2.620436e-08	5.332380e+01	1.719972e+03
1.660000e-06	7.362520e-06	2.619244e-08	5.330471e+01	1.719490e+03
1.670000e-06	7.357436e-06	2.617992e-08	5.326790e+01	1.718829e+03
1.680000e-06	7.349839e-06	2.616848e-08	5.321290e+01	1.718025e+03
1.690000e-06	7.339849e-06	2.615571e-08	5.314057e+01	1.717116e+03
1.700000e-06	7.327300e-06	2.614409e-08	5.304972e+01	1.716125e+03
1.710000e-06	7.312139e-06	2.613422e-08	5.293995e+01	1.715059e+03
1.720000e-06	7.294676e-06	2.612536e-08	5.281352e+01	1.713904e+03
1.730000e-06	7.275133e-06	2.608627e-08	5.267203e+01	1.712637e+03
1.740000e-06	7.253077e-06	2.599941e-08	5.251234e+01	1.711228e+03
1.750000e-06	7.227714e-06	2.600202e-08	5.232872e+01	1.709659e+03
1.760000e-06	7.198878e-06	2.601574e-08	5.211994e+01	1.707927e+03
1.770000e-06	7.167198e-06	2.597899e-08	5.189058e+01	1.706048e+03
1.780000e-06	7.133410e-06	2.597853e-08	5.164595e+01	1.704053e+03
1.790000e-06	7.097919e-06	2.601057e-08	5.138899e+01	1.701974e+03
1.800000e-06	7.060839e-06	2.589269e-08	5.112054e+01	1.699837e+03
1.810000e-06	7.021477e-06	2.584965e-08	5.083555e+01	1.697643e+03
1.820000e-06	6.979413e-06	2.590840e-08	5.053101e+01	1.695368e+03
1.830000e-06	6.935068e-06	2.581270e-08	5.020995e+01	1.692960e+03
1.840000e-06	6.888232e-06	2.584948e-08	4.987086e+01	1.690353e+03
1.850000e-06	6.838748e-06	2.574837e-08	4.951260e+01	1.687476e+03
1.860000e-06	6.786663e-06	2.566169e-08	4.913550e+01	1.684275e+03
1.870000e-06	6.731731e-06	2.569378e-08	4.873779e+01	1.680720e+03
1.880000e-06	6.674292e-06	2.556407e-08	4.832193e+01	1.676819e+03
1.890000e-06	6.614452e-06	2.555877e-08	4.788869e+01	1.672608e+03
1.900000e-06	6.552001e-06	2.547360e-08	4.743654e+01	1.668143e+03
1.910000e-06	6.487007e-06	2.536919e-08	4.696599e+01	1.663485e+03
1.920000e-06	6.419617e-06	2.533540e-08	4.647808e+01	1.658678e+03
1.930000e-06	6.349874e-06	2.524347e-08	4.597314e+01	1.653742e+03
1.940000e-06	6.277661e-06	2.522319e-08	4.545032e+01	1.648665e+03
1.950000e-06	6.203008e-06	2.509421e-08	4.490983e+01	1.643407e+03
1.960000e-06	6.125782e-06	2.500385e-08	4.435071e+01	1.637913e+03
1.970000e-06	6.046038e-06	2.490675e-08	4.377337e+01	1.632124e+03
1.980000e-06	5.964174e-06	2.480446e-08	4.318067e+01	1.625998e+03
1.990000e-06	5.880270e-06	2.475800e-08	4.257320e+01	1.619515e+03
2.000000e-06	5.794257e-06	2.463416e-08	4.195047e+01	1.612681e+03
2.010000e-06	5.706075e-06	2.453615e-08	4.131203e+01	1.605519e+03
2.020000e-06	5.615914e-06	2.439153e-08	4.065927e+01	1.598060e+03
2.030000e-06	5.523842e-06	2.427496e-08	3.999267e+01	1.590328e+03
2.040000e-06	5.429727e-06	2.417004e-08	3.931127e+01	1.582324e+03
2.050000e-06	5.333656e-06	2.405695e-08	3.861572e+01	1.574029e+03
2.060000e-06	5.235795e-06	2.392736e-08	3.790720e+01	1.565401e+03
2.070000e-06	5.136170e-06	2.376743e-08	3.718591e+01	1.556386e+03
2.080000e-06	5.034649e-06	2.362386e-08	3.645090e+01	1.546932e+03
2.090000e-06	4.931232e-06	2.346451e-08	3.570216e+01	1.536999e+03
2.100000e-06	4.826066e-06	2.332326e-08	3.494076e+01	1.526569e+03
2.110000e-06	4.719362e-06	2.316112e-08	3.416822e+01	1.515646e+03
2.120000e-06	4.611121e-06	2.298781e-08	3.338455e+01	1.504245e+03
2.130000e-06	4.501249e-06	2.279185e-08	3.258909e+01	1.492381e+03
2.140000e-06	4.389660e-06	2.260242e-08	3.178118e+01	1.480055e+03
2.150000e-06	4.276343e-06	2.241856e-08	3.096076e+01	1.467244e+03
2.160000e-06	4.161292e-06	2.222282e-08	3.012779e+01	1.453898e+03
2.170000e-06	4.044490e-06	2.201305e-08	2.928214e+01	1.439945e+03
2.180000e-06	3.926085e-06	2.178121e-08	2.842489e+01	1.425306e+03
2.190000e-06	3.806136e-06	2.154490e-08	2.755646e+01	1.409907e+03
2.200000e-06	3.684806e-06	2.129536e-08	2.667802e+01	1.393698e+03
2.210000e-06	3.562180e-06	2.104522e-08	2.579021e+01	1.376652e+03
2.220000e-06	3.438214e-06	2.077996e-08	2.489270e+01	1.358764e+03
2.230000e-06	3.312954e-06	2.049857e-08	2.398582e+01	1.340041e+03
2.240000e-06	3.186407e-06	2.019486e-08	2.306961e+01	1.320473e+03
2.250000e-06	3.058601e-06	1.988204e-08	2.214430e+01	1.300026e+03
2.260000e-06	2.929695e-06	1.955809e-08	2.121101e+01	1.278618e+03
2.270000e-06	2.799813e-06	1.921741e-08	2.027067e+01	1.256123e+03
2.280000e-06	2.668980e-06	1.885551e-08	1.932344e+01	1.232381e+03
2.290000e-06	2.537126e-06	1.846848e-08	1.836881e+01	1.207215e+03
2.300000e-06	2.404301e-06	1.805920e-08	1.740716e+01	1.180454e+03
2.310000e-06	2.270666e-06	1.762660e-08	1.643964e+01	1.151953e+03
2.320000e-06	2.136285e-06	1.717114e-08	1.546672e+01	1.121601e+03
2.330000e-06	2.001188e-06	1.668296e-08	1.448862e+01	1.089310e+03
2.340000e-06	1.865413e-06	1.616071e-08	1.350561e+01	1.054996e+03
2.350000e-06	1.729007e-06	1.560167e-08	1.251803e+01	1.018548e+03
2.360000e-06	1.592032e-06	1.500729e-08	1.152633e+01	9.798048e+02
2.370000e-06	1.454521e-06	1.437646e-08	1.053074e+01	9.385391e+02
2.380000e-06	1.316569e-06	1.370459e-08	9.531970e+00	8.944692e+02
2.390000e-06	1.178239e-06	1.298417e-08	8.530462e+00	8.472952e+02
2.400000e-06	1.039526e-06	1.220835e-08	7.526179e+00	7.967567e+02
2.410000e-06	9.003451e-07	1.138043e-08	6.518507e+00	7.427017e+02
2.420000e-06	7.606992e-07	1.050568e-08	5.507469e+00	6.851494e+02
2.430000e-06	6.208188e-07	9.585600e-09	4.494733e+00	6.243289e+02
2.440000e-06	4.807440e-07	8.619973e-09	3.480591e+00	5.606813e+02
2.450000e-06	3.403953e-07	7.613851e-09	2.464465e+00	4.948157e+02
2.460000e-06	1.998170e-07	6.580079e-09	1.446677e+00	4.274257e+02
2.470000e-06	5.905864e-08	5.530738e-09	4.275851e-01	3.591793e+02
2.480000e-06	-8.172502e-08	4.477867e-09	-5.916899e-01	2.906044e+02
2.490000e-06	-2.224432e-07	3.426880e-09	-1.610491e+00	2.219963e+02
2.500000e-06	-3.630757e-07	2.374912e-09	-2.628671e+00	1.533698e+02
2.510000e-06	-5.035745e-07	1.319966e-09	-3.645883e+00	8.446982e+01
2.520000e-06	-6.439248e-07	2.555789e-10	-4.662021e+00	1.484251e+01
2.530000e-06	-7.840300e-07	-8.252123e-10	-5.676384e+00	-5.604395e+01
2.540000e-06	-9.237827e-07	-1.929414e-09	-6.688195e+00	-1.286533e+02
2.550000e-06	-1.063089e-06	-3.064799e-09	-7.696773e+00	-2.032387e+02
2.560000e-06	-1.201901e-06	-4.232209e-09	-8.701777e+00	-2.797349e+02
2.570000e-06	-1.340281e-06	-5.427036e-09	-9.703644e+00	-3.577075e+02
2.580000e-06	-1.478255e-06	-6.634619e-09	-1.070258e+01	-4.363706e+02
2.590000e-06	-1.615697e-06	-7.838184e-09	-1.169766e+01	-5.146714e+02
2.600000e-06	-1.752481e-06	-9.015660e-09	-1.268798e+01	-5.914226e+02
2.610000e-06	-1.888548e-06	-1.014786e-08	-1.367311e+01	-6.654580e+02
2.620000e-06	-2.023918e-06	-1.122196e-08	-1.465318e+01	-7.357795e+02
2.630000e-06	-2.158592e-06	-1.222573e-08	-1.562822e+01	-8.016689e+02
2.640000e-06	-2.292460e-06	-1.315714e-08	-1.659743e+01	-8.627459e+02
2.650000e-06	-2.425432e-06	-1.401649e-08	-1.756015e+01	-9.189657e+02
2.660000e-06	-2.557410e-06	-1.480832e-08	-1.851567e+01	-9.705637e+02
2.670000e-06	-2.688376e-06	-1.553878e-08	-1.946386e+01	-1.017963e+03
2.680000e-06	-2.818484e-06	-1.621281e-08	-2.040585e+01	-1.061672e+03
2.690000e-06	-2.947556e-06	-1.683843e-08	-2.134033e+01	-1.102184e+03
2.700000e-06	-3.075464e-06	-1.741960e-08	-2.226639e+01	-1.139914e+03
2.710000e-06	-3.202360e-06	-1.796025e-08	-2.318511e+01	-1.175168e+03
2.720000e-06	-3.328164e-06	-1.846291e-08	-2.409594e+01	-1.208144e+03
2.730000e-06	-3.452673e-06	-1.893129e-08	-2.499738e+01	-1.238964e+03
2.740000e-06	-3.575878e-06	-1.936861e-08	-2.588939e+01	-1.267717e+03
2.750000e-06	-3.697947e-06	-1.977599e-08	-2.677317e+01	-1.294503e+03
2.760000e-06	-3.818734e-06	-2.015833e-08	-2.764767e+01	-1.319455e+03
2.770000e-06	-3.938031e-06	-2.051657e-08	-2.851138e+01	-1.342744e+03
2.780000e-06	-4.055853e-06	-2.085290e-08	-2.936441e+01	-1.364572e+03
2.790000e-06	-4.172024e-06	-2.117011e-08	-3.020549e+01	-1.385140e+03
2.800000e-06	-4.286440e-06	-2.146994e-08	-3.103386e+01	-1.404624e+03
2.810000e-06	-4.399183e-06	-2.175474e-08	-3.185012e+01	-1.423149e+03
2.820000e-06	-4.510226e-06	-2.202336e-08	-3.265407e+01	-1.440787e+03
2.830000e-06	-4.619612e-06	-2.227667e-08	-3.344603e+01	-1.457557e+03
2.840000e-06	-4.727464e-06	-2.251663e-08	-3.422688e+01	-1.473452e+03
2.850000e-06	-4.833769e-06	-2.274322e-08	-3.499653e+01	-1.488458e+03
2.860000e-06	-4.938422e-06	-2.295818e-08	-3.575422e+01	-1.502580e+03
2.870000e-06	-5.041265e-06	-2.316275e-08	-3.649880e+01	-1.515857e+03
2.880000e-06	-5.142147e-06	-2.335747e-08	-3.722919e+01	-1.528360e+03
2.890000e-06	-5.241154e-06	-2.354284e-08	-3.794600e+01	-1.540188e+03
2.900000e-06	-5.338410e-06	-2.371805e-08	-3.865013e+01	-1.551440e+03
2.910000e-06	-5.433789e-06	-2.388330e-08	-3.934068e+01	-1.562201e+03
2.920000e-06	-5.527131e-06	-2.403925e-08	-4.001648e+01	-1.572524e+03
2.930000e-06	-5.618451e-06	-2.418768e-08	-4.067763e+01	-1.582423e+03
2.940000e-06	-5.707804e-06	-2.433006e-08	-4.132455e+01	-1.591876e+03
