# Temperatura_=_87.57
# Concentracion g/m^3_=_28200.0
# C_Vs_to_Am_M_A/Vsm_=_65563218390.804596
# pendiente_HvsI_1/m_=_3716.3
# ordenada_HvsI_A/m_=_1297.0
# frecuencia_Hz_=_302392.18072068377

Tiempo_(s)	Campo_(V.s)	Magnetizacion_(V.s)	Campo_(kA/m)	Magnetizacion_(A/m)
0.000000e+00	-7.316309e-06	-2.846655e-08	-5.318958e+01	-1.865229e+03
1.000000e-08	-7.312832e-06	-2.846401e-08	-5.316431e+01	-1.864573e+03
2.000000e-08	-7.306957e-06	-2.845187e-08	-5.312159e+01	-1.863738e+03
3.000000e-08	-7.298775e-06	-2.843681e-08	-5.306211e+01	-1.862762e+03
4.000000e-08	-7.288037e-06	-2.842031e-08	-5.298404e+01	-1.861672e+03
5.000000e-08	-7.274577e-06	-2.839940e-08	-5.288619e+01	-1.860476e+03
6.000000e-08	-7.258416e-06	-2.837336e-08	-5.276870e+01	-1.859161e+03
7.000000e-08	-7.239935e-06	-2.834236e-08	-5.263435e+01	-1.857698e+03
8.000000e-08	-7.219395e-06	-2.831334e-08	-5.248502e+01	-1.856054e+03
9.000000e-08	-7.196405e-06	-2.835274e-08	-5.231788e+01	-1.854206e+03
1.000000e-07	-7.170493e-06	-2.835146e-08	-5.212950e+01	-1.852152e+03
1.100000e-07	-7.141684e-06	-2.825401e-08	-5.192006e+01	-1.849913e+03
1.200000e-07	-7.110300e-06	-2.819053e-08	-5.169190e+01	-1.847529e+03
1.300000e-07	-7.076440e-06	-2.815916e-08	-5.144574e+01	-1.845048e+03
1.400000e-07	-7.040355e-06	-2.808472e-08	-5.118340e+01	-1.842509e+03
1.500000e-07	-7.002417e-06	-2.797858e-08	-5.090759e+01	-1.839927e+03
1.600000e-07	-6.962438e-06	-2.803575e-08	-5.061694e+01	-1.837281e+03
1.700000e-07	-6.919944e-06	-2.800479e-08	-5.030801e+01	-1.834515e+03
1.800000e-07	-6.875032e-06	-2.782475e-08	-4.998150e+01	-1.831548e+03
1.900000e-07	-6.827684e-06	-2.787075e-08	-4.963727e+01	-1.828289e+03
2.000000e-07	-6.777511e-06	-2.780509e-08	-4.927252e+01	-1.824659e+03
2.100000e-07	-6.724575e-06	-2.770793e-08	-4.888767e+01	-1.820609e+03
2.200000e-07	-6.669083e-06	-2.767691e-08	-4.848425e+01	-1.816133e+03
2.300000e-07	-6.611087e-06	-2.755628e-08	-4.806262e+01	-1.811263e+03
2.400000e-07	-6.550664e-06	-2.751149e-08	-4.762334e+01	-1.806061e+03
2.500000e-07	-6.487869e-06	-2.741136e-08	-4.716682e+01	-1.800604e+03
2.600000e-07	-6.422594e-06	-2.733275e-08	-4.669227e+01	-1.794954e+03
2.700000e-07	-6.354844e-06	-2.725282e-08	-4.619973e+01	-1.789149e+03
2.800000e-07	-6.284770e-06	-2.715579e-08	-4.569029e+01	-1.783190e+03
2.900000e-07	-6.212363e-06	-2.705713e-08	-4.516389e+01	-1.777041e+03
3.000000e-07	-6.137440e-06	-2.693807e-08	-4.461920e+01	-1.770641e+03
3.100000e-07	-6.059894e-06	-2.687002e-08	-4.405544e+01	-1.763927e+03
3.200000e-07	-5.979767e-06	-2.676017e-08	-4.347292e+01	-1.756843e+03
3.300000e-07	-5.897439e-06	-2.664561e-08	-4.287440e+01	-1.749363e+03
3.400000e-07	-5.813227e-06	-2.651919e-08	-4.226217e+01	-1.741488e+03
3.500000e-07	-5.727132e-06	-2.637579e-08	-4.163627e+01	-1.733249e+03
3.600000e-07	-5.639074e-06	-2.626594e-08	-4.099608e+01	-1.724683e+03
3.700000e-07	-5.548921e-06	-2.613660e-08	-4.034067e+01	-1.715826e+03
3.800000e-07	-5.456749e-06	-2.599583e-08	-3.967057e+01	-1.706690e+03
3.900000e-07	-5.362692e-06	-2.584728e-08	-3.898678e+01	-1.697258e+03
4.000000e-07	-5.266740e-06	-2.569350e-08	-3.828921e+01	-1.687484e+03
4.100000e-07	-5.168866e-06	-2.552916e-08	-3.757766e+01	-1.677306e+03
4.200000e-07	-5.069176e-06	-2.536950e-08	-3.685292e+01	-1.666657e+03
4.300000e-07	-4.967726e-06	-2.521424e-08	-3.611538e+01	-1.655487e+03
4.400000e-07	-4.864505e-06	-2.503347e-08	-3.536496e+01	-1.643770e+03
4.500000e-07	-4.759530e-06	-2.483920e-08	-3.460179e+01	-1.631511e+03
4.600000e-07	-4.652797e-06	-2.464426e-08	-3.382584e+01	-1.618737e+03
4.700000e-07	-4.544406e-06	-2.444671e-08	-3.303785e+01	-1.605481e+03
4.800000e-07	-4.434529e-06	-2.424308e-08	-3.223903e+01	-1.591764e+03
4.900000e-07	-4.323073e-06	-2.403303e-08	-3.142875e+01	-1.577580e+03
5.000000e-07	-4.209903e-06	-2.380692e-08	-3.060600e+01	-1.562887e+03
5.100000e-07	-4.094953e-06	-2.355996e-08	-2.977032e+01	-1.547612e+03
5.200000e-07	-3.978296e-06	-2.330482e-08	-2.892222e+01	-1.531663e+03
5.300000e-07	-3.860231e-06	-2.304937e-08	-2.806389e+01	-1.514948e+03
5.400000e-07	-3.740823e-06	-2.278561e-08	-2.719579e+01	-1.497396e+03
5.500000e-07	-3.619963e-06	-2.250609e-08	-2.631714e+01	-1.478968e+03
5.600000e-07	-3.497627e-06	-2.221241e-08	-2.542776e+01	-1.459657e+03
5.700000e-07	-3.373918e-06	-2.190818e-08	-2.452839e+01	-1.439478e+03
5.800000e-07	-3.248987e-06	-2.158812e-08	-2.362015e+01	-1.418445e+03
5.900000e-07	-3.122924e-06	-2.125396e-08	-2.270367e+01	-1.396547e+03
6.000000e-07	-2.995758e-06	-2.090554e-08	-2.177917e+01	-1.373728e+03
6.100000e-07	-2.867483e-06	-2.053901e-08	-2.084661e+01	-1.349879e+03
6.200000e-07	-2.738097e-06	-2.014979e-08	-1.990597e+01	-1.324838e+03
6.300000e-07	-2.607641e-06	-1.973931e-08	-1.895756e+01	-1.298418e+03
6.400000e-07	-2.476184e-06	-1.931199e-08	-1.800187e+01	-1.270428e+03
6.500000e-07	-2.343830e-06	-1.886071e-08	-1.703965e+01	-1.240701e+03
6.600000e-07	-2.210711e-06	-1.838048e-08	-1.607188e+01	-1.209110e+03
6.700000e-07	-2.076934e-06	-1.786910e-08	-1.509931e+01	-1.175567e+03
6.800000e-07	-1.942507e-06	-1.733101e-08	-1.412203e+01	-1.140005e+03
6.900000e-07	-1.807343e-06	-1.676190e-08	-1.313939e+01	-1.102342e+03
7.000000e-07	-1.671426e-06	-1.615657e-08	-1.215127e+01	-1.062447e+03
7.100000e-07	-1.534854e-06	-1.550976e-08	-1.115839e+01	-1.020116e+03
7.200000e-07	-1.397758e-06	-1.481602e-08	-1.016170e+01	-9.750585e+02
7.300000e-07	-1.260215e-06	-1.407483e-08	-9.161765e+00	-9.269308e+02
7.400000e-07	-1.122229e-06	-1.327981e-08	-8.158607e+00	-8.753829e+02
7.500000e-07	-9.838253e-07	-1.243475e-08	-7.152412e+00	-8.201333e+02
7.600000e-07	-8.450913e-07	-1.154032e-08	-6.143816e+00	-7.610444e+02
7.700000e-07	-7.060224e-07	-1.059108e-08	-5.132785e+00	-6.981830e+02
7.800000e-07	-5.666571e-07	-9.586421e-09	-4.119598e+00	-6.318451e+02
7.900000e-07	-4.270772e-07	-8.534867e-09	-3.104852e+00	-5.625352e+02
8.000000e-07	-2.872848e-07	-7.444932e-09	-2.088561e+00	-4.908979e+02
8.100000e-07	-1.473118e-07	-6.324617e-09	-1.070957e+00	-4.176135e+02
8.200000e-07	-7.209327e-09	-5.185879e-09	-5.241182e-02	-3.432783e+02
8.300000e-07	1.329460e-07	-4.037451e-09	9.665177e-01	-2.682968e+02
8.400000e-07	2.730445e-07	-2.884498e-09	1.985034e+00	-1.928126e+02
8.500000e-07	4.129983e-07	-1.725364e-09	3.002499e+00	-1.166968e+02
8.600000e-07	5.527458e-07	-5.563773e-10	4.018463e+00	-3.960198e+01
8.700000e-07	6.922609e-07	6.296134e-10	5.032738e+00	3.892747e+01
8.800000e-07	8.315890e-07	1.841709e-09	6.045654e+00	1.193082e+02
8.900000e-07	9.706069e-07	3.088938e-09	7.056314e+00	2.017662e+02
9.000000e-07	1.109246e-06	4.374818e-09	8.064222e+00	2.862138e+02
9.100000e-07	1.247512e-06	5.690662e-09	9.069413e+00	3.721816e+02
9.200000e-07	1.385326e-06	7.020186e-09	1.007132e+01	4.588244e+02
9.300000e-07	1.522650e-06	8.341291e-09	1.106967e+01	5.449996e+02
9.400000e-07	1.659359e-06	9.630426e-09	1.206355e+01	6.294041e+02
9.500000e-07	1.795368e-06	1.086572e-08	1.305233e+01	7.107430e+02
9.600000e-07	1.930651e-06	1.203234e-08	1.403584e+01	7.878947e+02
9.700000e-07	2.065160e-06	1.311747e-08	1.501372e+01	8.600432e+02
9.800000e-07	2.198961e-06	1.411837e-08	1.598645e+01	9.267516e+02
9.900000e-07	2.332091e-06	1.504126e-08	1.695431e+01	9.879691e+02
1.000000e-06	2.464400e-06	1.589276e-08	1.791619e+01	1.043974e+03
1.010000e-06	2.595741e-06	1.667706e-08	1.887104e+01	1.095271e+03
1.020000e-06	2.726035e-06	1.739954e-08	1.981828e+01	1.142472e+03
1.030000e-06	2.855304e-06	1.806950e-08	2.075806e+01	1.186178e+03
1.040000e-06	2.983450e-06	1.869403e-08	2.168969e+01	1.226895e+03
1.050000e-06	3.110347e-06	1.927399e-08	2.261223e+01	1.264991e+03
1.060000e-06	3.236172e-06	1.981104e-08	2.352698e+01	1.300694e+03
1.070000e-06	3.361003e-06	2.031002e-08	2.443450e+01	1.334130e+03
1.080000e-06	3.484683e-06	2.077726e-08	2.533365e+01	1.365372e+03
1.090000e-06	3.607150e-06	2.121506e-08	2.622399e+01	1.394498e+03
1.100000e-06	3.728312e-06	2.162468e-08	2.710484e+01	1.421624e+03
1.110000e-06	3.848005e-06	2.201271e-08	2.797501e+01	1.446921e+03
1.120000e-06	3.966291e-06	2.238197e-08	2.883494e+01	1.470608e+03
1.130000e-06	4.083250e-06	2.272996e-08	2.968524e+01	1.492918e+03
1.140000e-06	4.198667e-06	2.305523e-08	3.052432e+01	1.514064e+03
1.150000e-06	4.312351e-06	2.336152e-08	3.135080e+01	1.534211e+03
1.160000e-06	4.424354e-06	2.365317e-08	3.216507e+01	1.553456e+03
1.170000e-06	4.534798e-06	2.392952e-08	3.296799e+01	1.571831e+03
1.180000e-06	4.643760e-06	2.419000e-08	3.376014e+01	1.589322e+03
1.190000e-06	4.751165e-06	2.443901e-08	3.454098e+01	1.605899e+03
1.200000e-06	4.856865e-06	2.467672e-08	3.530942e+01	1.621543e+03
1.210000e-06	4.960716e-06	2.490434e-08	3.606442e+01	1.636272e+03
1.220000e-06	5.062762e-06	2.511835e-08	3.680629e+01	1.650145e+03
1.230000e-06	5.163039e-06	2.532075e-08	3.753531e+01	1.663260e+03
1.240000e-06	5.261365e-06	2.551335e-08	3.825014e+01	1.675729e+03
1.250000e-06	5.357644e-06	2.569366e-08	3.895009e+01	1.687659e+03
1.260000e-06	5.451978e-06	2.586596e-08	3.963589e+01	1.699128e+03
1.270000e-06	5.544486e-06	2.603160e-08	4.030842e+01	1.710173e+03
1.280000e-06	5.635023e-06	2.619221e-08	4.096663e+01	1.720789e+03
1.290000e-06	5.723390e-06	2.634684e-08	4.160906e+01	1.730941e+03
1.300000e-06	5.809673e-06	2.649393e-08	4.223634e+01	1.740584e+03
1.310000e-06	5.894000e-06	2.663463e-08	4.284939e+01	1.749682e+03
1.320000e-06	5.976291e-06	2.676791e-08	4.344765e+01	1.758226e+03
1.330000e-06	6.056376e-06	2.689300e-08	4.402987e+01	1.766239e+03
1.340000e-06	6.134181e-06	2.700994e-08	4.459551e+01	1.773771e+03
1.350000e-06	6.209642e-06	2.711982e-08	4.514411e+01	1.780890e+03
1.360000e-06	6.282615e-06	2.722429e-08	4.567462e+01	1.787660e+03
1.370000e-06	6.353286e-06	2.732495e-08	4.618841e+01	1.794129e+03
1.380000e-06	6.421868e-06	2.742111e-08	4.668700e+01	1.800321e+03
1.390000e-06	6.488167e-06	2.751208e-08	4.716899e+01	1.806233e+03
1.400000e-06	6.552080e-06	2.759697e-08	4.763364e+01	1.811843e+03
1.410000e-06	6.613783e-06	2.767646e-08	4.808222e+01	1.817127e+03
1.420000e-06	6.673265e-06	2.775079e-08	4.851465e+01	1.822069e+03
1.430000e-06	6.730285e-06	2.782048e-08	4.892918e+01	1.826674e+03
1.440000e-06	6.784839e-06	2.788723e-08	4.932579e+01	1.830968e+03
1.450000e-06	6.836804e-06	2.795093e-08	4.970358e+01	1.834993e+03
1.460000e-06	6.885922e-06	2.801227e-08	5.006067e+01	1.838797e+03
1.470000e-06	6.932436e-06	2.806976e-08	5.039882e+01	1.842418e+03
1.480000e-06	6.976631e-06	2.812384e-08	5.072012e+01	1.845873e+03
1.490000e-06	7.018312e-06	2.817526e-08	5.102314e+01	1.849153e+03
1.500000e-06	7.057381e-06	2.822239e-08	5.130718e+01	1.852226e+03
1.510000e-06	7.094062e-06	2.826478e-08	5.157385e+01	1.855048e+03
1.520000e-06	7.128251e-06	2.830368e-08	5.182240e+01	1.857575e+03
1.530000e-06	7.159822e-06	2.833859e-08	5.205192e+01	1.859779e+03
1.540000e-06	7.188946e-06	2.836876e-08	5.226365e+01	1.861658e+03
1.550000e-06	7.215552e-06	2.839469e-08	5.245708e+01	1.863234e+03
1.560000e-06	7.239358e-06	2.841683e-08	5.263015e+01	1.864553e+03
1.570000e-06	7.260574e-06	2.843724e-08	5.278439e+01	1.865665e+03
1.580000e-06	7.279495e-06	2.845453e-08	5.292195e+01	1.866618e+03
1.590000e-06	7.295816e-06	2.846710e-08	5.304060e+01	1.867438e+03
1.600000e-06	7.309276e-06	2.847519e-08	5.313845e+01	1.868128e+03
1.610000e-06	7.319811e-06	2.848110e-08	5.321504e+01	1.868669e+03
1.620000e-06	7.327453e-06	2.848673e-08	5.327060e+01	1.869026e+03
1.630000e-06	7.332462e-06	2.849041e-08	5.330701e+01	1.869163e+03
1.640000e-06	7.334963e-06	2.849108e-08	5.332520e+01	1.869057e+03
1.650000e-06	7.334847e-06	2.849018e-08	5.332435e+01	1.868703e+03
1.660000e-06	7.332260e-06	2.847768e-08	5.330554e+01	1.868121e+03
1.670000e-06	7.327334e-06	2.846309e-08	5.326973e+01	1.867344e+03
1.680000e-06	7.319919e-06	2.845204e-08	5.321583e+01	1.866413e+03
1.690000e-06	7.310030e-06	2.843785e-08	5.314394e+01	1.865361e+03
1.700000e-06	7.297552e-06	2.842335e-08	5.305322e+01	1.864203e+03
1.710000e-06	7.282474e-06	2.841060e-08	5.294360e+01	1.862933e+03
1.720000e-06	7.265096e-06	2.840260e-08	5.281726e+01	1.861525e+03
1.730000e-06	7.245658e-06	2.836603e-08	5.267595e+01	1.859948e+03
1.740000e-06	7.223755e-06	2.824186e-08	5.251672e+01	1.858174e+03
1.750000e-06	7.198632e-06	2.822150e-08	5.233407e+01	1.856192e+03
1.760000e-06	7.170115e-06	2.825237e-08	5.212675e+01	1.854014e+03
1.770000e-06	7.138731e-06	2.820824e-08	5.189859e+01	1.851675e+03
1.780000e-06	7.105150e-06	2.819017e-08	5.165445e+01	1.849223e+03
1.790000e-06	7.069796e-06	2.826241e-08	5.139744e+01	1.846701e+03
1.800000e-06	7.032876e-06	2.814443e-08	5.112903e+01	1.844134e+03
1.810000e-06	6.993779e-06	2.801734e-08	5.084479e+01	1.841514e+03
1.820000e-06	6.951958e-06	2.812346e-08	5.054075e+01	1.838799e+03
1.830000e-06	6.907855e-06	2.798449e-08	5.022012e+01	1.835913e+03
1.840000e-06	6.861350e-06	2.800752e-08	4.988203e+01	1.832767e+03
1.850000e-06	6.812224e-06	2.796871e-08	4.952489e+01	1.829276e+03
1.860000e-06	6.760523e-06	2.779721e-08	4.914902e+01	1.825379e+03
1.870000e-06	6.705990e-06	2.784974e-08	4.875257e+01	1.821052e+03
1.880000e-06	6.648982e-06	2.769345e-08	4.833811e+01	1.816316e+03
1.890000e-06	6.589546e-06	2.767019e-08	4.790601e+01	1.811224e+03
1.900000e-06	6.527467e-06	2.761608e-08	4.745470e+01	1.805848e+03
1.910000e-06	6.462917e-06	2.745651e-08	4.698542e+01	1.800261e+03
1.920000e-06	6.395966e-06	2.743149e-08	4.649869e+01	1.794509e+03
1.930000e-06	6.326607e-06	2.729522e-08	4.599444e+01	1.788606e+03
1.940000e-06	6.254787e-06	2.725496e-08	4.547232e+01	1.782530e+03
1.950000e-06	6.180578e-06	2.712768e-08	4.493282e+01	1.776226e+03
1.960000e-06	6.103812e-06	2.700606e-08	4.437473e+01	1.769631e+03
1.970000e-06	6.024476e-06	2.692474e-08	4.379796e+01	1.762683e+03
1.980000e-06	5.943020e-06	2.677375e-08	4.320577e+01	1.755344e+03
1.990000e-06	5.859578e-06	2.672041e-08	4.259914e+01	1.747608e+03
2.000000e-06	5.774021e-06	2.657141e-08	4.197715e+01	1.739493e+03
2.010000e-06	5.686271e-06	2.645131e-08	4.133920e+01	1.731039e+03
2.020000e-06	5.596497e-06	2.629881e-08	4.068655e+01	1.722282e+03
2.030000e-06	5.504807e-06	2.614751e-08	4.001996e+01	1.713245e+03
2.040000e-06	5.411117e-06	2.602882e-08	3.933883e+01	1.703922e+03
2.050000e-06	5.315478e-06	2.588600e-08	3.864354e+01	1.694276e+03
2.060000e-06	5.218041e-06	2.574915e-08	3.793517e+01	1.684249e+03
2.070000e-06	5.118928e-06	2.555571e-08	3.721462e+01	1.673775e+03
2.080000e-06	5.018005e-06	2.538839e-08	3.648091e+01	1.662794e+03
2.090000e-06	4.915122e-06	2.520677e-08	3.573295e+01	1.651273e+03
2.100000e-06	4.810391e-06	2.503644e-08	3.497155e+01	1.639204e+03
2.110000e-06	4.704105e-06	2.485121e-08	3.419885e+01	1.626610e+03
2.120000e-06	4.596375e-06	2.465453e-08	3.341566e+01	1.613521e+03
2.130000e-06	4.487056e-06	2.444097e-08	3.262091e+01	1.599967e+03
2.140000e-06	4.376012e-06	2.421688e-08	3.181361e+01	1.585952e+03
2.150000e-06	4.263243e-06	2.400349e-08	3.099378e+01	1.571447e+03
2.160000e-06	4.148853e-06	2.378087e-08	3.016217e+01	1.556389e+03
2.170000e-06	4.032763e-06	2.354917e-08	2.931820e+01	1.540691e+03
2.180000e-06	3.914988e-06	2.328788e-08	2.846197e+01	1.524258e+03
2.190000e-06	3.795659e-06	2.302359e-08	2.759445e+01	1.507010e+03
2.200000e-06	3.674813e-06	2.274566e-08	2.671590e+01	1.488897e+03
2.210000e-06	3.552619e-06	2.246342e-08	2.582755e+01	1.469899e+03
2.220000e-06	3.429223e-06	2.216502e-08	2.493046e+01	1.450027e+03
2.230000e-06	3.304542e-06	2.185330e-08	2.402402e+01	1.429298e+03
2.240000e-06	3.178613e-06	2.152145e-08	2.310852e+01	1.407712e+03
2.250000e-06	3.051474e-06	2.117576e-08	2.218422e+01	1.385231e+03
2.260000e-06	2.923121e-06	2.081932e-08	2.125109e+01	1.361765e+03
2.270000e-06	2.793731e-06	2.044331e-08	2.031043e+01	1.337170e+03
2.280000e-06	2.663406e-06	2.004680e-08	1.936297e+01	1.311264e+03
2.290000e-06	2.532152e-06	1.962439e-08	1.840875e+01	1.283855e+03
2.300000e-06	2.399951e-06	1.918001e-08	1.744765e+01	1.254764e+03
2.310000e-06	2.266916e-06	1.870849e-08	1.648048e+01	1.223850e+03
2.320000e-06	2.133176e-06	1.821238e-08	1.550819e+01	1.191012e+03
2.330000e-06	1.998697e-06	1.768500e-08	1.453053e+01	1.156177e+03
2.340000e-06	1.863451e-06	1.712462e-08	1.354729e+01	1.119275e+03
2.350000e-06	1.727491e-06	1.652668e-08	1.255886e+01	1.080196e+03
2.360000e-06	1.590950e-06	1.589148e-08	1.156621e+01	1.038763e+03
2.370000e-06	1.453938e-06	1.521798e-08	1.057013e+01	9.947162e+02
2.380000e-06	1.316484e-06	1.449977e-08	9.570845e+00	9.477256e+02
2.390000e-06	1.178627e-06	1.372912e-08	8.568621e+00	8.974360e+02
2.400000e-06	1.040413e-06	1.290201e-08	7.563808e+00	8.435324e+02
2.410000e-06	9.018534e-07	1.202010e-08	6.556476e+00	7.858177e+02
2.420000e-06	7.629691e-07	1.108482e-08	5.546787e+00	7.242808e+02
2.430000e-06	6.237814e-07	1.009719e-08	4.534892e+00	6.591356e+02
2.440000e-06	4.843312e-07	9.060561e-09	3.521089e+00	5.908177e+02
2.450000e-06	3.446940e-07	7.981199e-09	2.505926e+00	5.199320e+02
2.460000e-06	2.048621e-07	6.868644e-09	1.489348e+00	4.471597e+02
2.470000e-06	6.490663e-08	5.732473e-09	4.718714e-01	3.731406e+02
2.480000e-06	-7.506772e-08	4.582347e-09	-5.457425e-01	2.983581e+02
2.490000e-06	-2.150468e-07	3.426191e-09	-1.563391e+00	2.230538e+02
2.500000e-06	-3.549259e-07	2.262657e-09	-2.580312e+00	1.471932e+02
2.510000e-06	-4.946661e-07	1.088407e-09	-3.596223e+00	7.049673e+01
2.520000e-06	-6.342528e-07	-1.016172e-10	-4.611019e+00	-7.468011e+00
2.530000e-06	-7.735992e-07	-1.314391e-09	-5.624068e+00	-8.714945e+01
2.540000e-06	-9.126545e-07	-2.554441e-09	-6.635000e+00	-1.688581e+02
2.550000e-06	-1.051400e-06	-3.826290e-09	-7.643682e+00	-2.526294e+02
2.560000e-06	-1.189706e-06	-5.129743e-09	-8.649163e+00	-3.381335e+02
2.570000e-06	-1.327528e-06	-6.455921e-09	-9.651135e+00	-4.246543e+02
2.580000e-06	-1.464950e-06	-7.786885e-09	-1.065019e+01	-5.111419e+02
2.590000e-06	-1.601915e-06	-9.099435e-09	-1.164592e+01	-5.963324e+02
2.600000e-06	-1.738261e-06	-1.036820e-08	-1.263716e+01	-6.789080e+02
2.610000e-06	-1.873928e-06	-1.157365e-08	-1.362346e+01	-7.576677e+02
2.620000e-06	-2.008854e-06	-1.270208e-08	-1.460438e+01	-8.316746e+02
2.630000e-06	-2.142981e-06	-1.374645e-08	-1.557947e+01	-9.003520e+02
2.640000e-06	-2.276327e-06	-1.470856e-08	-1.654890e+01	-9.635147e+02
2.650000e-06	-2.408773e-06	-1.559262e-08	-1.751179e+01	-1.021333e+03
2.660000e-06	-2.540244e-06	-1.640589e-08	-1.846758e+01	-1.074245e+03
2.670000e-06	-2.670753e-06	-1.715524e-08	-1.941638e+01	-1.122838e+03
2.680000e-06	-2.800352e-06	-1.784870e-08	-2.035857e+01	-1.167729e+03
2.690000e-06	-2.929025e-06	-1.849448e-08	-2.129402e+01	-1.209464e+03
2.700000e-06	-3.056609e-06	-1.909598e-08	-2.222155e+01	-1.248464e+03
2.710000e-06	-3.183091e-06	-1.965577e-08	-2.314108e+01	-1.285004e+03
2.720000e-06	-3.308467e-06	-2.017682e-08	-2.405256e+01	-1.319240e+03
2.730000e-06	-3.432600e-06	-2.066164e-08	-2.495501e+01	-1.351259e+03
2.740000e-06	-3.555465e-06	-2.111364e-08	-2.584824e+01	-1.381131e+03
2.750000e-06	-3.677092e-06	-2.153570e-08	-2.673247e+01	-1.408955e+03
2.760000e-06	-3.797393e-06	-2.193214e-08	-2.760706e+01	-1.434883e+03
2.770000e-06	-3.916248e-06	-2.230621e-08	-2.847113e+01	-1.459120e+03
2.780000e-06	-4.033615e-06	-2.266051e-08	-2.932439e+01	-1.481896e+03
2.790000e-06	-4.149362e-06	-2.299531e-08	-3.016587e+01	-1.503436e+03
2.800000e-06	-4.263417e-06	-2.331041e-08	-3.099505e+01	-1.523926e+03
2.810000e-06	-4.375732e-06	-2.360862e-08	-3.181158e+01	-1.543487e+03
2.820000e-06	-4.486298e-06	-2.389161e-08	-3.261539e+01	-1.562173e+03
2.830000e-06	-4.595283e-06	-2.415996e-08	-3.340771e+01	-1.579984e+03
2.840000e-06	-4.702792e-06	-2.441361e-08	-3.418931e+01	-1.596892e+03
2.850000e-06	-4.808817e-06	-2.465248e-08	-3.496011e+01	-1.612870e+03
2.860000e-06	-4.913120e-06	-2.487981e-08	-3.571839e+01	-1.627922e+03
2.870000e-06	-5.015531e-06	-2.509807e-08	-3.646292e+01	-1.642092e+03
2.880000e-06	-5.116057e-06	-2.530809e-08	-3.719375e+01	-1.655466e+03
2.890000e-06	-5.214779e-06	-2.550966e-08	-3.791146e+01	-1.668153e+03
2.900000e-06	-5.311722e-06	-2.570018e-08	-3.861623e+01	-1.680266e+03
2.910000e-06	-5.406746e-06	-2.587974e-08	-3.930706e+01	-1.691894e+03
2.920000e-06	-5.499757e-06	-2.604884e-08	-3.998325e+01	-1.703090e+03
2.930000e-06	-5.590818e-06	-2.620912e-08	-4.064526e+01	-1.713862e+03
2.940000e-06	-5.679932e-06	-2.636263e-08	-4.129312e+01	-1.724186e+03
