# Temperatura_=_41.85
# Concentracion g/m^3_=_28200.0
# C_Vs_to_Am_M_A/Vsm_=_65563218390.804596
# pendiente_HvsI_1/m_=_3716.3
# ordenada_HvsI_A/m_=_1297.0
# frecuencia_Hz_=_302401.7303886822

Tiempo_(s)	Campo_(V.s)	Magnetizacion_(V.s)	Campo_(kA/m)	Magnetizacion_(A/m)
0.000000e+00	-7.376061e-06	-2.618081e-08	-5.318321e+01	-1.714556e+03
1.000000e-08	-7.372960e-06	-2.618121e-08	-5.316084e+01	-1.714075e+03
2.000000e-08	-7.367412e-06	-2.617088e-08	-5.312084e+01	-1.713423e+03
3.000000e-08	-7.359573e-06	-2.615647e-08	-5.306432e+01	-1.712635e+03
4.000000e-08	-7.349237e-06	-2.614301e-08	-5.298980e+01	-1.711740e+03
5.000000e-08	-7.336099e-06	-2.612694e-08	-5.289507e+01	-1.710758e+03
6.000000e-08	-7.320234e-06	-2.610553e-08	-5.278067e+01	-1.709689e+03
7.000000e-08	-7.302023e-06	-2.608169e-08	-5.264937e+01	-1.708523e+03
8.000000e-08	-7.281707e-06	-2.605457e-08	-5.250289e+01	-1.707236e+03
9.000000e-08	-7.258987e-06	-2.609886e-08	-5.233907e+01	-1.705812e+03
1.000000e-07	-7.233333e-06	-2.611238e-08	-5.215410e+01	-1.704240e+03
1.100000e-07	-7.204748e-06	-2.600934e-08	-5.194799e+01	-1.702532e+03
1.200000e-07	-7.173608e-06	-2.594434e-08	-5.172347e+01	-1.700710e+03
1.300000e-07	-7.139926e-06	-2.592962e-08	-5.148061e+01	-1.698809e+03
1.400000e-07	-7.103895e-06	-2.588032e-08	-5.122082e+01	-1.696856e+03
1.500000e-07	-7.065968e-06	-2.577837e-08	-5.094736e+01	-1.694867e+03
1.600000e-07	-7.026048e-06	-2.583861e-08	-5.065952e+01	-1.692827e+03
1.700000e-07	-6.983665e-06	-2.585963e-08	-5.035393e+01	-1.690694e+03
1.800000e-07	-6.938779e-06	-2.566197e-08	-5.003029e+01	-1.688403e+03
1.900000e-07	-6.891395e-06	-2.571336e-08	-4.968864e+01	-1.685878e+03
2.000000e-07	-6.841210e-06	-2.568007e-08	-4.932680e+01	-1.683048e+03
2.100000e-07	-6.788314e-06	-2.556639e-08	-4.894541e+01	-1.679863e+03
2.200000e-07	-6.732872e-06	-2.554963e-08	-4.854565e+01	-1.676309e+03
2.300000e-07	-6.674848e-06	-2.542853e-08	-4.812729e+01	-1.672406e+03
2.400000e-07	-6.614371e-06	-2.541312e-08	-4.769123e+01	-1.668202e+03
2.500000e-07	-6.551476e-06	-2.535101e-08	-4.723774e+01	-1.663764e+03
2.600000e-07	-6.486094e-06	-2.528595e-08	-4.676632e+01	-1.659149e+03
2.700000e-07	-6.418265e-06	-2.521931e-08	-4.627726e+01	-1.654398e+03
2.800000e-07	-6.348070e-06	-2.513748e-08	-4.577114e+01	-1.649519e+03
2.900000e-07	-6.275475e-06	-2.505938e-08	-4.524771e+01	-1.644485e+03
3.000000e-07	-6.200330e-06	-2.494711e-08	-4.470589e+01	-1.639247e+03
3.100000e-07	-6.122565e-06	-2.489819e-08	-4.414519e+01	-1.633740e+03
3.200000e-07	-6.042273e-06	-2.481778e-08	-4.356627e+01	-1.627912e+03
3.300000e-07	-5.959824e-06	-2.471252e-08	-4.297179e+01	-1.621725e+03
3.400000e-07	-5.875412e-06	-2.459904e-08	-4.236315e+01	-1.615175e+03
3.500000e-07	-5.789065e-06	-2.447467e-08	-4.174057e+01	-1.608279e+03
3.600000e-07	-5.700689e-06	-2.439503e-08	-4.110336e+01	-1.601075e+03
3.700000e-07	-5.610150e-06	-2.429046e-08	-4.045055e+01	-1.593598e+03
3.800000e-07	-5.517613e-06	-2.416367e-08	-3.978334e+01	-1.585869e+03
3.900000e-07	-5.423176e-06	-2.403318e-08	-3.910243e+01	-1.577883e+03
4.000000e-07	-5.326756e-06	-2.389951e-08	-3.840721e+01	-1.569610e+03
4.100000e-07	-5.228362e-06	-2.376159e-08	-3.769777e+01	-1.560992e+03
4.200000e-07	-5.128114e-06	-2.362740e-08	-3.697495e+01	-1.551967e+03
4.300000e-07	-5.026168e-06	-2.350007e-08	-3.623990e+01	-1.542478e+03
4.400000e-07	-4.922449e-06	-2.334376e-08	-3.549206e+01	-1.532488e+03
4.500000e-07	-4.816922e-06	-2.317704e-08	-3.473119e+01	-1.521986e+03
4.600000e-07	-4.709695e-06	-2.301017e-08	-3.395805e+01	-1.510988e+03
4.700000e-07	-4.600720e-06	-2.283902e-08	-3.317232e+01	-1.499520e+03
4.800000e-07	-4.490165e-06	-2.266391e-08	-3.237519e+01	-1.487605e+03
4.900000e-07	-4.377968e-06	-2.248096e-08	-3.156622e+01	-1.475248e+03
5.000000e-07	-4.263999e-06	-2.228039e-08	-3.074447e+01	-1.462422e+03
5.100000e-07	-4.148297e-06	-2.205869e-08	-2.991024e+01	-1.449068e+03
5.200000e-07	-4.030999e-06	-2.183705e-08	-2.906449e+01	-1.435105e+03
5.300000e-07	-3.912299e-06	-2.161659e-08	-2.820863e+01	-1.420443e+03
5.400000e-07	-3.792030e-06	-2.138540e-08	-2.734147e+01	-1.405004e+03
5.500000e-07	-3.670232e-06	-2.113838e-08	-2.646327e+01	-1.388732e+03
5.600000e-07	-3.547122e-06	-2.087758e-08	-2.557562e+01	-1.371605e+03
5.700000e-07	-3.422675e-06	-2.060507e-08	-2.467832e+01	-1.353623e+03
5.800000e-07	-3.297002e-06	-2.031571e-08	-2.377219e+01	-1.334799e+03
5.900000e-07	-3.170194e-06	-2.001606e-08	-2.285788e+01	-1.315129e+03
6.000000e-07	-3.042170e-06	-1.970202e-08	-2.193479e+01	-1.294578e+03
6.100000e-07	-2.912935e-06	-1.936819e-08	-2.100297e+01	-1.273065e+03
6.200000e-07	-2.782621e-06	-1.901445e-08	-2.006338e+01	-1.250457e+03
6.300000e-07	-2.651312e-06	-1.864547e-08	-1.911661e+01	-1.226585e+03
6.400000e-07	-2.518940e-06	-1.826032e-08	-1.816217e+01	-1.201266e+03
6.500000e-07	-2.385619e-06	-1.785026e-08	-1.720090e+01	-1.174324e+03
6.600000e-07	-2.251618e-06	-1.741464e-08	-1.623471e+01	-1.145611e+03
6.700000e-07	-2.116967e-06	-1.694825e-08	-1.526385e+01	-1.115015e+03
6.800000e-07	-1.981493e-06	-1.645280e-08	-1.428705e+01	-1.082447e+03
6.900000e-07	-1.845123e-06	-1.592839e-08	-1.330379e+01	-1.047821e+03
7.000000e-07	-1.707998e-06	-1.537139e-08	-1.231508e+01	-1.011022e+03
7.100000e-07	-1.570283e-06	-1.477326e-08	-1.132213e+01	-9.718805e+02
7.200000e-07	-1.432081e-06	-1.413005e-08	-1.032565e+01	-9.301609e+02
7.300000e-07	-1.293424e-06	-1.344469e-08	-9.325905e+00	-8.855756e+02
7.400000e-07	-1.154328e-06	-1.271111e-08	-8.322984e+00	-8.378249e+02
7.500000e-07	-1.014785e-06	-1.192853e-08	-7.316850e+00	-7.866588e+02
7.600000e-07	-8.748563e-07	-1.109858e-08	-6.307928e+00	-7.319470e+02
7.700000e-07	-7.346092e-07	-1.022032e-08	-5.296712e+00	-6.737415e+02
7.800000e-07	-5.940093e-07	-9.288246e-09	-4.282952e+00	-6.123106e+02
7.900000e-07	-4.531052e-07	-8.311000e-09	-3.267000e+00	-5.481347e+02
8.000000e-07	-3.119979e-07	-7.302044e-09	-2.249581e+00	-4.818541e+02
8.100000e-07	-1.707634e-07	-6.269339e-09	-1.231246e+00	-4.141786e+02
8.200000e-07	-2.942251e-08	-5.223346e-09	-2.121435e-01	-3.457721e+02
8.300000e-07	1.119979e-07	-4.175458e-09	8.075321e-01	-2.771380e+02
8.400000e-07	2.534148e-07	-3.131770e-09	1.827183e+00	-2.085302e+02
8.500000e-07	3.947670e-07	-2.088550e-09	2.846367e+00	-1.399135e+02
8.600000e-07	5.359496e-07	-1.042650e-09	3.864328e+00	-7.098472e+01
8.700000e-07	6.768457e-07	1.414978e-11	4.880223e+00	-1.255457e+00
8.800000e-07	8.174249e-07	1.091713e-09	5.893833e+00	6.981905e+01
8.900000e-07	9.576660e-07	2.199862e-09	6.905006e+00	1.426891e+02
9.000000e-07	1.097534e-06	3.340893e-09	7.913488e+00	2.175694e+02
9.100000e-07	1.237035e-06	4.510821e-09	8.919328e+00	2.943382e+02
9.200000e-07	1.376136e-06	5.704411e-09	9.922278e+00	3.724968e+02
9.300000e-07	1.514695e-06	6.907523e-09	1.092132e+01	4.512014e+02
9.400000e-07	1.652704e-06	8.101344e-09	1.191640e+01	5.293580e+02
9.500000e-07	1.790170e-06	9.264644e-09	1.290756e+01	6.057640e+02
9.600000e-07	1.926920e-06	1.038130e-08	1.389357e+01	6.792664e+02
9.700000e-07	2.062817e-06	1.143432e-08	1.487341e+01	7.489060e+02
9.800000e-07	2.197770e-06	1.241662e-08	1.584646e+01	8.140209e+02
9.900000e-07	2.331870e-06	1.332713e-08	1.681335e+01	8.742938e+02
1.000000e-06	2.465168e-06	1.416788e-08	1.777446e+01	9.297379e+02
1.010000e-06	2.597526e-06	1.494152e-08	1.872880e+01	9.806317e+02
1.020000e-06	2.728885e-06	1.565307e-08	1.967593e+01	1.027422e+03
1.030000e-06	2.859268e-06	1.631180e-08	2.061602e+01	1.070617e+03
1.040000e-06	2.988660e-06	1.692430e-08	2.154897e+01	1.110697e+03
1.050000e-06	3.116874e-06	1.749408e-08	2.247342e+01	1.148051e+03
1.060000e-06	3.243838e-06	1.802438e-08	2.338887e+01	1.182955e+03
1.070000e-06	3.369722e-06	1.851743e-08	2.429652e+01	1.215586e+03
1.080000e-06	3.494512e-06	1.897593e-08	2.519629e+01	1.246053e+03
1.090000e-06	3.618082e-06	1.940290e-08	2.608726e+01	1.274444e+03
1.100000e-06	3.740391e-06	1.980008e-08	2.696913e+01	1.300867e+03
1.110000e-06	3.861362e-06	2.017184e-08	2.784136e+01	1.325466e+03
1.120000e-06	3.980842e-06	2.052485e-08	2.870284e+01	1.348430e+03
1.130000e-06	4.098898e-06	2.085944e-08	2.955406e+01	1.369966e+03
1.140000e-06	4.215522e-06	2.117265e-08	3.039494e+01	1.390280e+03
1.150000e-06	4.330550e-06	2.146745e-08	3.122432e+01	1.409542e+03
1.160000e-06	4.443866e-06	2.174716e-08	3.204136e+01	1.427867e+03
1.170000e-06	4.555367e-06	2.201087e-08	3.284531e+01	1.445316e+03
1.180000e-06	4.665310e-06	2.225802e-08	3.363803e+01	1.461898e+03
1.190000e-06	4.773797e-06	2.249243e-08	3.442025e+01	1.477600e+03
1.200000e-06	4.880695e-06	2.271485e-08	3.519101e+01	1.492410e+03
1.210000e-06	4.985806e-06	2.292665e-08	3.594888e+01	1.506339e+03
1.220000e-06	5.088973e-06	2.312632e-08	3.669274e+01	1.519433e+03
1.230000e-06	5.190320e-06	2.331772e-08	3.742348e+01	1.531774e+03
1.240000e-06	5.289820e-06	2.350007e-08	3.814089e+01	1.543463e+03
1.250000e-06	5.387300e-06	2.367021e-08	3.884375e+01	1.554599e+03
1.260000e-06	5.482724e-06	2.383015e-08	3.953178e+01	1.565263e+03
1.270000e-06	5.576204e-06	2.398412e-08	4.020579e+01	1.575498e+03
1.280000e-06	5.667761e-06	2.413201e-08	4.086594e+01	1.585306e+03
1.290000e-06	5.757217e-06	2.427191e-08	4.151094e+01	1.594656e+03
1.300000e-06	5.844473e-06	2.440634e-08	4.214008e+01	1.603505e+03
1.310000e-06	5.929637e-06	2.453461e-08	4.275413e+01	1.611811e+03
1.320000e-06	6.012822e-06	2.465552e-08	4.335392e+01	1.619556e+03
1.330000e-06	6.093861e-06	2.476937e-08	4.393823e+01	1.626756e+03
1.340000e-06	6.172619e-06	2.487560e-08	4.450609e+01	1.633462e+03
1.350000e-06	6.249137e-06	2.497344e-08	4.505780e+01	1.639746e+03
1.360000e-06	6.323242e-06	2.506324e-08	4.559212e+01	1.645689e+03
1.370000e-06	6.394920e-06	2.514854e-08	4.610894e+01	1.651361e+03
1.380000e-06	6.464354e-06	2.523096e-08	4.660957e+01	1.656810e+03
1.390000e-06	6.531503e-06	2.530867e-08	4.709374e+01	1.662051e+03
1.400000e-06	6.596224e-06	2.538237e-08	4.756039e+01	1.667075e+03
1.410000e-06	6.658633e-06	2.545308e-08	4.801037e+01	1.671853e+03
1.420000e-06	6.718810e-06	2.552047e-08	4.844426e+01	1.676355e+03
1.430000e-06	6.776591e-06	2.558474e-08	4.886088e+01	1.680561e+03
1.440000e-06	6.831978e-06	2.564536e-08	4.926023e+01	1.684470e+03
1.450000e-06	6.884894e-06	2.570307e-08	4.964177e+01	1.688101e+03
1.460000e-06	6.935001e-06	2.575722e-08	5.000305e+01	1.691486e+03
1.470000e-06	6.982320e-06	2.580592e-08	5.034423e+01	1.694660e+03
1.480000e-06	7.027205e-06	2.585115e-08	5.066787e+01	1.697649e+03
1.490000e-06	7.069680e-06	2.589385e-08	5.097412e+01	1.700464e+03
1.500000e-06	7.109532e-06	2.593294e-08	5.126146e+01	1.703094e+03
1.510000e-06	7.146875e-06	2.596848e-08	5.153071e+01	1.705516e+03
1.520000e-06	7.181799e-06	2.600191e-08	5.178253e+01	1.707697e+03
1.530000e-06	7.214087e-06	2.603167e-08	5.201533e+01	1.709613e+03
1.540000e-06	7.243802e-06	2.605722e-08	5.222959e+01	1.711256e+03
1.550000e-06	7.271062e-06	2.607908e-08	5.242614e+01	1.712636e+03
1.560000e-06	7.295641e-06	2.609771e-08	5.260336e+01	1.713785e+03
1.570000e-06	7.317503e-06	2.611524e-08	5.276098e+01	1.714745e+03
1.580000e-06	7.336885e-06	2.613011e-08	5.290073e+01	1.715560e+03
1.590000e-06	7.353658e-06	2.614102e-08	5.302167e+01	1.716261e+03
1.600000e-06	7.367659e-06	2.614939e-08	5.312262e+01	1.716862e+03
1.610000e-06	7.378737e-06	2.615600e-08	5.320250e+01	1.717353e+03
1.620000e-06	7.386897e-06	2.616056e-08	5.326134e+01	1.717710e+03
1.630000e-06	7.392447e-06	2.616350e-08	5.330135e+01	1.717901e+03
1.640000e-06	7.395431e-06	2.616537e-08	5.332286e+01	1.717899e+03
1.650000e-06	7.395755e-06	2.616813e-08	5.332520e+01	1.717689e+03
1.660000e-06	7.393537e-06	2.615909e-08	5.330921e+01	1.717275e+03
1.670000e-06	7.388957e-06	2.614587e-08	5.327619e+01	1.716680e+03
1.680000e-06	7.381863e-06	2.613706e-08	5.322504e+01	1.715936e+03
1.690000e-06	7.372282e-06	2.612475e-08	5.315595e+01	1.715076e+03
1.700000e-06	7.360163e-06	2.611203e-08	5.306857e+01	1.714123e+03
1.710000e-06	7.345369e-06	2.610346e-08	5.296191e+01	1.713086e+03
1.720000e-06	7.328265e-06	2.609997e-08	5.283858e+01	1.711956e+03
1.730000e-06	7.309117e-06	2.607953e-08	5.270052e+01	1.710714e+03
1.740000e-06	7.287548e-06	2.595764e-08	5.254500e+01	1.709340e+03
1.750000e-06	7.262772e-06	2.594044e-08	5.236636e+01	1.707821e+03
1.760000e-06	7.234460e-06	2.599468e-08	5.216223e+01	1.706158e+03
1.770000e-06	7.203182e-06	2.596017e-08	5.193670e+01	1.704373e+03
1.780000e-06	7.169711e-06	2.593271e-08	5.169537e+01	1.702496e+03
1.790000e-06	7.134453e-06	2.602280e-08	5.144115e+01	1.700558e+03
1.800000e-06	7.097571e-06	2.592514e-08	5.117522e+01	1.698582e+03
1.810000e-06	7.058589e-06	2.575983e-08	5.089415e+01	1.696562e+03
1.820000e-06	7.016883e-06	2.591150e-08	5.059344e+01	1.694469e+03
1.830000e-06	6.972772e-06	2.578476e-08	5.027539e+01	1.692242e+03
1.840000e-06	6.926264e-06	2.580014e-08	4.994006e+01	1.689809e+03
1.850000e-06	6.877085e-06	2.581989e-08	4.958546e+01	1.687095e+03
1.860000e-06	6.825327e-06	2.563321e-08	4.921228e+01	1.684040e+03
1.870000e-06	6.770731e-06	2.573037e-08	4.881862e+01	1.680616e+03
1.880000e-06	6.713545e-06	2.558565e-08	4.840630e+01	1.676833e+03
1.890000e-06	6.653954e-06	2.553428e-08	4.797664e+01	1.672729e+03
1.900000e-06	6.591768e-06	2.550684e-08	4.752826e+01	1.668366e+03
1.910000e-06	6.527052e-06	2.535446e-08	4.706164e+01	1.663808e+03
1.920000e-06	6.459879e-06	2.536113e-08	4.657731e+01	1.659103e+03
1.930000e-06	6.390317e-06	2.523152e-08	4.607574e+01	1.654270e+03
1.940000e-06	6.318263e-06	2.522471e-08	4.555622e+01	1.649296e+03
1.950000e-06	6.243750e-06	2.512193e-08	4.501896e+01	1.644137e+03
1.960000e-06	6.166761e-06	2.498428e-08	4.446385e+01	1.638732e+03
1.970000e-06	6.087261e-06	2.493778e-08	4.389064e+01	1.633024e+03
1.980000e-06	6.005543e-06	2.480298e-08	4.330143e+01	1.626967e+03
1.990000e-06	5.921671e-06	2.477687e-08	4.269669e+01	1.620545e+03
2.000000e-06	5.835652e-06	2.464341e-08	4.207648e+01	1.613768e+03
2.010000e-06	5.747553e-06	2.454133e-08	4.144127e+01	1.606669e+03
2.020000e-06	5.657426e-06	2.441934e-08	4.079142e+01	1.599285e+03
2.030000e-06	5.565296e-06	2.428785e-08	4.012715e+01	1.591645e+03
2.040000e-06	5.471184e-06	2.419967e-08	3.944858e+01	1.583753e+03
2.050000e-06	5.375166e-06	2.407689e-08	3.875626e+01	1.575587e+03
2.060000e-06	5.277349e-06	2.396499e-08	3.805098e+01	1.567099e+03
2.070000e-06	5.177810e-06	2.378999e-08	3.733328e+01	1.558226e+03
2.080000e-06	5.076336e-06	2.364906e-08	3.660162e+01	1.548908e+03
2.090000e-06	4.972913e-06	2.349256e-08	3.585592e+01	1.539098e+03
2.100000e-06	4.867679e-06	2.334894e-08	3.509716e+01	1.528778e+03
2.110000e-06	4.760896e-06	2.319055e-08	3.432722e+01	1.517954e+03
2.120000e-06	4.652546e-06	2.301664e-08	3.354599e+01	1.506650e+03
2.130000e-06	4.542527e-06	2.283021e-08	3.275273e+01	1.494893e+03
2.140000e-06	4.430898e-06	2.263685e-08	3.194786e+01	1.482694e+03
2.150000e-06	4.317508e-06	2.246015e-08	3.113028e+01	1.470040e+03
2.160000e-06	4.202337e-06	2.226539e-08	3.029988e+01	1.456882e+03
2.170000e-06	4.085427e-06	2.206249e-08	2.945693e+01	1.443147e+03
2.180000e-06	3.966911e-06	2.183058e-08	2.860240e+01	1.428744e+03
2.190000e-06	3.846856e-06	2.159561e-08	2.773677e+01	1.413590e+03
2.200000e-06	3.725293e-06	2.134615e-08	2.686027e+01	1.397619e+03
2.210000e-06	3.602389e-06	2.109688e-08	2.597411e+01	1.380798e+03
2.220000e-06	3.478134e-06	2.083573e-08	2.507820e+01	1.363120e+03
2.230000e-06	3.352515e-06	2.056041e-08	2.417246e+01	1.344594e+03
2.240000e-06	3.225683e-06	2.026556e-08	2.325797e+01	1.325228e+03
2.250000e-06	3.097699e-06	1.995680e-08	2.233517e+01	1.304998e+03
2.260000e-06	2.968537e-06	1.963780e-08	2.140388e+01	1.283841e+03
2.270000e-06	2.838340e-06	1.929867e-08	2.046513e+01	1.261641e+03
2.280000e-06	2.707207e-06	1.894081e-08	1.951963e+01	1.238241e+03
2.290000e-06	2.574985e-06	1.855719e-08	1.856627e+01	1.213459e+03
2.300000e-06	2.441737e-06	1.815546e-08	1.760552e+01	1.187115e+03
2.310000e-06	2.307690e-06	1.773001e-08	1.663901e+01	1.159048e+03
2.320000e-06	2.172929e-06	1.728127e-08	1.566735e+01	1.129135e+03
2.330000e-06	2.037479e-06	1.679905e-08	1.469073e+01	1.097280e+03
2.340000e-06	1.901354e-06	1.628225e-08	1.370923e+01	1.063400e+03
2.350000e-06	1.764587e-06	1.573209e-08	1.272311e+01	1.027393e+03
2.360000e-06	1.627255e-06	1.514728e-08	1.173290e+01	9.891112e+02
2.370000e-06	1.489391e-06	1.452532e-08	1.073887e+01	9.483427e+02
2.380000e-06	1.350956e-06	1.386013e-08	9.740721e+00	9.048152e+02
2.390000e-06	1.212066e-06	1.314754e-08	8.739291e+00	8.582273e+02
2.400000e-06	1.072815e-06	1.238115e-08	7.735255e+00	8.083030e+02
2.410000e-06	9.330840e-07	1.156195e-08	6.727764e+00	7.548616e+02
2.420000e-06	7.928764e-07	1.069594e-08	5.716833e+00	6.978841e+02
2.430000e-06	6.523516e-07	9.783838e-09	4.703615e+00	6.375598e+02
2.440000e-06	5.115346e-07	8.824355e-09	3.688289e+00	5.742969e+02
2.450000e-06	3.703839e-07	7.823593e-09	2.670558e+00	5.086872e+02
2.460000e-06	2.290436e-07	6.794050e-09	1.651460e+00	4.414282e+02
2.470000e-06	8.761089e-08	5.745735e-09	6.316959e-01	3.732139e+02
2.480000e-06	-5.390926e-08	4.690201e-09	-3.886989e-01	3.046170e+02
2.490000e-06	-1.953906e-07	3.636901e-09	-1.408814e+00	2.359880e+02
2.500000e-06	-3.367658e-07	2.585443e-09	-2.428164e+00	1.673960e+02
2.510000e-06	-4.780414e-07	1.531776e-09	-3.446795e+00	9.862701e+01
2.520000e-06	-6.191406e-07	4.718309e-10	-4.464155e+00	2.924585e+01
2.530000e-06	-7.600019e-07	-6.010642e-10	-5.479799e+00	-4.128892e+01
2.540000e-06	-9.005405e-07	-1.697381e-09	-6.493117e+00	-1.134787e+02
2.550000e-06	-1.040579e-06	-2.825103e-09	-7.502828e+00	-1.876366e+02
2.560000e-06	-1.180077e-06	-3.985596e-09	-8.508647e+00	-2.637690e+02
2.570000e-06	-1.319087e-06	-5.175625e-09	-9.510937e+00	-3.415122e+02
2.580000e-06	-1.457643e-06	-6.384078e-09	-1.050996e+01	-4.201376e+02
2.590000e-06	-1.595697e-06	-7.591459e-09	-1.150537e+01	-4.986262e+02
2.600000e-06	-1.733128e-06	-8.776200e-09	-1.249628e+01	-5.757963e+02
2.610000e-06	-1.869889e-06	-9.918711e-09	-1.348235e+01	-6.504592e+02
2.620000e-06	-2.005913e-06	-1.100403e-08	-1.446313e+01	-7.215719e+02
2.630000e-06	-2.141162e-06	-1.202159e-08	-1.543830e+01	-7.883579e+02
2.640000e-06	-2.275676e-06	-1.296711e-08	-1.640818e+01	-8.503753e+02
2.650000e-06	-2.409448e-06	-1.384079e-08	-1.737271e+01	-9.075245e+02
2.660000e-06	-2.542243e-06	-1.464556e-08	-1.833020e+01	-9.599992e+02
2.670000e-06	-2.673911e-06	-1.538689e-08	-1.927955e+01	-1.008198e+03
2.680000e-06	-2.804632e-06	-1.607139e-08	-2.022209e+01	-1.052619e+03
2.690000e-06	-2.934415e-06	-1.670843e-08	-2.115785e+01	-1.093762e+03
2.700000e-06	-3.063122e-06	-1.730017e-08	-2.208586e+01	-1.132052e+03
2.710000e-06	-3.190715e-06	-1.784904e-08	-2.300584e+01	-1.167808e+03
2.720000e-06	-3.317190e-06	-1.835858e-08	-2.391775e+01	-1.201236e+03
2.730000e-06	-3.442524e-06	-1.883075e-08	-2.482144e+01	-1.232466e+03
2.740000e-06	-3.566504e-06	-1.926978e-08	-2.571537e+01	-1.261588e+03
2.750000e-06	-3.689210e-06	-1.967982e-08	-2.660010e+01	-1.288700e+03
2.760000e-06	-3.810712e-06	-2.006644e-08	-2.747617e+01	-1.313932e+03
2.770000e-06	-3.930745e-06	-2.043114e-08	-2.834163e+01	-1.337457e+03
2.780000e-06	-4.049301e-06	-2.077438e-08	-2.919645e+01	-1.359479e+03
2.790000e-06	-4.166338e-06	-2.109738e-08	-3.004031e+01	-1.380208e+03
2.800000e-06	-4.281637e-06	-2.139928e-08	-3.087165e+01	-1.399830e+03
2.810000e-06	-4.395268e-06	-2.168237e-08	-3.169096e+01	-1.418480e+03
2.820000e-06	-4.507213e-06	-2.194861e-08	-3.249811e+01	-1.436239e+03
2.830000e-06	-4.617335e-06	-2.220119e-08	-3.329211e+01	-1.453132e+03
2.840000e-06	-4.725831e-06	-2.244375e-08	-3.407440e+01	-1.469151e+03
2.850000e-06	-4.832863e-06	-2.267500e-08	-3.484612e+01	-1.484281e+03
2.860000e-06	-4.938258e-06	-2.289496e-08	-3.560605e+01	-1.498522e+03
2.870000e-06	-5.041845e-06	-2.310330e-08	-3.635294e+01	-1.511907e+03
2.880000e-06	-5.143504e-06	-2.329896e-08	-3.708592e+01	-1.524506e+03
2.890000e-06	-5.243234e-06	-2.348344e-08	-3.780500e+01	-1.536416e+03
2.900000e-06	-5.341153e-06	-2.365878e-08	-3.851102e+01	-1.547740e+03
2.910000e-06	-5.437198e-06	-2.382532e-08	-3.920353e+01	-1.558566e+03
2.920000e-06	-5.531252e-06	-2.398307e-08	-3.988168e+01	-1.568952e+03
2.930000e-06	-5.623269e-06	-2.413166e-08	-4.054514e+01	-1.578915e+03
2.940000e-06	-5.713327e-06	-2.427310e-08	-4.119449e+01	-1.588434e+03
