# Temperatura_=_83.5
# Concentracion g/m^3_=_28200.0
# C_Vs_to_Am_M_A/Vsm_=_65563218390.804596
# pendiente_HvsI_1/m_=_3716.3
# ordenada_HvsI_A/m_=_1297.0
# frecuencia_Hz_=_302373.38001531013

Tiempo_(s)	Campo_(V.s)	Magnetizacion_(V.s)	Campo_(kA/m)	Magnetizacion_(A/m)
0.000000e+00	-7.291959e-06	-3.047978e-08	-5.319193e+01	-1.996289e+03
1.000000e-08	-7.288131e-06	-3.047883e-08	-5.316401e+01	-1.995634e+03
2.000000e-08	-7.281998e-06	-3.046283e-08	-5.311927e+01	-1.994779e+03
3.000000e-08	-7.273516e-06	-3.044505e-08	-5.305740e+01	-1.993753e+03
4.000000e-08	-7.262462e-06	-3.042702e-08	-5.297677e+01	-1.992576e+03
5.000000e-08	-7.248743e-06	-3.040433e-08	-5.287669e+01	-1.991253e+03
6.000000e-08	-7.232325e-06	-3.037332e-08	-5.275692e+01	-1.989774e+03
7.000000e-08	-7.213624e-06	-3.033652e-08	-5.262051e+01	-1.988120e+03
8.000000e-08	-7.192921e-06	-3.031022e-08	-5.246949e+01	-1.986274e+03
9.000000e-08	-7.169733e-06	-3.038009e-08	-5.230034e+01	-1.984233e+03
1.000000e-07	-7.143579e-06	-3.034658e-08	-5.210956e+01	-1.982010e+03
1.100000e-07	-7.114557e-06	-3.022470e-08	-5.189785e+01	-1.979638e+03
1.200000e-07	-7.083018e-06	-3.017174e-08	-5.166779e+01	-1.977158e+03
1.300000e-07	-7.048953e-06	-3.013916e-08	-5.141930e+01	-1.974610e+03
1.400000e-07	-7.012635e-06	-3.004184e-08	-5.115438e+01	-1.972010e+03
1.500000e-07	-6.974519e-06	-2.994727e-08	-5.087633e+01	-1.969345e+03
1.600000e-07	-6.934367e-06	-3.008852e-08	-5.058344e+01	-1.966565e+03
1.700000e-07	-6.891741e-06	-2.997075e-08	-5.027250e+01	-1.963591e+03
1.800000e-07	-6.846767e-06	-2.982820e-08	-4.994443e+01	-1.960330e+03
1.900000e-07	-6.799313e-06	-2.988281e-08	-4.959828e+01	-1.956694e+03
2.000000e-07	-6.749004e-06	-2.970495e-08	-4.923129e+01	-1.952625e+03
2.100000e-07	-6.696014e-06	-2.965427e-08	-4.884475e+01	-1.948107e+03
2.200000e-07	-6.640459e-06	-2.958778e-08	-4.843950e+01	-1.943167e+03
2.300000e-07	-6.582364e-06	-2.945886e-08	-4.801572e+01	-1.937874e+03
2.400000e-07	-6.521877e-06	-2.946005e-08	-4.757449e+01	-1.932312e+03
2.500000e-07	-6.459073e-06	-2.935892e-08	-4.711636e+01	-1.926561e+03
2.600000e-07	-6.393806e-06	-2.927426e-08	-4.664027e+01	-1.920672e+03
2.700000e-07	-6.326025e-06	-2.918733e-08	-4.614583e+01	-1.914652e+03
2.800000e-07	-6.255894e-06	-2.909753e-08	-4.563425e+01	-1.908462e+03
2.900000e-07	-6.183394e-06	-2.897408e-08	-4.510539e+01	-1.902028e+03
3.000000e-07	-6.108403e-06	-2.884422e-08	-4.455836e+01	-1.895258e+03
3.100000e-07	-6.030836e-06	-2.878223e-08	-4.399254e+01	-1.888074e+03
3.200000e-07	-5.950735e-06	-2.863037e-08	-4.340824e+01	-1.880424e+03
3.300000e-07	-5.868424e-06	-2.851791e-08	-4.280781e+01	-1.872304e+03
3.400000e-07	-5.784216e-06	-2.837959e-08	-4.219355e+01	-1.863747e+03
3.500000e-07	-5.698181e-06	-2.824225e-08	-4.156596e+01	-1.854819e+03
3.600000e-07	-5.610230e-06	-2.812997e-08	-4.092439e+01	-1.845588e+03
3.700000e-07	-5.520165e-06	-2.797359e-08	-4.026740e+01	-1.836104e+03
3.800000e-07	-5.428019e-06	-2.782079e-08	-3.959524e+01	-1.826377e+03
3.900000e-07	-5.333995e-06	-2.765075e-08	-3.890936e+01	-1.816376e+03
4.000000e-07	-5.238128e-06	-2.749129e-08	-3.821006e+01	-1.806024e+03
4.100000e-07	-5.140368e-06	-2.731176e-08	-3.749693e+01	-1.795227e+03
4.200000e-07	-5.040734e-06	-2.715385e-08	-3.677014e+01	-1.783893e+03
4.300000e-07	-4.939405e-06	-2.697990e-08	-3.603099e+01	-1.771953e+03
4.400000e-07	-4.836383e-06	-2.678493e-08	-3.527948e+01	-1.759383e+03
4.500000e-07	-4.731638e-06	-2.658722e-08	-3.451541e+01	-1.746198e+03
4.600000e-07	-4.625114e-06	-2.638069e-08	-3.373836e+01	-1.732447e+03
4.700000e-07	-4.516823e-06	-2.616648e-08	-3.294842e+01	-1.718185e+03
4.800000e-07	-4.406985e-06	-2.593985e-08	-3.214719e+01	-1.703450e+03
4.900000e-07	-4.295633e-06	-2.570927e-08	-3.133493e+01	-1.688244e+03
5.000000e-07	-4.182717e-06	-2.545818e-08	-3.051125e+01	-1.672519e+03
5.100000e-07	-4.068101e-06	-2.520012e-08	-2.967518e+01	-1.656184e+03
5.200000e-07	-3.951768e-06	-2.493278e-08	-2.882657e+01	-1.639124e+03
5.300000e-07	-3.833891e-06	-2.466403e-08	-2.796670e+01	-1.621226e+03
5.400000e-07	-3.714620e-06	-2.437783e-08	-2.709667e+01	-1.602401e+03
5.500000e-07	-3.593993e-06	-2.407796e-08	-2.621674e+01	-1.582603e+03
5.600000e-07	-3.471969e-06	-2.376541e-08	-2.532663e+01	-1.561832e+03
5.700000e-07	-3.348507e-06	-2.343441e-08	-2.442602e+01	-1.540114e+03
5.800000e-07	-3.223769e-06	-2.308467e-08	-2.351611e+01	-1.517481e+03
5.900000e-07	-3.097923e-06	-2.271620e-08	-2.259811e+01	-1.493937e+03
6.000000e-07	-2.970932e-06	-2.233793e-08	-2.167177e+01	-1.469430e+03
6.100000e-07	-2.842874e-06	-2.194122e-08	-2.073763e+01	-1.443845e+03
6.200000e-07	-2.713857e-06	-2.153090e-08	-1.979650e+01	-1.417004e+03
6.300000e-07	-2.583865e-06	-2.109961e-08	-1.884826e+01	-1.388694e+03
6.400000e-07	-2.452772e-06	-2.064545e-08	-1.789199e+01	-1.358697e+03
6.500000e-07	-2.320633e-06	-2.016157e-08	-1.692810e+01	-1.326823e+03
6.600000e-07	-2.187767e-06	-1.964679e-08	-1.595889e+01	-1.292929e+03
6.700000e-07	-2.054298e-06	-1.910077e-08	-1.498528e+01	-1.256919e+03
6.800000e-07	-1.920083e-06	-1.852150e-08	-1.400624e+01	-1.218727e+03
6.900000e-07	-1.785156e-06	-1.790637e-08	-1.302200e+01	-1.178275e+03
7.000000e-07	-1.649611e-06	-1.725041e-08	-1.203326e+01	-1.135433e+03
7.100000e-07	-1.513534e-06	-1.655234e-08	-1.104063e+01	-1.089988e+03
7.200000e-07	-1.376962e-06	-1.580616e-08	-1.004439e+01	-1.041636e+03
7.300000e-07	-1.239826e-06	-1.501359e-08	-9.044036e+00	-9.900059e+02
7.400000e-07	-1.102265e-06	-1.416640e-08	-8.040586e+00	-9.347172e+02
7.500000e-07	-9.644025e-07	-1.326286e-08	-7.034931e+00	-8.754624e+02
7.600000e-07	-8.262404e-07	-1.230078e-08	-6.027094e+00	-8.120893e+02
7.700000e-07	-6.878291e-07	-1.127782e-08	-5.017439e+00	-7.446679e+02
7.800000e-07	-5.491214e-07	-1.019723e-08	-4.005622e+00	-6.735185e+02
7.900000e-07	-4.100893e-07	-9.067020e-09	-2.991438e+00	-5.991886e+02
8.000000e-07	-2.707875e-07	-7.897913e-09	-1.975287e+00	-5.223777e+02
8.100000e-07	-1.313370e-07	-6.697284e-09	-9.580509e-01	-4.438227e+02
8.200000e-07	8.161173e-09	-5.478274e-09	5.953250e-02	-3.641668e+02
8.300000e-07	1.477219e-07	-4.250315e-09	1.077572e+00	-2.838429e+02
8.400000e-07	2.872490e-07	-3.017558e-09	2.095367e+00	-2.029988e+02
8.500000e-07	4.266594e-07	-1.776669e-09	3.112310e+00	-1.214874e+02
8.600000e-07	5.659075e-07	-5.229609e-10	4.128069e+00	-3.892645e+01
8.700000e-07	7.049099e-07	7.508669e-10	5.142036e+00	4.517847e+01
8.800000e-07	8.436241e-07	2.055235e-09	6.153901e+00	1.312745e+02
8.900000e-07	9.820545e-07	3.393769e-09	7.163696e+00	2.195975e+02
9.000000e-07	1.120177e-06	4.768367e-09	8.171244e+00	3.100402e+02
9.100000e-07	1.257917e-06	6.172411e-09	9.176003e+00	4.020828e+02
9.200000e-07	1.395200e-06	7.592017e-09	1.017743e+01	4.948026e+02
9.300000e-07	1.531915e-06	9.001798e-09	1.117471e+01	5.869623e+02
9.400000e-07	1.668026e-06	1.037619e-08	1.216759e+01	6.771605e+02
9.500000e-07	1.803529e-06	1.169612e-08	1.315602e+01	7.640131e+02
9.600000e-07	1.938339e-06	1.294174e-08	1.413941e+01	8.463307e+02
9.700000e-07	2.072367e-06	1.410077e-08	1.511709e+01	9.232570e+02
9.800000e-07	2.205633e-06	1.516982e-08	1.608922e+01	9.943445e+02
9.900000e-07	2.338171e-06	1.615194e-08	1.705602e+01	1.059557e+03
1.000000e-06	2.469893e-06	1.705594e-08	1.801688e+01	1.119206e+03
1.010000e-06	2.600652e-06	1.788830e-08	1.897072e+01	1.173839e+03
1.020000e-06	2.730305e-06	1.865692e-08	1.991649e+01	1.224110e+03
1.030000e-06	2.858874e-06	1.936656e-08	2.085434e+01	1.270658e+03
1.040000e-06	2.986462e-06	2.002571e-08	2.178505e+01	1.314021e+03
1.050000e-06	3.112978e-06	2.064009e-08	2.270793e+01	1.354586e+03
1.060000e-06	3.238382e-06	2.121199e-08	2.362271e+01	1.392601e+03
1.070000e-06	3.362755e-06	2.174485e-08	2.452996e+01	1.428202e+03
1.080000e-06	3.485937e-06	2.224247e-08	2.542852e+01	1.461479e+03
1.090000e-06	3.607787e-06	2.270943e-08	2.631737e+01	1.492523e+03
1.100000e-06	3.728306e-06	2.314964e-08	2.719650e+01	1.521468e+03
1.110000e-06	3.847495e-06	2.356400e-08	2.806594e+01	1.548500e+03
1.120000e-06	3.965310e-06	2.395352e-08	2.892536e+01	1.573850e+03
1.130000e-06	4.081684e-06	2.432193e-08	2.977425e+01	1.597757e+03
1.140000e-06	4.196451e-06	2.466965e-08	3.061143e+01	1.620436e+03
1.150000e-06	4.309506e-06	2.500045e-08	3.143613e+01	1.642047e+03
1.160000e-06	4.420982e-06	2.531367e-08	3.224930e+01	1.662679e+03
1.170000e-06	4.530963e-06	2.561131e-08	3.305157e+01	1.682359e+03
1.180000e-06	4.639473e-06	2.589183e-08	3.384311e+01	1.701070e+03
1.190000e-06	4.746335e-06	2.615711e-08	3.462262e+01	1.718783e+03
1.200000e-06	4.851402e-06	2.640857e-08	3.538904e+01	1.735490e+03
1.210000e-06	4.954672e-06	2.664754e-08	3.614236e+01	1.751221e+03
1.220000e-06	5.056211e-06	2.687437e-08	3.688304e+01	1.766051e+03
1.230000e-06	5.155963e-06	2.709057e-08	3.761069e+01	1.780090e+03
1.240000e-06	5.253699e-06	2.729796e-08	3.832364e+01	1.793461e+03
1.250000e-06	5.349415e-06	2.749472e-08	3.902185e+01	1.806273e+03
1.260000e-06	5.443219e-06	2.768044e-08	3.970611e+01	1.818600e+03
1.270000e-06	5.535202e-06	2.785523e-08	4.037709e+01	1.830471e+03
1.280000e-06	5.625247e-06	2.802388e-08	4.103394e+01	1.841872e+03
1.290000e-06	5.713177e-06	2.818664e-08	4.167534e+01	1.852761e+03
1.300000e-06	5.799013e-06	2.834310e-08	4.230149e+01	1.863088e+03
1.310000e-06	5.882852e-06	2.849287e-08	4.291306e+01	1.872818e+03
1.320000e-06	5.964636e-06	2.863579e-08	4.350964e+01	1.881949e+03
1.330000e-06	6.044175e-06	2.877121e-08	4.408984e+01	1.890511e+03
1.340000e-06	6.121440e-06	2.889885e-08	4.465346e+01	1.898567e+03
1.350000e-06	6.196340e-06	2.901988e-08	4.519982e+01	1.906189e+03
1.360000e-06	6.268840e-06	2.913275e-08	4.572868e+01	1.913447e+03
1.370000e-06	6.339099e-06	2.923813e-08	4.624120e+01	1.920389e+03
1.380000e-06	6.407199e-06	2.933726e-08	4.673796e+01	1.927032e+03
1.390000e-06	6.472978e-06	2.943147e-08	4.721779e+01	1.933369e+03
1.400000e-06	6.536366e-06	2.952137e-08	4.768018e+01	1.939372e+03
1.410000e-06	6.597584e-06	2.960611e-08	4.812674e+01	1.945015e+03
1.420000e-06	6.656584e-06	2.968683e-08	4.855712e+01	1.950282e+03
1.430000e-06	6.713188e-06	2.976419e-08	4.897003e+01	1.955182e+03
1.440000e-06	6.767367e-06	2.983669e-08	4.936524e+01	1.959750e+03
1.450000e-06	6.818843e-06	2.990399e-08	4.974074e+01	1.964036e+03
1.460000e-06	6.867458e-06	2.996776e-08	5.009536e+01	1.968093e+03
1.470000e-06	6.913551e-06	3.002833e-08	5.043159e+01	1.971965e+03
1.480000e-06	6.957339e-06	3.008575e-08	5.075101e+01	1.975668e+03
1.490000e-06	6.998600e-06	3.013923e-08	5.105199e+01	1.979189e+03
1.500000e-06	7.037296e-06	3.018791e-08	5.133426e+01	1.982491e+03
1.510000e-06	7.073665e-06	3.023224e-08	5.159957e+01	1.985523e+03
1.520000e-06	7.107560e-06	3.027318e-08	5.184681e+01	1.988234e+03
1.530000e-06	7.138823e-06	3.031210e-08	5.207487e+01	1.990593e+03
1.540000e-06	7.167658e-06	3.034666e-08	5.228521e+01	1.992595e+03
1.550000e-06	7.193901e-06	3.037487e-08	5.247664e+01	1.994265e+03
1.560000e-06	7.217356e-06	3.039858e-08	5.264773e+01	1.995652e+03
1.570000e-06	7.238307e-06	3.041785e-08	5.280056e+01	1.996811e+03
1.580000e-06	7.256818e-06	3.043277e-08	5.293559e+01	1.997794e+03
1.590000e-06	7.272635e-06	3.044414e-08	5.305097e+01	1.998634e+03
1.600000e-06	7.285667e-06	3.045364e-08	5.314603e+01	1.999338e+03
1.610000e-06	7.295810e-06	3.046417e-08	5.322002e+01	1.999891e+03
1.620000e-06	7.303128e-06	3.047407e-08	5.327341e+01	2.000261e+03
1.630000e-06	7.307947e-06	3.047974e-08	5.330856e+01	2.000413e+03
1.640000e-06	7.310229e-06	3.048135e-08	5.332520e+01	2.000323e+03
1.650000e-06	7.309875e-06	3.048108e-08	5.332262e+01	1.999984e+03
1.660000e-06	7.307138e-06	3.046267e-08	5.330265e+01	1.999408e+03
1.670000e-06	7.302017e-06	3.044773e-08	5.326530e+01	1.998620e+03
1.680000e-06	7.294335e-06	3.043722e-08	5.320927e+01	1.997651e+03
1.690000e-06	7.284240e-06	3.042477e-08	5.313562e+01	1.996526e+03
1.700000e-06	7.271571e-06	3.041023e-08	5.304321e+01	1.995255e+03
1.710000e-06	7.256280e-06	3.039746e-08	5.293167e+01	1.993833e+03
1.720000e-06	7.238748e-06	3.039555e-08	5.280378e+01	1.992243e+03
1.730000e-06	7.219194e-06	3.033915e-08	5.266114e+01	1.990466e+03
1.740000e-06	7.197084e-06	3.018930e-08	5.249985e+01	1.988493e+03
1.750000e-06	7.171634e-06	3.020858e-08	5.231421e+01	1.986331e+03
1.760000e-06	7.142785e-06	3.024202e-08	5.210377e+01	1.984006e+03
1.770000e-06	7.111167e-06	3.017430e-08	5.187313e+01	1.981560e+03
1.780000e-06	7.077455e-06	3.017952e-08	5.162721e+01	1.979032e+03
1.790000e-06	7.042107e-06	3.025751e-08	5.136936e+01	1.976449e+03
1.800000e-06	7.005293e-06	3.003105e-08	5.110082e+01	1.973811e+03
1.810000e-06	6.966112e-06	2.999548e-08	5.081501e+01	1.971079e+03
1.820000e-06	6.924164e-06	3.010883e-08	5.050901e+01	1.968183e+03
1.830000e-06	6.879972e-06	2.989667e-08	5.018665e+01	1.965035e+03
1.840000e-06	6.833303e-06	3.003513e-08	4.984622e+01	1.961541e+03
1.850000e-06	6.784045e-06	2.989310e-08	4.948690e+01	1.957630e+03
1.860000e-06	6.732189e-06	2.977944e-08	4.910863e+01	1.953270e+03
1.870000e-06	6.677520e-06	2.985061e-08	4.870985e+01	1.948474e+03
1.880000e-06	6.620439e-06	2.958968e-08	4.829346e+01	1.943297e+03
1.890000e-06	6.560938e-06	2.960281e-08	4.785943e+01	1.937820e+03
1.900000e-06	6.498772e-06	2.948486e-08	4.740595e+01	1.932128e+03
1.910000e-06	6.434133e-06	2.937944e-08	4.693443e+01	1.926284e+03
1.920000e-06	6.367150e-06	2.935344e-08	4.644582e+01	1.920312e+03
1.930000e-06	6.297780e-06	2.919342e-08	4.593980e+01	1.914190e+03
1.940000e-06	6.225956e-06	2.919349e-08	4.541587e+01	1.907852e+03
1.950000e-06	6.151772e-06	2.898305e-08	4.487472e+01	1.901212e+03
1.960000e-06	6.075041e-06	2.890180e-08	4.431500e+01	1.894182e+03
1.970000e-06	5.995753e-06	2.879360e-08	4.373662e+01	1.886701e+03
1.980000e-06	5.914323e-06	2.864549e-08	4.314262e+01	1.878746e+03
1.990000e-06	5.830905e-06	2.859070e-08	4.253413e+01	1.870338e+03
2.000000e-06	5.745415e-06	2.840103e-08	4.191051e+01	1.861534e+03
2.010000e-06	5.657725e-06	2.831034e-08	4.127085e+01	1.852403e+03
2.020000e-06	5.568018e-06	2.813502e-08	4.061647e+01	1.843004e+03
2.030000e-06	5.476447e-06	2.800519e-08	3.994849e+01	1.833365e+03
2.040000e-06	5.382973e-06	2.786283e-08	3.926664e+01	1.823468e+03
2.050000e-06	5.287532e-06	2.770011e-08	3.857043e+01	1.813251e+03
2.060000e-06	5.190258e-06	2.753978e-08	3.786086e+01	1.802624e+03
2.070000e-06	5.091303e-06	2.733548e-08	3.713902e+01	1.791490e+03
2.080000e-06	4.990535e-06	2.717818e-08	3.640396e+01	1.779771e+03
2.090000e-06	4.887826e-06	2.697862e-08	3.565474e+01	1.767425e+03
2.100000e-06	4.783279e-06	2.680348e-08	3.489211e+01	1.754455e+03
2.110000e-06	4.677209e-06	2.659643e-08	3.411838e+01	1.740899e+03
2.120000e-06	4.569616e-06	2.638796e-08	3.333353e+01	1.726812e+03
2.130000e-06	4.460443e-06	2.615938e-08	3.253715e+01	1.712243e+03
2.140000e-06	4.349618e-06	2.592922e-08	3.172873e+01	1.697207e+03
2.150000e-06	4.237065e-06	2.569534e-08	3.090770e+01	1.681675e+03
2.160000e-06	4.122857e-06	2.544527e-08	3.007459e+01	1.665570e+03
2.170000e-06	4.006998e-06	2.519047e-08	2.922945e+01	1.648782e+03
2.180000e-06	3.889540e-06	2.491256e-08	2.837264e+01	1.631195e+03
2.190000e-06	3.770490e-06	2.463617e-08	2.750422e+01	1.612707e+03
2.200000e-06	3.649928e-06	2.434138e-08	2.662477e+01	1.593259e+03
2.210000e-06	3.527992e-06	2.404260e-08	2.573529e+01	1.572832e+03
2.220000e-06	3.404750e-06	2.372084e-08	2.483629e+01	1.551447e+03
2.230000e-06	3.280291e-06	2.339030e-08	2.392842e+01	1.529138e+03
2.240000e-06	3.154685e-06	2.303719e-08	2.301217e+01	1.505921e+03
2.250000e-06	3.027870e-06	2.267108e-08	2.208711e+01	1.481767e+03
2.260000e-06	2.899814e-06	2.228364e-08	2.115299e+01	1.456583e+03
2.270000e-06	2.770727e-06	2.187518e-08	2.021135e+01	1.430213e+03
2.280000e-06	2.640721e-06	2.144761e-08	1.926301e+01	1.402453e+03
2.290000e-06	2.509772e-06	2.099580e-08	1.830779e+01	1.373082e+03
2.300000e-06	2.377955e-06	2.052151e-08	1.734623e+01	1.341897e+03
2.310000e-06	2.245341e-06	2.002019e-08	1.637886e+01	1.308736e+03
2.320000e-06	2.111977e-06	1.949192e-08	1.540603e+01	1.273489e+03
2.330000e-06	1.977901e-06	1.892287e-08	1.442800e+01	1.236083e+03
2.340000e-06	1.843113e-06	1.831811e-08	1.344478e+01	1.196449e+03
2.350000e-06	1.707578e-06	1.767766e-08	1.245610e+01	1.154479e+03
2.360000e-06	1.571365e-06	1.700124e-08	1.146248e+01	1.109994e+03
2.370000e-06	1.434664e-06	1.627968e-08	1.046530e+01	1.062720e+03
2.380000e-06	1.297600e-06	1.550608e-08	9.465472e+00	1.012304e+03
2.390000e-06	1.160184e-06	1.467707e-08	8.463081e+00	9.583617e+02
2.400000e-06	1.022397e-06	1.379261e-08	7.457980e+00	9.005498e+02
2.410000e-06	8.842964e-07	1.285148e-08	6.450590e+00	8.386513e+02
2.420000e-06	7.458230e-07	1.185124e-08	5.440481e+00	7.726512e+02
2.430000e-06	6.069734e-07	1.079442e-08	4.427628e+00	7.027803e+02
2.440000e-06	4.679058e-07	9.684606e-09	3.413186e+00	6.295109e+02
2.450000e-06	3.286562e-07	8.524559e-09	2.397416e+00	5.534999e+02
2.460000e-06	1.892521e-07	7.325937e-09	1.380519e+00	4.754854e+02
2.470000e-06	4.977907e-08	6.104961e-09	3.631184e-01	3.961592e+02
2.480000e-06	-8.971412e-08	4.874055e-09	-6.544287e-01	3.160404e+02
2.490000e-06	-2.292101e-07	3.636550e-09	-1.671996e+00	2.353834e+02
2.500000e-06	-3.686541e-07	2.390872e-09	-2.689185e+00	1.541433e+02
2.510000e-06	-5.079867e-07	1.136961e-09	-3.705561e+00	7.201046e+01
2.520000e-06	-6.471498e-07	-1.319326e-10	-4.720699e+00	-1.148642e+01
2.530000e-06	-7.861118e-07	-1.428033e-09	-5.734372e+00	-9.683083e+01
2.540000e-06	-9.247743e-07	-2.760935e-09	-6.745859e+00	-1.843516e+02
2.550000e-06	-1.063007e-06	-4.129327e-09	-7.754214e+00	-2.740756e+02
2.560000e-06	-1.200817e-06	-5.529695e-09	-8.759477e+00	-3.656337e+02
2.570000e-06	-1.338229e-06	-6.953248e-09	-9.761850e+00	-4.582409e+02
2.580000e-06	-1.475253e-06	-8.379313e-09	-1.076138e+01	-5.507575e+02
2.590000e-06	-1.611799e-06	-9.780944e-09	-1.175743e+01	-6.418208e+02
2.600000e-06	-1.747670e-06	-1.113262e-08	-1.274856e+01	-7.300192e+02
2.610000e-06	-1.882747e-06	-1.241693e-08	-1.373389e+01	-8.140751e+02
2.620000e-06	-2.016987e-06	-1.361938e-08	-1.471311e+01	-8.930011e+02
2.630000e-06	-2.150444e-06	-1.473223e-08	-1.568663e+01	-9.661995e+02
2.640000e-06	-2.283166e-06	-1.575789e-08	-1.665479e+01	-1.033491e+03
2.650000e-06	-2.415075e-06	-1.670404e-08	-1.761701e+01	-1.095075e+03
2.660000e-06	-2.546070e-06	-1.757658e-08	-1.857257e+01	-1.151427e+03
2.670000e-06	-2.676081e-06	-1.837958e-08	-1.952094e+01	-1.203180e+03
2.680000e-06	-2.805191e-06	-1.912002e-08	-2.046275e+01	-1.250991e+03
2.690000e-06	-2.933364e-06	-1.980443e-08	-2.139772e+01	-1.295439e+03
2.700000e-06	-3.060432e-06	-2.044161e-08	-2.232463e+01	-1.336970e+03
2.710000e-06	-3.186346e-06	-2.103732e-08	-2.324312e+01	-1.375876e+03
2.720000e-06	-3.311140e-06	-2.159636e-08	-2.415344e+01	-1.412328e+03
2.730000e-06	-3.434726e-06	-2.211799e-08	-2.505496e+01	-1.446427e+03
2.740000e-06	-3.557006e-06	-2.260083e-08	-2.594694e+01	-1.478257e+03
2.750000e-06	-3.678043e-06	-2.305173e-08	-2.682986e+01	-1.507933e+03
2.760000e-06	-3.797774e-06	-2.347518e-08	-2.770325e+01	-1.535624e+03
2.770000e-06	-3.916018e-06	-2.387530e-08	-2.856579e+01	-1.561548e+03
2.780000e-06	-4.032709e-06	-2.425426e-08	-2.941700e+01	-1.585945e+03
2.790000e-06	-4.147851e-06	-2.461203e-08	-3.025692e+01	-1.609041e+03
2.800000e-06	-4.261331e-06	-2.494932e-08	-3.108471e+01	-1.631020e+03
2.810000e-06	-4.373044e-06	-2.526846e-08	-3.189961e+01	-1.651997e+03
2.820000e-06	-4.483086e-06	-2.557053e-08	-3.270232e+01	-1.672018e+03
2.830000e-06	-4.591611e-06	-2.585811e-08	-3.349397e+01	-1.691079e+03
2.840000e-06	-4.698664e-06	-2.613339e-08	-3.427488e+01	-1.709152e+03
2.850000e-06	-4.804199e-06	-2.639213e-08	-3.504471e+01	-1.726218e+03
2.860000e-06	-4.908027e-06	-2.663396e-08	-3.580210e+01	-1.742292e+03
2.870000e-06	-5.009950e-06	-2.686458e-08	-3.654559e+01	-1.757433e+03
2.880000e-06	-5.109983e-06	-2.708830e-08	-3.727529e+01	-1.771742e+03
2.890000e-06	-5.208245e-06	-2.730402e-08	-3.799207e+01	-1.785338e+03
2.900000e-06	-5.304696e-06	-2.750726e-08	-3.869564e+01	-1.798340e+03
2.910000e-06	-5.399163e-06	-2.769978e-08	-3.938474e+01	-1.810835e+03
2.920000e-06	-5.491668e-06	-2.788461e-08	-4.005953e+01	-1.822869e+03
2.930000e-06	-5.582283e-06	-2.806002e-08	-4.072053e+01	-1.834443e+03
2.940000e-06	-5.670895e-06	-2.822500e-08	-4.136692e+01	-1.845522e+03
