# Temperatura_=_84.92
# Concentracion g/m^3_=_28200.0
# C_Vs_to_Am_M_A/Vsm_=_65563218390.804596
# pendiente_HvsI_1/m_=_3716.3
# ordenada_HvsI_A/m_=_1297.0
# frecuencia_Hz_=_302374.4693437392

Tiempo_(s)	Campo_(V.s)	Magnetizacion_(V.s)	Campo_(kA/m)	Magnetizacion_(A/m)
0.000000e+00	-7.319077e-06	-3.048498e-08	-5.319208e+01	-1.996419e+03
1.000000e-08	-7.315371e-06	-3.047982e-08	-5.316514e+01	-1.995750e+03
2.000000e-08	-7.309290e-06	-3.046487e-08	-5.312095e+01	-1.994890e+03
3.000000e-08	-7.300871e-06	-3.044703e-08	-5.305977e+01	-1.993877e+03
4.000000e-08	-7.289913e-06	-3.043023e-08	-5.298013e+01	-1.992732e+03
5.000000e-08	-7.276240e-06	-3.041099e-08	-5.288076e+01	-1.991460e+03
6.000000e-08	-7.259891e-06	-3.038753e-08	-5.276194e+01	-1.990049e+03
7.000000e-08	-7.241279e-06	-3.036035e-08	-5.262667e+01	-1.988474e+03
8.000000e-08	-7.220622e-06	-3.033523e-08	-5.247654e+01	-1.986710e+03
9.000000e-08	-7.197465e-06	-3.035739e-08	-5.230825e+01	-1.984745e+03
1.000000e-07	-7.171338e-06	-3.033743e-08	-5.211837e+01	-1.982585e+03
1.100000e-07	-7.142354e-06	-3.024355e-08	-5.190773e+01	-1.980259e+03
1.200000e-07	-7.110863e-06	-3.018067e-08	-5.167886e+01	-1.977808e+03
1.300000e-07	-7.076893e-06	-3.014503e-08	-5.143198e+01	-1.975272e+03
1.400000e-07	-7.040645e-06	-3.007980e-08	-5.116854e+01	-1.972679e+03
1.500000e-07	-7.002510e-06	-2.999955e-08	-5.089140e+01	-1.970025e+03
1.600000e-07	-6.962303e-06	-3.002969e-08	-5.059919e+01	-1.967273e+03
1.700000e-07	-6.919634e-06	-2.998333e-08	-5.028909e+01	-1.964355e+03
1.800000e-07	-6.874526e-06	-2.984109e-08	-4.996126e+01	-1.961186e+03
1.900000e-07	-6.826943e-06	-2.983791e-08	-4.961545e+01	-1.957680e+03
2.000000e-07	-6.776574e-06	-2.975030e-08	-4.924939e+01	-1.953774e+03
2.100000e-07	-6.723450e-06	-2.967348e-08	-4.886330e+01	-1.949440e+03
2.200000e-07	-6.667833e-06	-2.963618e-08	-4.845910e+01	-1.944691e+03
2.300000e-07	-6.609704e-06	-2.952575e-08	-4.803664e+01	-1.939579e+03
2.400000e-07	-6.549092e-06	-2.947811e-08	-4.759614e+01	-1.934172e+03
2.500000e-07	-6.486107e-06	-2.937812e-08	-4.713839e+01	-1.928541e+03
2.600000e-07	-6.420651e-06	-2.928875e-08	-4.666268e+01	-1.922734e+03
2.700000e-07	-6.352717e-06	-2.920696e-08	-4.616897e+01	-1.916760e+03
2.800000e-07	-6.282457e-06	-2.910899e-08	-4.565835e+01	-1.910592e+03
2.900000e-07	-6.209847e-06	-2.900709e-08	-4.513064e+01	-1.904169e+03
3.000000e-07	-6.134665e-06	-2.888887e-08	-4.458425e+01	-1.897417e+03
3.100000e-07	-6.056855e-06	-2.879381e-08	-4.401876e+01	-1.890268e+03
3.200000e-07	-5.976571e-06	-2.866159e-08	-4.343529e+01	-1.882680e+03
3.300000e-07	-5.894136e-06	-2.854401e-08	-4.283619e+01	-1.874647e+03
3.400000e-07	-5.809835e-06	-2.842472e-08	-4.222352e+01	-1.866201e+03
3.500000e-07	-5.723612e-06	-2.828759e-08	-4.159689e+01	-1.857394e+03
3.600000e-07	-5.635392e-06	-2.816518e-08	-4.095574e+01	-1.848283e+03
3.700000e-07	-5.545092e-06	-2.801785e-08	-4.029947e+01	-1.838907e+03
3.800000e-07	-5.452737e-06	-2.786393e-08	-3.962828e+01	-1.829269e+03
3.900000e-07	-5.358472e-06	-2.770584e-08	-3.894320e+01	-1.819334e+03
4.000000e-07	-5.262364e-06	-2.754409e-08	-3.824472e+01	-1.809031e+03
4.100000e-07	-5.164331e-06	-2.737560e-08	-3.753226e+01	-1.798273e+03
4.200000e-07	-5.064442e-06	-2.720528e-08	-3.680631e+01	-1.786978e+03
4.300000e-07	-4.962852e-06	-2.702932e-08	-3.606799e+01	-1.775090e+03
4.400000e-07	-4.859521e-06	-2.683366e-08	-3.531702e+01	-1.762591e+03
4.500000e-07	-4.754473e-06	-2.663399e-08	-3.455358e+01	-1.749501e+03
4.600000e-07	-4.647650e-06	-2.642987e-08	-3.377723e+01	-1.735865e+03
4.700000e-07	-4.539131e-06	-2.621849e-08	-3.298856e+01	-1.721734e+03
4.800000e-07	-4.429052e-06	-2.599894e-08	-3.218855e+01	-1.707138e+03
4.900000e-07	-4.317398e-06	-2.576956e-08	-3.137710e+01	-1.692068e+03
5.000000e-07	-4.204073e-06	-2.552837e-08	-3.055350e+01	-1.676472e+03
5.100000e-07	-4.088944e-06	-2.527262e-08	-2.971678e+01	-1.660255e+03
5.200000e-07	-3.972143e-06	-2.500628e-08	-2.886792e+01	-1.643302e+03
5.300000e-07	-3.853877e-06	-2.473087e-08	-2.800841e+01	-1.625503e+03
5.400000e-07	-3.734216e-06	-2.444472e-08	-2.713876e+01	-1.606774e+03
5.500000e-07	-3.613192e-06	-2.414611e-08	-2.625921e+01	-1.587077e+03
5.600000e-07	-3.490737e-06	-2.383249e-08	-2.536926e+01	-1.566412e+03
5.700000e-07	-3.366894e-06	-2.350225e-08	-2.446922e+01	-1.544811e+03
5.800000e-07	-3.241805e-06	-2.315664e-08	-2.356012e+01	-1.522301e+03
5.900000e-07	-3.115603e-06	-2.279934e-08	-2.264294e+01	-1.498884e+03
6.000000e-07	-2.988291e-06	-2.242570e-08	-2.171768e+01	-1.474505e+03
6.100000e-07	-2.859834e-06	-2.203377e-08	-2.078411e+01	-1.449042e+03
6.200000e-07	-2.730330e-06	-2.162193e-08	-1.984293e+01	-1.422316e+03
6.300000e-07	-2.599791e-06	-2.118591e-08	-1.889422e+01	-1.394115e+03
6.400000e-07	-2.468242e-06	-2.072511e-08	-1.793818e+01	-1.364219e+03
6.500000e-07	-2.335782e-06	-2.023884e-08	-1.697552e+01	-1.332442e+03
6.600000e-07	-2.202575e-06	-1.972859e-08	-1.600742e+01	-1.298644e+03
6.700000e-07	-2.068733e-06	-1.918904e-08	-1.503471e+01	-1.262731e+03
6.800000e-07	-1.934144e-06	-1.861458e-08	-1.405657e+01	-1.224638e+03
6.900000e-07	-1.798763e-06	-1.799994e-08	-1.307268e+01	-1.184286e+03
7.000000e-07	-1.662745e-06	-1.734437e-08	-1.208416e+01	-1.141544e+03
7.100000e-07	-1.526167e-06	-1.664631e-08	-1.109156e+01	-1.096193e+03
7.200000e-07	-1.389047e-06	-1.590261e-08	-1.009503e+01	-1.047926e+03
7.300000e-07	-1.251409e-06	-1.510956e-08	-9.094733e+00	-9.963669e+02
7.400000e-07	-1.113285e-06	-1.426230e-08	-8.090904e+00	-9.411322e+02
7.500000e-07	-9.748042e-07	-1.336017e-08	-7.084481e+00	-8.819107e+02
7.600000e-07	-8.360353e-07	-1.239916e-08	-6.075965e+00	-8.185473e+02
7.700000e-07	-6.969446e-07	-1.137841e-08	-5.065110e+00	-7.511097e+02
7.800000e-07	-5.575087e-07	-1.029914e-08	-4.051747e+00	-6.799165e+02
7.900000e-07	-4.178589e-07	-9.168918e-09	-3.036829e+00	-6.055149e+02
8.000000e-07	-2.780181e-07	-7.996655e-09	-2.020522e+00	-5.286057e+02
8.100000e-07	-1.380186e-07	-6.792864e-09	-1.003063e+00	-4.499294e+02
8.200000e-07	2.060603e-09	-5.570558e-09	1.497563e-02	-3.701359e+02
8.300000e-07	1.421958e-07	-4.338556e-09	1.033421e+00	-2.896669e+02
8.400000e-07	2.822757e-07	-3.102539e-09	2.051465e+00	-2.086810e+02
8.500000e-07	4.223157e-07	-1.861021e-09	3.069219e+00	-1.270415e+02
8.600000e-07	5.621904e-07	-6.075320e-10	4.085771e+00	-4.437478e+01
8.700000e-07	7.017999e-07	6.676817e-10	5.100397e+00	3.980988e+01
8.800000e-07	8.411809e-07	1.972371e-09	6.113361e+00	1.259618e+02
8.900000e-07	9.802355e-07	3.312950e-09	7.123954e+00	2.143258e+02
9.000000e-07	1.118925e-06	4.689748e-09	8.131894e+00	3.048101e+02
9.100000e-07	1.257237e-06	6.096395e-09	9.137086e+00	3.969142e+02
9.200000e-07	1.395060e-06	7.518340e-09	1.013873e+01	4.897357e+02
9.300000e-07	1.532360e-06	8.931527e-09	1.113657e+01	5.820548e+02
9.400000e-07	1.669114e-06	1.031182e-08	1.213044e+01	6.724811e+02
9.500000e-07	1.805187e-06	1.163590e-08	1.311937e+01	7.596327e+02
9.600000e-07	1.940463e-06	1.288513e-08	1.410250e+01	8.423126e+02
9.700000e-07	2.074951e-06	1.404836e-08	1.507990e+01	9.196485e+02
9.800000e-07	2.208711e-06	1.512226e-08	1.605202e+01	9.911705e+02
9.900000e-07	2.341760e-06	1.611121e-08	1.701896e+01	1.056818e+03
1.000000e-06	2.473998e-06	1.702323e-08	1.798001e+01	1.116879e+03
1.010000e-06	2.605304e-06	1.786449e-08	1.893429e+01	1.171886e+03
1.020000e-06	2.735594e-06	1.863990e-08	1.988118e+01	1.222482e+03
1.030000e-06	2.864803e-06	1.935224e-08	2.082022e+01	1.269305e+03
1.040000e-06	2.992833e-06	2.001174e-08	2.175069e+01	1.312898e+03
1.050000e-06	3.119708e-06	2.062720e-08	2.267277e+01	1.353661e+03
1.060000e-06	3.245558e-06	2.120287e-08	2.358740e+01	1.391850e+03
1.070000e-06	3.370337e-06	2.174202e-08	2.449424e+01	1.427615e+03
1.080000e-06	3.493959e-06	2.224511e-08	2.539267e+01	1.461049e+03
1.090000e-06	3.616344e-06	2.271417e-08	2.628212e+01	1.492247e+03
1.100000e-06	3.737363e-06	2.315473e-08	2.716163e+01	1.521339e+03
1.110000e-06	3.856941e-06	2.356990e-08	2.803068e+01	1.548508e+03
1.120000e-06	3.975148e-06	2.396167e-08	2.888976e+01	1.573978e+03
1.130000e-06	4.091974e-06	2.433195e-08	2.973880e+01	1.597987e+03
1.140000e-06	4.207303e-06	2.468058e-08	3.057697e+01	1.620747e+03
1.150000e-06	4.321009e-06	2.501106e-08	3.140334e+01	1.642421e+03
1.160000e-06	4.433001e-06	2.532496e-08	3.221725e+01	1.663104e+03
1.170000e-06	4.543392e-06	2.562180e-08	3.301953e+01	1.682825e+03
1.180000e-06	4.652278e-06	2.590190e-08	3.381087e+01	1.701573e+03
1.190000e-06	4.759614e-06	2.616868e-08	3.459094e+01	1.719322e+03
1.200000e-06	4.865202e-06	2.642205e-08	3.535831e+01	1.736062e+03
1.210000e-06	4.968975e-06	2.666200e-08	3.611249e+01	1.751820e+03
1.220000e-06	5.071016e-06	2.688886e-08	3.685408e+01	1.766669e+03
1.230000e-06	5.171284e-06	2.710540e-08	3.758279e+01	1.780713e+03
1.240000e-06	5.269558e-06	2.731143e-08	3.829701e+01	1.794074e+03
1.250000e-06	5.365735e-06	2.750600e-08	3.899598e+01	1.806862e+03
1.260000e-06	5.459967e-06	2.769029e-08	3.968082e+01	1.819156e+03
1.270000e-06	5.552346e-06	2.786574e-08	4.035219e+01	1.830992e+03
1.280000e-06	5.642784e-06	2.803462e-08	4.100946e+01	1.842361e+03
1.290000e-06	5.731105e-06	2.819812e-08	4.165134e+01	1.853228e+03
1.300000e-06	5.817292e-06	2.835609e-08	4.227771e+01	1.863545e+03
1.310000e-06	5.901469e-06	2.850700e-08	4.288948e+01	1.873277e+03
1.320000e-06	5.983592e-06	2.865058e-08	4.348632e+01	1.882417e+03
1.330000e-06	6.063496e-06	2.878469e-08	4.406703e+01	1.890988e+03
1.340000e-06	6.141158e-06	2.890978e-08	4.463144e+01	1.899044e+03
1.350000e-06	6.216500e-06	2.902704e-08	4.517900e+01	1.906652e+03
1.360000e-06	6.289390e-06	2.913809e-08	4.570873e+01	1.913876e+03
1.370000e-06	6.359965e-06	2.924426e-08	4.622164e+01	1.920766e+03
1.380000e-06	6.428368e-06	2.934383e-08	4.671877e+01	1.927345e+03
1.390000e-06	6.494451e-06	2.943800e-08	4.719903e+01	1.933611e+03
1.400000e-06	6.558211e-06	2.952838e-08	4.766241e+01	1.939547e+03
1.410000e-06	6.619788e-06	2.961346e-08	4.810993e+01	1.945134e+03
1.420000e-06	6.679096e-06	2.969415e-08	4.854096e+01	1.950361e+03
1.430000e-06	6.735975e-06	2.977048e-08	4.895433e+01	1.955240e+03
1.440000e-06	6.790411e-06	2.984051e-08	4.934995e+01	1.959802e+03
1.450000e-06	6.842220e-06	2.990480e-08	4.972647e+01	1.964091e+03
1.460000e-06	6.891196e-06	2.996579e-08	5.008242e+01	1.968154e+03
1.470000e-06	6.937614e-06	3.002604e-08	5.041976e+01	1.972026e+03
1.480000e-06	6.981701e-06	3.008527e-08	5.074016e+01	1.975719e+03
1.490000e-06	7.023234e-06	3.014068e-08	5.104201e+01	1.979219e+03
1.500000e-06	7.062144e-06	3.019094e-08	5.132479e+01	1.982490e+03
1.510000e-06	7.098653e-06	3.023517e-08	5.159012e+01	1.985487e+03
1.520000e-06	7.132697e-06	3.027359e-08	5.183754e+01	1.988166e+03
1.530000e-06	7.164139e-06	3.030698e-08	5.206605e+01	1.990504e+03
1.540000e-06	7.193114e-06	3.033782e-08	5.227663e+01	1.992500e+03
1.550000e-06	7.219548e-06	3.036621e-08	5.246874e+01	1.994182e+03
1.560000e-06	7.243271e-06	3.039024e-08	5.264115e+01	1.995598e+03
1.570000e-06	7.264453e-06	3.041147e-08	5.279509e+01	1.996800e+03
1.580000e-06	7.283163e-06	3.042979e-08	5.293107e+01	1.997833e+03
1.590000e-06	7.299110e-06	3.044430e-08	5.304697e+01	1.998722e+03
1.600000e-06	7.312272e-06	3.045556e-08	5.314262e+01	1.999468e+03
1.610000e-06	7.322646e-06	3.046429e-08	5.321802e+01	2.000050e+03
1.620000e-06	7.330183e-06	3.046935e-08	5.327280e+01	2.000433e+03
1.630000e-06	7.335085e-06	3.047107e-08	5.330842e+01	2.000585e+03
1.640000e-06	7.337394e-06	3.047097e-08	5.332520e+01	2.000482e+03
1.650000e-06	7.337107e-06	3.047086e-08	5.332311e+01	2.000125e+03
1.660000e-06	7.334410e-06	3.046205e-08	5.330351e+01	1.999531e+03
1.670000e-06	7.329266e-06	3.044954e-08	5.326613e+01	1.998734e+03
1.680000e-06	7.321569e-06	3.043762e-08	5.321019e+01	1.997771e+03
1.690000e-06	7.311473e-06	3.042320e-08	5.313682e+01	1.996670e+03
1.700000e-06	7.298834e-06	3.040653e-08	5.304496e+01	1.995444e+03
1.710000e-06	7.283606e-06	3.038980e-08	5.293429e+01	1.994084e+03
1.720000e-06	7.266141e-06	3.037591e-08	5.280736e+01	1.992570e+03
1.730000e-06	7.246608e-06	3.033641e-08	5.266540e+01	1.990875e+03
1.740000e-06	7.224504e-06	3.023242e-08	5.250476e+01	1.988981e+03
1.750000e-06	7.199133e-06	3.021508e-08	5.232037e+01	1.986888e+03
1.760000e-06	7.170392e-06	3.023727e-08	5.211149e+01	1.984616e+03
1.770000e-06	7.138808e-06	3.019396e-08	5.188195e+01	1.982204e+03
1.780000e-06	7.105086e-06	3.016439e-08	5.163688e+01	1.979693e+03
1.790000e-06	7.069636e-06	3.019974e-08	5.137924e+01	1.977118e+03
1.800000e-06	7.032564e-06	3.010399e-08	5.110982e+01	1.974488e+03
1.810000e-06	6.993265e-06	3.002726e-08	5.082421e+01	1.971776e+03
1.820000e-06	6.951299e-06	3.011068e-08	5.051922e+01	1.968926e+03
1.830000e-06	6.907039e-06	2.999187e-08	5.019755e+01	1.965857e+03
1.840000e-06	6.860323e-06	2.999132e-08	4.985804e+01	1.962479e+03
1.850000e-06	6.811001e-06	2.993109e-08	4.949959e+01	1.958720e+03
1.860000e-06	6.759088e-06	2.978154e-08	4.912231e+01	1.954538e+03
1.870000e-06	6.704374e-06	2.979467e-08	4.872467e+01	1.949933e+03
1.880000e-06	6.647193e-06	2.963934e-08	4.830910e+01	1.944942e+03
1.890000e-06	6.587582e-06	2.959795e-08	4.787587e+01	1.939631e+03
1.900000e-06	6.525270e-06	2.954531e-08	4.742301e+01	1.934073e+03
1.910000e-06	6.460457e-06	2.942349e-08	4.695198e+01	1.928324e+03
1.920000e-06	6.393336e-06	2.938068e-08	4.646417e+01	1.922410e+03
1.930000e-06	6.323872e-06	2.923753e-08	4.595934e+01	1.916316e+03
1.940000e-06	6.251921e-06	2.917840e-08	4.543643e+01	1.909992e+03
1.950000e-06	6.177559e-06	2.904660e-08	4.489599e+01	1.903365e+03
1.960000e-06	6.100714e-06	2.892843e-08	4.433751e+01	1.896363e+03
1.970000e-06	6.021342e-06	2.883986e-08	4.376066e+01	1.888933e+03
1.980000e-06	5.939768e-06	2.868922e-08	4.316782e+01	1.881057e+03
1.990000e-06	5.856169e-06	2.860737e-08	4.256026e+01	1.872752e+03
2.000000e-06	5.770502e-06	2.844967e-08	4.193766e+01	1.864067e+03
2.010000e-06	5.682638e-06	2.833213e-08	4.129911e+01	1.855058e+03
2.020000e-06	5.592693e-06	2.818984e-08	4.064542e+01	1.845773e+03
2.030000e-06	5.500865e-06	2.804083e-08	3.997805e+01	1.836230e+03
2.040000e-06	5.407088e-06	2.789889e-08	3.929652e+01	1.826407e+03
2.050000e-06	5.311354e-06	2.772578e-08	3.860076e+01	1.816243e+03
2.060000e-06	5.213818e-06	2.756933e-08	3.789191e+01	1.805657e+03
2.070000e-06	5.114576e-06	2.737932e-08	3.717066e+01	1.794562e+03
2.080000e-06	5.013474e-06	2.721514e-08	3.643589e+01	1.782889e+03
2.090000e-06	4.910376e-06	2.703113e-08	3.568662e+01	1.770607e+03
2.100000e-06	4.805517e-06	2.685064e-08	3.492455e+01	1.757723e+03
2.110000e-06	4.699103e-06	2.665183e-08	3.415117e+01	1.744275e+03
2.120000e-06	4.591202e-06	2.643780e-08	3.336699e+01	1.730315e+03
2.130000e-06	4.481758e-06	2.621261e-08	3.257160e+01	1.715883e+03
2.140000e-06	4.370618e-06	2.597433e-08	3.176387e+01	1.700985e+03
2.150000e-06	4.257756e-06	2.573861e-08	3.094364e+01	1.685585e+03
2.160000e-06	4.143209e-06	2.549192e-08	3.011116e+01	1.669601e+03
2.170000e-06	4.026984e-06	2.524307e-08	2.926648e+01	1.652924e+03
2.180000e-06	3.909101e-06	2.497341e-08	2.840976e+01	1.635438e+03
2.190000e-06	3.789587e-06	2.469806e-08	2.754118e+01	1.617047e+03
2.200000e-06	3.668596e-06	2.440818e-08	2.666186e+01	1.597697e+03
2.210000e-06	3.546264e-06	2.410932e-08	2.577280e+01	1.577374e+03
2.220000e-06	3.422652e-06	2.379105e-08	2.487444e+01	1.556102e+03
2.230000e-06	3.297807e-06	2.345681e-08	2.396712e+01	1.533914e+03
2.240000e-06	3.171724e-06	2.310335e-08	2.305080e+01	1.510824e+03
2.250000e-06	3.044463e-06	2.273255e-08	2.212592e+01	1.486797e+03
2.260000e-06	2.916074e-06	2.234675e-08	2.119284e+01	1.461738e+03
2.270000e-06	2.786642e-06	2.194394e-08	2.025218e+01	1.435486e+03
2.280000e-06	2.656233e-06	2.152379e-08	1.930442e+01	1.407837e+03
2.290000e-06	2.524819e-06	2.107850e-08	1.834936e+01	1.378569e+03
2.300000e-06	2.392499e-06	2.060780e-08	1.738771e+01	1.347482e+03
2.310000e-06	2.259406e-06	2.010525e-08	1.642044e+01	1.314417e+03
2.320000e-06	2.125593e-06	1.957184e-08	1.544795e+01	1.279267e+03
2.330000e-06	1.991022e-06	1.900439e-08	1.446994e+01	1.241960e+03
2.340000e-06	1.855744e-06	1.840473e-08	1.348679e+01	1.202425e+03
2.350000e-06	1.719834e-06	1.776759e-08	1.249905e+01	1.160555e+03
2.360000e-06	1.583297e-06	1.709099e-08	1.150676e+01	1.116166e+03
2.370000e-06	1.446213e-06	1.637049e-08	1.051049e+01	1.068981e+03
2.380000e-06	1.308721e-06	1.559708e-08	9.511256e+00	1.018642e+03
2.390000e-06	1.170838e-06	1.476808e-08	8.509174e+00	9.647602e+02
2.400000e-06	1.032528e-06	1.388500e-08	7.503996e+00	9.069893e+02
2.410000e-06	8.938451e-07	1.294484e-08	6.496103e+00	8.451092e+02
2.420000e-06	7.548305e-07	1.194387e-08	5.485801e+00	7.791023e+02
2.430000e-06	6.155242e-07	1.088541e-08	4.473379e+00	7.091975e+02
2.440000e-06	4.759822e-07	9.774944e-09	3.459245e+00	6.358664e+02
2.450000e-06	3.362142e-07	8.615477e-09	2.443469e+00	5.597662e+02
2.460000e-06	1.962545e-07	7.415845e-09	1.426298e+00	4.816381e+02
2.470000e-06	5.618564e-08	6.192696e-09	4.083344e-01	4.021791e+02
2.480000e-06	-8.395498e-08	4.959895e-09	-6.101507e-01	3.219167e+02
2.490000e-06	-2.240523e-07	3.721691e-09	-1.628321e+00	2.411154e+02
2.500000e-06	-3.640400e-07	2.475323e-09	-2.645695e+00	1.597411e+02
2.510000e-06	-5.039165e-07	1.219905e-09	-3.662261e+00	7.749380e+01
2.520000e-06	-6.436174e-07	-5.164430e-11	-4.677550e+00	-6.092263e+00
2.530000e-06	-7.830422e-07	-1.349858e-09	-5.690833e+00	-9.150040e+01
2.540000e-06	-9.221488e-07	-2.680359e-09	-6.701803e+00	-1.790660e+02
2.550000e-06	-1.060888e-06	-4.044859e-09	-7.710103e+00	-2.688294e+02
2.560000e-06	-1.199228e-06	-5.444856e-09	-8.715500e+00	-3.604396e+02
2.570000e-06	-1.337139e-06	-6.870530e-09	-9.717781e+00	-4.531319e+02
2.580000e-06	-1.474548e-06	-8.298297e-09	-1.071642e+01	-5.457857e+02
2.590000e-06	-1.611441e-06	-9.703879e-09	-1.171130e+01	-6.370519e+02
2.600000e-06	-1.747770e-06	-1.106166e-08	-1.270208e+01	-7.255243e+02
2.610000e-06	-1.883437e-06	-1.235060e-08	-1.368805e+01	-8.099215e+02
2.620000e-06	-2.018343e-06	-1.355631e-08	-1.466850e+01	-8.892425e+02
2.630000e-06	-2.152467e-06	-1.467386e-08	-1.564326e+01	-9.628692e+02
2.640000e-06	-2.285757e-06	-1.570687e-08	-1.661195e+01	-1.030599e+03
2.650000e-06	-2.418135e-06	-1.665964e-08	-1.757402e+01	-1.092605e+03
2.660000e-06	-2.549565e-06	-1.753862e-08	-1.852920e+01	-1.149347e+03
2.670000e-06	-2.680063e-06	-1.834817e-08	-1.947761e+01	-1.201443e+03
2.680000e-06	-2.809671e-06	-1.909427e-08	-2.041955e+01	-1.249546e+03
2.690000e-06	-2.938325e-06	-1.978409e-08	-2.135455e+01	-1.294240e+03
2.700000e-06	-3.065892e-06	-2.042349e-08	-2.228166e+01	-1.335978e+03
2.710000e-06	-3.192329e-06	-2.101908e-08	-2.320055e+01	-1.375065e+03
2.720000e-06	-3.317600e-06	-2.157710e-08	-2.411097e+01	-1.411684e+03
2.730000e-06	-3.441630e-06	-2.210005e-08	-2.501237e+01	-1.445942e+03
2.740000e-06	-3.564401e-06	-2.258663e-08	-2.590462e+01	-1.477926e+03
2.750000e-06	-3.685943e-06	-2.304000e-08	-2.678793e+01	-1.507753e+03
2.760000e-06	-3.806136e-06	-2.346505e-08	-2.766145e+01	-1.535585e+03
2.770000e-06	-3.924913e-06	-2.386660e-08	-2.852467e+01	-1.561636e+03
2.780000e-06	-4.042217e-06	-2.424776e-08	-2.937719e+01	-1.586141e+03
2.790000e-06	-4.157869e-06	-2.460793e-08	-3.021771e+01	-1.609326e+03
2.800000e-06	-4.271834e-06	-2.494705e-08	-3.104596e+01	-1.631375e+03
2.810000e-06	-4.384073e-06	-2.526731e-08	-3.186166e+01	-1.652406e+03
2.820000e-06	-4.494615e-06	-2.557043e-08	-3.266504e+01	-1.672471e+03
2.830000e-06	-4.603605e-06	-2.585773e-08	-3.345713e+01	-1.691570e+03
2.840000e-06	-4.711133e-06	-2.613172e-08	-3.423860e+01	-1.709679e+03
2.850000e-06	-4.817165e-06	-2.639091e-08	-3.500920e+01	-1.726779e+03
2.860000e-06	-4.921474e-06	-2.663526e-08	-3.576728e+01	-1.742883e+03
2.870000e-06	-5.023876e-06	-2.686770e-08	-3.651149e+01	-1.758047e+03
2.880000e-06	-5.124354e-06	-2.709036e-08	-3.724172e+01	-1.772366e+03
2.890000e-06	-5.223011e-06	-2.730495e-08	-3.795872e+01	-1.785958e+03
2.900000e-06	-5.319890e-06	-2.751113e-08	-3.866280e+01	-1.798940e+03
2.910000e-06	-5.414871e-06	-2.770663e-08	-3.935308e+01	-1.811405e+03
2.920000e-06	-5.507868e-06	-2.789007e-08	-4.002895e+01	-1.823404e+03
2.930000e-06	-5.598914e-06	-2.806259e-08	-4.069063e+01	-1.834944e+03
2.940000e-06	-5.687974e-06	-2.822494e-08	-4.133788e+01	-1.845996e+03
