# Temperatura_=_66.8
# Concentracion g/m^3_=_28200.0
# C_Vs_to_Am_M_A/Vsm_=_65563218390.804596
# pendiente_HvsI_1/m_=_3716.3
# ordenada_HvsI_A/m_=_1297.0
# frecuencia_Hz_=_302374.99359307124

Tiempo_(s)	Campo_(V.s)	Magnetizacion_(V.s)	Campo_(kA/m)	Magnetizacion_(A/m)
0.000000e+00	-7.317223e-06	-3.048509e-08	-5.318518e+01	-1.996120e+03
1.000000e-08	-7.313050e-06	-3.047962e-08	-5.315485e+01	-1.995456e+03
2.000000e-08	-7.306623e-06	-3.046491e-08	-5.310814e+01	-1.994596e+03
3.000000e-08	-7.297789e-06	-3.044936e-08	-5.304393e+01	-1.993574e+03
4.000000e-08	-7.286281e-06	-3.043209e-08	-5.296028e+01	-1.992415e+03
5.000000e-08	-7.272067e-06	-3.041127e-08	-5.285697e+01	-1.991126e+03
6.000000e-08	-7.255221e-06	-3.038399e-08	-5.273452e+01	-1.989700e+03
7.000000e-08	-7.236184e-06	-3.035316e-08	-5.259615e+01	-1.988119e+03
8.000000e-08	-7.215078e-06	-3.033940e-08	-5.244274e+01	-1.986363e+03
9.000000e-08	-7.191312e-06	-3.037317e-08	-5.227000e+01	-1.984420e+03
1.000000e-07	-7.164505e-06	-3.032102e-08	-5.207515e+01	-1.982295e+03
1.100000e-07	-7.134935e-06	-3.022773e-08	-5.186022e+01	-1.980011e+03
1.200000e-07	-7.102920e-06	-3.018431e-08	-5.162753e+01	-1.977604e+03
1.300000e-07	-7.068432e-06	-3.014895e-08	-5.137685e+01	-1.975111e+03
1.400000e-07	-7.031820e-06	-3.006876e-08	-5.111073e+01	-1.972554e+03
1.500000e-07	-6.993422e-06	-3.001092e-08	-5.083164e+01	-1.969934e+03
1.600000e-07	-6.952852e-06	-3.008208e-08	-5.053676e+01	-1.967217e+03
1.700000e-07	-6.909780e-06	-2.994351e-08	-5.022369e+01	-1.964345e+03
1.800000e-07	-6.864285e-06	-2.985105e-08	-4.989300e+01	-1.961240e+03
1.900000e-07	-6.816181e-06	-2.987055e-08	-4.954336e+01	-1.957825e+03
2.000000e-07	-6.765241e-06	-2.974962e-08	-4.917311e+01	-1.954039e+03
2.100000e-07	-6.711685e-06	-2.973290e-08	-4.878384e+01	-1.949853e+03
2.200000e-07	-6.655627e-06	-2.966434e-08	-4.837638e+01	-1.945274e+03
2.300000e-07	-6.597012e-06	-2.956018e-08	-4.795034e+01	-1.940341e+03
2.400000e-07	-6.535909e-06	-2.950468e-08	-4.750621e+01	-1.935113e+03
2.500000e-07	-6.472387e-06	-2.940268e-08	-4.704450e+01	-1.929648e+03
2.600000e-07	-6.406383e-06	-2.932700e-08	-4.656475e+01	-1.923988e+03
2.700000e-07	-6.337970e-06	-2.923822e-08	-4.606749e+01	-1.918143e+03
2.800000e-07	-6.267273e-06	-2.915115e-08	-4.555363e+01	-1.912091e+03
2.900000e-07	-6.194186e-06	-2.903834e-08	-4.502240e+01	-1.905781e+03
3.000000e-07	-6.118533e-06	-2.891801e-08	-4.447252e+01	-1.899151e+03
3.100000e-07	-6.040319e-06	-2.882972e-08	-4.390402e+01	-1.892142e+03
3.200000e-07	-5.959687e-06	-2.870093e-08	-4.331794e+01	-1.884719e+03
3.300000e-07	-5.876898e-06	-2.860345e-08	-4.271620e+01	-1.876876e+03
3.400000e-07	-5.792146e-06	-2.847039e-08	-4.210017e+01	-1.868636e+03
3.500000e-07	-5.705489e-06	-2.833793e-08	-4.147030e+01	-1.860041e+03
3.600000e-07	-5.616871e-06	-2.821462e-08	-4.082619e+01	-1.851135e+03
3.700000e-07	-5.526174e-06	-2.806606e-08	-4.016695e+01	-1.841946e+03
3.800000e-07	-5.433459e-06	-2.792615e-08	-3.949306e+01	-1.832471e+03
3.900000e-07	-5.338842e-06	-2.777057e-08	-3.880534e+01	-1.822673e+03
4.000000e-07	-5.242318e-06	-2.761610e-08	-3.810375e+01	-1.812488e+03
4.100000e-07	-5.143927e-06	-2.743906e-08	-3.738860e+01	-1.801839e+03
4.200000e-07	-5.043762e-06	-2.727143e-08	-3.666055e+01	-1.790655e+03
4.300000e-07	-4.941811e-06	-2.708830e-08	-3.591952e+01	-1.778890e+03
4.400000e-07	-4.838134e-06	-2.689435e-08	-3.516594e+01	-1.766529e+03
4.500000e-07	-4.732750e-06	-2.670139e-08	-3.439996e+01	-1.753591e+03
4.600000e-07	-4.625632e-06	-2.650144e-08	-3.362137e+01	-1.740116e+03
4.700000e-07	-4.516830e-06	-2.629355e-08	-3.283055e+01	-1.726140e+03
4.800000e-07	-4.406455e-06	-2.607265e-08	-3.202829e+01	-1.711684e+03
4.900000e-07	-4.294492e-06	-2.584954e-08	-3.121449e+01	-1.696731e+03
5.000000e-07	-4.180838e-06	-2.560648e-08	-3.038839e+01	-1.681222e+03
5.100000e-07	-4.065473e-06	-2.535048e-08	-2.954986e+01	-1.665067e+03
5.200000e-07	-3.948446e-06	-2.508206e-08	-2.869925e+01	-1.648158e+03
5.300000e-07	-3.829933e-06	-2.480796e-08	-2.783784e+01	-1.630396e+03
5.400000e-07	-3.710092e-06	-2.452121e-08	-2.696678e+01	-1.611709e+03
5.500000e-07	-3.588835e-06	-2.422106e-08	-2.608542e+01	-1.592062e+03
5.600000e-07	-3.466138e-06	-2.390916e-08	-2.519360e+01	-1.571456e+03
5.700000e-07	-3.342091e-06	-2.358338e-08	-2.429196e+01	-1.549913e+03
5.800000e-07	-3.216799e-06	-2.324253e-08	-2.338128e+01	-1.527448e+03
5.900000e-07	-3.090407e-06	-2.288397e-08	-2.246260e+01	-1.504044e+03
6.000000e-07	-2.962908e-06	-2.251056e-08	-2.153587e+01	-1.479629e+03
6.100000e-07	-2.834245e-06	-2.211481e-08	-2.060069e+01	-1.454070e+03
6.200000e-07	-2.704493e-06	-2.169932e-08	-1.965759e+01	-1.427185e+03
6.300000e-07	-2.573805e-06	-2.125823e-08	-1.870768e+01	-1.398762e+03
6.400000e-07	-2.442184e-06	-2.079432e-08	-1.775100e+01	-1.368594e+03
6.500000e-07	-2.309595e-06	-2.030589e-08	-1.678727e+01	-1.336505e+03
6.600000e-07	-2.176203e-06	-1.978913e-08	-1.581772e+01	-1.302365e+03
6.700000e-07	-2.042146e-06	-1.924107e-08	-1.484332e+01	-1.266083e+03
6.800000e-07	-1.907398e-06	-1.865611e-08	-1.386391e+01	-1.227587e+03
6.900000e-07	-1.771942e-06	-1.803514e-08	-1.287935e+01	-1.186783e+03
7.000000e-07	-1.635866e-06	-1.737338e-08	-1.189028e+01	-1.143519e+03
7.100000e-07	-1.499218e-06	-1.666804e-08	-1.089706e+01	-1.097553e+03
7.200000e-07	-1.361962e-06	-1.591303e-08	-9.899409e+00	-1.048559e+03
7.300000e-07	-1.224139e-06	-1.510579e-08	-8.897648e+00	-9.961549e+02
7.400000e-07	-1.085863e-06	-1.424353e-08	-7.892589e+00	-9.399681e+02
7.500000e-07	-9.472588e-07	-1.332428e-08	-6.885144e+00	-8.797149e+02
7.600000e-07	-8.083908e-07	-1.234696e-08	-5.875783e+00	-8.152854e+02
7.700000e-07	-6.692355e-07	-1.131056e-08	-4.864333e+00	-7.468040e+02
7.800000e-07	-5.298167e-07	-1.021804e-08	-3.850969e+00	-6.746510e+02
7.900000e-07	-3.902583e-07	-9.074199e-09	-2.836589e+00	-5.994313e+02
8.000000e-07	-2.505824e-07	-7.889639e-09	-1.821356e+00	-5.218926e+02
8.100000e-07	-1.106790e-07	-6.676852e-09	-8.044693e-01	-4.428051e+02
8.200000e-07	2.934745e-08	-5.450910e-09	2.133118e-01	-3.628285e+02
8.300000e-07	1.693456e-07	-4.221401e-09	1.230887e+00	-2.823949e+02
8.400000e-07	3.093064e-07	-2.990576e-09	2.248192e+00	-2.016365e+02
8.500000e-07	4.491927e-07	-1.756717e-09	3.264954e+00	-1.203788e+02
8.600000e-07	5.889001e-07	-5.101254e-10	4.280416e+00	-3.820448e+01
8.700000e-07	7.283631e-07	7.573401e-10	5.294102e+00	4.542125e+01
8.800000e-07	8.675976e-07	2.053413e-09	6.306127e+00	1.309881e+02
8.900000e-07	1.006588e-06	3.384935e-09	7.316378e+00	2.187751e+02
9.000000e-07	1.145302e-06	4.753641e-09	8.324616e+00	3.087174e+02
9.100000e-07	1.283613e-06	6.153994e-09	9.329931e+00	4.003351e+02
9.200000e-07	1.421376e-06	7.570750e-09	1.033126e+01	4.927407e+02
9.300000e-07	1.558498e-06	8.979562e-09	1.132793e+01	5.847251e+02
9.400000e-07	1.694976e-06	1.035466e-08	1.231992e+01	6.749047e+02
9.500000e-07	1.830836e-06	1.167546e-08	1.330742e+01	7.619013e+02
9.600000e-07	1.965959e-06	1.292295e-08	1.428956e+01	8.445174e+02
9.700000e-07	2.100278e-06	1.408591e-08	1.526585e+01	9.218759e+02
9.800000e-07	2.233890e-06	1.516174e-08	1.623701e+01	9.934974e+02
9.900000e-07	2.366740e-06	1.615295e-08	1.720263e+01	1.059307e+03
1.000000e-06	2.498716e-06	1.706748e-08	1.816190e+01	1.119576e+03
1.010000e-06	2.629803e-06	1.791119e-08	1.911470e+01	1.174816e+03
1.020000e-06	2.759898e-06	1.868833e-08	2.006030e+01	1.225652e+03
1.030000e-06	2.888917e-06	1.940389e-08	2.099808e+01	1.272706e+03
1.040000e-06	3.016831e-06	2.006791e-08	2.192781e+01	1.316505e+03
1.050000e-06	3.143584e-06	2.068867e-08	2.284912e+01	1.357442e+03
1.060000e-06	3.269264e-06	2.126770e-08	2.376263e+01	1.395770e+03
1.070000e-06	3.393881e-06	2.180711e-08	2.466840e+01	1.431639e+03
1.080000e-06	3.517284e-06	2.230919e-08	2.556535e+01	1.465148e+03
1.090000e-06	3.639411e-06	2.277882e-08	2.645303e+01	1.496394e+03
1.100000e-06	3.760168e-06	2.322164e-08	2.733076e+01	1.525515e+03
1.110000e-06	3.879502e-06	2.363753e-08	2.819813e+01	1.552699e+03
1.120000e-06	3.997471e-06	2.402941e-08	2.905559e+01	1.578174e+03
1.130000e-06	4.114049e-06	2.440031e-08	2.990293e+01	1.602179e+03
1.140000e-06	4.229059e-06	2.474911e-08	3.073889e+01	1.624929e+03
1.150000e-06	4.342327e-06	2.507967e-08	3.156218e+01	1.646587e+03
1.160000e-06	4.453877e-06	2.539155e-08	3.237298e+01	1.667248e+03
1.170000e-06	4.563899e-06	2.568707e-08	3.317267e+01	1.686942e+03
1.180000e-06	4.672448e-06	2.596679e-08	3.396166e+01	1.705657e+03
1.190000e-06	4.779460e-06	2.623162e-08	3.473947e+01	1.723368e+03
1.200000e-06	4.884697e-06	2.648338e-08	3.550438e+01	1.740063e+03
1.210000e-06	4.988054e-06	2.672192e-08	3.625564e+01	1.755771e+03
1.220000e-06	5.089711e-06	2.694831e-08	3.699453e+01	1.770560e+03
1.230000e-06	5.189639e-06	2.716467e-08	3.772086e+01	1.784535e+03
1.240000e-06	5.287563e-06	2.737094e-08	3.843262e+01	1.797818e+03
1.250000e-06	5.383382e-06	2.756337e-08	3.912907e+01	1.810518e+03
1.260000e-06	5.477247e-06	2.774457e-08	3.981133e+01	1.822715e+03
1.270000e-06	5.569300e-06	2.791896e-08	4.048042e+01	1.834443e+03
1.280000e-06	5.659350e-06	2.808860e-08	4.113494e+01	1.845697e+03
1.290000e-06	5.747199e-06	2.825114e-08	4.177347e+01	1.856440e+03
1.300000e-06	5.832986e-06	2.840527e-08	4.239702e+01	1.866627e+03
1.310000e-06	5.916835e-06	2.855181e-08	4.300648e+01	1.876222e+03
1.320000e-06	5.998583e-06	2.869136e-08	4.360066e+01	1.885219e+03
1.330000e-06	6.078020e-06	2.882404e-08	4.417805e+01	1.893642e+03
1.340000e-06	6.155204e-06	2.894933e-08	4.473906e+01	1.901545e+03
1.350000e-06	6.230021e-06	2.906603e-08	4.528286e+01	1.908998e+03
1.360000e-06	6.302432e-06	2.917440e-08	4.580918e+01	1.916070e+03
1.370000e-06	6.372596e-06	2.927637e-08	4.631917e+01	1.922810e+03
1.380000e-06	6.440539e-06	2.937357e-08	4.681301e+01	1.929247e+03
1.390000e-06	6.506122e-06	2.946640e-08	4.728970e+01	1.935380e+03
1.400000e-06	6.569368e-06	2.955419e-08	4.774941e+01	1.941193e+03
1.410000e-06	6.630476e-06	2.963670e-08	4.819357e+01	1.946667e+03
1.420000e-06	6.689317e-06	2.971437e-08	4.862125e+01	1.951790e+03
1.430000e-06	6.745720e-06	2.978816e-08	4.903122e+01	1.956570e+03
1.440000e-06	6.799672e-06	2.985783e-08	4.942337e+01	1.961033e+03
1.450000e-06	6.850917e-06	2.992406e-08	4.979584e+01	1.965223e+03
1.460000e-06	6.899338e-06	2.998700e-08	5.014779e+01	1.969183e+03
1.470000e-06	6.945234e-06	3.004627e-08	5.048138e+01	1.972950e+03
1.480000e-06	6.988807e-06	3.010296e-08	5.079810e+01	1.976536e+03
1.490000e-06	7.029853e-06	3.015551e-08	5.109644e+01	1.979930e+03
1.500000e-06	7.068308e-06	3.020209e-08	5.137595e+01	1.983097e+03
1.510000e-06	7.104386e-06	3.024285e-08	5.163818e+01	1.985995e+03
1.520000e-06	7.137960e-06	3.027928e-08	5.188221e+01	1.988579e+03
1.530000e-06	7.168910e-06	3.031277e-08	5.210717e+01	1.990826e+03
1.540000e-06	7.197428e-06	3.034391e-08	5.231445e+01	1.992735e+03
1.550000e-06	7.223414e-06	3.037202e-08	5.250333e+01	1.994332e+03
1.560000e-06	7.246613e-06	3.039594e-08	5.267195e+01	1.995664e+03
1.570000e-06	7.267267e-06	3.041484e-08	5.282208e+01	1.996783e+03
1.580000e-06	7.285460e-06	3.042937e-08	5.295432e+01	1.997737e+03
1.590000e-06	7.300937e-06	3.044046e-08	5.306681e+01	1.998556e+03
1.600000e-06	7.313606e-06	3.044877e-08	5.315889e+01	1.999242e+03
1.610000e-06	7.323371e-06	3.045607e-08	5.322987e+01	1.999780e+03
1.620000e-06	7.330284e-06	3.046176e-08	5.328012e+01	2.000136e+03
1.630000e-06	7.334659e-06	3.046488e-08	5.331192e+01	2.000275e+03
1.640000e-06	7.336486e-06	3.046609e-08	5.332520e+01	2.000172e+03
1.650000e-06	7.335685e-06	3.046392e-08	5.331937e+01	1.999821e+03
1.660000e-06	7.332501e-06	3.044951e-08	5.329623e+01	1.999234e+03
1.670000e-06	7.326914e-06	3.043653e-08	5.325562e+01	1.998439e+03
1.680000e-06	7.318805e-06	3.042430e-08	5.319668e+01	1.997471e+03
1.690000e-06	7.308291e-06	3.041089e-08	5.312026e+01	1.996358e+03
1.700000e-06	7.295206e-06	3.039609e-08	5.302516e+01	1.995114e+03
1.710000e-06	7.279563e-06	3.038185e-08	5.291146e+01	1.993738e+03
1.720000e-06	7.261724e-06	3.037016e-08	5.278179e+01	1.992214e+03
1.730000e-06	7.241803e-06	3.031020e-08	5.263700e+01	1.990522e+03
1.740000e-06	7.219157e-06	3.021384e-08	5.247239e+01	1.988645e+03
1.750000e-06	7.193038e-06	3.023056e-08	5.228254e+01	1.986582e+03
1.760000e-06	7.163601e-06	3.023470e-08	5.206859e+01	1.984351e+03
1.770000e-06	7.131562e-06	3.017438e-08	5.183571e+01	1.981983e+03
1.780000e-06	7.097503e-06	3.017508e-08	5.158815e+01	1.979516e+03
1.790000e-06	7.061782e-06	3.020449e-08	5.132851e+01	1.976980e+03
1.800000e-06	7.024422e-06	3.004007e-08	5.105696e+01	1.974383e+03
1.810000e-06	6.984636e-06	3.004676e-08	5.076778e+01	1.971706e+03
1.820000e-06	6.942191e-06	3.009727e-08	5.045926e+01	1.968897e+03
1.830000e-06	6.897541e-06	2.995757e-08	5.013473e+01	1.965883e+03
1.840000e-06	6.850385e-06	3.001941e-08	4.979197e+01	1.962586e+03
1.850000e-06	6.800589e-06	2.986213e-08	4.943003e+01	1.958937e+03
1.860000e-06	6.748152e-06	2.978272e-08	4.904890e+01	1.954895e+03
1.870000e-06	6.692925e-06	2.978654e-08	4.864748e+01	1.950452e+03
1.880000e-06	6.635285e-06	2.962653e-08	4.822852e+01	1.945639e+03
1.890000e-06	6.575149e-06	2.964199e-08	4.779143e+01	1.940508e+03
1.900000e-06	6.512397e-06	2.952441e-08	4.733531e+01	1.935120e+03
1.910000e-06	6.447193e-06	2.943872e-08	4.686138e+01	1.929526e+03
1.920000e-06	6.379647e-06	2.936693e-08	4.637042e+01	1.923747e+03
1.930000e-06	6.309776e-06	2.923790e-08	4.586256e+01	1.917773e+03
1.940000e-06	6.237408e-06	2.921539e-08	4.533655e+01	1.911562e+03
1.950000e-06	6.162556e-06	2.905650e-08	4.479250e+01	1.905052e+03
1.960000e-06	6.085132e-06	2.897901e-08	4.422974e+01	1.898183e+03
1.970000e-06	6.005301e-06	2.884995e-08	4.364949e+01	1.890910e+03
1.980000e-06	5.923363e-06	2.872155e-08	4.305392e+01	1.883214e+03
1.990000e-06	5.839307e-06	2.863493e-08	4.244297e+01	1.875111e+03
2.000000e-06	5.753158e-06	2.847771e-08	4.181679e+01	1.866637e+03
2.010000e-06	5.664897e-06	2.838136e-08	4.117527e+01	1.857837e+03
2.020000e-06	5.574611e-06	2.821679e-08	4.051902e+01	1.848747e+03
2.030000e-06	5.482344e-06	2.808130e-08	3.984838e+01	1.839376e+03
2.040000e-06	5.388106e-06	2.792589e-08	3.916341e+01	1.829699e+03
2.050000e-06	5.291966e-06	2.777440e-08	3.846462e+01	1.819659e+03
2.060000e-06	5.194054e-06	2.762131e-08	3.775295e+01	1.809184e+03
2.070000e-06	5.094463e-06	2.744229e-08	3.702907e+01	1.798197e+03
2.080000e-06	4.993013e-06	2.728105e-08	3.629168e+01	1.786642e+03
2.090000e-06	4.889638e-06	2.708802e-08	3.554030e+01	1.774492e+03
2.100000e-06	4.784510e-06	2.690783e-08	3.477618e+01	1.761756e+03
2.110000e-06	4.677905e-06	2.670498e-08	3.400132e+01	1.748467e+03
2.120000e-06	4.569767e-06	2.649998e-08	3.321532e+01	1.734666e+03
2.130000e-06	4.459970e-06	2.627592e-08	3.241726e+01	1.720381e+03
2.140000e-06	4.348468e-06	2.604818e-08	3.160681e+01	1.705608e+03
2.150000e-06	4.235266e-06	2.581314e-08	3.078400e+01	1.690306e+03
2.160000e-06	4.120405e-06	2.556990e-08	2.994914e+01	1.674393e+03
2.170000e-06	4.003795e-06	2.531950e-08	2.910156e+01	1.657765e+03
2.180000e-06	3.885536e-06	2.505079e-08	2.824199e+01	1.640317e+03
2.190000e-06	3.765754e-06	2.477659e-08	2.737135e+01	1.621965e+03
2.200000e-06	3.644552e-06	2.448844e-08	2.649040e+01	1.602662e+03
2.210000e-06	3.522047e-06	2.419052e-08	2.559998e+01	1.582395e+03
2.220000e-06	3.398238e-06	2.387023e-08	2.470007e+01	1.561184e+03
2.230000e-06	3.273123e-06	2.353698e-08	2.379067e+01	1.539047e+03
2.240000e-06	3.146748e-06	2.318278e-08	2.287212e+01	1.515983e+03
2.250000e-06	3.019231e-06	2.281530e-08	2.194526e+01	1.491940e+03
2.260000e-06	2.890643e-06	2.242876e-08	2.101062e+01	1.466807e+03
2.270000e-06	2.760975e-06	2.202524e-08	2.006813e+01	1.440418e+03
2.280000e-06	2.630347e-06	2.159982e-08	1.911866e+01	1.412568e+03
2.290000e-06	2.498841e-06	2.114891e-08	1.816281e+01	1.383045e+03
2.300000e-06	2.366426e-06	2.067196e-08	1.720035e+01	1.351659e+03
2.310000e-06	2.233135e-06	2.016655e-08	1.623153e+01	1.318263e+03
2.320000e-06	2.099051e-06	1.963237e-08	1.525694e+01	1.282753e+03
2.330000e-06	1.964285e-06	1.906118e-08	1.427739e+01	1.245056e+03
2.340000e-06	1.828906e-06	1.845461e-08	1.329339e+01	1.205090e+03
2.350000e-06	1.692904e-06	1.780906e-08	1.230486e+01	1.162726e+03
2.360000e-06	1.556302e-06	1.712282e-08	1.131197e+01	1.117757e+03
2.370000e-06	1.419180e-06	1.638947e-08	1.031530e+01	1.069886e+03
2.380000e-06	1.281570e-06	1.560394e-08	9.315081e+00	1.018744e+03
2.390000e-06	1.143542e-06	1.476245e-08	8.311828e+00	9.639464e+02
2.400000e-06	1.005158e-06	1.386402e-08	7.305985e+00	9.051679e+02
2.410000e-06	8.664226e-07	1.290789e-08	6.297586e+00	8.422280e+02
2.420000e-06	7.273774e-07	1.189133e-08	5.286938e+00	7.751624e+02
2.430000e-06	5.879971e-07	1.081854e-08	4.273853e+00	7.042608e+02
2.440000e-06	4.483301e-07	9.694857e-09	3.258684e+00	6.300548e+02
2.450000e-06	3.084841e-07	8.523174e-09	2.242215e+00	5.532534e+02
2.460000e-06	1.685461e-07	7.316063e-09	1.225076e+00	4.746339e+02
2.470000e-06	2.854265e-08	6.089965e-09	2.074620e-01	3.949105e+02
2.480000e-06	-1.115445e-07	4.856774e-09	-8.107603e-01	3.146077e+02
2.490000e-06	-2.516213e-07	3.620233e-09	-1.828908e+00	2.339693e+02
2.500000e-06	-3.915728e-07	2.378925e-09	-2.846144e+00	1.529265e+02
2.510000e-06	-5.313828e-07	1.129746e-09	-3.862352e+00	7.113728e+01
2.520000e-06	-6.710118e-07	-1.349998e-10	-4.877244e+00	-1.190869e+01
2.530000e-06	-8.103829e-07	-1.423998e-09	-5.890262e+00	-9.673681e+01
2.540000e-06	-9.494418e-07	-2.744823e-09	-6.901011e+00	-1.837190e+02
2.550000e-06	-1.088063e-06	-4.101752e-09	-7.908578e+00	-2.729253e+02
2.560000e-06	-1.226244e-06	-5.493770e-09	-8.912949e+00	-3.640272e+02
2.570000e-06	-1.364067e-06	-6.910742e-09	-9.914714e+00	-4.562770e+02
2.580000e-06	-1.501468e-06	-8.332104e-09	-1.091341e+01	-5.485661e+02
2.590000e-06	-1.638249e-06	-9.733872e-09	-1.190760e+01	-6.395536e+02
2.600000e-06	-1.774326e-06	-1.109021e-08	-1.289668e+01	-7.278381e+02
2.610000e-06	-1.909771e-06	-1.237958e-08	-1.388116e+01	-8.121391e+02
2.620000e-06	-2.044525e-06	-1.358660e-08	-1.486062e+01	-8.914527e+02
2.630000e-06	-2.178498e-06	-1.470534e-08	-1.583440e+01	-9.651529e+02
2.640000e-06	-2.311669e-06	-1.573972e-08	-1.680235e+01	-1.033024e+03
2.650000e-06	-2.443981e-06	-1.669425e-08	-1.776406e+01	-1.095224e+03
2.660000e-06	-2.575299e-06	-1.757505e-08	-1.871854e+01	-1.152192e+03
2.670000e-06	-2.705632e-06	-1.838813e-08	-1.966586e+01	-1.204528e+03
2.680000e-06	-2.835060e-06	-1.913846e-08	-2.060661e+01	-1.252866e+03
2.690000e-06	-2.963478e-06	-1.983192e-08	-2.154002e+01	-1.297776e+03
2.700000e-06	-3.090791e-06	-2.047529e-08	-2.246539e+01	-1.339701e+03
2.710000e-06	-3.216988e-06	-2.107402e-08	-2.338265e+01	-1.378940e+03
2.720000e-06	-3.342007e-06	-2.163395e-08	-2.429136e+01	-1.415675e+03
2.730000e-06	-3.465768e-06	-2.215677e-08	-2.519091e+01	-1.450017e+03
2.740000e-06	-3.588307e-06	-2.264261e-08	-2.608158e+01	-1.482059e+03
2.750000e-06	-3.709625e-06	-2.309675e-08	-2.696338e+01	-1.511921e+03
2.760000e-06	-3.829578e-06	-2.352202e-08	-2.783526e+01	-1.539773e+03
2.770000e-06	-3.948006e-06	-2.392322e-08	-2.869606e+01	-1.565831e+03
2.780000e-06	-4.064809e-06	-2.430395e-08	-2.954503e+01	-1.590335e+03
2.790000e-06	-4.180017e-06	-2.466496e-08	-3.038243e+01	-1.613513e+03
2.800000e-06	-4.293647e-06	-2.500556e-08	-3.120834e+01	-1.635547e+03
2.810000e-06	-4.405563e-06	-2.532559e-08	-3.202180e+01	-1.656558e+03
2.820000e-06	-4.515736e-06	-2.562844e-08	-3.282259e+01	-1.676598e+03
2.830000e-06	-4.624379e-06	-2.591530e-08	-3.361227e+01	-1.695667e+03
2.840000e-06	-4.731615e-06	-2.618849e-08	-3.439171e+01	-1.713739e+03
2.850000e-06	-4.837280e-06	-2.644602e-08	-3.515974e+01	-1.730797e+03
2.860000e-06	-4.941151e-06	-2.668963e-08	-3.591472e+01	-1.746853e+03
2.870000e-06	-5.043095e-06	-2.692280e-08	-3.665570e+01	-1.761960e+03
2.880000e-06	-5.143129e-06	-2.714610e-08	-3.738280e+01	-1.776214e+03
2.890000e-06	-5.241421e-06	-2.736085e-08	-3.809723e+01	-1.789731e+03
2.900000e-06	-5.337982e-06	-2.756414e-08	-3.879909e+01	-1.802629e+03
2.910000e-06	-5.432594e-06	-2.775463e-08	-3.948677e+01	-1.814999e+03
2.920000e-06	-5.525160e-06	-2.793413e-08	-4.015959e+01	-1.826894e+03
2.930000e-06	-5.615783e-06	-2.810452e-08	-4.081828e+01	-1.838322e+03
2.940000e-06	-5.704457e-06	-2.826691e-08	-4.146281e+01	-1.849253e+03
