# Temperatura_=_73.71
# Concentracion g/m^3_=_28200.0
# C_Vs_to_Am_M_A/Vsm_=_65563218390.804596
# pendiente_HvsI_1/m_=_3716.3
# ordenada_HvsI_A/m_=_1297.0
# frecuencia_Hz_=_302374.73251965677

Tiempo_(s)	Campo_(V.s)	Magnetizacion_(V.s)	Campo_(kA/m)	Magnetizacion_(A/m)
0.000000e+00	-7.326603e-06	-3.062796e-08	-5.318408e+01	-2.005420e+03
1.000000e-08	-7.322525e-06	-3.062449e-08	-5.315448e+01	-2.004740e+03
2.000000e-08	-7.316120e-06	-3.060906e-08	-5.310798e+01	-2.003874e+03
3.000000e-08	-7.307320e-06	-3.059165e-08	-5.304411e+01	-2.002858e+03
4.000000e-08	-7.295928e-06	-3.057234e-08	-5.296141e+01	-2.001716e+03
5.000000e-08	-7.281819e-06	-3.054878e-08	-5.285899e+01	-2.000451e+03
6.000000e-08	-7.265026e-06	-3.052053e-08	-5.273709e+01	-1.999046e+03
7.000000e-08	-7.246020e-06	-3.048686e-08	-5.259913e+01	-1.997473e+03
8.000000e-08	-7.224953e-06	-3.047638e-08	-5.244620e+01	-1.995704e+03
9.000000e-08	-7.201318e-06	-3.051974e-08	-5.227463e+01	-1.993726e+03
1.000000e-07	-7.174673e-06	-3.046753e-08	-5.208122e+01	-1.991548e+03
1.100000e-07	-7.145171e-06	-3.037058e-08	-5.186706e+01	-1.989200e+03
1.200000e-07	-7.113185e-06	-3.032584e-08	-5.163487e+01	-1.986728e+03
1.300000e-07	-7.078736e-06	-3.028879e-08	-5.138481e+01	-1.984177e+03
1.400000e-07	-7.042091e-06	-3.019940e-08	-5.111880e+01	-1.981575e+03
1.500000e-07	-7.003642e-06	-3.013246e-08	-5.083970e+01	-1.978920e+03
1.600000e-07	-6.963072e-06	-3.021542e-08	-5.054520e+01	-1.976173e+03
1.700000e-07	-6.920002e-06	-3.008451e-08	-5.023255e+01	-1.973263e+03
1.800000e-07	-6.874521e-06	-2.998720e-08	-4.990240e+01	-1.970100e+03
1.900000e-07	-6.826423e-06	-3.000243e-08	-4.955325e+01	-1.966595e+03
2.000000e-07	-6.775487e-06	-2.987405e-08	-4.918351e+01	-1.962684e+03
2.100000e-07	-6.721937e-06	-2.984423e-08	-4.879479e+01	-1.958338e+03
2.200000e-07	-6.665827e-06	-2.975962e-08	-4.838748e+01	-1.953572e+03
2.300000e-07	-6.607175e-06	-2.966266e-08	-4.796173e+01	-1.948441e+03
2.400000e-07	-6.546153e-06	-2.961571e-08	-4.751877e+01	-1.943016e+03
2.500000e-07	-6.482795e-06	-2.951126e-08	-4.705885e+01	-1.937369e+03
2.600000e-07	-6.416945e-06	-2.943499e-08	-4.658084e+01	-1.931548e+03
2.700000e-07	-6.348590e-06	-2.934354e-08	-4.608465e+01	-1.925564e+03
2.800000e-07	-6.277903e-06	-2.925430e-08	-4.557153e+01	-1.919388e+03
2.900000e-07	-6.204819e-06	-2.913794e-08	-4.504101e+01	-1.912958e+03
3.000000e-07	-6.129169e-06	-2.901868e-08	-4.449186e+01	-1.906200e+03
3.100000e-07	-6.050930e-06	-2.893320e-08	-4.392392e+01	-1.899046e+03
3.200000e-07	-5.970235e-06	-2.879901e-08	-4.333815e+01	-1.891457e+03
3.300000e-07	-5.887403e-06	-2.869068e-08	-4.273687e+01	-1.883428e+03
3.400000e-07	-5.802661e-06	-2.855325e-08	-4.212173e+01	-1.874989e+03
3.500000e-07	-5.716010e-06	-2.842777e-08	-4.149273e+01	-1.866193e+03
3.600000e-07	-5.627301e-06	-2.830489e-08	-4.084879e+01	-1.857091e+03
3.700000e-07	-5.536468e-06	-2.814977e-08	-4.018943e+01	-1.847719e+03
3.800000e-07	-5.443666e-06	-2.800432e-08	-3.951577e+01	-1.838075e+03
3.900000e-07	-5.348988e-06	-2.784153e-08	-3.882850e+01	-1.828119e+03
4.000000e-07	-5.252385e-06	-2.768126e-08	-3.812726e+01	-1.817779e+03
4.100000e-07	-5.153933e-06	-2.750578e-08	-3.741259e+01	-1.806969e+03
4.200000e-07	-5.053693e-06	-2.734347e-08	-3.668494e+01	-1.795613e+03
4.300000e-07	-4.951711e-06	-2.715995e-08	-3.594465e+01	-1.783658e+03
4.400000e-07	-4.848037e-06	-2.696335e-08	-3.519208e+01	-1.771095e+03
4.500000e-07	-4.742567e-06	-2.676713e-08	-3.442647e+01	-1.757949e+03
4.600000e-07	-4.635329e-06	-2.656324e-08	-3.364803e+01	-1.744266e+03
4.700000e-07	-4.526461e-06	-2.635081e-08	-3.285775e+01	-1.730094e+03
4.800000e-07	-4.416058e-06	-2.612657e-08	-3.205633e+01	-1.715458e+03
4.900000e-07	-4.304037e-06	-2.590036e-08	-3.124317e+01	-1.700340e+03
5.000000e-07	-4.190285e-06	-2.565366e-08	-3.041743e+01	-1.684678e+03
5.100000e-07	-4.074785e-06	-2.539728e-08	-2.957902e+01	-1.668372e+03
5.200000e-07	-3.957651e-06	-2.512981e-08	-2.872874e+01	-1.651302e+03
5.300000e-07	-3.839092e-06	-2.485404e-08	-2.786811e+01	-1.633361e+03
5.400000e-07	-3.719122e-06	-2.456258e-08	-2.699724e+01	-1.614471e+03
5.500000e-07	-3.597667e-06	-2.425944e-08	-2.611560e+01	-1.594599e+03
5.600000e-07	-3.474853e-06	-2.394537e-08	-2.522408e+01	-1.573756e+03
5.700000e-07	-3.350740e-06	-2.361525e-08	-2.432314e+01	-1.551974e+03
5.800000e-07	-3.225326e-06	-2.327088e-08	-2.341276e+01	-1.529284e+03
5.900000e-07	-3.098768e-06	-2.290959e-08	-2.249407e+01	-1.505679e+03
6.000000e-07	-2.971176e-06	-2.253297e-08	-2.156788e+01	-1.481093e+03
6.100000e-07	-2.842445e-06	-2.213484e-08	-2.063341e+01	-1.455396e+03
6.200000e-07	-2.712541e-06	-2.171876e-08	-1.969043e+01	-1.428396e+03
6.300000e-07	-2.581601e-06	-2.127800e-08	-1.873994e+01	-1.399874e+03
6.400000e-07	-2.449748e-06	-2.081205e-08	-1.778281e+01	-1.369612e+03
6.500000e-07	-2.317038e-06	-2.031987e-08	-1.681946e+01	-1.337425e+03
6.600000e-07	-2.183529e-06	-1.980089e-08	-1.585032e+01	-1.303180e+03
6.700000e-07	-2.049307e-06	-1.925283e-08	-1.487600e+01	-1.266791e+03
6.800000e-07	-1.914405e-06	-1.866847e-08	-1.389674e+01	-1.228192e+03
6.900000e-07	-1.778860e-06	-1.804621e-08	-1.291281e+01	-1.187302e+03
7.000000e-07	-1.642685e-06	-1.738132e-08	-1.192431e+01	-1.143978e+03
7.100000e-07	-1.505903e-06	-1.667357e-08	-1.093141e+01	-1.097984e+03
7.200000e-07	-1.368522e-06	-1.591842e-08	-9.934155e+00	-1.048996e+03
7.300000e-07	-1.230601e-06	-1.511282e-08	-8.932977e+00	-9.966236e+02
7.400000e-07	-1.092227e-06	-1.425222e-08	-7.928513e+00	-9.404818e+02
7.500000e-07	-9.534073e-07	-1.333359e-08	-6.920819e+00	-8.802701e+02
7.600000e-07	-8.142178e-07	-1.235642e-08	-5.910437e+00	-8.158597e+02
7.700000e-07	-6.747590e-07	-1.131969e-08	-4.898100e+00	-7.473571e+02
7.800000e-07	-5.350840e-07	-1.022656e-08	-3.884194e+00	-6.751262e+02
7.900000e-07	-3.952486e-07	-9.081042e-09	-2.869124e+00	-5.997575e+02
8.000000e-07	-2.552385e-07	-7.893377e-09	-1.852786e+00	-5.219853e+02
8.100000e-07	-1.150990e-07	-6.676843e-09	-8.355076e-01	-4.425664e+02
8.200000e-07	2.507528e-08	-5.445451e-09	1.820224e-01	-3.621462e+02
8.300000e-07	1.652852e-07	-4.205960e-09	1.199812e+00	-2.811427e+02
8.400000e-07	3.055195e-07	-2.961812e-09	2.217778e+00	-1.996764e+02
8.500000e-07	4.456622e-07	-1.713626e-09	3.235078e+00	-1.175675e+02
8.600000e-07	5.856700e-07	-4.538048e-10	4.251400e+00	-3.440395e+01
8.700000e-07	7.254997e-07	8.271384e-10	5.266429e+00	5.032896e+01
8.800000e-07	8.650458e-07	2.139699e-09	6.279399e+00	1.370842e+02
8.900000e-07	1.004313e-06	3.488043e-09	7.290347e+00	2.260883e+02
9.000000e-07	1.143239e-06	4.873878e-09	8.298815e+00	3.172120e+02
9.100000e-07	1.281738e-06	6.291190e-09	9.304186e+00	4.099068e+02
9.200000e-07	1.419740e-06	7.723345e-09	1.030595e+01	5.032205e+02
9.300000e-07	1.557132e-06	9.143701e-09	1.130328e+01	5.958928e+02
9.400000e-07	1.693845e-06	1.052581e-08	1.229568e+01	6.865095e+02
9.500000e-07	1.829836e-06	1.184978e-08	1.328285e+01	7.736864e+02
9.600000e-07	1.965120e-06	1.309579e-08	1.426488e+01	8.562453e+02
9.700000e-07	2.099704e-06	1.425241e-08	1.524183e+01	9.333486e+02
9.800000e-07	2.233534e-06	1.531878e-08	1.621330e+01	1.004570e+03
9.900000e-07	2.366559e-06	1.630152e-08	1.717894e+01	1.069893e+03
1.000000e-06	2.498739e-06	1.720886e-08	1.813844e+01	1.129643e+03
1.010000e-06	2.629981e-06	1.804653e-08	1.909113e+01	1.184376e+03
1.020000e-06	2.760236e-06	1.881935e-08	2.003666e+01	1.234745e+03
1.030000e-06	2.889435e-06	1.953292e-08	2.097452e+01	1.281387e+03
1.040000e-06	3.017438e-06	2.019210e-08	2.190369e+01	1.324834e+03
1.050000e-06	3.144265e-06	2.080436e-08	2.282434e+01	1.365472e+03
1.060000e-06	3.270076e-06	2.137581e-08	2.373761e+01	1.403548e+03
1.070000e-06	3.394857e-06	2.191030e-08	2.464339e+01	1.439203e+03
1.080000e-06	3.518449e-06	2.240908e-08	2.554055e+01	1.472530e+03
1.090000e-06	3.640834e-06	2.287565e-08	2.642895e+01	1.503626e+03
1.100000e-06	3.761853e-06	2.331593e-08	2.730743e+01	1.532628e+03
1.110000e-06	3.881379e-06	2.373184e-08	2.817508e+01	1.559722e+03
1.120000e-06	3.999542e-06	2.412382e-08	2.903283e+01	1.585132e+03
1.130000e-06	4.116314e-06	2.449468e-08	2.988047e+01	1.609092e+03
1.140000e-06	4.231518e-06	2.484557e-08	3.071674e+01	1.631808e+03
1.150000e-06	4.345025e-06	2.517645e-08	3.154070e+01	1.653433e+03
1.160000e-06	4.456833e-06	2.548791e-08	3.235232e+01	1.674056e+03
1.170000e-06	4.567070e-06	2.577956e-08	3.315253e+01	1.693705e+03
1.180000e-06	4.675816e-06	2.605580e-08	3.394192e+01	1.712371e+03
1.190000e-06	4.782965e-06	2.632123e-08	3.471972e+01	1.730036e+03
1.200000e-06	4.888399e-06	2.657437e-08	3.548507e+01	1.746700e+03
1.210000e-06	4.992006e-06	2.681513e-08	3.623715e+01	1.762400e+03
1.220000e-06	5.093793e-06	2.704314e-08	3.697603e+01	1.777213e+03
1.230000e-06	5.193782e-06	2.726042e-08	3.770186e+01	1.791245e+03
1.240000e-06	5.291824e-06	2.746600e-08	3.841354e+01	1.804613e+03
1.250000e-06	5.387807e-06	2.765885e-08	3.911029e+01	1.817415e+03
1.260000e-06	5.481802e-06	2.784301e-08	3.979260e+01	1.829718e+03
1.270000e-06	5.573930e-06	2.801805e-08	4.046136e+01	1.841545e+03
1.280000e-06	5.664046e-06	2.818673e-08	4.111552e+01	1.852883e+03
1.290000e-06	5.752010e-06	2.834913e-08	4.175405e+01	1.863692e+03
1.300000e-06	5.837911e-06	2.850513e-08	4.237761e+01	1.873934e+03
1.310000e-06	5.921831e-06	2.865410e-08	4.298679e+01	1.883582e+03
1.320000e-06	6.003692e-06	2.879524e-08	4.358102e+01	1.892642e+03
1.330000e-06	6.083341e-06	2.892960e-08	4.415920e+01	1.901150e+03
1.340000e-06	6.160737e-06	2.905708e-08	4.472101e+01	1.909165e+03
1.350000e-06	6.235783e-06	2.917595e-08	4.526578e+01	1.916754e+03
1.360000e-06	6.308422e-06	2.928672e-08	4.579307e+01	1.923977e+03
1.370000e-06	6.378775e-06	2.939156e-08	4.630377e+01	1.930872e+03
1.380000e-06	6.446914e-06	2.948967e-08	4.679838e+01	1.937448e+03
1.390000e-06	6.512715e-06	2.958205e-08	4.727604e+01	1.943696e+03
1.400000e-06	6.576159e-06	2.966985e-08	4.773658e+01	1.949591e+03
1.410000e-06	6.637428e-06	2.975287e-08	4.818134e+01	1.955113e+03
1.420000e-06	6.696431e-06	2.983209e-08	4.860964e+01	1.960261e+03
1.430000e-06	6.752982e-06	2.990805e-08	4.902014e+01	1.965054e+03
1.440000e-06	6.807084e-06	2.997893e-08	4.941287e+01	1.969534e+03
1.450000e-06	6.858503e-06	3.004442e-08	4.978612e+01	1.973755e+03
1.460000e-06	6.907049e-06	3.010660e-08	5.013853e+01	1.977769e+03
1.470000e-06	6.953047e-06	3.016679e-08	5.047243e+01	1.981610e+03
1.480000e-06	6.996737e-06	3.022464e-08	5.078957e+01	1.985283e+03
1.490000e-06	7.037911e-06	3.027873e-08	5.108846e+01	1.988766e+03
1.500000e-06	7.076534e-06	3.032748e-08	5.136882e+01	1.992014e+03
1.510000e-06	7.112779e-06	3.037173e-08	5.163192e+01	1.994972e+03
1.520000e-06	7.146467e-06	3.041067e-08	5.187647e+01	1.997595e+03
1.530000e-06	7.177517e-06	3.044428e-08	5.210186e+01	1.999860e+03
1.540000e-06	7.206156e-06	3.047503e-08	5.230975e+01	2.001775e+03
1.550000e-06	7.232210e-06	3.050255e-08	5.249888e+01	2.003377e+03
1.560000e-06	7.255491e-06	3.052653e-08	5.266788e+01	2.004721e+03
1.570000e-06	7.276259e-06	3.054693e-08	5.281863e+01	2.005868e+03
1.580000e-06	7.294539e-06	3.056463e-08	5.295133e+01	2.006866e+03
1.590000e-06	7.310092e-06	3.057893e-08	5.306423e+01	2.007739e+03
1.600000e-06	7.322798e-06	3.058925e-08	5.315646e+01	2.008483e+03
1.610000e-06	7.332636e-06	3.059747e-08	5.322788e+01	2.009071e+03
1.620000e-06	7.339684e-06	3.060326e-08	5.327903e+01	2.009461e+03
1.630000e-06	7.344158e-06	3.060564e-08	5.331151e+01	2.009615e+03
1.640000e-06	7.346043e-06	3.060670e-08	5.332520e+01	2.009510e+03
1.650000e-06	7.345299e-06	3.060492e-08	5.331980e+01	2.009145e+03
1.660000e-06	7.342144e-06	3.059134e-08	5.329689e+01	2.008542e+03
1.670000e-06	7.336568e-06	3.058062e-08	5.325642e+01	2.007737e+03
1.680000e-06	7.328486e-06	3.057072e-08	5.319775e+01	2.006770e+03
1.690000e-06	7.318000e-06	3.055803e-08	5.312163e+01	2.005671e+03
1.700000e-06	7.304918e-06	3.054337e-08	5.302667e+01	2.004449e+03
1.710000e-06	7.289288e-06	3.053060e-08	5.291321e+01	2.003096e+03
1.720000e-06	7.271485e-06	3.052211e-08	5.278398e+01	2.001586e+03
1.730000e-06	7.251614e-06	3.045199e-08	5.263973e+01	1.999888e+03
1.740000e-06	7.229054e-06	3.034803e-08	5.247597e+01	1.997985e+03
1.750000e-06	7.203058e-06	3.036794e-08	5.228726e+01	1.995875e+03
1.760000e-06	7.173711e-06	3.037509e-08	5.207423e+01	1.993582e+03
1.770000e-06	7.141693e-06	3.031388e-08	5.184181e+01	1.991148e+03
1.780000e-06	7.107663e-06	3.031997e-08	5.159479e+01	1.988619e+03
1.790000e-06	7.071972e-06	3.035753e-08	5.133570e+01	1.986033e+03
1.800000e-06	7.034608e-06	3.018448e-08	5.106448e+01	1.983399e+03
1.810000e-06	6.994797e-06	3.019400e-08	5.077549e+01	1.980691e+03
1.820000e-06	6.952339e-06	3.023515e-08	5.046729e+01	1.977848e+03
1.830000e-06	6.907711e-06	3.009831e-08	5.014333e+01	1.974785e+03
1.840000e-06	6.860594e-06	3.016906e-08	4.980131e+01	1.971411e+03
1.850000e-06	6.810841e-06	3.000617e-08	4.944015e+01	1.967649e+03
1.860000e-06	6.758432e-06	2.995387e-08	4.905971e+01	1.963458e+03
1.870000e-06	6.703184e-06	2.994646e-08	4.865866e+01	1.958837e+03
1.880000e-06	6.645467e-06	2.976325e-08	4.823969e+01	1.953828e+03
1.890000e-06	6.585277e-06	2.978169e-08	4.780277e+01	1.948498e+03
1.900000e-06	6.522516e-06	2.965433e-08	4.734718e+01	1.942922e+03
1.910000e-06	6.457318e-06	2.957531e-08	4.687391e+01	1.937159e+03
1.920000e-06	6.389720e-06	2.950633e-08	4.638321e+01	1.931234e+03
1.930000e-06	6.319728e-06	2.938067e-08	4.587514e+01	1.925131e+03
1.940000e-06	6.247269e-06	2.934376e-08	4.534916e+01	1.918799e+03
1.950000e-06	6.172382e-06	2.916623e-08	4.480555e+01	1.912166e+03
1.960000e-06	6.094919e-06	2.908865e-08	4.424325e+01	1.905159e+03
1.970000e-06	6.014994e-06	2.895618e-08	4.366306e+01	1.897727e+03
1.980000e-06	5.932983e-06	2.884292e-08	4.306775e+01	1.889853e+03
1.990000e-06	5.848926e-06	2.875062e-08	4.245757e+01	1.881554e+03
2.000000e-06	5.762744e-06	2.858853e-08	4.183197e+01	1.872878e+03
2.010000e-06	5.674401e-06	2.848905e-08	4.119069e+01	1.863879e+03
2.020000e-06	5.584047e-06	2.831839e-08	4.053481e+01	1.854601e+03
2.030000e-06	5.491719e-06	2.818789e-08	3.986459e+01	1.845056e+03
2.040000e-06	5.397414e-06	2.803282e-08	3.918002e+01	1.835218e+03
2.050000e-06	5.301240e-06	2.787969e-08	3.848190e+01	1.825023e+03
2.060000e-06	5.203317e-06	2.771028e-08	3.777107e+01	1.814390e+03
2.070000e-06	5.103689e-06	2.752569e-08	3.704786e+01	1.803236e+03
2.080000e-06	5.002170e-06	2.736226e-08	3.631093e+01	1.791497e+03
2.090000e-06	4.898709e-06	2.717106e-08	3.555991e+01	1.779150e+03
2.100000e-06	4.793463e-06	2.699121e-08	3.479593e+01	1.766206e+03
2.110000e-06	4.686693e-06	2.678522e-08	3.402087e+01	1.752707e+03
2.120000e-06	4.578421e-06	2.657730e-08	3.323493e+01	1.738705e+03
2.130000e-06	4.468532e-06	2.634507e-08	3.243724e+01	1.724233e+03
2.140000e-06	4.356918e-06	2.611491e-08	3.162703e+01	1.709292e+03
2.150000e-06	4.243576e-06	2.587820e-08	3.080428e+01	1.693833e+03
2.160000e-06	4.128588e-06	2.563325e-08	2.996957e+01	1.677769e+03
2.170000e-06	4.011835e-06	2.537797e-08	2.912206e+01	1.660985e+03
2.180000e-06	3.893414e-06	2.510853e-08	2.826244e+01	1.643365e+03
2.190000e-06	3.773499e-06	2.483126e-08	2.739197e+01	1.624819e+03
2.200000e-06	3.652195e-06	2.453844e-08	2.651142e+01	1.605298e+03
2.210000e-06	3.529621e-06	2.423673e-08	2.562165e+01	1.584798e+03
2.220000e-06	3.405736e-06	2.391308e-08	2.472236e+01	1.563346e+03
2.230000e-06	3.280482e-06	2.357666e-08	2.381314e+01	1.540978e+03
2.240000e-06	3.153999e-06	2.321869e-08	2.289499e+01	1.517703e+03
2.250000e-06	3.026366e-06	2.284814e-08	2.196850e+01	1.493478e+03
2.260000e-06	2.897592e-06	2.245700e-08	2.103373e+01	1.468196e+03
2.270000e-06	2.767769e-06	2.204946e-08	2.009134e+01	1.441685e+03
2.280000e-06	2.637020e-06	2.162152e-08	1.914223e+01	1.413732e+03
2.290000e-06	2.505397e-06	2.117079e-08	1.818677e+01	1.384114e+03
2.300000e-06	2.372844e-06	2.069408e-08	1.722456e+01	1.352632e+03
2.310000e-06	2.239409e-06	2.018854e-08	1.625595e+01	1.319133e+03
2.320000e-06	2.105177e-06	1.965176e-08	1.528156e+01	1.283516e+03
2.330000e-06	1.970246e-06	1.907657e-08	1.430209e+01	1.245713e+03
2.340000e-06	1.834668e-06	1.846766e-08	1.331792e+01	1.205653e+03
2.350000e-06	1.698466e-06	1.782168e-08	1.232923e+01	1.163219e+03
2.360000e-06	1.561687e-06	1.713552e-08	1.133634e+01	1.118211e+03
2.370000e-06	1.424428e-06	1.640221e-08	1.033998e+01	1.070334e+03
2.380000e-06	1.286735e-06	1.561781e-08	9.340458e+00	1.019215e+03
2.390000e-06	1.148623e-06	1.477835e-08	8.337898e+00	9.644598e+02
2.400000e-06	1.010150e-06	1.388010e-08	7.332713e+00	9.057262e+02
2.410000e-06	8.713394e-07	1.292225e-08	6.325085e+00	8.428155e+02
2.420000e-06	7.322292e-07	1.190579e-08	5.315279e+00	7.757450e+02
2.430000e-06	5.928139e-07	1.083277e-08	4.303258e+00	7.047875e+02
2.440000e-06	4.531624e-07	9.705774e-09	3.289523e+00	6.304594e+02
2.450000e-06	3.133261e-07	8.530421e-09	2.274446e+00	5.534562e+02
2.460000e-06	1.732951e-07	7.319158e-09	1.257955e+00	4.745419e+02
2.470000e-06	3.311523e-08	6.086581e-09	2.403847e-01	3.944166e+02
2.480000e-06	-1.070945e-07	4.844743e-09	-7.774026e-01	3.135905e+02
2.490000e-06	-2.472238e-07	3.597481e-09	-1.794606e+00	2.322944e+02
2.500000e-06	-3.872866e-07	2.343000e-09	-2.811328e+00	1.504517e+02
2.510000e-06	-5.272740e-07	1.079422e-09	-3.827501e+00	6.772096e+01
2.520000e-06	-6.670882e-07	-2.012844e-10	-4.842418e+00	-1.639344e+01
2.530000e-06	-8.066518e-07	-1.509839e-09	-5.855516e+00	-1.023863e+02
2.540000e-06	-9.459245e-07	-2.851352e-09	-6.866501e+00	-1.905823e+02
2.550000e-06	-1.084827e-06	-4.226560e-09	-7.874802e+00	-2.809905e+02
2.560000e-06	-1.223293e-06	-5.635113e-09	-8.879928e+00	-3.732147e+02
2.570000e-06	-1.361365e-06	-7.067205e-09	-9.882199e+00	-4.664397e+02
2.580000e-06	-1.498995e-06	-8.501246e-09	-1.088126e+01	-5.595001e+02
2.590000e-06	-1.635993e-06	-9.911266e-09	-1.187573e+01	-6.510162e+02
2.600000e-06	-1.772286e-06	-1.127047e-08	-1.286509e+01	-7.395719e+02
2.610000e-06	-1.907901e-06	-1.255992e-08	-1.384952e+01	-8.238970e+02
2.620000e-06	-2.042797e-06	-1.376377e-08	-1.482874e+01	-9.030205e+02
2.630000e-06	-2.176938e-06	-1.487749e-08	-1.580247e+01	-9.763658e+02
2.640000e-06	-2.310288e-06	-1.590598e-08	-1.677046e+01	-1.043775e+03
2.650000e-06	-2.442720e-06	-1.685385e-08	-1.773179e+01	-1.105462e+03
2.660000e-06	-2.574145e-06	-1.772690e-08	-1.868581e+01	-1.161914e+03
2.670000e-06	-2.704585e-06	-1.853125e-08	-1.963268e+01	-1.213766e+03
2.680000e-06	-2.834084e-06	-1.927464e-08	-2.057272e+01	-1.261672e+03
2.690000e-06	-2.962634e-06	-1.996232e-08	-2.150587e+01	-1.306209e+03
2.700000e-06	-3.090147e-06	-2.060074e-08	-2.243149e+01	-1.347816e+03
2.710000e-06	-3.216564e-06	-2.119682e-08	-2.334916e+01	-1.386787e+03
2.720000e-06	-3.341823e-06	-2.175461e-08	-2.425841e+01	-1.423296e+03
2.730000e-06	-3.465809e-06	-2.227478e-08	-2.515844e+01	-1.457445e+03
2.740000e-06	-3.588558e-06	-2.275746e-08	-2.604948e+01	-1.489326e+03
2.750000e-06	-3.710107e-06	-2.320853e-08	-2.693181e+01	-1.519057e+03
2.760000e-06	-3.830265e-06	-2.363191e-08	-2.780403e+01	-1.546809e+03
2.770000e-06	-3.948944e-06	-2.403194e-08	-2.866553e+01	-1.572795e+03
2.780000e-06	-4.066096e-06	-2.441410e-08	-2.951594e+01	-1.597248e+03
2.790000e-06	-4.181596e-06	-2.477555e-08	-3.035436e+01	-1.620388e+03
2.800000e-06	-4.295413e-06	-2.511555e-08	-3.118056e+01	-1.642390e+03
2.810000e-06	-4.407526e-06	-2.543396e-08	-3.199439e+01	-1.663366e+03
2.820000e-06	-4.517960e-06	-2.573382e-08	-3.279604e+01	-1.683363e+03
2.830000e-06	-4.626852e-06	-2.602009e-08	-3.358649e+01	-1.702384e+03
2.840000e-06	-4.734257e-06	-2.629147e-08	-3.436614e+01	-1.720408e+03
2.850000e-06	-4.840106e-06	-2.654848e-08	-3.513451e+01	-1.737428e+03
2.860000e-06	-4.944194e-06	-2.679316e-08	-3.589009e+01	-1.753466e+03
2.870000e-06	-5.046354e-06	-2.702757e-08	-3.663167e+01	-1.768586e+03
2.880000e-06	-5.146604e-06	-2.725299e-08	-3.735939e+01	-1.782885e+03
2.890000e-06	-5.245068e-06	-2.746818e-08	-3.807414e+01	-1.796478e+03
2.900000e-06	-5.341777e-06	-2.767295e-08	-3.877615e+01	-1.809473e+03
2.910000e-06	-5.436525e-06	-2.786648e-08	-3.946393e+01	-1.821950e+03
2.920000e-06	-5.529221e-06	-2.804888e-08	-4.013682e+01	-1.833948e+03
2.930000e-06	-5.619949e-06	-2.822114e-08	-4.079542e+01	-1.845465e+03
2.940000e-06	-5.708736e-06	-2.838421e-08	-4.143992e+01	-1.856469e+03
