# Temperatura_=_43.8
# Concentracion g/m^3_=_28200.0
# C_Vs_to_Am_M_A/Vsm_=_65563218390.804596
# pendiente_HvsI_1/m_=_3716.3
# ordenada_HvsI_A/m_=_1297.0
# frecuencia_Hz_=_302374.0950311584

Tiempo_(s)	Campo_(V.s)	Magnetizacion_(V.s)	Campo_(kA/m)	Magnetizacion_(A/m)
0.000000e+00	-7.305396e-06	-2.997972e-08	-5.318567e+01	-1.962072e+03
1.000000e-08	-7.301558e-06	-2.997692e-08	-5.315772e+01	-1.961544e+03
2.000000e-08	-7.295414e-06	-2.995946e-08	-5.311299e+01	-1.960836e+03
3.000000e-08	-7.286856e-06	-2.994349e-08	-5.305069e+01	-1.959967e+03
4.000000e-08	-7.275733e-06	-2.992894e-08	-5.296971e+01	-1.958949e+03
5.000000e-08	-7.261922e-06	-2.991045e-08	-5.286916e+01	-1.957783e+03
6.000000e-08	-7.245432e-06	-2.988272e-08	-5.274911e+01	-1.956465e+03
7.000000e-08	-7.226697e-06	-2.984886e-08	-5.261271e+01	-1.954984e+03
8.000000e-08	-7.205874e-06	-2.982770e-08	-5.246112e+01	-1.953337e+03
9.000000e-08	-7.182518e-06	-2.990201e-08	-5.229107e+01	-1.951531e+03
1.000000e-07	-7.156201e-06	-2.986060e-08	-5.209948e+01	-1.949589e+03
1.100000e-07	-7.127030e-06	-2.974355e-08	-5.188710e+01	-1.947549e+03
1.200000e-07	-7.095385e-06	-2.970583e-08	-5.165672e+01	-1.945447e+03
1.300000e-07	-7.061277e-06	-2.967303e-08	-5.140840e+01	-1.943315e+03
1.400000e-07	-7.024883e-06	-2.956001e-08	-5.114344e+01	-1.941159e+03
1.500000e-07	-6.986683e-06	-2.946838e-08	-5.086533e+01	-1.938953e+03
1.600000e-07	-6.946418e-06	-2.964754e-08	-5.057219e+01	-1.936640e+03
1.700000e-07	-6.903658e-06	-2.953636e-08	-5.026088e+01	-1.934135e+03
1.800000e-07	-6.858582e-06	-2.940782e-08	-4.993271e+01	-1.931345e+03
1.900000e-07	-6.810973e-06	-2.947428e-08	-4.958611e+01	-1.928183e+03
2.000000e-07	-6.760453e-06	-2.926907e-08	-4.921830e+01	-1.924596e+03
2.100000e-07	-6.707242e-06	-2.921251e-08	-4.883091e+01	-1.920570e+03
2.200000e-07	-6.651511e-06	-2.919281e-08	-4.842517e+01	-1.916137e+03
2.300000e-07	-6.593256e-06	-2.911778e-08	-4.800105e+01	-1.911362e+03
2.400000e-07	-6.532569e-06	-2.908562e-08	-4.755923e+01	-1.906333e+03
2.500000e-07	-6.469529e-06	-2.895913e-08	-4.710028e+01	-1.901128e+03
2.600000e-07	-6.404048e-06	-2.891562e-08	-4.662356e+01	-1.895797e+03
2.700000e-07	-6.336090e-06	-2.881831e-08	-4.612881e+01	-1.890353e+03
2.800000e-07	-6.265804e-06	-2.871135e-08	-4.561710e+01	-1.884758e+03
2.900000e-07	-6.193135e-06	-2.863586e-08	-4.508804e+01	-1.878943e+03
3.000000e-07	-6.117935e-06	-2.853930e-08	-4.454057e+01	-1.872821e+03
3.100000e-07	-6.040186e-06	-2.844328e-08	-4.397452e+01	-1.866311e+03
3.200000e-07	-5.959937e-06	-2.827978e-08	-4.339029e+01	-1.859362e+03
3.300000e-07	-5.877502e-06	-2.822546e-08	-4.279014e+01	-1.851961e+03
3.400000e-07	-5.793137e-06	-2.811227e-08	-4.217593e+01	-1.844134e+03
3.500000e-07	-5.706884e-06	-2.796091e-08	-4.154798e+01	-1.835936e+03
3.600000e-07	-5.618661e-06	-2.785093e-08	-4.090569e+01	-1.827430e+03
3.700000e-07	-5.528322e-06	-2.771363e-08	-4.024799e+01	-1.818662e+03
3.800000e-07	-5.435955e-06	-2.757022e-08	-3.957553e+01	-1.809645e+03
3.900000e-07	-5.341694e-06	-2.741504e-08	-3.888928e+01	-1.800351e+03
4.000000e-07	-5.245561e-06	-2.729102e-08	-3.818940e+01	-1.790713e+03
4.100000e-07	-5.147543e-06	-2.711628e-08	-3.747579e+01	-1.780644e+03
4.200000e-07	-5.047700e-06	-2.694108e-08	-3.674891e+01	-1.770054e+03
4.300000e-07	-4.946135e-06	-2.677323e-08	-3.600948e+01	-1.758879e+03
4.400000e-07	-4.842810e-06	-2.660133e-08	-3.525724e+01	-1.747088e+03
4.500000e-07	-4.737799e-06	-2.641232e-08	-3.449272e+01	-1.734691e+03
4.600000e-07	-4.631091e-06	-2.621530e-08	-3.371585e+01	-1.721728e+03
4.700000e-07	-4.522670e-06	-2.601553e-08	-3.292651e+01	-1.708249e+03
4.800000e-07	-4.412726e-06	-2.578927e-08	-3.212609e+01	-1.694291e+03
4.900000e-07	-4.301184e-06	-2.556342e-08	-3.131403e+01	-1.679856e+03
5.000000e-07	-4.187879e-06	-2.533863e-08	-3.048913e+01	-1.664903e+03
5.100000e-07	-4.072760e-06	-2.511129e-08	-2.965102e+01	-1.649347e+03
5.200000e-07	-3.955982e-06	-2.485114e-08	-2.880084e+01	-1.633078e+03
5.300000e-07	-3.837820e-06	-2.458167e-08	-2.794058e+01	-1.615981e+03
5.400000e-07	-3.718308e-06	-2.430677e-08	-2.707049e+01	-1.597962e+03
5.500000e-07	-3.597436e-06	-2.402050e-08	-2.619051e+01	-1.578963e+03
5.600000e-07	-3.475134e-06	-2.371849e-08	-2.530011e+01	-1.558968e+03
5.700000e-07	-3.351379e-06	-2.340055e-08	-2.439914e+01	-1.537990e+03
5.800000e-07	-3.226391e-06	-2.306438e-08	-2.348918e+01	-1.516050e+03
5.900000e-07	-3.100352e-06	-2.270385e-08	-2.257158e+01	-1.493148e+03
6.000000e-07	-2.973160e-06	-2.233296e-08	-2.164558e+01	-1.469238e+03
6.100000e-07	-2.844791e-06	-2.194807e-08	-2.071101e+01	-1.444215e+03
6.200000e-07	-2.715457e-06	-2.154926e-08	-1.976941e+01	-1.417914e+03
6.300000e-07	-2.585118e-06	-2.112332e-08	-1.882050e+01	-1.390133e+03
6.400000e-07	-2.453697e-06	-2.066987e-08	-1.786372e+01	-1.360656e+03
6.500000e-07	-2.321353e-06	-2.018531e-08	-1.690021e+01	-1.329285e+03
6.600000e-07	-2.188299e-06	-1.967429e-08	-1.593153e+01	-1.295858e+03
6.700000e-07	-2.054639e-06	-1.913712e-08	-1.495844e+01	-1.260256e+03
6.800000e-07	-1.920295e-06	-1.856371e-08	-1.398038e+01	-1.222386e+03
6.900000e-07	-1.785161e-06	-1.795240e-08	-1.299655e+01	-1.182150e+03
7.000000e-07	-1.649265e-06	-1.729967e-08	-1.200719e+01	-1.139411e+03
7.100000e-07	-1.512776e-06	-1.660396e-08	-1.101351e+01	-1.093965e+03
7.200000e-07	-1.375853e-06	-1.585767e-08	-1.001666e+01	-1.045532e+03
7.300000e-07	-1.238510e-06	-1.506347e-08	-9.016756e+00	-9.937819e+02
7.400000e-07	-1.100702e-06	-1.421579e-08	-8.013471e+00	-9.383832e+02
7.500000e-07	-9.624693e-07	-1.331039e-08	-7.007091e+00	-8.790809e+02
7.600000e-07	-8.238234e-07	-1.234643e-08	-5.997703e+00	-8.157750e+02
7.700000e-07	-6.848422e-07	-1.132798e-08	-4.985875e+00	-7.485856e+02
7.800000e-07	-5.456734e-07	-1.025748e-08	-3.972680e+00	-6.778832e+02
7.900000e-07	-4.063333e-07	-9.137683e-09	-2.958239e+00	-6.042693e+02
8.000000e-07	-2.667662e-07	-7.982273e-09	-1.942145e+00	-5.285066e+02
8.100000e-07	-1.270201e-07	-6.803384e-09	-9.247480e-01	-4.514060e+02
8.200000e-07	1.277723e-08	-5.614766e-09	9.302238e-02	-3.736933e+02
8.300000e-07	1.526098e-07	-4.424135e-09	1.111049e+00	-2.958831e+02
8.400000e-07	2.923787e-07	-3.239058e-09	2.128612e+00	-2.181885e+02
8.500000e-07	4.320129e-07	-2.057308e-09	3.145195e+00	-1.404915e+02
8.600000e-07	5.715328e-07	-8.694605e-10	4.160945e+00	-6.238283e+01
8.700000e-07	7.108489e-07	3.328712e-10	5.175212e+00	1.673096e+01
8.800000e-07	8.499049e-07	1.558052e-09	6.187585e+00	9.747389e+01
8.900000e-07	9.886715e-07	2.814239e-09	7.197851e+00	1.803299e+02
9.000000e-07	1.127092e-06	4.107379e-09	8.205595e+00	2.654906e+02
9.100000e-07	1.265107e-06	5.433265e-09	9.210395e+00	3.527538e+02
9.200000e-07	1.402649e-06	6.786751e-09	1.021174e+01	4.414938e+02
9.300000e-07	1.539681e-06	8.149939e-09	1.120938e+01	5.307099e+02
9.400000e-07	1.676110e-06	9.500694e-09	1.220263e+01	6.191447e+02
9.500000e-07	1.811861e-06	1.081622e-08	1.319094e+01	7.054462e+02
9.600000e-07	1.946866e-06	1.207516e-08	1.417382e+01	7.883426e+02
9.700000e-07	2.081074e-06	1.326117e-08	1.515090e+01	8.667963e+02
9.800000e-07	2.214537e-06	1.436385e-08	1.612255e+01	9.401100e+02
9.900000e-07	2.347259e-06	1.538507e-08	1.708881e+01	1.007968e+03
1.000000e-06	2.479119e-06	1.632956e-08	1.804879e+01	1.070412e+03
1.010000e-06	2.609979e-06	1.720048e-08	1.900150e+01	1.127766e+03
1.020000e-06	2.739824e-06	1.800372e-08	1.994681e+01	1.180529e+03
1.030000e-06	2.868667e-06	1.874631e-08	2.088484e+01	1.229259e+03
1.040000e-06	2.996446e-06	1.943482e-08	2.181511e+01	1.274482e+03
1.050000e-06	3.123044e-06	2.007445e-08	2.273678e+01	1.316627e+03
1.060000e-06	3.248549e-06	2.066942e-08	2.365050e+01	1.356006e+03
1.070000e-06	3.373054e-06	2.122426e-08	2.455694e+01	1.392826e+03
1.080000e-06	3.496364e-06	2.174114e-08	2.545467e+01	1.427228e+03
1.090000e-06	3.618398e-06	2.222407e-08	2.634312e+01	1.459331e+03
1.100000e-06	3.739197e-06	2.267770e-08	2.722258e+01	1.489267e+03
1.110000e-06	3.858612e-06	2.310342e-08	2.809196e+01	1.517205e+03
1.120000e-06	3.976590e-06	2.350162e-08	2.895087e+01	1.543346e+03
1.130000e-06	4.093124e-06	2.387818e-08	2.979928e+01	1.567908e+03
1.140000e-06	4.208084e-06	2.423552e-08	3.063623e+01	1.591097e+03
1.150000e-06	4.321377e-06	2.457403e-08	3.146103e+01	1.613084e+03
1.160000e-06	4.432949e-06	2.489267e-08	3.227331e+01	1.633983e+03
1.170000e-06	4.542962e-06	2.519208e-08	3.307425e+01	1.653855e+03
1.180000e-06	4.651552e-06	2.547453e-08	3.386481e+01	1.672718e+03
1.190000e-06	4.758567e-06	2.574129e-08	3.464392e+01	1.690568e+03
1.200000e-06	4.863844e-06	2.599302e-08	3.541037e+01	1.707407e+03
1.210000e-06	4.967289e-06	2.623295e-08	3.616349e+01	1.723259e+03
1.220000e-06	5.068942e-06	2.646203e-08	3.690355e+01	1.738185e+03
1.230000e-06	5.168807e-06	2.668030e-08	3.763060e+01	1.752273e+03
1.240000e-06	5.266701e-06	2.688649e-08	3.834330e+01	1.765631e+03
1.250000e-06	5.362564e-06	2.708050e-08	3.904122e+01	1.778359e+03
1.260000e-06	5.456564e-06	2.726520e-08	3.972557e+01	1.790539e+03
1.270000e-06	5.548731e-06	2.743887e-08	4.039657e+01	1.802214e+03
1.280000e-06	5.638887e-06	2.760436e-08	4.105294e+01	1.813395e+03
1.290000e-06	5.726893e-06	2.776322e-08	4.169365e+01	1.824062e+03
1.300000e-06	5.812828e-06	2.791537e-08	4.231929e+01	1.834180e+03
1.310000e-06	5.896820e-06	2.806114e-08	4.293077e+01	1.843722e+03
1.320000e-06	5.978708e-06	2.820081e-08	4.352695e+01	1.852678e+03
1.330000e-06	6.058374e-06	2.833332e-08	4.410694e+01	1.861067e+03
1.340000e-06	6.135792e-06	2.845702e-08	4.467057e+01	1.868930e+03
1.350000e-06	6.210803e-06	2.857168e-08	4.521667e+01	1.876326e+03
1.360000e-06	6.283381e-06	2.867844e-08	4.574507e+01	1.883319e+03
1.370000e-06	6.353710e-06	2.877988e-08	4.625708e+01	1.889960e+03
1.380000e-06	6.421822e-06	2.887556e-08	4.675296e+01	1.896283e+03
1.390000e-06	6.487558e-06	2.896519e-08	4.723154e+01	1.902298e+03
1.400000e-06	6.550949e-06	2.905042e-08	4.769305e+01	1.908002e+03
1.410000e-06	6.612204e-06	2.913163e-08	4.813900e+01	1.913383e+03
1.420000e-06	6.671304e-06	2.920853e-08	4.856927e+01	1.918433e+03
1.430000e-06	6.727996e-06	2.928026e-08	4.898201e+01	1.923156e+03
1.440000e-06	6.782164e-06	2.934680e-08	4.937637e+01	1.927572e+03
1.450000e-06	6.833613e-06	2.941058e-08	4.975094e+01	1.931711e+03
1.460000e-06	6.882226e-06	2.947204e-08	5.010485e+01	1.935607e+03
1.470000e-06	6.928349e-06	2.952916e-08	5.044064e+01	1.939288e+03
1.480000e-06	6.972191e-06	2.958208e-08	5.075983e+01	1.942768e+03
1.490000e-06	7.013458e-06	2.963159e-08	5.106027e+01	1.946041e+03
1.500000e-06	7.052100e-06	2.967740e-08	5.134159e+01	1.949086e+03
1.510000e-06	7.088442e-06	2.971856e-08	5.160617e+01	1.951870e+03
1.520000e-06	7.122318e-06	2.975530e-08	5.185280e+01	1.954363e+03
1.530000e-06	7.153526e-06	2.978890e-08	5.208000e+01	1.956547e+03
1.540000e-06	7.182344e-06	2.981800e-08	5.228981e+01	1.958422e+03
1.550000e-06	7.208605e-06	2.984249e-08	5.248100e+01	1.960009e+03
1.560000e-06	7.232039e-06	2.986322e-08	5.265161e+01	1.961344e+03
1.570000e-06	7.252972e-06	2.988081e-08	5.280400e+01	1.962469e+03
1.580000e-06	7.271475e-06	2.989755e-08	5.293871e+01	1.963423e+03
1.590000e-06	7.287243e-06	2.991179e-08	5.305351e+01	1.964233e+03
1.600000e-06	7.300235e-06	2.992182e-08	5.314809e+01	1.964904e+03
1.610000e-06	7.310356e-06	2.992926e-08	5.322178e+01	1.965429e+03
1.620000e-06	7.317617e-06	2.993457e-08	5.327464e+01	1.965785e+03
1.630000e-06	7.322374e-06	2.993758e-08	5.330928e+01	1.965951e+03
1.640000e-06	7.324562e-06	2.993898e-08	5.332520e+01	1.965909e+03
1.650000e-06	7.324072e-06	2.994071e-08	5.332163e+01	1.965655e+03
1.660000e-06	7.321174e-06	2.992614e-08	5.330053e+01	1.965195e+03
1.670000e-06	7.315896e-06	2.991617e-08	5.326211e+01	1.964549e+03
1.680000e-06	7.308099e-06	2.990702e-08	5.320535e+01	1.963735e+03
1.690000e-06	7.297863e-06	2.989297e-08	5.313083e+01	1.962769e+03
1.700000e-06	7.285058e-06	2.988016e-08	5.303760e+01	1.961656e+03
1.710000e-06	7.269655e-06	2.987453e-08	5.292546e+01	1.960392e+03
1.720000e-06	7.251988e-06	2.987946e-08	5.279684e+01	1.958970e+03
1.730000e-06	7.232305e-06	2.982375e-08	5.265354e+01	1.957381e+03
1.740000e-06	7.210069e-06	2.968151e-08	5.249166e+01	1.955629e+03
1.750000e-06	7.184458e-06	2.971847e-08	5.230520e+01	1.953732e+03
1.760000e-06	7.155440e-06	2.974557e-08	5.209394e+01	1.951722e+03
1.770000e-06	7.123673e-06	2.966381e-08	5.186266e+01	1.949637e+03
1.780000e-06	7.089837e-06	2.968319e-08	5.161633e+01	1.947513e+03
1.790000e-06	7.054333e-06	2.979383e-08	5.135785e+01	1.945366e+03
1.800000e-06	7.017275e-06	2.956673e-08	5.108805e+01	1.943182e+03
1.810000e-06	6.977813e-06	2.953785e-08	5.080076e+01	1.940916e+03
1.820000e-06	6.935655e-06	2.964404e-08	5.049383e+01	1.938489e+03
1.830000e-06	6.891346e-06	2.940989e-08	5.017125e+01	1.935811e+03
1.840000e-06	6.844566e-06	2.957566e-08	4.983067e+01	1.932789e+03
1.850000e-06	6.795183e-06	2.946742e-08	4.947115e+01	1.929358e+03
1.860000e-06	6.743189e-06	2.937569e-08	4.909262e+01	1.925486e+03
1.870000e-06	6.688365e-06	2.938517e-08	4.869348e+01	1.921191e+03
1.880000e-06	6.631102e-06	2.911846e-08	4.827658e+01	1.916529e+03
1.890000e-06	6.571371e-06	2.919753e-08	4.784172e+01	1.911580e+03
1.900000e-06	6.508973e-06	2.906560e-08	4.738745e+01	1.906429e+03
1.910000e-06	6.444102e-06	2.899735e-08	4.691517e+01	1.901140e+03
1.920000e-06	6.376912e-06	2.899678e-08	4.642600e+01	1.895737e+03
1.930000e-06	6.307390e-06	2.880412e-08	4.591986e+01	1.890202e+03
1.940000e-06	6.235336e-06	2.879184e-08	4.539528e+01	1.884474e+03
1.950000e-06	6.160890e-06	2.861822e-08	4.485329e+01	1.878471e+03
1.960000e-06	6.083904e-06	2.859844e-08	4.429281e+01	1.872107e+03
1.970000e-06	6.004367e-06	2.846684e-08	4.371375e+01	1.865318e+03
1.980000e-06	5.922766e-06	2.831451e-08	4.311967e+01	1.858077e+03
1.990000e-06	5.839167e-06	2.826961e-08	4.251104e+01	1.850396e+03
2.000000e-06	5.753435e-06	2.808241e-08	4.188688e+01	1.842323e+03
2.010000e-06	5.665530e-06	2.801650e-08	4.124690e+01	1.833920e+03
2.020000e-06	5.575643e-06	2.786330e-08	4.059250e+01	1.825241e+03
2.030000e-06	5.483828e-06	2.774930e-08	3.992406e+01	1.816313e+03
2.040000e-06	5.390043e-06	2.757446e-08	3.924127e+01	1.807123e+03
2.050000e-06	5.294325e-06	2.741804e-08	3.854441e+01	1.797617e+03
2.060000e-06	5.196803e-06	2.730343e-08	3.783442e+01	1.787712e+03
2.070000e-06	5.097640e-06	2.712717e-08	3.711248e+01	1.777317e+03
2.080000e-06	4.996656e-06	2.697518e-08	3.637729e+01	1.766356e+03
2.090000e-06	4.893706e-06	2.677484e-08	3.562778e+01	1.754784e+03
2.100000e-06	4.788937e-06	2.660523e-08	3.486503e+01	1.742600e+03
2.110000e-06	4.682673e-06	2.640337e-08	3.409139e+01	1.729833e+03
2.120000e-06	4.574922e-06	2.622432e-08	3.330693e+01	1.716532e+03
2.130000e-06	4.465604e-06	2.602908e-08	3.251106e+01	1.702742e+03
2.140000e-06	4.354585e-06	2.580803e-08	3.170280e+01	1.688479e+03
2.150000e-06	4.241779e-06	2.556368e-08	3.088154e+01	1.673718e+03
2.160000e-06	4.127329e-06	2.531833e-08	3.004830e+01	1.658389e+03
2.170000e-06	4.011195e-06	2.508199e-08	2.920281e+01	1.642388e+03
2.180000e-06	3.893430e-06	2.482500e-08	2.834544e+01	1.625598e+03
2.190000e-06	3.774013e-06	2.456535e-08	2.747605e+01	1.607917e+03
2.200000e-06	3.653110e-06	2.428081e-08	2.659583e+01	1.589271e+03
2.210000e-06	3.530935e-06	2.398419e-08	2.570636e+01	1.569630e+03
2.220000e-06	3.407432e-06	2.366471e-08	2.480722e+01	1.549000e+03
2.230000e-06	3.282631e-06	2.334974e-08	2.389862e+01	1.527401e+03
2.240000e-06	3.156635e-06	2.301470e-08	2.298133e+01	1.504845e+03
2.250000e-06	3.029492e-06	2.266024e-08	2.205569e+01	1.481303e+03
2.260000e-06	2.901172e-06	2.227902e-08	2.112148e+01	1.456693e+03
2.270000e-06	2.771787e-06	2.187935e-08	2.017952e+01	1.430870e+03
2.280000e-06	2.641443e-06	2.146172e-08	1.923057e+01	1.403642e+03
2.290000e-06	2.510176e-06	2.102347e-08	1.827490e+01	1.374794e+03
2.300000e-06	2.378041e-06	2.056119e-08	1.731291e+01	1.344119e+03
2.310000e-06	2.245102e-06	2.006524e-08	1.634508e+01	1.311441e+03
2.320000e-06	2.111488e-06	1.953737e-08	1.537232e+01	1.276627e+03
2.330000e-06	1.977137e-06	1.897223e-08	1.439421e+01	1.239577e+03
2.340000e-06	1.842025e-06	1.837640e-08	1.341054e+01	1.200198e+03
2.350000e-06	1.706262e-06	1.774252e-08	1.242215e+01	1.158372e+03
2.360000e-06	1.569905e-06	1.706850e-08	1.142942e+01	1.113920e+03
2.370000e-06	1.433004e-06	1.634386e-08	1.043274e+01	1.066590e+03
2.380000e-06	1.295667e-06	1.556493e-08	9.432877e+00	1.016063e+03
2.390000e-06	1.157966e-06	1.473451e-08	8.430367e+00	9.620018e+02
2.400000e-06	1.019920e-06	1.385046e-08	7.425352e+00	9.041142e+02
2.410000e-06	8.815747e-07	1.290850e-08	6.418151e+00	8.422362e+02
2.420000e-06	7.429294e-07	1.190760e-08	5.408768e+00	7.764038e+02
2.430000e-06	6.039105e-07	1.085308e-08	4.396665e+00	7.068973e+02
2.440000e-06	4.646273e-07	9.752341e-09	3.382639e+00	6.342414e+02
2.450000e-06	3.251562e-07	8.608440e-09	2.367243e+00	5.591521e+02
2.460000e-06	1.854638e-07	7.432751e-09	1.350237e+00	4.824381e+02
2.470000e-06	4.564990e-08	6.241863e-09	3.323462e-01	4.048710e+02
2.480000e-06	-9.422454e-08	5.047659e-09	-6.859854e-01	3.270535e+02
2.490000e-06	-2.341127e-07	3.856241e-09	-1.704417e+00	2.493135e+02
2.500000e-06	-3.738880e-07	2.669265e-09	-2.722026e+00	1.716502e+02
2.510000e-06	-5.134260e-07	1.481745e-09	-3.737909e+00	9.374946e+01
2.520000e-06	-6.527858e-07	2.823911e-10	-4.752493e+00	1.506770e+01
2.530000e-06	-7.919343e-07	-9.386575e-10	-5.765540e+00	-6.502760e+01
2.540000e-06	-9.307108e-07	-2.190563e-09	-6.775878e+00	-1.470896e+02
2.550000e-06	-1.069102e-06	-3.478069e-09	-7.783413e+00	-2.314291e+02
2.560000e-06	-1.207112e-06	-4.801003e-09	-8.788170e+00	-3.179922e+02
2.570000e-06	-1.344750e-06	-6.152762e-09	-9.790217e+00	-4.063026e+02
2.580000e-06	-1.482022e-06	-7.520467e-09	-1.078960e+01	-4.954835e+02
2.590000e-06	-1.618816e-06	-8.886750e-09	-1.178551e+01	-5.843520e+02
2.600000e-06	-1.754999e-06	-1.022735e-08	-1.277696e+01	-6.715698e+02
2.610000e-06	-1.890399e-06	-1.151879e-08	-1.376272e+01	-7.558170e+02
2.620000e-06	-2.024907e-06	-1.274212e-08	-1.474198e+01	-8.359574e+02
2.630000e-06	-2.158679e-06	-1.388607e-08	-1.571589e+01	-9.111636e+02
2.640000e-06	-2.291716e-06	-1.494930e-08	-1.668444e+01	-9.809831e+02
2.650000e-06	-2.423840e-06	-1.593476e-08	-1.764635e+01	-1.045336e+03
2.660000e-06	-2.554982e-06	-1.684650e-08	-1.860110e+01	-1.104458e+03
2.670000e-06	-2.685200e-06	-1.768701e-08	-1.954913e+01	-1.158798e+03
2.680000e-06	-2.814587e-06	-1.846149e-08	-2.049111e+01	-1.208906e+03
2.690000e-06	-2.943038e-06	-1.917754e-08	-2.142628e+01	-1.255327e+03
2.700000e-06	-3.070374e-06	-1.984133e-08	-2.235333e+01	-1.298530e+03
2.710000e-06	-3.196485e-06	-2.045948e-08	-2.327146e+01	-1.338869e+03
2.720000e-06	-3.321393e-06	-2.103727e-08	-2.418083e+01	-1.376584e+03
2.730000e-06	-3.445079e-06	-2.157680e-08	-2.508130e+01	-1.411837e+03
2.740000e-06	-3.567510e-06	-2.207759e-08	-2.597264e+01	-1.444748e+03
2.750000e-06	-3.688768e-06	-2.254411e-08	-2.685544e+01	-1.475441e+03
2.760000e-06	-3.808675e-06	-2.298038e-08	-2.772839e+01	-1.504072e+03
2.770000e-06	-3.927064e-06	-2.338952e-08	-2.859030e+01	-1.530830e+03
2.780000e-06	-4.043956e-06	-2.377785e-08	-2.944132e+01	-1.555932e+03
2.790000e-06	-4.159237e-06	-2.414579e-08	-3.028060e+01	-1.579590e+03
2.800000e-06	-4.272788e-06	-2.449216e-08	-3.110729e+01	-1.601991e+03
2.810000e-06	-4.384636e-06	-2.481829e-08	-3.192158e+01	-1.623269e+03
2.820000e-06	-4.494818e-06	-2.512546e-08	-3.272374e+01	-1.643505e+03
2.830000e-06	-4.603481e-06	-2.541740e-08	-3.351484e+01	-1.662729e+03
2.840000e-06	-4.710733e-06	-2.569540e-08	-3.429568e+01	-1.680942e+03
2.850000e-06	-4.816455e-06	-2.595582e-08	-3.506536e+01	-1.698141e+03
2.860000e-06	-4.920461e-06	-2.620043e-08	-3.582257e+01	-1.714341e+03
2.870000e-06	-5.022529e-06	-2.643286e-08	-3.656565e+01	-1.729589e+03
2.880000e-06	-5.122618e-06	-2.665518e-08	-3.729433e+01	-1.743966e+03
2.890000e-06	-5.220899e-06	-2.686908e-08	-3.800985e+01	-1.757573e+03
2.900000e-06	-5.317455e-06	-2.707181e-08	-3.871281e+01	-1.770516e+03
2.910000e-06	-5.412105e-06	-2.726403e-08	-3.940189e+01	-1.782885e+03
2.920000e-06	-5.504761e-06	-2.744604e-08	-4.007645e+01	-1.794738e+03
2.930000e-06	-5.595479e-06	-2.761832e-08	-4.073692e+01	-1.806097e+03
2.940000e-06	-5.684191e-06	-2.778177e-08	-4.138277e+01	-1.816952e+03
