# Temperatura_=_68.59
# Concentracion g/m^3_=_28200.0
# C_Vs_to_Am_M_A/Vsm_=_65563218390.804596
# pendiente_HvsI_1/m_=_3716.3
# ordenada_HvsI_A/m_=_1297.0
# frecuencia_Hz_=_302375.8451226627

Tiempo_(s)	Campo_(V.s)	Magnetizacion_(V.s)	Campo_(kA/m)	Magnetizacion_(A/m)
0.000000e+00	-7.320360e-06	-3.049085e-08	-5.318759e+01	-1.996341e+03
1.000000e-08	-7.316537e-06	-3.048477e-08	-5.315982e+01	-1.995681e+03
2.000000e-08	-7.310332e-06	-3.046906e-08	-5.311473e+01	-1.994831e+03
3.000000e-08	-7.301714e-06	-3.045300e-08	-5.305212e+01	-1.993828e+03
4.000000e-08	-7.290523e-06	-3.043573e-08	-5.297081e+01	-1.992701e+03
5.000000e-08	-7.276624e-06	-3.041438e-08	-5.286982e+01	-1.991458e+03
6.000000e-08	-7.260038e-06	-3.038787e-08	-5.274931e+01	-1.990088e+03
7.000000e-08	-7.241172e-06	-3.035723e-08	-5.261224e+01	-1.988565e+03
8.000000e-08	-7.220218e-06	-3.034421e-08	-5.245999e+01	-1.986863e+03
9.000000e-08	-7.196725e-06	-3.037123e-08	-5.228930e+01	-1.984964e+03
1.000000e-07	-7.170236e-06	-3.032773e-08	-5.209684e+01	-1.982873e+03
1.100000e-07	-7.140947e-06	-3.024135e-08	-5.188404e+01	-1.980614e+03
1.200000e-07	-7.109195e-06	-3.019605e-08	-5.165333e+01	-1.978227e+03
1.300000e-07	-7.074986e-06	-3.015617e-08	-5.140478e+01	-1.975757e+03
1.400000e-07	-7.038587e-06	-3.007853e-08	-5.114031e+01	-1.973233e+03
1.500000e-07	-7.000368e-06	-3.002083e-08	-5.086263e+01	-1.970656e+03
1.600000e-07	-6.960017e-06	-3.006019e-08	-5.056945e+01	-1.967993e+03
1.700000e-07	-6.917149e-06	-2.996747e-08	-5.025799e+01	-1.965177e+03
1.800000e-07	-6.871896e-06	-2.988083e-08	-4.992919e+01	-1.962122e+03
1.900000e-07	-6.824054e-06	-2.987198e-08	-4.958158e+01	-1.958741e+03
2.000000e-07	-6.773303e-06	-2.977433e-08	-4.921284e+01	-1.954967e+03
2.100000e-07	-6.719892e-06	-2.973305e-08	-4.882477e+01	-1.950769e+03
2.200000e-07	-6.663993e-06	-2.964968e-08	-4.841863e+01	-1.946158e+03
2.300000e-07	-6.605565e-06	-2.955249e-08	-4.799410e+01	-1.941185e+03
2.400000e-07	-6.544726e-06	-2.950982e-08	-4.755207e+01	-1.935920e+03
2.500000e-07	-6.481504e-06	-2.941168e-08	-4.709272e+01	-1.930439e+03
2.600000e-07	-6.415801e-06	-2.932486e-08	-4.661534e+01	-1.924790e+03
2.700000e-07	-6.347640e-06	-2.924484e-08	-4.612010e+01	-1.918991e+03
2.800000e-07	-6.277169e-06	-2.915677e-08	-4.560808e+01	-1.913013e+03
2.900000e-07	-6.204326e-06	-2.904170e-08	-4.507882e+01	-1.906795e+03
3.000000e-07	-6.128939e-06	-2.893548e-08	-4.453108e+01	-1.900259e+03
3.100000e-07	-6.050959e-06	-2.885127e-08	-4.396450e+01	-1.893332e+03
3.200000e-07	-5.970485e-06	-2.872182e-08	-4.337980e+01	-1.885964e+03
3.300000e-07	-5.887865e-06	-2.861269e-08	-4.277950e+01	-1.878144e+03
3.400000e-07	-5.803333e-06	-2.848339e-08	-4.216532e+01	-1.869898e+03
3.500000e-07	-5.716895e-06	-2.835103e-08	-4.153729e+01	-1.861278e+03
3.600000e-07	-5.628449e-06	-2.822702e-08	-4.089467e+01	-1.852343e+03
3.700000e-07	-5.537858e-06	-2.808029e-08	-4.023646e+01	-1.843135e+03
3.800000e-07	-5.445249e-06	-2.793597e-08	-3.956359e+01	-1.833665e+03
3.900000e-07	-5.350777e-06	-2.778043e-08	-3.887718e+01	-1.823903e+03
4.000000e-07	-5.254448e-06	-2.762347e-08	-3.817728e+01	-1.813785e+03
4.100000e-07	-5.156247e-06	-2.745359e-08	-3.746378e+01	-1.803225e+03
4.200000e-07	-5.056215e-06	-2.729017e-08	-3.673698e+01	-1.792139e+03
4.300000e-07	-4.954374e-06	-2.711104e-08	-3.599703e+01	-1.780469e+03
4.400000e-07	-4.850842e-06	-2.691621e-08	-3.524480e+01	-1.768188e+03
4.500000e-07	-4.745626e-06	-2.672331e-08	-3.448033e+01	-1.755311e+03
4.600000e-07	-4.638643e-06	-2.652431e-08	-3.370302e+01	-1.741877e+03
4.700000e-07	-4.529970e-06	-2.631649e-08	-3.291344e+01	-1.727930e+03
4.800000e-07	-4.419767e-06	-2.609817e-08	-3.211274e+01	-1.713501e+03
4.900000e-07	-4.308016e-06	-2.587523e-08	-3.130079e+01	-1.698580e+03
5.000000e-07	-4.194477e-06	-2.563293e-08	-3.047585e+01	-1.683118e+03
5.100000e-07	-4.079146e-06	-2.537685e-08	-2.963789e+01	-1.667026e+03
5.200000e-07	-3.962210e-06	-2.511147e-08	-2.878826e+01	-1.650192e+03
5.300000e-07	-3.843852e-06	-2.484000e-08	-2.792830e+01	-1.632512e+03
5.400000e-07	-3.724129e-06	-2.455527e-08	-2.705843e+01	-1.613903e+03
5.500000e-07	-3.602922e-06	-2.425498e-08	-2.617778e+01	-1.594326e+03
5.600000e-07	-3.480259e-06	-2.394487e-08	-2.528654e+01	-1.573783e+03
5.700000e-07	-3.356270e-06	-2.362023e-08	-2.438568e+01	-1.552298e+03
5.800000e-07	-3.231023e-06	-2.328014e-08	-2.347567e+01	-1.529896e+03
5.900000e-07	-3.104659e-06	-2.292427e-08	-2.255754e+01	-1.506572e+03
6.000000e-07	-2.977231e-06	-2.255163e-08	-2.163169e+01	-1.482264e+03
6.100000e-07	-2.848649e-06	-2.215694e-08	-2.069745e+01	-1.456848e+03
6.200000e-07	-2.718940e-06	-2.174244e-08	-1.975503e+01	-1.430139e+03
6.300000e-07	-2.588254e-06	-2.130443e-08	-1.880550e+01	-1.401921e+03
6.400000e-07	-2.456616e-06	-2.084423e-08	-1.784905e+01	-1.371974e+03
6.500000e-07	-2.324039e-06	-2.035986e-08	-1.688579e+01	-1.340110e+03
6.600000e-07	-2.190687e-06	-1.984613e-08	-1.591689e+01	-1.306188e+03
6.700000e-07	-2.056701e-06	-1.930294e-08	-1.494339e+01	-1.270115e+03
6.800000e-07	-1.922094e-06	-1.872324e-08	-1.396537e+01	-1.231824e+03
6.900000e-07	-1.786800e-06	-1.810595e-08	-1.298237e+01	-1.191236e+03
7.000000e-07	-1.650782e-06	-1.744843e-08	-1.199410e+01	-1.148215e+03
7.100000e-07	-1.514159e-06	-1.674749e-08	-1.100144e+01	-1.102541e+03
7.200000e-07	-1.376963e-06	-1.599892e-08	-1.000461e+01	-1.053900e+03
7.300000e-07	-1.239204e-06	-1.519748e-08	-9.003691e+00	-1.001913e+03
7.400000e-07	-1.100973e-06	-1.434111e-08	-7.999351e+00	-9.461958e+02
7.500000e-07	-9.623264e-07	-1.342828e-08	-6.991982e+00	-8.864408e+02
7.600000e-07	-8.233709e-07	-1.245817e-08	-5.982373e+00	-8.225032e+02
7.700000e-07	-6.841735e-07	-1.142875e-08	-4.971005e+00	-7.544684e+02
7.800000e-07	-5.446933e-07	-1.034240e-08	-3.957582e+00	-6.826806e+02
7.900000e-07	-4.049758e-07	-9.204225e-09	-2.942436e+00	-6.077188e+02
8.000000e-07	-2.650907e-07	-8.022402e-09	-1.926071e+00	-5.303194e+02
8.100000e-07	-1.251121e-07	-6.811114e-09	-9.090283e-01	-4.512582e+02
8.200000e-07	1.495166e-08	-5.585221e-09	1.086344e-01	-3.712147e+02
8.300000e-07	1.551025e-07	-4.354263e-09	1.126929e+00	-2.906510e+02
8.400000e-07	2.952017e-07	-3.121306e-09	2.144849e+00	-2.097317e+02
8.500000e-07	4.352082e-07	-1.884734e-09	3.162096e+00	-1.283102e+02
8.600000e-07	5.750955e-07	-6.357081e-10	4.178476e+00	-4.598657e+01
8.700000e-07	7.147453e-07	6.341534e-10	5.193131e+00	3.777030e+01
8.800000e-07	8.541364e-07	1.932554e-09	6.205906e+00	1.234599e+02
8.900000e-07	9.932698e-07	3.265733e-09	7.216808e+00	2.113812e+02
9.000000e-07	1.132055e-06	4.635940e-09	8.225178e+00	3.014938e+02
9.100000e-07	1.270415e-06	6.038358e-09	9.230467e+00	3.933401e+02
9.200000e-07	1.408301e-06	7.458235e-09	1.023230e+01	4.860470e+02
9.300000e-07	1.545641e-06	8.873356e-09	1.123018e+01	5.784077e+02
9.400000e-07	1.682347e-06	1.025658e-08	1.222344e+01	6.690284e+02
9.500000e-07	1.818338e-06	1.158532e-08	1.321151e+01	7.565087e+02
9.600000e-07	1.953534e-06	1.284102e-08	1.419381e+01	8.396225e+02
9.700000e-07	2.087999e-06	1.401085e-08	1.517079e+01	9.174618e+02
9.800000e-07	2.221746e-06	1.509175e-08	1.614256e+01	9.895204e+02
9.900000e-07	2.354695e-06	1.608809e-08	1.710853e+01	1.055704e+03
1.000000e-06	2.486842e-06	1.700777e-08	1.806867e+01	1.116276e+03
1.010000e-06	2.618038e-06	1.785583e-08	1.902190e+01	1.171747e+03
1.020000e-06	2.748207e-06	1.863745e-08	1.996767e+01	1.222755e+03
1.030000e-06	2.877412e-06	1.935772e-08	2.090643e+01	1.269936e+03
1.040000e-06	3.005468e-06	2.002393e-08	2.183686e+01	1.313835e+03
1.050000e-06	3.132308e-06	2.064350e-08	2.275843e+01	1.354861e+03
1.060000e-06	3.258112e-06	2.122043e-08	2.367249e+01	1.393277e+03
1.070000e-06	3.382843e-06	2.176062e-08	2.457875e+01	1.429242e+03
1.080000e-06	3.506341e-06	2.226498e-08	2.547605e+01	1.462853e+03
1.090000e-06	3.628577e-06	2.273658e-08	2.636418e+01	1.494207e+03
1.100000e-06	3.749520e-06	2.318038e-08	2.724292e+01	1.523436e+03
1.110000e-06	3.869027e-06	2.359755e-08	2.811122e+01	1.550722e+03
1.120000e-06	3.987138e-06	2.399043e-08	2.896938e+01	1.576286e+03
1.130000e-06	4.103846e-06	2.436266e-08	2.981734e+01	1.600365e+03
1.140000e-06	4.218967e-06	2.471474e-08	3.065378e+01	1.623173e+03
1.150000e-06	4.332442e-06	2.504793e-08	3.147826e+01	1.644873e+03
1.160000e-06	4.444216e-06	2.536068e-08	3.229037e+01	1.665564e+03
1.170000e-06	4.554421e-06	2.565431e-08	3.309109e+01	1.685280e+03
1.180000e-06	4.663168e-06	2.593333e-08	3.388122e+01	1.704015e+03
1.190000e-06	4.770312e-06	2.619892e-08	3.465969e+01	1.721749e+03
1.200000e-06	4.875726e-06	2.645183e-08	3.542560e+01	1.738474e+03
1.210000e-06	4.979319e-06	2.669188e-08	3.617828e+01	1.754221e+03
1.220000e-06	5.081179e-06	2.691942e-08	3.691836e+01	1.769060e+03
1.230000e-06	5.181238e-06	2.713561e-08	3.764536e+01	1.783094e+03
1.240000e-06	5.279326e-06	2.734153e-08	3.835804e+01	1.796440e+03
1.250000e-06	5.375408e-06	2.753653e-08	3.905615e+01	1.809205e+03
1.260000e-06	5.469544e-06	2.772174e-08	3.974011e+01	1.821462e+03
1.270000e-06	5.561813e-06	2.789781e-08	4.041051e+01	1.833245e+03
1.280000e-06	5.652081e-06	2.806666e-08	4.106637e+01	1.844546e+03
1.290000e-06	5.740223e-06	2.822903e-08	4.170678e+01	1.855331e+03
1.300000e-06	5.826277e-06	2.838450e-08	4.233203e+01	1.865557e+03
1.310000e-06	5.910315e-06	2.853223e-08	4.294263e+01	1.875196e+03
1.320000e-06	5.992258e-06	2.867256e-08	4.353800e+01	1.884244e+03
1.330000e-06	6.072004e-06	2.880644e-08	4.411740e+01	1.892733e+03
1.340000e-06	6.149475e-06	2.893367e-08	4.468029e+01	1.900715e+03
1.350000e-06	6.224603e-06	2.905270e-08	4.522614e+01	1.908259e+03
1.360000e-06	6.297353e-06	2.916359e-08	4.575473e+01	1.915426e+03
1.370000e-06	6.367820e-06	2.926768e-08	4.626672e+01	1.922261e+03
1.380000e-06	6.436090e-06	2.936589e-08	4.676275e+01	1.928780e+03
1.390000e-06	6.502053e-06	2.945832e-08	4.724202e+01	1.934978e+03
1.400000e-06	6.565649e-06	2.954547e-08	4.770409e+01	1.940836e+03
1.410000e-06	6.627029e-06	2.962757e-08	4.815006e+01	1.946336e+03
1.420000e-06	6.686180e-06	2.970538e-08	4.857983e+01	1.951472e+03
1.430000e-06	6.742869e-06	2.977975e-08	4.899171e+01	1.956261e+03
1.440000e-06	6.797101e-06	2.984853e-08	4.938575e+01	1.960742e+03
1.450000e-06	6.848652e-06	2.991356e-08	4.976030e+01	1.964964e+03
1.460000e-06	6.897350e-06	2.997669e-08	5.011413e+01	1.968977e+03
1.470000e-06	6.943519e-06	3.003709e-08	5.044958e+01	1.972815e+03
1.480000e-06	6.987314e-06	3.009437e-08	5.076778e+01	1.976484e+03
1.490000e-06	7.028600e-06	3.014776e-08	5.106775e+01	1.979962e+03
1.500000e-06	7.067353e-06	3.019561e-08	5.134932e+01	1.983205e+03
1.510000e-06	7.103713e-06	3.023888e-08	5.161350e+01	1.986157e+03
1.520000e-06	7.137562e-06	3.027813e-08	5.185944e+01	1.988770e+03
1.530000e-06	7.168779e-06	3.031352e-08	5.208625e+01	1.991019e+03
1.540000e-06	7.197577e-06	3.034614e-08	5.229549e+01	1.992906e+03
1.550000e-06	7.223831e-06	3.037262e-08	5.248624e+01	1.994470e+03
1.560000e-06	7.247314e-06	3.039451e-08	5.265687e+01	1.995765e+03
1.570000e-06	7.268251e-06	3.041149e-08	5.280899e+01	1.996858e+03
1.580000e-06	7.286698e-06	3.042579e-08	5.294302e+01	1.997801e+03
1.590000e-06	7.302429e-06	3.043956e-08	5.305731e+01	1.998627e+03
1.600000e-06	7.315290e-06	3.044988e-08	5.315076e+01	1.999337e+03
1.610000e-06	7.325244e-06	3.045960e-08	5.322308e+01	1.999907e+03
1.620000e-06	7.332459e-06	3.046607e-08	5.327550e+01	2.000296e+03
1.630000e-06	7.337160e-06	3.046825e-08	5.330966e+01	2.000463e+03
1.640000e-06	7.339299e-06	3.046833e-08	5.332520e+01	2.000380e+03
1.650000e-06	7.338814e-06	3.046594e-08	5.332168e+01	2.000039e+03
1.660000e-06	7.335873e-06	3.045557e-08	5.330031e+01	1.999457e+03
1.670000e-06	7.330470e-06	3.044484e-08	5.326105e+01	1.998669e+03
1.680000e-06	7.322546e-06	3.043402e-08	5.320348e+01	1.997716e+03
1.690000e-06	7.312209e-06	3.042024e-08	5.312837e+01	1.996630e+03
1.700000e-06	7.299275e-06	3.040451e-08	5.303440e+01	1.995428e+03
1.710000e-06	7.283811e-06	3.039220e-08	5.292204e+01	1.994105e+03
1.720000e-06	7.266149e-06	3.038394e-08	5.279372e+01	1.992639e+03
1.730000e-06	7.246379e-06	3.032508e-08	5.265007e+01	1.991003e+03
1.740000e-06	7.224009e-06	3.023261e-08	5.248754e+01	1.989175e+03
1.750000e-06	7.198301e-06	3.024099e-08	5.230075e+01	1.987150e+03
1.760000e-06	7.169221e-06	3.024905e-08	5.208946e+01	1.984945e+03
1.770000e-06	7.137405e-06	3.019554e-08	5.185830e+01	1.982598e+03
1.780000e-06	7.103516e-06	3.019105e-08	5.161207e+01	1.980153e+03
1.790000e-06	7.067972e-06	3.021604e-08	5.135382e+01	1.977646e+03
1.800000e-06	7.030769e-06	3.009636e-08	5.108352e+01	1.975089e+03
1.810000e-06	6.991133e-06	3.008042e-08	5.079553e+01	1.972461e+03
1.820000e-06	6.948874e-06	3.011425e-08	5.048849e+01	1.969708e+03
1.830000e-06	6.904436e-06	3.000625e-08	5.016561e+01	1.966748e+03
1.840000e-06	6.857554e-06	3.002340e-08	4.982498e+01	1.963492e+03
1.850000e-06	6.808055e-06	2.989218e-08	4.946534e+01	1.959863e+03
1.860000e-06	6.755825e-06	2.982439e-08	4.908585e+01	1.955817e+03
1.870000e-06	6.700838e-06	2.982044e-08	4.868633e+01	1.951349e+03
1.880000e-06	6.643500e-06	2.966141e-08	4.826973e+01	1.946496e+03
1.890000e-06	6.583624e-06	2.965019e-08	4.783469e+01	1.941326e+03
1.900000e-06	6.521106e-06	2.955893e-08	4.738045e+01	1.935914e+03
1.910000e-06	6.456128e-06	2.946871e-08	4.690834e+01	1.930321e+03
1.920000e-06	6.388733e-06	2.939499e-08	4.641867e+01	1.924575e+03
1.930000e-06	6.318918e-06	2.927800e-08	4.591141e+01	1.918665e+03
1.940000e-06	6.246635e-06	2.922834e-08	4.538623e+01	1.912541e+03
1.950000e-06	6.172004e-06	2.907561e-08	4.484398e+01	1.906127e+03
1.960000e-06	6.094820e-06	2.899465e-08	4.428318e+01	1.899346e+03
1.970000e-06	6.015134e-06	2.887513e-08	4.370420e+01	1.892138e+03
1.980000e-06	5.933351e-06	2.875377e-08	4.311000e+01	1.884478e+03
1.990000e-06	5.849521e-06	2.866434e-08	4.250091e+01	1.876378e+03
2.000000e-06	5.763540e-06	2.851159e-08	4.187619e+01	1.867884e+03
2.010000e-06	5.675359e-06	2.840825e-08	4.123550e+01	1.859054e+03
2.020000e-06	5.585269e-06	2.825072e-08	4.058093e+01	1.849940e+03
2.030000e-06	5.493307e-06	2.811422e-08	3.991277e+01	1.840564e+03
2.040000e-06	5.399291e-06	2.796046e-08	3.922967e+01	1.830912e+03
2.050000e-06	5.303329e-06	2.780764e-08	3.853244e+01	1.820929e+03
2.060000e-06	5.205594e-06	2.765051e-08	3.782232e+01	1.810536e+03
2.070000e-06	5.106207e-06	2.747393e-08	3.710021e+01	1.799646e+03
2.080000e-06	5.004947e-06	2.731366e-08	3.636448e+01	1.788188e+03
2.090000e-06	4.901752e-06	2.712629e-08	3.561470e+01	1.776125e+03
2.100000e-06	4.796777e-06	2.694525e-08	3.485198e+01	1.763457e+03
2.110000e-06	4.690232e-06	2.673993e-08	3.407786e+01	1.750215e+03
2.120000e-06	4.582190e-06	2.653189e-08	3.329285e+01	1.736446e+03
2.130000e-06	4.472572e-06	2.630643e-08	3.249640e+01	1.722187e+03
2.140000e-06	4.361276e-06	2.607983e-08	3.168776e+01	1.707445e+03
2.150000e-06	4.248255e-06	2.584906e-08	3.086658e+01	1.692184e+03
2.160000e-06	4.133560e-06	2.560954e-08	3.003324e+01	1.676328e+03
2.170000e-06	4.017039e-06	2.535882e-08	2.918663e+01	1.659771e+03
2.180000e-06	3.898823e-06	2.509160e-08	2.832771e+01	1.642403e+03
2.190000e-06	3.779069e-06	2.481678e-08	2.745761e+01	1.624132e+03
2.200000e-06	3.657925e-06	2.452483e-08	2.657742e+01	1.604902e+03
2.210000e-06	3.535542e-06	2.422467e-08	2.568821e+01	1.584701e+03
2.220000e-06	3.411865e-06	2.390663e-08	2.478961e+01	1.563548e+03
2.230000e-06	3.286805e-06	2.357507e-08	2.388096e+01	1.541471e+03
2.240000e-06	3.160481e-06	2.322300e-08	2.296313e+01	1.518479e+03
2.250000e-06	3.033067e-06	2.285952e-08	2.203738e+01	1.494533e+03
2.260000e-06	2.904523e-06	2.247787e-08	2.110342e+01	1.469530e+03
2.270000e-06	2.774938e-06	2.207714e-08	2.016189e+01	1.443306e+03
2.280000e-06	2.644467e-06	2.165366e-08	1.921393e+01	1.415652e+03
2.290000e-06	2.513095e-06	2.120552e-08	1.825942e+01	1.386346e+03
2.300000e-06	2.380762e-06	2.073093e-08	1.729792e+01	1.355184e+03
2.310000e-06	2.247503e-06	2.022752e-08	1.632970e+01	1.322009e+03
2.320000e-06	2.113454e-06	1.969456e-08	1.535574e+01	1.286712e+03
2.330000e-06	1.978729e-06	1.912556e-08	1.437687e+01	1.249220e+03
2.340000e-06	1.843365e-06	1.852211e-08	1.339335e+01	1.209463e+03
2.350000e-06	1.707310e-06	1.788119e-08	1.240482e+01	1.167331e+03
2.360000e-06	1.570618e-06	1.720115e-08	1.141165e+01	1.122635e+03
2.370000e-06	1.433422e-06	1.647481e-08	1.041483e+01	1.075094e+03
2.380000e-06	1.295804e-06	1.569541e-08	9.414933e+00	1.024346e+03
2.390000e-06	1.157827e-06	1.485977e-08	8.412433e+00	9.700018e+02
2.400000e-06	1.019499e-06	1.396742e-08	7.407384e+00	9.117149e+02
2.410000e-06	8.808509e-07	1.301677e-08	6.400005e+00	8.492736e+02
2.420000e-06	7.418774e-07	1.200669e-08	5.390264e+00	7.826752e+02
2.430000e-06	6.026197e-07	1.094101e-08	4.378459e+00	7.121716e+02
2.440000e-06	4.631081e-07	9.823603e-09	3.364808e+00	6.382640e+02
2.450000e-06	3.233599e-07	8.656171e-09	2.349439e+00	5.616445e+02
2.460000e-06	1.834094e-07	7.450048e-09	1.332599e+00	4.830900e+02
2.470000e-06	4.331646e-08	6.222552e-09	3.147247e-01	4.033300e+02
2.480000e-06	-9.685372e-08	4.987592e-09	-7.037108e-01	3.229159e+02
2.490000e-06	-2.370227e-07	3.747350e-09	-1.722138e+00	2.421240e+02
2.500000e-06	-3.770551e-07	2.500518e-09	-2.739573e+00	1.609158e+02
2.510000e-06	-5.169110e-07	1.246850e-09	-3.755724e+00	7.897091e+01
2.520000e-06	-6.565440e-07	-2.049422e-11	-4.770257e+00	-4.212224e+00
2.530000e-06	-7.959316e-07	-1.310640e-09	-5.783006e+00	-8.916421e+01
2.540000e-06	-9.350295e-07	-2.632334e-09	-6.793651e+00	-1.762739e+02
2.550000e-06	-1.073730e-06	-3.989714e-09	-7.801409e+00	-2.656348e+02
2.560000e-06	-1.212027e-06	-5.383272e-09	-8.806233e+00	-3.569423e+02
2.570000e-06	-1.349925e-06	-6.804322e-09	-9.808157e+00	-4.494664e+02
2.580000e-06	-1.487388e-06	-8.232996e-09	-1.080692e+01	-5.421056e+02
2.590000e-06	-1.624291e-06	-9.644723e-09	-1.180162e+01	-6.335129e+02
2.600000e-06	-1.760562e-06	-1.100915e-08	-1.279173e+01	-7.222690e+02
2.610000e-06	-1.896180e-06	-1.230539e-08	-1.377709e+01	-8.070663e+02
2.620000e-06	-2.031044e-06	-1.352043e-08	-1.475697e+01	-8.868702e+02
2.630000e-06	-2.165154e-06	-1.464570e-08	-1.573137e+01	-9.610257e+02
2.640000e-06	-2.298522e-06	-1.568482e-08	-1.670039e+01	-1.029295e+03
2.650000e-06	-2.431021e-06	-1.664362e-08	-1.766309e+01	-1.091823e+03
2.660000e-06	-2.562451e-06	-1.752867e-08	-1.861802e+01	-1.149048e+03
2.670000e-06	-2.692868e-06	-1.834396e-08	-1.956559e+01	-1.201575e+03
2.680000e-06	-2.822354e-06	-1.909546e-08	-2.050640e+01	-1.250055e+03
2.690000e-06	-2.950894e-06	-1.979101e-08	-2.144033e+01	-1.295072e+03
2.700000e-06	-3.078425e-06	-2.043699e-08	-2.236694e+01	-1.337087e+03
2.710000e-06	-3.204827e-06	-2.103888e-08	-2.328534e+01	-1.376414e+03
2.720000e-06	-3.330104e-06	-2.160158e-08	-2.419556e+01	-1.413242e+03
2.730000e-06	-3.454106e-06	-2.212669e-08	-2.509652e+01	-1.447684e+03
2.740000e-06	-3.576819e-06	-2.261504e-08	-2.598812e+01	-1.479833e+03
2.750000e-06	-3.698311e-06	-2.307089e-08	-2.687084e+01	-1.509803e+03
2.760000e-06	-3.818410e-06	-2.349656e-08	-2.774345e+01	-1.537760e+03
2.770000e-06	-3.937049e-06	-2.389818e-08	-2.860545e+01	-1.563913e+03
2.780000e-06	-4.054205e-06	-2.428120e-08	-2.945667e+01	-1.588497e+03
2.790000e-06	-4.169731e-06	-2.464305e-08	-3.029605e+01	-1.611737e+03
2.800000e-06	-4.283538e-06	-2.498293e-08	-3.112294e+01	-1.633819e+03
2.810000e-06	-4.395635e-06	-2.530344e-08	-3.193740e+01	-1.654864e+03
2.820000e-06	-4.505974e-06	-2.560619e-08	-3.273909e+01	-1.674928e+03
2.830000e-06	-4.614747e-06	-2.589491e-08	-3.352940e+01	-1.694017e+03
2.840000e-06	-4.722125e-06	-2.616999e-08	-3.430958e+01	-1.712111e+03
2.850000e-06	-4.828013e-06	-2.642747e-08	-3.507893e+01	-1.729196e+03
2.860000e-06	-4.932170e-06	-2.667095e-08	-3.583571e+01	-1.745287e+03
2.870000e-06	-5.034419e-06	-2.690461e-08	-3.657862e+01	-1.760440e+03
2.880000e-06	-5.134743e-06	-2.712933e-08	-3.730755e+01	-1.774750e+03
2.890000e-06	-5.233247e-06	-2.734465e-08	-3.802324e+01	-1.788329e+03
2.900000e-06	-5.329975e-06	-2.754815e-08	-3.872604e+01	-1.801292e+03
2.910000e-06	-5.424778e-06	-2.774040e-08	-3.941485e+01	-1.813725e+03
2.920000e-06	-5.517551e-06	-2.792177e-08	-4.008891e+01	-1.825677e+03
2.930000e-06	-5.608322e-06	-2.809337e-08	-4.074843e+01	-1.837154e+03
2.940000e-06	-5.697118e-06	-2.825648e-08	-4.139359e+01	-1.848129e+03
