# Temperatura_=_82.88
# Concentracion g/m^3_=_28200.0
# C_Vs_to_Am_M_A/Vsm_=_65563218390.804596
# pendiente_HvsI_1/m_=_3716.3
# ordenada_HvsI_A/m_=_1297.0
# frecuencia_Hz_=_302374.5616592764

Tiempo_(s)	Campo_(V.s)	Magnetizacion_(V.s)	Campo_(kA/m)	Magnetizacion_(A/m)
0.000000e+00	-7.281563e-06	-3.031190e-08	-5.318824e+01	-1.985095e+03
1.000000e-08	-7.277876e-06	-3.030738e-08	-5.316131e+01	-1.984446e+03
2.000000e-08	-7.271844e-06	-3.029404e-08	-5.311724e+01	-1.983615e+03
3.000000e-08	-7.263493e-06	-3.027781e-08	-5.305624e+01	-1.982630e+03
4.000000e-08	-7.252620e-06	-3.026162e-08	-5.297682e+01	-1.981506e+03
5.000000e-08	-7.239013e-06	-3.024083e-08	-5.287743e+01	-1.980241e+03
6.000000e-08	-7.222685e-06	-3.021515e-08	-5.275816e+01	-1.978815e+03
7.000000e-08	-7.204078e-06	-3.018739e-08	-5.262224e+01	-1.977205e+03
8.000000e-08	-7.183406e-06	-3.015981e-08	-5.247125e+01	-1.975389e+03
9.000000e-08	-7.160252e-06	-3.017672e-08	-5.230212e+01	-1.973364e+03
1.000000e-07	-7.134124e-06	-3.016636e-08	-5.211127e+01	-1.971146e+03
1.100000e-07	-7.105110e-06	-3.007954e-08	-5.189934e+01	-1.968775e+03
1.200000e-07	-7.073605e-06	-3.001402e-08	-5.166920e+01	-1.966299e+03
1.300000e-07	-7.039645e-06	-2.997539e-08	-5.142114e+01	-1.963765e+03
1.400000e-07	-7.003462e-06	-2.990801e-08	-5.115684e+01	-1.961199e+03
1.500000e-07	-6.965501e-06	-2.982264e-08	-5.087956e+01	-1.958591e+03
1.600000e-07	-6.925473e-06	-2.985114e-08	-5.058717e+01	-1.955897e+03
1.700000e-07	-6.882897e-06	-2.982207e-08	-5.027618e+01	-1.953036e+03
1.800000e-07	-6.837937e-06	-2.968066e-08	-4.994776e+01	-1.949913e+03
1.900000e-07	-6.790571e-06	-2.968406e-08	-4.960178e+01	-1.946435e+03
2.000000e-07	-6.740414e-06	-2.959598e-08	-4.923541e+01	-1.942535e+03
2.100000e-07	-6.687507e-06	-2.949658e-08	-4.884895e+01	-1.938184e+03
2.200000e-07	-6.632080e-06	-2.945432e-08	-4.844408e+01	-1.933403e+03
2.300000e-07	-6.574156e-06	-2.933646e-08	-4.802098e+01	-1.928249e+03
2.400000e-07	-6.513771e-06	-2.929029e-08	-4.757989e+01	-1.922800e+03
2.500000e-07	-6.450991e-06	-2.920791e-08	-4.712132e+01	-1.917132e+03
2.600000e-07	-6.385785e-06	-2.913051e-08	-4.664502e+01	-1.911298e+03
2.700000e-07	-6.318156e-06	-2.904956e-08	-4.615102e+01	-1.905311e+03
2.800000e-07	-6.248195e-06	-2.894907e-08	-4.563999e+01	-1.899141e+03
2.900000e-07	-6.175870e-06	-2.884411e-08	-4.511169e+01	-1.892725e+03
3.000000e-07	-6.101021e-06	-2.871428e-08	-4.456495e+01	-1.885982e+03
3.100000e-07	-6.023626e-06	-2.861818e-08	-4.399963e+01	-1.878840e+03
3.200000e-07	-5.943771e-06	-2.849671e-08	-4.341633e+01	-1.871254e+03
3.300000e-07	-5.861661e-06	-2.837586e-08	-4.281655e+01	-1.863216e+03
3.400000e-07	-5.777628e-06	-2.825288e-08	-4.220273e+01	-1.854755e+03
3.500000e-07	-5.691745e-06	-2.811460e-08	-4.157540e+01	-1.845926e+03
3.600000e-07	-5.603885e-06	-2.798984e-08	-4.093362e+01	-1.836790e+03
3.700000e-07	-5.513959e-06	-2.784432e-08	-4.027676e+01	-1.827388e+03
3.800000e-07	-5.422032e-06	-2.769364e-08	-3.960528e+01	-1.817729e+03
3.900000e-07	-5.328186e-06	-2.753664e-08	-3.891978e+01	-1.807779e+03
4.000000e-07	-5.232489e-06	-2.737209e-08	-3.822076e+01	-1.797471e+03
4.100000e-07	-5.134953e-06	-2.720259e-08	-3.750830e+01	-1.786720e+03
4.200000e-07	-5.035498e-06	-2.702840e-08	-3.678183e+01	-1.775443e+03
4.300000e-07	-4.934232e-06	-2.685169e-08	-3.604213e+01	-1.763585e+03
4.400000e-07	-4.831251e-06	-2.666070e-08	-3.528991e+01	-1.751125e+03
4.500000e-07	-4.726606e-06	-2.646649e-08	-3.452553e+01	-1.738079e+03
4.600000e-07	-4.620279e-06	-2.626633e-08	-3.374887e+01	-1.724491e+03
4.700000e-07	-4.512237e-06	-2.605367e-08	-3.295967e+01	-1.710407e+03
4.800000e-07	-4.402641e-06	-2.583082e-08	-3.215913e+01	-1.695855e+03
4.900000e-07	-4.291551e-06	-2.559891e-08	-3.134767e+01	-1.680826e+03
5.000000e-07	-4.178829e-06	-2.535694e-08	-3.052429e+01	-1.665264e+03
5.100000e-07	-4.064304e-06	-2.510138e-08	-2.968774e+01	-1.649077e+03
5.200000e-07	-3.948052e-06	-2.483927e-08	-2.883858e+01	-1.632149e+03
5.300000e-07	-3.830273e-06	-2.456798e-08	-2.797826e+01	-1.614374e+03
5.400000e-07	-3.711034e-06	-2.428200e-08	-2.710728e+01	-1.595669e+03
5.500000e-07	-3.590466e-06	-2.398052e-08	-2.622659e+01	-1.575996e+03
5.600000e-07	-3.468603e-06	-2.366638e-08	-2.533644e+01	-1.555359e+03
5.700000e-07	-3.345337e-06	-2.334101e-08	-2.443604e+01	-1.533788e+03
5.800000e-07	-3.220794e-06	-2.299648e-08	-2.352632e+01	-1.511314e+03
5.900000e-07	-3.095146e-06	-2.263569e-08	-2.260852e+01	-1.487935e+03
6.000000e-07	-2.968390e-06	-2.225942e-08	-2.168263e+01	-1.463599e+03
6.100000e-07	-2.840560e-06	-2.186799e-08	-2.074889e+01	-1.438184e+03
6.200000e-07	-2.711717e-06	-2.145797e-08	-1.980776e+01	-1.411515e+03
6.300000e-07	-2.581865e-06	-2.102510e-08	-1.885926e+01	-1.383378e+03
6.400000e-07	-2.450954e-06	-2.056898e-08	-1.790301e+01	-1.353558e+03
6.500000e-07	-2.319066e-06	-2.008615e-08	-1.693963e+01	-1.321869e+03
6.600000e-07	-2.186432e-06	-1.957567e-08	-1.597081e+01	-1.288169e+03
6.700000e-07	-2.053164e-06	-1.903319e-08	-1.499735e+01	-1.252366e+03
6.800000e-07	-1.919241e-06	-1.845821e-08	-1.401911e+01	-1.214392e+03
6.900000e-07	-1.784634e-06	-1.784670e-08	-1.303587e+01	-1.174169e+03
7.000000e-07	-1.649279e-06	-1.719534e-08	-1.204717e+01	-1.131565e+03
7.100000e-07	-1.513320e-06	-1.650127e-08	-1.105406e+01	-1.086368e+03
7.200000e-07	-1.376929e-06	-1.576027e-08	-1.005779e+01	-1.038275e+03
7.300000e-07	-1.240114e-06	-1.497002e-08	-9.058423e+00	-9.869208e+02
7.400000e-07	-1.102887e-06	-1.412620e-08	-8.056047e+00	-9.319339e+02
7.500000e-07	-9.652246e-07	-1.322690e-08	-7.050491e+00	-8.730142e+02
7.600000e-07	-8.271662e-07	-1.226967e-08	-6.042042e+00	-8.100166e+02
7.700000e-07	-6.887482e-07	-1.125528e-08	-5.030967e+00	-7.430142e+02
7.800000e-07	-5.500372e-07	-1.018390e-08	-4.017751e+00	-6.723256e+02
7.900000e-07	-4.110905e-07	-9.061452e-09	-3.002814e+00	-5.984913e+02
8.000000e-07	-2.719641e-07	-7.898662e-09	-1.986564e+00	-5.222010e+02
8.100000e-07	-1.326816e-07	-6.705680e-09	-9.691741e-01	-4.441803e+02
8.200000e-07	6.693199e-09	-5.493588e-09	4.889052e-02	-3.650640e+02
8.300000e-07	1.460547e-07	-4.272071e-09	1.066858e+00	-2.852814e+02
8.400000e-07	2.853865e-07	-3.046652e-09	2.084608e+00	-2.049837e+02
8.500000e-07	4.246613e-07	-1.815177e-09	3.101942e+00	-1.240332e+02
8.600000e-07	5.637917e-07	-5.718592e-10	4.118221e+00	-4.206104e+01
8.700000e-07	7.027102e-07	6.937324e-10	5.132953e+00	4.141458e+01
8.800000e-07	8.413597e-07	1.988490e-09	6.145719e+00	1.268333e+02
8.900000e-07	9.796347e-07	3.316389e-09	7.155750e+00	2.144330e+02
9.000000e-07	1.117492e-06	4.678222e-09	8.162730e+00	3.041208e+02
9.100000e-07	1.254907e-06	6.068988e-09	9.166475e+00	3.954030e+02
9.200000e-07	1.391891e-06	7.476610e-09	1.016708e+01	4.873922e+02
9.300000e-07	1.528384e-06	8.878164e-09	1.116410e+01	5.788899e+02
9.400000e-07	1.664314e-06	1.024738e-08	1.215700e+01	6.685300e+02
9.500000e-07	1.799650e-06	1.156114e-08	1.314556e+01	7.549542e+02
9.600000e-07	1.934281e-06	1.280129e-08	1.412897e+01	8.369841e+02
9.700000e-07	2.068161e-06	1.395606e-08	1.510690e+01	9.137572e+02
9.800000e-07	2.201276e-06	1.502296e-08	1.607923e+01	9.848043e+02
9.900000e-07	2.333663e-06	1.600509e-08	1.704626e+01	1.050056e+03
1.000000e-06	2.465302e-06	1.691076e-08	1.800782e+01	1.109786e+03
1.010000e-06	2.595936e-06	1.774733e-08	1.896204e+01	1.164506e+03
1.020000e-06	2.725438e-06	1.851858e-08	1.990798e+01	1.214842e+03
1.030000e-06	2.853863e-06	1.922828e-08	2.084606e+01	1.261418e+03
1.040000e-06	2.981213e-06	1.988672e-08	2.177630e+01	1.304769e+03
1.050000e-06	3.107505e-06	2.050107e-08	2.269880e+01	1.345292e+03
1.060000e-06	3.232736e-06	2.107422e-08	2.361354e+01	1.383247e+03
1.070000e-06	3.356934e-06	2.160841e-08	2.452075e+01	1.418791e+03
1.080000e-06	3.480007e-06	2.210670e-08	2.541974e+01	1.452024e+03
1.090000e-06	3.601706e-06	2.257324e-08	2.630869e+01	1.483045e+03
1.100000e-06	3.721979e-06	2.301312e-08	2.718722e+01	1.511986e+03
1.110000e-06	3.840931e-06	2.342726e-08	2.805611e+01	1.539027e+03
1.120000e-06	3.958612e-06	2.381711e-08	2.891571e+01	1.564386e+03
1.130000e-06	4.074879e-06	2.418516e-08	2.976499e+01	1.588294e+03
1.140000e-06	4.189456e-06	2.453370e-08	3.060191e+01	1.610957e+03
1.150000e-06	4.302309e-06	2.486420e-08	3.142625e+01	1.632535e+03
1.160000e-06	4.413598e-06	2.517685e-08	3.223916e+01	1.653120e+03
1.170000e-06	4.523396e-06	2.547290e-08	3.304118e+01	1.672747e+03
1.180000e-06	4.631794e-06	2.575193e-08	3.383297e+01	1.691406e+03
1.190000e-06	4.738616e-06	2.601584e-08	3.461326e+01	1.709077e+03
1.200000e-06	4.843576e-06	2.626559e-08	3.537994e+01	1.725753e+03
1.210000e-06	4.946689e-06	2.650395e-08	3.613313e+01	1.741460e+03
1.220000e-06	5.048080e-06	2.673028e-08	3.687374e+01	1.756267e+03
1.230000e-06	5.147753e-06	2.694667e-08	3.760180e+01	1.770275e+03
1.240000e-06	5.245445e-06	2.715441e-08	3.831539e+01	1.783597e+03
1.250000e-06	5.341085e-06	2.735099e-08	3.901400e+01	1.796340e+03
1.260000e-06	5.434848e-06	2.753590e-08	3.969889e+01	1.808579e+03
1.270000e-06	5.526790e-06	2.771129e-08	4.037049e+01	1.820349e+03
1.280000e-06	5.616721e-06	2.787829e-08	4.102739e+01	1.831648e+03
1.290000e-06	5.704472e-06	2.803963e-08	4.166836e+01	1.842445e+03
1.300000e-06	5.790191e-06	2.819558e-08	4.229450e+01	1.852698e+03
1.310000e-06	5.873998e-06	2.834456e-08	4.290667e+01	1.862378e+03
1.320000e-06	5.955676e-06	2.848700e-08	4.350329e+01	1.871481e+03
1.330000e-06	6.035108e-06	2.862165e-08	4.408349e+01	1.880029e+03
1.340000e-06	6.112359e-06	2.874871e-08	4.464778e+01	1.888072e+03
1.350000e-06	6.187231e-06	2.886723e-08	4.519468e+01	1.895672e+03
1.360000e-06	6.259660e-06	2.897738e-08	4.572374e+01	1.902888e+03
1.370000e-06	6.329835e-06	2.908105e-08	4.623633e+01	1.909763e+03
1.380000e-06	6.397863e-06	2.917926e-08	4.673324e+01	1.916320e+03
1.390000e-06	6.463558e-06	2.927382e-08	4.721311e+01	1.922558e+03
1.400000e-06	6.526872e-06	2.936342e-08	4.767559e+01	1.928464e+03
1.410000e-06	6.588016e-06	2.944665e-08	4.812222e+01	1.934023e+03
1.420000e-06	6.646859e-06	2.952513e-08	4.855204e+01	1.939232e+03
1.430000e-06	6.703304e-06	2.960050e-08	4.896434e+01	1.944104e+03
1.440000e-06	6.757399e-06	2.967219e-08	4.935947e+01	1.948671e+03
1.450000e-06	6.808859e-06	2.973833e-08	4.973536e+01	1.952976e+03
1.460000e-06	6.857510e-06	2.980075e-08	5.009073e+01	1.957059e+03
1.470000e-06	6.903599e-06	2.986175e-08	5.042740e+01	1.960950e+03
1.480000e-06	6.947358e-06	2.992061e-08	5.074703e+01	1.964655e+03
1.490000e-06	6.988636e-06	2.997518e-08	5.104855e+01	1.968157e+03
1.500000e-06	7.027360e-06	3.002388e-08	5.133141e+01	1.971417e+03
1.510000e-06	7.063718e-06	3.006786e-08	5.159698e+01	1.974392e+03
1.520000e-06	7.097557e-06	3.010734e-08	5.184416e+01	1.977043e+03
1.530000e-06	7.128782e-06	3.014232e-08	5.207225e+01	1.979350e+03
1.540000e-06	7.157581e-06	3.017417e-08	5.228261e+01	1.981317e+03
1.550000e-06	7.183862e-06	3.020219e-08	5.247458e+01	1.982976e+03
1.560000e-06	7.207394e-06	3.022512e-08	5.264647e+01	1.984374e+03
1.570000e-06	7.228386e-06	3.024347e-08	5.279981e+01	1.985561e+03
1.580000e-06	7.246935e-06	3.025944e-08	5.293529e+01	1.986580e+03
1.590000e-06	7.262743e-06	3.027279e-08	5.305076e+01	1.987453e+03
1.600000e-06	7.275746e-06	3.028435e-08	5.314575e+01	1.988179e+03
1.610000e-06	7.285915e-06	3.029356e-08	5.322003e+01	1.988739e+03
1.620000e-06	7.293307e-06	3.029943e-08	5.327402e+01	1.989101e+03
1.630000e-06	7.298108e-06	3.030177e-08	5.330909e+01	1.989236e+03
1.640000e-06	7.300314e-06	3.030125e-08	5.332520e+01	1.989126e+03
1.650000e-06	7.299918e-06	3.029986e-08	5.332231e+01	1.988774e+03
1.660000e-06	7.297110e-06	3.028920e-08	5.330180e+01	1.988197e+03
1.670000e-06	7.291958e-06	3.027621e-08	5.326416e+01	1.987427e+03
1.680000e-06	7.284317e-06	3.026509e-08	5.320835e+01	1.986494e+03
1.690000e-06	7.274177e-06	3.025086e-08	5.313429e+01	1.985418e+03
1.700000e-06	7.261484e-06	3.023346e-08	5.304157e+01	1.984204e+03
1.710000e-06	7.246275e-06	3.021513e-08	5.293048e+01	1.982837e+03
1.720000e-06	7.228863e-06	3.019943e-08	5.280329e+01	1.981295e+03
1.730000e-06	7.209386e-06	3.016808e-08	5.266102e+01	1.979553e+03
1.740000e-06	7.187337e-06	3.006758e-08	5.249996e+01	1.977601e+03
1.750000e-06	7.161962e-06	3.003734e-08	5.231461e+01	1.975448e+03
1.760000e-06	7.133201e-06	3.005518e-08	5.210452e+01	1.973125e+03
1.770000e-06	7.101661e-06	3.001866e-08	5.187414e+01	1.970680e+03
1.780000e-06	7.068023e-06	2.998810e-08	5.162843e+01	1.968162e+03
1.790000e-06	7.032691e-06	3.002551e-08	5.137035e+01	1.965605e+03
1.800000e-06	6.995791e-06	2.994633e-08	5.110081e+01	1.963015e+03
1.810000e-06	6.956665e-06	2.985998e-08	5.081501e+01	1.960358e+03
1.820000e-06	6.914810e-06	2.992891e-08	5.050929e+01	1.957567e+03
1.830000e-06	6.870647e-06	2.979945e-08	5.018670e+01	1.954548e+03
1.840000e-06	6.824111e-06	2.979413e-08	4.984677e+01	1.951206e+03
1.850000e-06	6.774986e-06	2.976282e-08	4.948794e+01	1.947460e+03
1.860000e-06	6.723225e-06	2.961943e-08	4.910985e+01	1.943270e+03
1.870000e-06	6.668746e-06	2.964314e-08	4.871191e+01	1.938637e+03
1.880000e-06	6.611838e-06	2.949439e-08	4.829622e+01	1.933607e+03
1.890000e-06	6.552409e-06	2.943248e-08	4.786212e+01	1.928253e+03
1.900000e-06	6.490320e-06	2.936903e-08	4.740860e+01	1.922655e+03
1.910000e-06	6.425792e-06	2.922584e-08	4.693725e+01	1.916875e+03
1.920000e-06	6.358919e-06	2.918992e-08	4.644877e+01	1.910944e+03
1.930000e-06	6.289714e-06	2.906015e-08	4.594327e+01	1.904844e+03
1.940000e-06	6.218038e-06	2.900531e-08	4.541971e+01	1.898524e+03
1.950000e-06	6.143912e-06	2.888071e-08	4.487825e+01	1.891906e+03
1.960000e-06	6.067320e-06	2.874915e-08	4.431879e+01	1.884913e+03
1.970000e-06	5.988235e-06	2.866812e-08	4.374111e+01	1.877488e+03
1.980000e-06	5.906943e-06	2.851109e-08	4.314731e+01	1.869608e+03
1.990000e-06	5.823610e-06	2.842704e-08	4.253861e+01	1.861292e+03
2.000000e-06	5.738236e-06	2.827821e-08	4.191499e+01	1.852587e+03
2.010000e-06	5.650719e-06	2.815940e-08	4.127572e+01	1.843554e+03
2.020000e-06	5.561152e-06	2.801709e-08	4.062148e+01	1.834243e+03
2.030000e-06	5.469693e-06	2.785790e-08	3.995342e+01	1.824676e+03
2.040000e-06	5.376324e-06	2.772295e-08	3.927140e+01	1.814835e+03
2.050000e-06	5.281009e-06	2.755299e-08	3.857517e+01	1.804664e+03
2.060000e-06	5.183840e-06	2.740187e-08	3.786540e+01	1.794080e+03
2.070000e-06	5.085002e-06	2.721258e-08	3.714344e+01	1.782999e+03
2.080000e-06	4.984410e-06	2.704424e-08	3.640867e+01	1.771352e+03
2.090000e-06	4.881907e-06	2.685550e-08	3.565993e+01	1.759105e+03
2.100000e-06	4.777597e-06	2.666691e-08	3.489800e+01	1.746264e+03
2.110000e-06	4.671710e-06	2.647040e-08	3.412454e+01	1.732863e+03
2.120000e-06	4.564297e-06	2.625915e-08	3.333994e+01	1.718951e+03
2.130000e-06	4.455344e-06	2.604090e-08	3.254409e+01	1.704564e+03
2.140000e-06	4.344745e-06	2.580695e-08	3.173623e+01	1.689709e+03
2.150000e-06	4.232347e-06	2.557578e-08	3.091522e+01	1.674345e+03
2.160000e-06	4.118270e-06	2.532737e-08	3.008194e+01	1.658393e+03
2.170000e-06	4.002607e-06	2.507506e-08	2.923708e+01	1.641742e+03
2.180000e-06	3.885321e-06	2.480392e-08	2.838036e+01	1.624280e+03
2.190000e-06	3.766360e-06	2.452782e-08	2.751141e+01	1.605913e+03
2.200000e-06	3.645876e-06	2.423775e-08	2.663133e+01	1.586587e+03
2.210000e-06	3.524071e-06	2.393800e-08	2.574161e+01	1.566291e+03
2.220000e-06	3.401013e-06	2.362168e-08	2.484273e+01	1.545048e+03
2.230000e-06	3.276785e-06	2.328898e-08	2.393530e+01	1.522894e+03
2.240000e-06	3.151381e-06	2.293767e-08	2.301929e+01	1.499840e+03
2.250000e-06	3.024688e-06	2.256889e-08	2.209385e+01	1.475855e+03
2.260000e-06	2.896764e-06	2.218686e-08	2.115944e+01	1.450843e+03
2.270000e-06	2.767817e-06	2.178431e-08	2.021754e+01	1.424644e+03
2.280000e-06	2.637944e-06	2.136167e-08	1.926888e+01	1.397056e+03
2.290000e-06	2.507172e-06	2.091407e-08	1.831366e+01	1.367860e+03
2.300000e-06	2.375579e-06	2.044421e-08	1.735244e+01	1.336856e+03
2.310000e-06	2.243242e-06	1.994552e-08	1.638578e+01	1.303886e+03
2.320000e-06	2.110150e-06	1.941589e-08	1.541361e+01	1.268842e+03
2.330000e-06	1.976240e-06	1.885144e-08	1.443546e+01	1.231650e+03
2.340000e-06	1.841521e-06	1.825101e-08	1.345141e+01	1.192240e+03
2.350000e-06	1.706112e-06	1.761283e-08	1.246231e+01	1.150506e+03
2.360000e-06	1.570169e-06	1.693823e-08	1.146931e+01	1.106264e+03
2.370000e-06	1.433762e-06	1.622209e-08	1.047292e+01	1.059245e+03
2.380000e-06	1.296916e-06	1.545590e-08	9.473330e+00	1.009098e+03
2.390000e-06	1.159713e-06	1.463395e-08	8.471131e+00	9.554479e+02
2.400000e-06	1.022127e-06	1.375428e-08	7.466134e+00	8.979584e+02
2.410000e-06	8.841826e-07	1.281615e-08	6.458519e+00	8.364203e+02
2.420000e-06	7.459499e-07	1.181877e-08	5.448797e+00	7.708236e+02
2.430000e-06	6.074315e-07	1.076663e-08	4.436988e+00	7.013990e+02
2.440000e-06	4.686940e-07	9.663544e-09	3.423579e+00	6.286139e+02
2.450000e-06	3.297685e-07	8.512645e-09	2.408797e+00	5.531158e+02
2.460000e-06	1.906456e-07	7.324503e-09	1.392572e+00	4.756320e+02
2.470000e-06	5.139983e-08	6.114565e-09	3.754505e-01	3.968441e+02
2.480000e-06	-8.790824e-08	4.894967e-09	-6.421265e-01	3.172659e+02
2.490000e-06	-2.271762e-07	3.667812e-09	-1.659410e+00	2.371528e+02
2.500000e-06	-3.663278e-07	2.430953e-09	-2.675844e+00	1.564669e+02
2.510000e-06	-5.053366e-07	1.184554e-09	-3.691236e+00	7.491133e+01
2.520000e-06	-6.441801e-07	-7.904928e-11	-4.705419e+00	-7.971977e+00
2.530000e-06	-7.828213e-07	-1.367516e-09	-5.718125e+00	-9.265655e+01
2.540000e-06	-9.211458e-07	-2.687950e-09	-6.728517e+00	-1.794695e+02
2.550000e-06	-1.059118e-06	-4.042955e-09	-7.736336e+00	-2.684475e+02
2.560000e-06	-1.196772e-06	-5.429337e-09	-8.741833e+00	-3.592436e+02
2.570000e-06	-1.334005e-06	-6.839313e-09	-9.744248e+00	-4.511051e+02
2.580000e-06	-1.470794e-06	-8.253773e-09	-1.074342e+01	-5.429308e+02
2.590000e-06	-1.607103e-06	-9.647055e-09	-1.173909e+01	-6.333953e+02
2.600000e-06	-1.742798e-06	-1.099292e-08	-1.273028e+01	-7.211169e+02
2.610000e-06	-1.877829e-06	-1.227318e-08	-1.371662e+01	-8.048347e+02
2.620000e-06	-2.012051e-06	-1.347408e-08	-1.469704e+01	-8.835612e+02
2.630000e-06	-2.145428e-06	-1.458747e-08	-1.567130e+01	-9.566822e+02
2.640000e-06	-2.278002e-06	-1.561323e-08	-1.663968e+01	-1.023989e+03
2.650000e-06	-2.409729e-06	-1.655796e-08	-1.760188e+01	-1.085643e+03
2.660000e-06	-2.540524e-06	-1.743053e-08	-1.855728e+01	-1.142084e+03
2.670000e-06	-2.670382e-06	-1.823400e-08	-1.950583e+01	-1.193913e+03
2.680000e-06	-2.799337e-06	-1.897379e-08	-2.044778e+01	-1.241765e+03
2.690000e-06	-2.927387e-06	-1.965789e-08	-2.138312e+01	-1.286216e+03
2.700000e-06	-3.054422e-06	-2.029435e-08	-2.231105e+01	-1.327713e+03
2.710000e-06	-3.180258e-06	-2.088985e-08	-2.323022e+01	-1.366564e+03
2.720000e-06	-3.304901e-06	-2.144545e-08	-2.414067e+01	-1.402956e+03
2.730000e-06	-3.428326e-06	-2.196287e-08	-2.504224e+01	-1.437005e+03
2.740000e-06	-3.550448e-06	-2.244569e-08	-2.593428e+01	-1.468804e+03
2.750000e-06	-3.671336e-06	-2.289765e-08	-2.681731e+01	-1.498470e+03
2.760000e-06	-3.791000e-06	-2.332119e-08	-2.769139e+01	-1.526167e+03
2.770000e-06	-3.909177e-06	-2.372028e-08	-2.855462e+01	-1.552101e+03
2.780000e-06	-4.025760e-06	-2.409963e-08	-2.940620e+01	-1.576502e+03
2.790000e-06	-4.140776e-06	-2.445850e-08	-3.024633e+01	-1.599590e+03
2.800000e-06	-4.254096e-06	-2.479560e-08	-3.107408e+01	-1.621542e+03
2.810000e-06	-4.365660e-06	-2.511351e-08	-3.188900e+01	-1.642475e+03
2.820000e-06	-4.475563e-06	-2.541617e-08	-3.269178e+01	-1.662445e+03
2.830000e-06	-4.583966e-06	-2.570426e-08	-3.348362e+01	-1.681453e+03
2.840000e-06	-4.690965e-06	-2.597765e-08	-3.426519e+01	-1.699480e+03
2.850000e-06	-4.796422e-06	-2.623571e-08	-3.503550e+01	-1.716511e+03
2.860000e-06	-4.900103e-06	-2.647976e-08	-3.579284e+01	-1.732559e+03
2.870000e-06	-5.001870e-06	-2.671269e-08	-3.653620e+01	-1.747678e+03
2.880000e-06	-5.101741e-06	-2.693607e-08	-3.726571e+01	-1.761959e+03
2.890000e-06	-5.199833e-06	-2.714951e-08	-3.798222e+01	-1.775514e+03
2.900000e-06	-5.296190e-06	-2.735081e-08	-3.868606e+01	-1.788454e+03
2.910000e-06	-5.390595e-06	-2.754255e-08	-3.937564e+01	-1.800867e+03
2.920000e-06	-5.482955e-06	-2.772588e-08	-4.005029e+01	-1.812805e+03
2.930000e-06	-5.573425e-06	-2.789975e-08	-4.071113e+01	-1.824275e+03
2.940000e-06	-5.661939e-06	-2.806320e-08	-4.135768e+01	-1.835256e+03
