# Temperatura_=_42.32
# Concentracion g/m^3_=_28200.0
# C_Vs_to_Am_M_A/Vsm_=_65563218390.804596
# pendiente_HvsI_1/m_=_3716.3
# ordenada_HvsI_A/m_=_1297.0
# frecuencia_Hz_=_302376.9000785441

Tiempo_(s)	Campo_(V.s)	Magnetizacion_(V.s)	Campo_(kA/m)	Magnetizacion_(A/m)
0.000000e+00	-7.301846e-06	-2.994818e-08	-5.319149e+01	-1.960313e+03
1.000000e-08	-7.298090e-06	-2.994517e-08	-5.316414e+01	-1.959794e+03
2.000000e-08	-7.291954e-06	-2.993289e-08	-5.311944e+01	-1.959101e+03
3.000000e-08	-7.283427e-06	-2.991778e-08	-5.305732e+01	-1.958252e+03
4.000000e-08	-7.272325e-06	-2.990253e-08	-5.297645e+01	-1.957256e+03
5.000000e-08	-7.258576e-06	-2.988285e-08	-5.287629e+01	-1.956112e+03
6.000000e-08	-7.242254e-06	-2.985813e-08	-5.275739e+01	-1.954811e+03
7.000000e-08	-7.223660e-06	-2.983150e-08	-5.262193e+01	-1.953341e+03
8.000000e-08	-7.202893e-06	-2.980743e-08	-5.247066e+01	-1.951696e+03
9.000000e-08	-7.179541e-06	-2.982963e-08	-5.230055e+01	-1.949881e+03
1.000000e-07	-7.153242e-06	-2.981039e-08	-5.210896e+01	-1.947919e+03
1.100000e-07	-7.124184e-06	-2.972633e-08	-5.189729e+01	-1.945845e+03
1.200000e-07	-7.092697e-06	-2.967563e-08	-5.166791e+01	-1.943701e+03
1.300000e-07	-7.058734e-06	-2.964000e-08	-5.142051e+01	-1.941520e+03
1.400000e-07	-7.022479e-06	-2.956336e-08	-5.115640e+01	-1.939316e+03
1.500000e-07	-6.984391e-06	-2.948442e-08	-5.087894e+01	-1.937071e+03
1.600000e-07	-6.944312e-06	-2.954872e-08	-5.058698e+01	-1.934736e+03
1.700000e-07	-6.901781e-06	-2.951290e-08	-5.027716e+01	-1.932232e+03
1.800000e-07	-6.856855e-06	-2.938573e-08	-4.994988e+01	-1.929470e+03
1.900000e-07	-6.809354e-06	-2.940102e-08	-4.960386e+01	-1.926364e+03
2.000000e-07	-6.759004e-06	-2.929046e-08	-4.923708e+01	-1.922856e+03
2.100000e-07	-6.705977e-06	-2.919597e-08	-4.885079e+01	-1.918924e+03
2.200000e-07	-6.650457e-06	-2.916721e-08	-4.844634e+01	-1.914589e+03
2.300000e-07	-6.592437e-06	-2.908388e-08	-4.802369e+01	-1.909908e+03
2.400000e-07	-6.531937e-06	-2.903995e-08	-4.758297e+01	-1.904956e+03
2.500000e-07	-6.469056e-06	-2.894395e-08	-4.712490e+01	-1.899809e+03
2.600000e-07	-6.403687e-06	-2.887874e-08	-4.664871e+01	-1.894519e+03
2.700000e-07	-6.335856e-06	-2.880204e-08	-4.615458e+01	-1.889100e+03
2.800000e-07	-6.265679e-06	-2.869891e-08	-4.564337e+01	-1.883525e+03
2.900000e-07	-6.193114e-06	-2.861183e-08	-4.511476e+01	-1.877732e+03
3.000000e-07	-6.117972e-06	-2.851635e-08	-4.456737e+01	-1.871643e+03
3.100000e-07	-6.040225e-06	-2.842416e-08	-4.400101e+01	-1.865181e+03
3.200000e-07	-5.960068e-06	-2.829036e-08	-4.341710e+01	-1.858291e+03
3.300000e-07	-5.877756e-06	-2.819730e-08	-4.281748e+01	-1.850957e+03
3.400000e-07	-5.793517e-06	-2.809341e-08	-4.220383e+01	-1.843194e+03
3.500000e-07	-5.707362e-06	-2.794778e-08	-4.157622e+01	-1.835050e+03
3.600000e-07	-5.619250e-06	-2.783065e-08	-4.093435e+01	-1.826579e+03
3.700000e-07	-5.529093e-06	-2.770522e-08	-4.027759e+01	-1.817823e+03
3.800000e-07	-5.436867e-06	-2.756162e-08	-3.960575e+01	-1.808800e+03
3.900000e-07	-5.342764e-06	-2.740754e-08	-3.892024e+01	-1.799488e+03
4.000000e-07	-5.246816e-06	-2.726212e-08	-3.822129e+01	-1.789832e+03
4.100000e-07	-5.148983e-06	-2.710054e-08	-3.750861e+01	-1.779756e+03
4.200000e-07	-5.049258e-06	-2.692969e-08	-3.678215e+01	-1.769180e+03
4.300000e-07	-4.947753e-06	-2.676829e-08	-3.604272e+01	-1.758044e+03
4.400000e-07	-4.844493e-06	-2.659715e-08	-3.529050e+01	-1.746318e+03
4.500000e-07	-4.739575e-06	-2.640918e-08	-3.452621e+01	-1.734006e+03
4.600000e-07	-4.632949e-06	-2.621064e-08	-3.374947e+01	-1.721136e+03
4.700000e-07	-4.524590e-06	-2.600705e-08	-3.296012e+01	-1.707749e+03
4.800000e-07	-4.414698e-06	-2.579103e-08	-3.215959e+01	-1.693871e+03
4.900000e-07	-4.303173e-06	-2.556751e-08	-3.134717e+01	-1.679499e+03
5.000000e-07	-4.190012e-06	-2.534250e-08	-3.052283e+01	-1.664589e+03
5.100000e-07	-4.075170e-06	-2.510669e-08	-2.968625e+01	-1.649062e+03
5.200000e-07	-3.958688e-06	-2.485093e-08	-2.883772e+01	-1.632814e+03
5.300000e-07	-3.840710e-06	-2.458366e-08	-2.797828e+01	-1.615738e+03
5.400000e-07	-3.721258e-06	-2.430927e-08	-2.710811e+01	-1.597747e+03
5.500000e-07	-3.600436e-06	-2.402140e-08	-2.622797e+01	-1.578788e+03
5.600000e-07	-3.478267e-06	-2.371828e-08	-2.533801e+01	-1.558845e+03
5.700000e-07	-3.354689e-06	-2.340210e-08	-2.443778e+01	-1.537928e+03
5.800000e-07	-3.229851e-06	-2.306491e-08	-2.352838e+01	-1.516052e+03
5.900000e-07	-3.103881e-06	-2.270835e-08	-2.261073e+01	-1.493213e+03
6.000000e-07	-2.976726e-06	-2.233971e-08	-2.168445e+01	-1.469361e+03
6.100000e-07	-2.848451e-06	-2.195837e-08	-2.075001e+01	-1.444388e+03
6.200000e-07	-2.719203e-06	-2.155958e-08	-1.980848e+01	-1.418133e+03
6.300000e-07	-2.588983e-06	-2.113432e-08	-1.885987e+01	-1.390394e+03
6.400000e-07	-2.457680e-06	-2.068170e-08	-1.790337e+01	-1.360959e+03
6.500000e-07	-2.325400e-06	-2.019818e-08	-1.693976e+01	-1.329632e+03
6.600000e-07	-2.192428e-06	-1.968578e-08	-1.597110e+01	-1.296251e+03
6.700000e-07	-2.058814e-06	-1.914701e-08	-1.499777e+01	-1.260695e+03
6.800000e-07	-1.924497e-06	-1.857612e-08	-1.401932e+01	-1.222869e+03
6.900000e-07	-1.789447e-06	-1.796760e-08	-1.303552e+01	-1.182674e+03
7.000000e-07	-1.653665e-06	-1.731768e-08	-1.204639e+01	-1.139976e+03
7.100000e-07	-1.517283e-06	-1.662227e-08	-1.105290e+01	-1.094575e+03
7.200000e-07	-1.380499e-06	-1.587766e-08	-1.005647e+01	-1.046201e+03
7.300000e-07	-1.243327e-06	-1.508229e-08	-9.057222e+00	-9.945363e+02
7.400000e-07	-1.105660e-06	-1.423489e-08	-8.054362e+00	-9.392613e+02
7.500000e-07	-9.675705e-07	-1.333226e-08	-7.048426e+00	-8.801302e+02
7.600000e-07	-8.291282e-07	-1.237290e-08	-6.039920e+00	-8.170468e+02
7.700000e-07	-6.903031e-07	-1.135912e-08	-5.028626e+00	-7.501283e+02
7.800000e-07	-5.512125e-07	-1.029110e-08	-4.015398e+00	-6.797356e+02
7.900000e-07	-4.119062e-07	-9.176182e-09	-3.000598e+00	-6.064570e+02
8.000000e-07	-2.723821e-07	-8.026558e-09	-1.984212e+00	-5.310420e+02
8.100000e-07	-1.327320e-07	-6.855814e-09	-9.669081e-01	-4.542925e+02
8.200000e-07	7.035450e-09	-5.674638e-09	5.125089e-02	-3.769335e+02
8.300000e-07	1.469067e-07	-4.492040e-09	1.070166e+00	-2.994882e+02
8.400000e-07	2.867230e-07	-3.315207e-09	2.088681e+00	-2.221877e+02
8.500000e-07	4.264180e-07	-2.140501e-09	3.106312e+00	-1.449365e+02
8.600000e-07	5.660134e-07	-9.606421e-10	4.123218e+00	-6.734713e+01
8.700000e-07	7.053493e-07	2.320269e-10	5.138233e+00	1.116004e+01
8.800000e-07	8.443647e-07	1.447294e-09	6.150914e+00	9.120913e+01
8.900000e-07	9.830344e-07	2.693624e-09	7.161075e+00	1.733021e+02
9.000000e-07	1.121313e-06	3.976327e-09	8.168385e+00	2.576671e+02
9.100000e-07	1.259170e-06	5.292770e-09	9.172633e+00	3.441529e+02
9.200000e-07	1.396519e-06	6.635113e-09	1.017318e+01	4.321928e+02
9.300000e-07	1.533384e-06	7.988932e-09	1.117019e+01	5.208442e+02
9.400000e-07	1.669806e-06	9.333522e-09	1.216398e+01	6.088965e+02
9.500000e-07	1.805647e-06	1.064618e-08	1.315353e+01	6.950264e+02
9.600000e-07	1.940688e-06	1.190684e-08	1.413726e+01	7.779678e+02
9.700000e-07	2.074890e-06	1.310034e-08	1.511488e+01	8.566658e+02
9.800000e-07	2.208309e-06	1.421360e-08	1.608679e+01	9.303856e+02
9.900000e-07	2.340977e-06	1.524347e-08	1.705323e+01	9.987616e+02
1.000000e-06	2.472887e-06	1.619559e-08	1.801415e+01	1.061783e+03
1.010000e-06	2.603864e-06	1.707448e-08	1.896828e+01	1.119724e+03
1.020000e-06	2.733739e-06	1.788576e-08	1.991437e+01	1.173045e+03
1.030000e-06	2.862550e-06	1.863552e-08	2.085271e+01	1.222282e+03
1.040000e-06	2.990308e-06	1.933194e-08	2.178339e+01	1.267952e+03
1.050000e-06	3.116943e-06	1.997950e-08	2.270588e+01	1.310488e+03
1.060000e-06	3.242462e-06	2.058115e-08	2.362024e+01	1.350212e+03
1.070000e-06	3.366926e-06	2.114142e-08	2.452692e+01	1.387345e+03
1.080000e-06	3.490254e-06	2.166405e-08	2.542533e+01	1.422039e+03
1.090000e-06	3.612299e-06	2.215029e-08	2.631438e+01	1.454417e+03
1.100000e-06	3.733070e-06	2.260592e-08	2.719416e+01	1.484614e+03
1.110000e-06	3.852476e-06	2.303415e-08	2.806399e+01	1.512792e+03
1.120000e-06	3.970436e-06	2.343621e-08	2.892329e+01	1.539149e+03
1.130000e-06	4.086981e-06	2.381673e-08	2.977229e+01	1.563900e+03
1.140000e-06	4.201929e-06	2.417646e-08	3.060964e+01	1.587249e+03
1.150000e-06	4.315179e-06	2.451539e-08	3.143463e+01	1.609370e+03
1.160000e-06	4.426809e-06	2.483372e-08	3.224782e+01	1.630387e+03
1.170000e-06	4.536911e-06	2.513402e-08	3.304988e+01	1.650368e+03
1.180000e-06	4.645538e-06	2.541798e-08	3.384118e+01	1.669339e+03
1.190000e-06	4.752542e-06	2.568664e-08	3.462067e+01	1.687302e+03
1.200000e-06	4.857751e-06	2.594113e-08	3.538708e+01	1.704259e+03
1.210000e-06	4.961139e-06	2.618336e-08	3.614023e+01	1.720234e+03
1.220000e-06	5.062807e-06	2.641307e-08	3.688085e+01	1.735281e+03
1.230000e-06	5.162728e-06	2.663086e-08	3.760874e+01	1.749484e+03
1.240000e-06	5.260665e-06	2.683792e-08	3.832218e+01	1.762943e+03
1.250000e-06	5.356532e-06	2.703467e-08	3.902053e+01	1.775759e+03
1.260000e-06	5.450466e-06	2.721994e-08	3.970481e+01	1.788013e+03
1.270000e-06	5.542614e-06	2.739545e-08	4.037608e+01	1.799754e+03
1.280000e-06	5.632754e-06	2.756261e-08	4.103272e+01	1.810994e+03
1.290000e-06	5.720724e-06	2.772304e-08	4.167355e+01	1.821720e+03
1.300000e-06	5.806632e-06	2.787674e-08	4.229936e+01	1.831899e+03
1.310000e-06	5.890539e-06	2.802315e-08	4.291060e+01	1.841504e+03
1.320000e-06	5.972392e-06	2.816472e-08	4.350687e+01	1.850520e+03
1.330000e-06	6.052013e-06	2.829970e-08	4.408688e+01	1.858963e+03
1.340000e-06	6.129368e-06	2.842372e-08	4.465039e+01	1.866869e+03
1.350000e-06	6.204397e-06	2.853624e-08	4.519695e+01	1.874295e+03
1.360000e-06	6.277051e-06	2.864227e-08	4.572621e+01	1.881304e+03
1.370000e-06	6.347448e-06	2.874381e-08	4.623903e+01	1.887951e+03
1.380000e-06	6.415669e-06	2.883901e-08	4.673599e+01	1.894277e+03
1.390000e-06	6.481544e-06	2.892844e-08	4.721587e+01	1.900301e+03
1.400000e-06	6.545030e-06	2.901418e-08	4.767835e+01	1.906025e+03
1.410000e-06	6.606320e-06	2.909624e-08	4.812482e+01	1.911441e+03
1.420000e-06	6.665323e-06	2.917418e-08	4.855464e+01	1.916541e+03
1.430000e-06	6.721923e-06	2.924806e-08	4.896695e+01	1.921326e+03
1.440000e-06	6.776187e-06	2.931661e-08	4.936225e+01	1.925807e+03
1.450000e-06	6.827863e-06	2.938016e-08	4.973869e+01	1.930005e+03
1.460000e-06	6.876677e-06	2.944032e-08	5.009428e+01	1.933948e+03
1.470000e-06	6.922878e-06	2.949747e-08	5.043084e+01	1.937657e+03
1.480000e-06	6.966705e-06	2.955293e-08	5.075010e+01	1.941144e+03
1.490000e-06	7.008019e-06	2.960420e-08	5.105107e+01	1.944407e+03
1.500000e-06	7.046760e-06	2.964917e-08	5.133328e+01	1.947428e+03
1.510000e-06	7.083142e-06	2.968970e-08	5.159831e+01	1.950184e+03
1.520000e-06	7.117010e-06	2.972535e-08	5.184502e+01	1.952653e+03
1.530000e-06	7.148235e-06	2.975710e-08	5.207249e+01	1.954820e+03
1.540000e-06	7.177085e-06	2.978521e-08	5.228265e+01	1.956688e+03
1.550000e-06	7.203441e-06	2.980924e-08	5.247465e+01	1.958278e+03
1.560000e-06	7.227013e-06	2.983124e-08	5.264636e+01	1.959622e+03
1.570000e-06	7.248000e-06	2.985020e-08	5.279925e+01	1.960758e+03
1.580000e-06	7.266580e-06	2.986731e-08	5.293460e+01	1.961720e+03
1.590000e-06	7.282490e-06	2.988143e-08	5.305049e+01	1.962531e+03
1.600000e-06	7.295558e-06	2.989207e-08	5.314569e+01	1.963197e+03
1.610000e-06	7.305757e-06	2.990052e-08	5.321999e+01	1.963709e+03
1.620000e-06	7.313144e-06	2.990448e-08	5.327380e+01	1.964051e+03
1.630000e-06	7.317966e-06	2.990626e-08	5.330893e+01	1.964202e+03
1.640000e-06	7.320200e-06	2.990758e-08	5.332520e+01	1.964150e+03
1.650000e-06	7.319768e-06	2.990865e-08	5.332205e+01	1.963892e+03
1.660000e-06	7.316933e-06	2.989984e-08	5.330140e+01	1.963438e+03
1.670000e-06	7.311735e-06	2.988828e-08	5.326353e+01	1.962804e+03
1.680000e-06	7.304069e-06	2.987772e-08	5.320769e+01	1.962009e+03
1.690000e-06	7.294000e-06	2.986497e-08	5.313434e+01	1.961064e+03
1.700000e-06	7.281372e-06	2.985125e-08	5.304235e+01	1.959973e+03
1.710000e-06	7.266152e-06	2.983939e-08	5.293148e+01	1.958730e+03
1.720000e-06	7.248658e-06	2.983125e-08	5.280404e+01	1.957321e+03
1.730000e-06	7.229048e-06	2.979795e-08	5.266118e+01	1.955738e+03
1.740000e-06	7.206889e-06	2.970113e-08	5.249976e+01	1.953981e+03
1.750000e-06	7.181435e-06	2.968803e-08	5.231434e+01	1.952067e+03
1.760000e-06	7.152602e-06	2.970465e-08	5.210430e+01	1.950028e+03
1.770000e-06	7.121030e-06	2.965797e-08	5.187431e+01	1.947903e+03
1.780000e-06	7.087340e-06	2.964207e-08	5.162889e+01	1.945732e+03
1.790000e-06	7.051893e-06	2.969969e-08	5.137067e+01	1.943536e+03
1.800000e-06	7.014803e-06	2.959778e-08	5.110049e+01	1.941310e+03
1.810000e-06	6.975474e-06	2.951308e-08	5.081399e+01	1.939014e+03
1.820000e-06	6.933487e-06	2.958397e-08	5.050813e+01	1.936580e+03
1.830000e-06	6.889201e-06	2.945528e-08	5.018551e+01	1.933919e+03
1.840000e-06	6.842493e-06	2.948129e-08	4.984526e+01	1.930944e+03
1.850000e-06	6.793219e-06	2.946406e-08	4.948632e+01	1.927584e+03
1.860000e-06	6.741388e-06	2.934962e-08	4.910875e+01	1.923803e+03
1.870000e-06	6.686790e-06	2.933895e-08	4.871102e+01	1.919606e+03
1.880000e-06	6.629696e-06	2.917344e-08	4.829511e+01	1.915039e+03
1.890000e-06	6.570088e-06	2.914603e-08	4.786089e+01	1.910175e+03
1.900000e-06	6.507835e-06	2.907672e-08	4.740739e+01	1.905089e+03
1.910000e-06	6.443195e-06	2.897141e-08	4.693651e+01	1.899846e+03
1.920000e-06	6.376162e-06	2.895865e-08	4.644820e+01	1.894473e+03
1.930000e-06	6.306760e-06	2.882247e-08	4.594263e+01	1.888958e+03
1.940000e-06	6.234895e-06	2.875998e-08	4.541912e+01	1.883252e+03
1.950000e-06	6.160551e-06	2.864063e-08	4.487754e+01	1.877277e+03
1.960000e-06	6.083765e-06	2.854865e-08	4.431819e+01	1.870955e+03
1.970000e-06	6.004483e-06	2.845997e-08	4.374064e+01	1.864222e+03
1.980000e-06	5.922999e-06	2.831304e-08	4.314706e+01	1.857045e+03
1.990000e-06	5.839453e-06	2.824544e-08	4.253846e+01	1.849431e+03
2.000000e-06	5.753876e-06	2.809822e-08	4.191506e+01	1.841416e+03
2.010000e-06	5.666191e-06	2.798630e-08	4.127630e+01	1.833055e+03
2.020000e-06	5.576433e-06	2.785580e-08	4.062244e+01	1.824397e+03
2.030000e-06	5.484764e-06	2.772314e-08	3.995466e+01	1.815469e+03
2.040000e-06	5.391164e-06	2.758742e-08	3.927282e+01	1.806265e+03
2.050000e-06	5.295545e-06	2.742987e-08	3.857627e+01	1.796739e+03
2.060000e-06	5.198056e-06	2.730116e-08	3.786609e+01	1.786821e+03
2.070000e-06	5.098862e-06	2.712185e-08	3.714350e+01	1.776432e+03
2.080000e-06	4.997918e-06	2.695265e-08	3.640815e+01	1.765501e+03
2.090000e-06	4.895129e-06	2.676737e-08	3.565937e+01	1.753986e+03
2.100000e-06	4.790484e-06	2.659109e-08	3.489707e+01	1.741880e+03
2.110000e-06	4.684266e-06	2.640635e-08	3.412330e+01	1.729204e+03
2.120000e-06	4.576549e-06	2.621605e-08	3.333863e+01	1.715997e+03
2.130000e-06	4.467300e-06	2.602073e-08	3.254278e+01	1.702292e+03
2.140000e-06	4.356351e-06	2.579879e-08	3.173456e+01	1.688099e+03
2.150000e-06	4.243652e-06	2.556638e-08	3.091358e+01	1.673388e+03
2.160000e-06	4.129301e-06	2.532420e-08	3.008057e+01	1.658091e+03
2.170000e-06	4.013273e-06	2.508401e-08	2.923535e+01	1.642113e+03
2.180000e-06	3.895664e-06	2.482530e-08	2.837860e+01	1.625343e+03
2.190000e-06	3.776450e-06	2.455965e-08	2.751017e+01	1.607687e+03
2.200000e-06	3.655737e-06	2.427874e-08	2.663081e+01	1.589077e+03
2.210000e-06	3.533694e-06	2.398591e-08	2.574178e+01	1.569484e+03
2.220000e-06	3.410309e-06	2.367718e-08	2.484296e+01	1.548912e+03
2.230000e-06	3.285664e-06	2.336030e-08	2.393496e+01	1.527377e+03
2.240000e-06	3.159892e-06	2.302709e-08	2.301875e+01	1.504885e+03
2.250000e-06	3.032929e-06	2.267084e-08	2.209387e+01	1.481403e+03
2.260000e-06	2.904743e-06	2.229086e-08	2.116007e+01	1.456846e+03
2.270000e-06	2.775514e-06	2.188702e-08	2.021869e+01	1.431070e+03
2.280000e-06	2.645332e-06	2.146673e-08	1.927036e+01	1.403885e+03
2.290000e-06	2.514186e-06	2.102728e-08	1.831500e+01	1.375079e+03
2.300000e-06	2.382130e-06	2.056726e-08	1.735302e+01	1.344447e+03
2.310000e-06	2.249320e-06	2.007613e-08	1.638554e+01	1.311814e+03
2.320000e-06	2.115844e-06	1.955209e-08	1.541321e+01	1.277046e+03
2.330000e-06	1.981672e-06	1.898905e-08	1.443582e+01	1.240041e+03
2.340000e-06	1.846716e-06	1.838996e-08	1.345271e+01	1.200705e+03
2.350000e-06	1.710973e-06	1.775359e-08	1.246386e+01	1.158919e+03
2.360000e-06	1.574626e-06	1.707697e-08	1.147062e+01	1.114510e+03
2.370000e-06	1.437798e-06	1.635370e-08	1.047387e+01	1.067232e+03
2.380000e-06	1.300560e-06	1.557718e-08	9.474142e+00	1.016780e+03
2.390000e-06	1.162966e-06	1.474819e-08	8.471815e+00	9.628275e+02
2.400000e-06	1.024972e-06	1.386592e-08	7.466577e+00	9.050934e+02
2.410000e-06	8.865822e-07	1.292789e-08	6.458454e+00	8.434197e+02
2.420000e-06	7.479139e-07	1.193307e-08	5.448302e+00	7.778416e+02
2.430000e-06	6.089721e-07	1.088558e-08	4.436157e+00	7.086324e+02
2.440000e-06	4.697879e-07	9.789107e-09	3.422247e+00	6.363042e+02
2.450000e-06	3.304349e-07	8.648152e-09	2.407108e+00	5.615596e+02
2.460000e-06	1.908792e-07	7.474595e-09	1.390491e+00	4.851960e+02
2.470000e-06	5.120073e-08	6.286165e-09	3.729801e-01	4.079811e+02
2.480000e-06	-8.854326e-08	5.096211e-09	-6.450079e-01	3.305230e+02
2.490000e-06	-2.282864e-07	3.910521e-09	-1.662990e+00	2.531642e+02
2.500000e-06	-3.678850e-07	2.729903e-09	-2.679919e+00	1.759256e+02
2.510000e-06	-5.073137e-07	1.549896e-09	-3.695610e+00	9.851573e+01
2.520000e-06	-6.465801e-07	3.588029e-10	-4.710119e+00	2.040857e+01
2.530000e-06	-7.855865e-07	-8.537239e-10	-5.722734e+00	-5.902296e+01
2.540000e-06	-9.243349e-07	-2.093721e-09	-6.733469e+00	-1.403434e+02
2.550000e-06	-1.062753e-06	-3.366087e-09	-7.741802e+00	-2.238936e+02
2.560000e-06	-1.200755e-06	-4.674875e-09	-8.747098e+00	-3.096662e+02
2.570000e-06	-1.338339e-06	-6.016163e-09	-9.749347e+00	-3.972421e+02
2.580000e-06	-1.475487e-06	-7.374884e-09	-1.074843e+01	-4.858037e+02
2.590000e-06	-1.612221e-06	-8.732545e-09	-1.174449e+01	-5.742203e+02
2.600000e-06	-1.748412e-06	-1.006722e-08	-1.273659e+01	-6.611892e+02
2.610000e-06	-1.883841e-06	-1.135800e-08	-1.372315e+01	-7.454050e+02
2.620000e-06	-2.018358e-06	-1.258436e-08	-1.470306e+01	-8.257218e+02
2.630000e-06	-2.152014e-06	-1.373260e-08	-1.567670e+01	-9.012816e+02
2.640000e-06	-2.284954e-06	-1.480224e-08	-1.664512e+01	-9.715854e+02
2.650000e-06	-2.417060e-06	-1.579667e-08	-1.760747e+01	-1.036501e+03
2.660000e-06	-2.548208e-06	-1.671852e-08	-1.856284e+01	-1.096211e+03
2.670000e-06	-2.678419e-06	-1.756838e-08	-1.951138e+01	-1.151123e+03
2.680000e-06	-2.807705e-06	-1.835053e-08	-2.045319e+01	-1.201758e+03
2.690000e-06	-2.936049e-06	-1.907202e-08	-2.138813e+01	-1.248647e+03
2.700000e-06	-3.063297e-06	-1.973976e-08	-2.231509e+01	-1.292260e+03
2.710000e-06	-3.189365e-06	-2.036170e-08	-2.323345e+01	-1.332959e+03
2.720000e-06	-3.314314e-06	-2.094396e-08	-2.414366e+01	-1.370998e+03
2.730000e-06	-3.438037e-06	-2.148851e-08	-2.504494e+01	-1.406549e+03
2.740000e-06	-3.560449e-06	-2.199419e-08	-2.593667e+01	-1.439741e+03
2.750000e-06	-3.681644e-06	-2.246460e-08	-2.681954e+01	-1.470700e+03
2.760000e-06	-3.801562e-06	-2.290476e-08	-2.769310e+01	-1.499578e+03
2.770000e-06	-3.920006e-06	-2.331799e-08	-2.855593e+01	-1.526563e+03
2.780000e-06	-4.036953e-06	-2.370879e-08	-2.940785e+01	-1.551863e+03
2.790000e-06	-4.152313e-06	-2.407939e-08	-3.024821e+01	-1.575691e+03
2.800000e-06	-4.265969e-06	-2.442777e-08	-3.107615e+01	-1.598234e+03
2.810000e-06	-4.377882e-06	-2.475437e-08	-3.189140e+01	-1.619636e+03
2.820000e-06	-4.488054e-06	-2.506274e-08	-3.269397e+01	-1.639982e+03
2.830000e-06	-4.596729e-06	-2.535581e-08	-3.348563e+01	-1.659314e+03
2.840000e-06	-4.703986e-06	-2.563579e-08	-3.426696e+01	-1.677638e+03
2.850000e-06	-4.809709e-06	-2.589962e-08	-3.503711e+01	-1.694953e+03
2.860000e-06	-4.913741e-06	-2.614853e-08	-3.579495e+01	-1.711275e+03
2.870000e-06	-5.015859e-06	-2.638399e-08	-3.653885e+01	-1.726646e+03
2.880000e-06	-5.116060e-06	-2.660797e-08	-3.726878e+01	-1.741140e+03
2.890000e-06	-5.214473e-06	-2.682232e-08	-3.798569e+01	-1.754853e+03
2.900000e-06	-5.311093e-06	-2.702561e-08	-3.868953e+01	-1.767889e+03
2.910000e-06	-5.405739e-06	-2.721913e-08	-3.937899e+01	-1.780337e+03
2.920000e-06	-5.498354e-06	-2.740312e-08	-4.005366e+01	-1.792258e+03
2.930000e-06	-5.589029e-06	-2.757760e-08	-4.071420e+01	-1.803678e+03
2.940000e-06	-5.677774e-06	-2.774157e-08	-4.136068e+01	-1.814592e+03
