# Temperatura_=_60.94
# Concentracion g/m^3_=_28200.0
# C_Vs_to_Am_M_A/Vsm_=_65563218390.804596
# pendiente_HvsI_1/m_=_3716.3
# ordenada_HvsI_A/m_=_1297.0
# frecuencia_Hz_=_302376.6254804073

Tiempo_(s)	Campo_(V.s)	Magnetizacion_(V.s)	Campo_(kA/m)	Magnetizacion_(A/m)
0.000000e+00	-7.304725e-06	-3.031902e-08	-5.319063e+01	-1.984831e+03
1.000000e-08	-7.300633e-06	-3.031484e-08	-5.316084e+01	-1.984190e+03
2.000000e-08	-7.294227e-06	-3.030060e-08	-5.311419e+01	-1.983361e+03
3.000000e-08	-7.285482e-06	-3.028544e-08	-5.305052e+01	-1.982378e+03
4.000000e-08	-7.274137e-06	-3.026758e-08	-5.296790e+01	-1.981266e+03
5.000000e-08	-7.259993e-06	-3.024582e-08	-5.286492e+01	-1.980033e+03
6.000000e-08	-7.243229e-06	-3.021668e-08	-5.274285e+01	-1.978670e+03
7.000000e-08	-7.224306e-06	-3.018025e-08	-5.260505e+01	-1.977154e+03
8.000000e-08	-7.203267e-06	-3.017022e-08	-5.245185e+01	-1.975464e+03
9.000000e-08	-7.179603e-06	-3.022763e-08	-5.227954e+01	-1.973587e+03
1.000000e-07	-7.152943e-06	-3.016829e-08	-5.208541e+01	-1.971529e+03
1.100000e-07	-7.123523e-06	-3.006351e-08	-5.187118e+01	-1.969316e+03
1.200000e-07	-7.091673e-06	-3.002880e-08	-5.163926e+01	-1.966987e+03
1.300000e-07	-7.057338e-06	-2.999542e-08	-5.138925e+01	-1.964583e+03
1.400000e-07	-7.020817e-06	-2.989527e-08	-5.112331e+01	-1.962128e+03
1.500000e-07	-6.982556e-06	-2.983279e-08	-5.084471e+01	-1.959622e+03
1.600000e-07	-6.942156e-06	-2.994764e-08	-5.055053e+01	-1.957026e+03
1.700000e-07	-6.899213e-06	-2.979735e-08	-5.023783e+01	-1.954274e+03
1.800000e-07	-6.853830e-06	-2.970514e-08	-4.990737e+01	-1.951279e+03
1.900000e-07	-6.805831e-06	-2.973080e-08	-4.955785e+01	-1.947954e+03
2.000000e-07	-6.755026e-06	-2.958843e-08	-4.918791e+01	-1.944232e+03
2.100000e-07	-6.701560e-06	-2.957288e-08	-4.879859e+01	-1.940081e+03
2.200000e-07	-6.645547e-06	-2.947947e-08	-4.839072e+01	-1.935513e+03
2.300000e-07	-6.587059e-06	-2.938939e-08	-4.796483e+01	-1.930578e+03
2.400000e-07	-6.526196e-06	-2.935713e-08	-4.752164e+01	-1.925348e+03
2.500000e-07	-6.462983e-06	-2.924822e-08	-4.706135e+01	-1.919897e+03
2.600000e-07	-6.397258e-06	-2.918143e-08	-4.658276e+01	-1.914280e+03
2.700000e-07	-6.329049e-06	-2.909047e-08	-4.608608e+01	-1.908516e+03
2.800000e-07	-6.258543e-06	-2.900158e-08	-4.557268e+01	-1.902583e+03
2.900000e-07	-6.185648e-06	-2.888701e-08	-4.504188e+01	-1.896424e+03
3.000000e-07	-6.110203e-06	-2.877053e-08	-4.449252e+01	-1.889964e+03
3.100000e-07	-6.032133e-06	-2.869409e-08	-4.392404e+01	-1.883130e+03
3.200000e-07	-5.951607e-06	-2.856688e-08	-4.333767e+01	-1.875873e+03
3.300000e-07	-5.868960e-06	-2.847501e-08	-4.273586e+01	-1.868178e+03
3.400000e-07	-5.784398e-06	-2.833198e-08	-4.212011e+01	-1.860066e+03
3.500000e-07	-5.697977e-06	-2.820688e-08	-4.149082e+01	-1.851583e+03
3.600000e-07	-5.609593e-06	-2.808722e-08	-4.084723e+01	-1.842783e+03
3.700000e-07	-5.519118e-06	-2.793160e-08	-4.018843e+01	-1.833706e+03
3.800000e-07	-5.426618e-06	-2.779681e-08	-3.951487e+01	-1.824363e+03
3.900000e-07	-5.332246e-06	-2.764087e-08	-3.882769e+01	-1.814724e+03
4.000000e-07	-5.235977e-06	-2.748738e-08	-3.812668e+01	-1.804728e+03
4.100000e-07	-5.137800e-06	-2.731277e-08	-3.741179e+01	-1.794292e+03
4.200000e-07	-5.037833e-06	-2.715921e-08	-3.668387e+01	-1.783336e+03
4.300000e-07	-4.936134e-06	-2.698180e-08	-3.594332e+01	-1.771801e+03
4.400000e-07	-4.832661e-06	-2.679115e-08	-3.518987e+01	-1.759660e+03
4.500000e-07	-4.727465e-06	-2.660007e-08	-3.442386e+01	-1.746925e+03
4.600000e-07	-4.620532e-06	-2.639870e-08	-3.364521e+01	-1.733631e+03
4.700000e-07	-4.511934e-06	-2.619009e-08	-3.285444e+01	-1.719821e+03
4.800000e-07	-4.401827e-06	-2.596986e-08	-3.205268e+01	-1.705523e+03
4.900000e-07	-4.290111e-06	-2.575108e-08	-3.123920e+01	-1.690728e+03
5.000000e-07	-4.176656e-06	-2.550783e-08	-3.041305e+01	-1.675388e+03
5.100000e-07	-4.061456e-06	-2.525539e-08	-2.957420e+01	-1.659415e+03
5.200000e-07	-3.944677e-06	-2.499187e-08	-2.872386e+01	-1.642703e+03
5.300000e-07	-3.826475e-06	-2.472314e-08	-2.786315e+01	-1.625143e+03
5.400000e-07	-3.706804e-06	-2.443738e-08	-2.699174e+01	-1.606656e+03
5.500000e-07	-3.585717e-06	-2.414032e-08	-2.611003e+01	-1.587198e+03
5.600000e-07	-3.463286e-06	-2.383405e-08	-2.521852e+01	-1.566766e+03
5.700000e-07	-3.339477e-06	-2.350803e-08	-2.431699e+01	-1.545382e+03
5.800000e-07	-3.214453e-06	-2.316592e-08	-2.340660e+01	-1.523068e+03
5.900000e-07	-3.088357e-06	-2.280656e-08	-2.248841e+01	-1.499818e+03
6.000000e-07	-2.961100e-06	-2.243543e-08	-2.156177e+01	-1.475575e+03
6.100000e-07	-2.832645e-06	-2.204310e-08	-2.062640e+01	-1.450218e+03
6.200000e-07	-2.703158e-06	-2.163290e-08	-1.968352e+01	-1.423569e+03
6.300000e-07	-2.572741e-06	-2.119823e-08	-1.873387e+01	-1.395417e+03
6.400000e-07	-2.441348e-06	-2.074088e-08	-1.777710e+01	-1.365545e+03
6.500000e-07	-2.308992e-06	-2.025700e-08	-1.681333e+01	-1.333762e+03
6.600000e-07	-2.175885e-06	-1.974204e-08	-1.584408e+01	-1.299920e+03
6.700000e-07	-2.042163e-06	-1.919591e-08	-1.487037e+01	-1.263916e+03
6.800000e-07	-1.907714e-06	-1.861433e-08	-1.389135e+01	-1.225669e+03
6.900000e-07	-1.772453e-06	-1.799827e-08	-1.290643e+01	-1.185088e+03
7.000000e-07	-1.636534e-06	-1.734110e-08	-1.191671e+01	-1.142031e+03
7.100000e-07	-1.500092e-06	-1.664012e-08	-1.092318e+01	-1.096275e+03
7.200000e-07	-1.363120e-06	-1.588915e-08	-9.925795e+00	-1.047515e+03
7.300000e-07	-1.225635e-06	-1.508666e-08	-8.924675e+00	-9.953864e+02
7.400000e-07	-1.087722e-06	-1.422863e-08	-7.920439e+00	-9.395280e+02
7.500000e-07	-9.494532e-07	-1.331536e-08	-6.913610e+00	-8.796587e+02
7.600000e-07	-8.108834e-07	-1.234522e-08	-5.904590e+00	-8.156621e+02
7.700000e-07	-6.720599e-07	-1.131527e-08	-4.893722e+00	-7.476506e+02
7.800000e-07	-5.329155e-07	-1.022887e-08	-3.880518e+00	-6.759913e+02
7.900000e-07	-3.935064e-07	-9.091978e-09	-2.865386e+00	-6.012811e+02
8.000000e-07	-2.539745e-07	-7.917349e-09	-1.849360e+00	-5.242688e+02
8.100000e-07	-1.143454e-07	-6.715182e-09	-8.326258e-01	-4.457373e+02
8.200000e-07	2.537492e-08	-5.499959e-09	1.847720e-01	-3.663690e+02
8.300000e-07	1.651466e-07	-4.281605e-09	1.202544e+00	-2.866241e+02
8.400000e-07	3.048505e-07	-3.063847e-09	2.219822e+00	-2.066615e+02
8.500000e-07	4.444253e-07	-1.843503e-09	3.236161e+00	-1.263236e+02
8.600000e-07	5.838698e-07	-6.120798e-10	4.251550e+00	-4.519312e+01
8.700000e-07	7.231341e-07	6.383706e-10	5.265628e+00	3.728576e+01
8.800000e-07	8.621208e-07	1.918424e-09	6.277684e+00	1.216454e+02
8.900000e-07	1.000832e-06	3.231821e-09	7.287735e+00	2.082248e+02
9.000000e-07	1.139230e-06	4.580835e-09	8.295500e+00	2.970291e+02
9.100000e-07	1.277191e-06	5.962098e-09	9.300090e+00	3.876477e+02
9.200000e-07	1.414687e-06	7.363215e-09	1.030129e+01	4.792519e+02
9.300000e-07	1.551634e-06	8.761571e-09	1.129850e+01	5.706719e+02
9.400000e-07	1.687977e-06	1.013224e-08	1.229130e+01	6.605387e+02
9.500000e-07	1.823699e-06	1.145490e-08	1.327958e+01	7.474632e+02
9.600000e-07	1.958615e-06	1.270871e-08	1.426200e+01	8.302148e+02
9.700000e-07	2.092723e-06	1.387796e-08	1.523853e+01	9.078674e+02
9.800000e-07	2.226196e-06	1.495815e-08	1.621044e+01	9.798859e+02
9.900000e-07	2.358912e-06	1.595578e-08	1.717684e+01	1.046141e+03
1.000000e-06	2.490717e-06	1.687688e-08	1.813659e+01	1.106860e+03
1.010000e-06	2.621541e-06	1.772692e-08	1.908921e+01	1.162519e+03
1.020000e-06	2.751254e-06	1.851139e-08	2.003374e+01	1.213729e+03
1.030000e-06	2.879919e-06	1.923316e-08	2.097063e+01	1.261104e+03
1.040000e-06	3.007564e-06	1.990173e-08	2.190011e+01	1.305178e+03
1.050000e-06	3.134056e-06	2.052396e-08	2.282118e+01	1.346352e+03
1.060000e-06	3.259502e-06	2.110374e-08	2.373463e+01	1.384890e+03
1.070000e-06	3.383906e-06	2.164640e-08	2.464051e+01	1.420950e+03
1.080000e-06	3.507024e-06	2.215173e-08	2.553701e+01	1.454633e+03
1.090000e-06	3.628874e-06	2.262441e-08	2.642428e+01	1.486040e+03
1.100000e-06	3.749489e-06	2.306722e-08	2.730257e+01	1.515304e+03
1.110000e-06	3.868726e-06	2.348320e-08	2.817080e+01	1.542610e+03
1.120000e-06	3.986563e-06	2.387511e-08	2.902886e+01	1.568182e+03
1.130000e-06	4.102956e-06	2.424602e-08	2.987639e+01	1.592258e+03
1.140000e-06	4.217793e-06	2.459705e-08	3.071260e+01	1.615054e+03
1.150000e-06	4.331026e-06	2.492958e-08	3.153713e+01	1.636736e+03
1.160000e-06	4.442555e-06	2.524257e-08	3.234924e+01	1.657402e+03
1.170000e-06	4.552456e-06	2.553686e-08	3.314951e+01	1.677088e+03
1.180000e-06	4.660816e-06	2.581567e-08	3.393855e+01	1.695784e+03
1.190000e-06	4.767560e-06	2.608037e-08	3.471583e+01	1.713468e+03
1.200000e-06	4.872620e-06	2.633136e-08	3.548084e+01	1.730133e+03
1.210000e-06	4.975890e-06	2.656969e-08	3.623281e+01	1.745806e+03
1.220000e-06	5.077433e-06	2.679707e-08	3.697222e+01	1.760560e+03
1.230000e-06	5.177194e-06	2.701331e-08	3.769864e+01	1.774501e+03
1.240000e-06	5.274948e-06	2.721781e-08	3.841046e+01	1.787750e+03
1.250000e-06	5.370639e-06	2.740948e-08	3.910725e+01	1.800419e+03
1.260000e-06	5.464399e-06	2.759267e-08	3.978998e+01	1.812588e+03
1.270000e-06	5.556295e-06	2.776668e-08	4.045914e+01	1.824290e+03
1.280000e-06	5.646198e-06	2.793335e-08	4.111378e+01	1.835519e+03
1.290000e-06	5.733993e-06	2.809431e-08	4.175307e+01	1.846236e+03
1.300000e-06	5.819707e-06	2.824828e-08	4.237721e+01	1.856393e+03
1.310000e-06	5.903414e-06	2.839453e-08	4.298675e+01	1.865955e+03
1.320000e-06	5.984981e-06	2.853352e-08	4.358069e+01	1.874912e+03
1.330000e-06	6.064299e-06	2.866567e-08	4.415826e+01	1.883291e+03
1.340000e-06	6.141385e-06	2.879086e-08	4.471957e+01	1.891148e+03
1.350000e-06	6.216140e-06	2.890703e-08	4.526391e+01	1.898554e+03
1.360000e-06	6.288498e-06	2.901470e-08	4.579080e+01	1.905581e+03
1.370000e-06	6.358637e-06	2.911729e-08	4.630153e+01	1.912281e+03
1.380000e-06	6.426563e-06	2.921342e-08	4.679615e+01	1.918680e+03
1.390000e-06	6.492143e-06	2.930395e-08	4.727368e+01	1.924780e+03
1.400000e-06	6.555412e-06	2.939042e-08	4.773438e+01	1.930562e+03
1.410000e-06	6.616456e-06	2.947257e-08	4.817888e+01	1.936003e+03
1.420000e-06	6.675223e-06	2.955050e-08	4.860681e+01	1.941091e+03
1.430000e-06	6.731575e-06	2.962399e-08	4.901715e+01	1.945830e+03
1.440000e-06	6.785472e-06	2.969166e-08	4.940961e+01	1.950249e+03
1.450000e-06	6.836703e-06	2.975461e-08	4.978265e+01	1.954391e+03
1.460000e-06	6.885107e-06	2.981617e-08	5.013511e+01	1.958303e+03
1.470000e-06	6.931009e-06	2.987607e-08	5.046936e+01	1.962022e+03
1.480000e-06	6.974583e-06	2.993202e-08	5.078665e+01	1.965563e+03
1.490000e-06	7.015572e-06	2.998272e-08	5.108512e+01	1.968916e+03
1.500000e-06	7.054033e-06	3.002812e-08	5.136518e+01	1.972047e+03
1.510000e-06	7.090191e-06	3.006878e-08	5.162847e+01	1.974909e+03
1.520000e-06	7.123827e-06	3.010521e-08	5.187340e+01	1.977460e+03
1.530000e-06	7.154834e-06	3.013823e-08	5.209918e+01	1.979673e+03
1.540000e-06	7.183405e-06	3.016859e-08	5.230723e+01	1.981547e+03
1.550000e-06	7.209417e-06	3.019482e-08	5.249663e+01	1.983108e+03
1.560000e-06	7.232668e-06	3.021708e-08	5.266594e+01	1.984405e+03
1.570000e-06	7.253391e-06	3.023547e-08	5.281684e+01	1.985494e+03
1.580000e-06	7.271665e-06	3.025149e-08	5.294990e+01	1.986422e+03
1.590000e-06	7.287207e-06	3.026488e-08	5.306307e+01	1.987222e+03
1.600000e-06	7.299946e-06	3.027397e-08	5.315584e+01	1.987897e+03
1.610000e-06	7.309795e-06	3.028068e-08	5.322755e+01	1.988430e+03
1.620000e-06	7.316803e-06	3.028565e-08	5.327859e+01	1.988786e+03
1.630000e-06	7.321293e-06	3.028938e-08	5.331128e+01	1.988932e+03
1.640000e-06	7.323205e-06	3.029211e-08	5.332520e+01	1.988839e+03
1.650000e-06	7.322494e-06	3.029123e-08	5.332002e+01	1.988503e+03
1.660000e-06	7.319416e-06	3.027645e-08	5.329761e+01	1.987937e+03
1.670000e-06	7.313942e-06	3.026631e-08	5.325776e+01	1.987170e+03
1.680000e-06	7.305945e-06	3.025638e-08	5.319952e+01	1.986238e+03
1.690000e-06	7.295540e-06	3.024132e-08	5.312375e+01	1.985169e+03
1.700000e-06	7.282558e-06	3.022539e-08	5.302923e+01	1.983979e+03
1.710000e-06	7.267008e-06	3.021688e-08	5.291600e+01	1.982663e+03
1.720000e-06	7.249268e-06	3.021665e-08	5.278682e+01	1.981204e+03
1.730000e-06	7.229425e-06	3.014198e-08	5.264233e+01	1.979577e+03
1.740000e-06	7.206847e-06	3.002735e-08	5.247792e+01	1.977767e+03
1.750000e-06	7.180915e-06	3.006620e-08	5.228909e+01	1.975771e+03
1.760000e-06	7.151700e-06	3.007783e-08	5.207636e+01	1.973608e+03
1.770000e-06	7.119823e-06	3.000742e-08	5.184424e+01	1.971315e+03
1.780000e-06	7.085879e-06	3.002916e-08	5.159707e+01	1.968933e+03
1.790000e-06	7.050250e-06	3.007608e-08	5.133763e+01	1.966494e+03
1.800000e-06	7.013029e-06	2.987059e-08	5.106660e+01	1.964008e+03
1.810000e-06	6.973388e-06	2.989838e-08	5.077795e+01	1.961450e+03
1.820000e-06	6.931095e-06	2.994160e-08	5.046998e+01	1.958762e+03
1.830000e-06	6.886630e-06	2.978125e-08	5.014620e+01	1.955864e+03
1.840000e-06	6.839640e-06	2.988866e-08	4.980404e+01	1.952665e+03
1.850000e-06	6.789998e-06	2.969750e-08	4.944256e+01	1.949089e+03
1.860000e-06	6.737709e-06	2.966107e-08	4.906181e+01	1.945091e+03
1.870000e-06	6.682638e-06	2.966502e-08	4.866080e+01	1.940668e+03
1.880000e-06	6.625196e-06	2.945930e-08	4.824253e+01	1.935855e+03
1.890000e-06	6.565242e-06	2.950733e-08	4.780596e+01	1.930721e+03
1.900000e-06	6.502678e-06	2.935645e-08	4.735039e+01	1.925341e+03
1.910000e-06	6.437664e-06	2.928722e-08	4.687698e+01	1.919778e+03
1.920000e-06	6.370254e-06	2.922289e-08	4.638612e+01	1.914066e+03
1.930000e-06	6.300453e-06	2.909433e-08	4.587786e+01	1.908198e+03
1.940000e-06	6.228191e-06	2.908468e-08	4.535167e+01	1.902127e+03
1.950000e-06	6.153599e-06	2.889514e-08	4.480851e+01	1.895782e+03
1.960000e-06	6.076471e-06	2.884197e-08	4.424689e+01	1.889088e+03
1.970000e-06	5.996824e-06	2.869919e-08	4.366693e+01	1.881985e+03
1.980000e-06	5.915047e-06	2.858656e-08	4.307146e+01	1.874445e+03
1.990000e-06	5.831202e-06	2.850461e-08	4.246092e+01	1.866477e+03
2.000000e-06	5.745275e-06	2.833936e-08	4.183523e+01	1.858119e+03
2.010000e-06	5.657268e-06	2.825934e-08	4.119439e+01	1.849426e+03
2.020000e-06	5.567276e-06	2.808004e-08	4.053910e+01	1.840444e+03
2.030000e-06	5.475356e-06	2.796013e-08	3.986977e+01	1.831197e+03
2.040000e-06	5.381461e-06	2.780751e-08	3.918605e+01	1.821668e+03
2.050000e-06	5.285607e-06	2.766963e-08	3.848807e+01	1.811807e+03
2.060000e-06	5.187948e-06	2.750943e-08	3.777695e+01	1.801538e+03
2.070000e-06	5.088577e-06	2.732674e-08	3.705337e+01	1.790775e+03
2.080000e-06	4.987348e-06	2.716902e-08	3.631625e+01	1.779451e+03
2.090000e-06	4.884198e-06	2.697327e-08	3.556514e+01	1.767526e+03
2.100000e-06	4.779273e-06	2.680062e-08	3.480112e+01	1.754999e+03
2.110000e-06	4.672839e-06	2.659849e-08	3.402610e+01	1.741899e+03
2.120000e-06	4.564892e-06	2.640568e-08	3.324006e+01	1.728268e+03
2.130000e-06	4.455357e-06	2.618274e-08	3.244246e+01	1.714142e+03
2.140000e-06	4.344165e-06	2.596201e-08	3.163280e+01	1.699527e+03
2.150000e-06	4.231265e-06	2.572885e-08	3.081070e+01	1.684390e+03
2.160000e-06	4.116635e-06	2.548730e-08	2.997600e+01	1.668654e+03
2.170000e-06	4.000301e-06	2.523551e-08	2.912890e+01	1.652218e+03
2.180000e-06	3.882421e-06	2.496925e-08	2.827053e+01	1.634971e+03
2.190000e-06	3.762931e-06	2.469886e-08	2.740044e+01	1.616821e+03
2.200000e-06	3.641961e-06	2.441084e-08	2.651958e+01	1.597712e+03
2.210000e-06	3.519714e-06	2.411658e-08	2.562941e+01	1.577625e+03
2.220000e-06	3.396159e-06	2.380025e-08	2.472972e+01	1.556577e+03
2.230000e-06	3.271341e-06	2.347296e-08	2.382084e+01	1.534593e+03
2.240000e-06	3.145330e-06	2.312097e-08	2.290327e+01	1.511680e+03
2.250000e-06	3.018159e-06	2.275835e-08	2.197725e+01	1.487801e+03
2.260000e-06	2.889792e-06	2.237383e-08	2.104253e+01	1.462859e+03
2.270000e-06	2.760369e-06	2.197218e-08	2.010011e+01	1.436694e+03
2.280000e-06	2.630021e-06	2.154885e-08	1.915096e+01	1.409104e+03
2.290000e-06	2.498704e-06	2.110398e-08	1.819475e+01	1.379869e+03
2.300000e-06	2.366496e-06	2.063241e-08	1.723206e+01	1.348787e+03
2.310000e-06	2.233478e-06	2.013192e-08	1.626347e+01	1.315693e+03
2.320000e-06	2.099745e-06	1.960033e-08	1.528966e+01	1.280470e+03
2.330000e-06	1.965350e-06	1.902958e-08	1.431104e+01	1.243033e+03
2.340000e-06	1.830284e-06	1.842501e-08	1.332753e+01	1.203298e+03
2.350000e-06	1.694541e-06	1.778286e-08	1.233909e+01	1.161145e+03
2.360000e-06	1.558197e-06	1.710350e-08	1.134628e+01	1.116383e+03
2.370000e-06	1.421324e-06	1.637594e-08	1.034962e+01	1.068735e+03
2.380000e-06	1.283916e-06	1.559486e-08	9.349062e+00	1.017852e+03
2.390000e-06	1.146118e-06	1.475733e-08	8.345662e+00	9.633628e+02
2.400000e-06	1.007983e-06	1.386293e-08	7.339802e+00	9.049487e+02
2.410000e-06	8.694898e-07	1.291115e-08	6.331343e+00	8.424254e+02
2.420000e-06	7.306970e-07	1.190057e-08	5.320698e+00	7.758180e+02
2.430000e-06	5.916265e-07	1.083584e-08	4.308032e+00	7.054030e+02
2.440000e-06	4.523098e-07	9.720787e-09	3.293573e+00	6.317014e+02
2.450000e-06	3.127705e-07	8.558402e-09	2.277494e+00	5.554196e+02
2.460000e-06	1.730220e-07	7.360065e-09	1.259890e+00	4.773434e+02
2.470000e-06	3.316627e-08	6.141984e-09	2.415060e-01	3.982066e+02
2.480000e-06	-1.066966e-07	4.918018e-09	-7.769303e-01	3.185604e+02
2.490000e-06	-2.465147e-07	3.692264e-09	-1.795040e+00	2.386769e+02
2.500000e-06	-3.861882e-07	2.463274e-09	-2.812097e+00	1.585087e+02
2.510000e-06	-5.257163e-07	1.230261e-09	-3.828096e+00	7.772030e+01
2.520000e-06	-6.650841e-07	-1.576521e-11	-4.842926e+00	-4.211766e+00
2.530000e-06	-8.042494e-07	-1.285932e-09	-5.856283e+00	-8.784807e+01
2.540000e-06	-9.431059e-07	-2.591349e-09	-6.867391e+00	-1.736151e+02
2.550000e-06	-1.081508e-06	-3.934561e-09	-7.875192e+00	-2.616503e+02
2.560000e-06	-1.219523e-06	-5.310286e-09	-8.880169e+00	-3.516960e+02
2.570000e-06	-1.357188e-06	-6.712373e-09	-9.882600e+00	-4.430681e+02
2.580000e-06	-1.494420e-06	-8.122731e-09	-1.088188e+01	-5.347050e+02
2.590000e-06	-1.631069e-06	-9.517506e-09	-1.187691e+01	-6.252897e+02
2.600000e-06	-1.766997e-06	-1.086914e-08	-1.286670e+01	-7.134189e+02
2.610000e-06	-1.902202e-06	-1.215827e-08	-1.385122e+01	-7.977862e+02
2.620000e-06	-2.036687e-06	-1.337002e-08	-1.483050e+01	-8.773435e+02
2.630000e-06	-2.170392e-06	-1.449674e-08	-1.580409e+01	-9.514104e+02
2.640000e-06	-2.303297e-06	-1.553840e-08	-1.677186e+01	-1.019716e+03
2.650000e-06	-2.435402e-06	-1.649858e-08	-1.773381e+01	-1.082368e+03
2.660000e-06	-2.566490e-06	-1.738554e-08	-1.868835e+01	-1.139769e+03
2.670000e-06	-2.696574e-06	-1.820261e-08	-1.963557e+01	-1.192496e+03
2.680000e-06	-2.825817e-06	-1.895610e-08	-2.057668e+01	-1.241174e+03
2.690000e-06	-2.954065e-06	-1.965193e-08	-2.151054e+01	-1.286374e+03
2.700000e-06	-3.081183e-06	-2.029861e-08	-2.243618e+01	-1.328548e+03
2.710000e-06	-3.207192e-06	-2.090273e-08	-2.335373e+01	-1.368006e+03
2.720000e-06	-3.332091e-06	-2.146797e-08	-2.426321e+01	-1.404938e+03
2.730000e-06	-3.455712e-06	-2.199574e-08	-2.516337e+01	-1.439460e+03
2.740000e-06	-3.578051e-06	-2.248648e-08	-2.605421e+01	-1.471668e+03
2.750000e-06	-3.699231e-06	-2.294498e-08	-2.693660e+01	-1.501680e+03
2.760000e-06	-3.819033e-06	-2.337241e-08	-2.780896e+01	-1.529661e+03
2.770000e-06	-3.937305e-06	-2.377317e-08	-2.867018e+01	-1.555826e+03
2.780000e-06	-4.054116e-06	-2.415389e-08	-2.952076e+01	-1.580411e+03
2.790000e-06	-4.169270e-06	-2.451633e-08	-3.035927e+01	-1.603643e+03
2.800000e-06	-4.282690e-06	-2.485772e-08	-3.118516e+01	-1.625709e+03
2.810000e-06	-4.394439e-06	-2.517844e-08	-3.199888e+01	-1.646731e+03
2.820000e-06	-4.504481e-06	-2.548210e-08	-3.280017e+01	-1.666767e+03
2.830000e-06	-4.612962e-06	-2.577089e-08	-3.359009e+01	-1.685820e+03
2.840000e-06	-4.719979e-06	-2.604586e-08	-3.436935e+01	-1.703869e+03
2.850000e-06	-4.825442e-06	-2.630481e-08	-3.513730e+01	-1.720897e+03
2.860000e-06	-4.929162e-06	-2.654777e-08	-3.589256e+01	-1.736919e+03
2.870000e-06	-5.031030e-06	-2.677792e-08	-3.663432e+01	-1.751991e+03
2.880000e-06	-5.131010e-06	-2.699800e-08	-3.736235e+01	-1.766210e+03
2.890000e-06	-5.229228e-06	-2.721024e-08	-3.807754e+01	-1.779693e+03
2.900000e-06	-5.325651e-06	-2.741299e-08	-3.877967e+01	-1.792559e+03
2.910000e-06	-5.420093e-06	-2.760571e-08	-3.946736e+01	-1.804900e+03
2.920000e-06	-5.512562e-06	-2.778867e-08	-4.014069e+01	-1.816769e+03
2.930000e-06	-5.603089e-06	-2.796133e-08	-4.079988e+01	-1.828171e+03
2.940000e-06	-5.691602e-06	-2.812304e-08	-4.144440e+01	-1.839077e+03
