# Temperatura_=_81.18
# Concentracion g/m^3_=_28200.0
# C_Vs_to_Am_M_A/Vsm_=_65563218390.804596
# pendiente_HvsI_1/m_=_3716.3
# ordenada_HvsI_A/m_=_1297.0
# frecuencia_Hz_=_302374.55995677854

Tiempo_(s)	Campo_(V.s)	Magnetizacion_(V.s)	Campo_(kA/m)	Magnetizacion_(A/m)
0.000000e+00	-7.307798e-06	-3.069270e-08	-5.319011e+01	-2.009747e+03
1.000000e-08	-7.303882e-06	-3.068729e-08	-5.316160e+01	-2.009054e+03
2.000000e-08	-7.297577e-06	-3.067174e-08	-5.311571e+01	-2.008174e+03
3.000000e-08	-7.288872e-06	-3.065555e-08	-5.305236e+01	-2.007141e+03
4.000000e-08	-7.277585e-06	-3.063895e-08	-5.297020e+01	-2.005976e+03
5.000000e-08	-7.263604e-06	-3.061864e-08	-5.286844e+01	-2.004681e+03
6.000000e-08	-7.246995e-06	-3.059244e-08	-5.274755e+01	-2.003239e+03
7.000000e-08	-7.228143e-06	-3.055971e-08	-5.261034e+01	-2.001622e+03
8.000000e-08	-7.207222e-06	-3.054300e-08	-5.245806e+01	-1.999804e+03
9.000000e-08	-7.183714e-06	-3.057403e-08	-5.228695e+01	-1.997774e+03
1.000000e-07	-7.157186e-06	-3.052860e-08	-5.209387e+01	-1.995540e+03
1.100000e-07	-7.127853e-06	-3.043735e-08	-5.188037e+01	-1.993136e+03
1.200000e-07	-7.096040e-06	-3.038907e-08	-5.164882e+01	-1.990609e+03
1.300000e-07	-7.061777e-06	-3.034906e-08	-5.139943e+01	-1.988005e+03
1.400000e-07	-7.025352e-06	-3.026727e-08	-5.113431e+01	-1.985354e+03
1.500000e-07	-6.987116e-06	-3.020141e-08	-5.085601e+01	-1.982654e+03
1.600000e-07	-6.946732e-06	-3.026689e-08	-5.056208e+01	-1.979867e+03
1.700000e-07	-6.903884e-06	-3.015482e-08	-5.025020e+01	-1.976921e+03
1.800000e-07	-6.858718e-06	-3.005400e-08	-4.992146e+01	-1.973724e+03
1.900000e-07	-6.810913e-06	-3.005996e-08	-4.957351e+01	-1.970185e+03
2.000000e-07	-6.760198e-06	-2.993229e-08	-4.920438e+01	-1.966236e+03
2.100000e-07	-6.706885e-06	-2.989288e-08	-4.881634e+01	-1.961846e+03
2.200000e-07	-6.651077e-06	-2.982689e-08	-4.841014e+01	-1.957030e+03
2.300000e-07	-6.592726e-06	-2.972589e-08	-4.798543e+01	-1.951839e+03
2.400000e-07	-6.531905e-06	-2.967380e-08	-4.754274e+01	-1.946349e+03
2.500000e-07	-6.468710e-06	-2.957242e-08	-4.708277e+01	-1.940634e+03
2.600000e-07	-6.403042e-06	-2.948536e-08	-4.660480e+01	-1.934744e+03
2.700000e-07	-6.334887e-06	-2.939642e-08	-4.610873e+01	-1.928695e+03
2.800000e-07	-6.264447e-06	-2.931277e-08	-4.559603e+01	-1.922460e+03
2.900000e-07	-6.191628e-06	-2.919555e-08	-4.506602e+01	-1.915976e+03
3.000000e-07	-6.116265e-06	-2.907435e-08	-4.451748e+01	-1.909168e+03
3.100000e-07	-6.038341e-06	-2.898463e-08	-4.395031e+01	-1.901965e+03
3.200000e-07	-5.957913e-06	-2.884356e-08	-4.336492e+01	-1.894322e+03
3.300000e-07	-5.875295e-06	-2.873148e-08	-4.276357e+01	-1.886231e+03
3.400000e-07	-5.790774e-06	-2.860757e-08	-4.214839e+01	-1.877719e+03
3.500000e-07	-5.704407e-06	-2.847898e-08	-4.151976e+01	-1.868839e+03
3.600000e-07	-5.616041e-06	-2.834762e-08	-4.087659e+01	-1.859644e+03
3.700000e-07	-5.525578e-06	-2.819405e-08	-4.021814e+01	-1.850174e+03
3.800000e-07	-5.433109e-06	-2.804487e-08	-3.954511e+01	-1.840431e+03
3.900000e-07	-5.338762e-06	-2.788128e-08	-3.885840e+01	-1.830381e+03
4.000000e-07	-5.242510e-06	-2.772237e-08	-3.815782e+01	-1.819954e+03
4.100000e-07	-5.144361e-06	-2.754945e-08	-3.744344e+01	-1.809065e+03
4.200000e-07	-5.044387e-06	-2.738276e-08	-3.671578e+01	-1.797635e+03
4.300000e-07	-4.942687e-06	-2.719765e-08	-3.597555e+01	-1.785608e+03
4.400000e-07	-4.839313e-06	-2.700053e-08	-3.522314e+01	-1.772970e+03
4.500000e-07	-4.734184e-06	-2.680281e-08	-3.445795e+01	-1.759738e+03
4.600000e-07	-4.627312e-06	-2.659800e-08	-3.368008e+01	-1.745960e+03
4.700000e-07	-4.518741e-06	-2.638422e-08	-3.288984e+01	-1.731682e+03
4.800000e-07	-4.408624e-06	-2.615763e-08	-3.208835e+01	-1.716931e+03
4.900000e-07	-4.296963e-06	-2.592561e-08	-3.127562e+01	-1.701695e+03
5.000000e-07	-4.183641e-06	-2.567648e-08	-3.045080e+01	-1.685920e+03
5.100000e-07	-4.068569e-06	-2.541894e-08	-2.961325e+01	-1.669508e+03
5.200000e-07	-3.951804e-06	-2.515004e-08	-2.876337e+01	-1.652347e+03
5.300000e-07	-3.833595e-06	-2.487417e-08	-2.790298e+01	-1.634327e+03
5.400000e-07	-3.713945e-06	-2.458578e-08	-2.703210e+01	-1.615370e+03
5.500000e-07	-3.592850e-06	-2.428265e-08	-2.615070e+01	-1.595438e+03
5.600000e-07	-3.470436e-06	-2.396541e-08	-2.525971e+01	-1.574536e+03
5.700000e-07	-3.346693e-06	-2.363271e-08	-2.435904e+01	-1.552693e+03
5.800000e-07	-3.221680e-06	-2.328561e-08	-2.344913e+01	-1.529933e+03
5.900000e-07	-3.095544e-06	-2.292145e-08	-2.253105e+01	-1.506250e+03
6.000000e-07	-2.968250e-06	-2.254210e-08	-2.160453e+01	-1.481581e+03
6.100000e-07	-2.839772e-06	-2.214398e-08	-2.066940e+01	-1.455797e+03
6.200000e-07	-2.710280e-06	-2.172660e-08	-1.972689e+01	-1.428715e+03
6.300000e-07	-2.579862e-06	-2.128390e-08	-1.877763e+01	-1.400117e+03
6.400000e-07	-2.448443e-06	-2.081690e-08	-1.782109e+01	-1.369791e+03
6.500000e-07	-2.315991e-06	-2.032441e-08	-1.685704e+01	-1.337554e+03
6.600000e-07	-2.182773e-06	-1.980495e-08	-1.588741e+01	-1.303273e+03
6.700000e-07	-2.048991e-06	-1.925547e-08	-1.491366e+01	-1.266861e+03
6.800000e-07	-1.914488e-06	-1.867175e-08	-1.393468e+01	-1.228255e+03
6.900000e-07	-1.779193e-06	-1.805009e-08	-1.294993e+01	-1.187375e+03
7.000000e-07	-1.643247e-06	-1.738615e-08	-1.196044e+01	-1.144079e+03
7.100000e-07	-1.506762e-06	-1.668017e-08	-1.096703e+01	-1.098140e+03
7.200000e-07	-1.369794e-06	-1.592667e-08	-9.970101e+00	-1.049235e+03
7.300000e-07	-1.232360e-06	-1.512236e-08	-8.969780e+00	-9.969791e+02
7.400000e-07	-1.094480e-06	-1.426181e-08	-7.966217e+00	-9.409868e+02
7.500000e-07	-9.562231e-07	-1.334605e-08	-6.959909e+00	-8.809534e+02
7.600000e-07	-8.176312e-07	-1.237276e-08	-5.951162e+00	-8.167406e+02
7.700000e-07	-6.787102e-07	-1.133843e-08	-4.940020e+00	-7.484407e+02
7.800000e-07	-5.394856e-07	-1.024581e-08	-3.926668e+00	-6.764005e+02
7.900000e-07	-4.000253e-07	-9.101777e-09	-2.911601e+00	-6.011923e+02
8.000000e-07	-2.604542e-07	-7.918729e-09	-1.895727e+00	-5.235345e+02
8.100000e-07	-1.207321e-07	-6.704786e-09	-8.787537e-01	-4.441720e+02
8.200000e-07	1.916901e-08	-5.472250e-09	1.395224e-01	-3.637447e+02
8.300000e-07	1.590664e-07	-4.230530e-09	1.157771e+00	-2.826716e+02
8.400000e-07	2.989057e-07	-2.984783e-09	2.175597e+00	-2.010804e+02
8.500000e-07	4.387087e-07	-1.734514e-09	3.193160e+00	-1.188029e+02
8.600000e-07	5.783632e-07	-4.716607e-10	4.209640e+00	-3.544089e+01
8.700000e-07	7.177276e-07	8.152349e-10	5.224010e+00	4.950621e+01
8.800000e-07	8.568044e-07	2.135407e-09	6.236286e+00	1.364793e+02
8.900000e-07	9.955586e-07	3.490230e-09	7.246214e+00	2.256959e+02
9.000000e-07	1.133961e-06	4.879760e-09	8.253585e+00	3.170210e+02
9.100000e-07	1.271986e-06	6.297676e-09	9.258203e+00	4.099033e+02
9.200000e-07	1.409478e-06	7.727571e-09	1.025894e+01	5.033901e+02
9.300000e-07	1.546391e-06	9.146767e-09	1.125547e+01	5.962215e+02
9.400000e-07	1.682792e-06	1.053231e-08	1.224827e+01	6.869843e+02
9.500000e-07	1.818610e-06	1.186140e-08	1.323682e+01	7.742952e+02
9.600000e-07	1.953624e-06	1.311270e-08	1.421954e+01	8.569766e+02
9.700000e-07	2.087782e-06	1.427405e-08	1.519601e+01	9.341923e+02
9.800000e-07	2.221234e-06	1.534423e-08	1.616735e+01	1.005518e+03
9.900000e-07	2.353977e-06	1.632954e-08	1.713352e+01	1.070939e+03
1.000000e-06	2.485846e-06	1.723830e-08	1.809333e+01	1.130785e+03
1.010000e-06	2.616756e-06	1.807732e-08	1.904616e+01	1.185613e+03
1.020000e-06	2.746612e-06	1.885158e-08	1.999133e+01	1.236081e+03
1.030000e-06	2.875443e-06	1.956477e-08	2.092903e+01	1.282825e+03
1.040000e-06	3.003252e-06	2.022528e-08	2.185929e+01	1.326377e+03
1.050000e-06	3.129879e-06	2.084082e-08	2.278095e+01	1.367119e+03
1.060000e-06	3.255421e-06	2.141545e-08	2.369471e+01	1.405294e+03
1.070000e-06	3.379962e-06	2.195224e-08	2.460119e+01	1.441038e+03
1.080000e-06	3.503322e-06	2.245274e-08	2.549907e+01	1.474444e+03
1.090000e-06	3.625337e-06	2.292125e-08	2.638716e+01	1.505605e+03
1.100000e-06	3.746000e-06	2.336254e-08	2.726541e+01	1.534661e+03
1.110000e-06	3.865298e-06	2.377884e-08	2.813373e+01	1.561803e+03
1.120000e-06	3.983218e-06	2.417032e-08	2.899202e+01	1.587261e+03
1.130000e-06	4.099726e-06	2.453972e-08	2.984002e+01	1.611275e+03
1.140000e-06	4.214658e-06	2.488988e-08	3.067656e+01	1.634057e+03
1.150000e-06	4.327898e-06	2.522313e-08	3.150079e+01	1.655763e+03
1.160000e-06	4.439461e-06	2.553729e-08	3.231280e+01	1.676481e+03
1.170000e-06	4.549516e-06	2.583325e-08	3.311384e+01	1.696234e+03
1.180000e-06	4.658146e-06	2.611364e-08	3.390451e+01	1.715007e+03
1.190000e-06	4.765187e-06	2.638013e-08	3.468361e+01	1.732774e+03
1.200000e-06	4.870430e-06	2.663356e-08	3.544963e+01	1.749529e+03
1.210000e-06	4.973840e-06	2.687306e-08	3.620230e+01	1.765305e+03
1.220000e-06	5.075481e-06	2.710237e-08	3.694210e+01	1.780178e+03
1.230000e-06	5.175291e-06	2.732180e-08	3.766857e+01	1.794259e+03
1.240000e-06	5.273116e-06	2.752902e-08	3.838059e+01	1.807668e+03
1.250000e-06	5.368899e-06	2.772313e-08	3.907775e+01	1.820511e+03
1.260000e-06	5.462778e-06	2.790684e-08	3.976105e+01	1.832859e+03
1.270000e-06	5.554849e-06	2.808289e-08	4.043120e+01	1.844742e+03
1.280000e-06	5.644961e-06	2.825284e-08	4.108708e+01	1.856144e+03
1.290000e-06	5.732928e-06	2.841651e-08	4.172735e+01	1.867026e+03
1.300000e-06	5.818771e-06	2.857296e-08	4.235216e+01	1.877343e+03
1.310000e-06	5.902594e-06	2.872200e-08	4.296227e+01	1.887066e+03
1.320000e-06	5.984291e-06	2.886450e-08	4.355691e+01	1.896196e+03
1.330000e-06	6.063754e-06	2.900090e-08	4.413528e+01	1.904768e+03
1.340000e-06	6.140958e-06	2.913033e-08	4.469722e+01	1.912842e+03
1.350000e-06	6.215836e-06	2.925015e-08	4.524222e+01	1.920489e+03
1.360000e-06	6.288355e-06	2.936052e-08	4.577005e+01	1.927772e+03
1.370000e-06	6.358632e-06	2.946536e-08	4.628156e+01	1.934735e+03
1.380000e-06	6.426737e-06	2.956453e-08	4.677727e+01	1.941391e+03
1.390000e-06	6.492506e-06	2.965889e-08	4.725597e+01	1.947728e+03
1.400000e-06	6.555908e-06	2.975089e-08	4.771744e+01	1.953720e+03
1.410000e-06	6.617105e-06	2.983764e-08	4.816287e+01	1.959342e+03
1.420000e-06	6.676062e-06	2.991766e-08	4.859199e+01	1.964584e+03
1.430000e-06	6.732582e-06	2.999266e-08	4.900338e+01	1.969460e+03
1.440000e-06	6.786623e-06	3.006293e-08	4.939672e+01	1.974008e+03
1.450000e-06	6.838028e-06	3.012862e-08	4.977087e+01	1.978279e+03
1.460000e-06	6.886643e-06	3.019045e-08	5.012471e+01	1.982327e+03
1.470000e-06	6.932694e-06	3.025020e-08	5.045990e+01	1.986191e+03
1.480000e-06	6.976373e-06	3.030844e-08	5.077782e+01	1.989881e+03
1.490000e-06	7.017501e-06	3.036199e-08	5.107717e+01	1.993381e+03
1.500000e-06	7.056081e-06	3.040970e-08	5.135798e+01	1.996649e+03
1.510000e-06	7.092340e-06	3.045360e-08	5.162189e+01	1.999632e+03
1.520000e-06	7.126080e-06	3.049323e-08	5.186747e+01	2.002284e+03
1.530000e-06	7.157184e-06	3.052796e-08	5.209386e+01	2.004576e+03
1.540000e-06	7.185862e-06	3.055812e-08	5.230259e+01	2.006510e+03
1.550000e-06	7.211937e-06	3.058436e-08	5.249238e+01	2.008118e+03
1.560000e-06	7.235258e-06	3.060765e-08	5.266212e+01	2.009453e+03
1.570000e-06	7.256094e-06	3.062715e-08	5.281378e+01	2.010572e+03
1.580000e-06	7.274399e-06	3.064337e-08	5.294701e+01	2.011527e+03
1.590000e-06	7.289947e-06	3.065638e-08	5.306018e+01	2.012345e+03
1.600000e-06	7.302748e-06	3.066611e-08	5.315335e+01	2.013030e+03
1.610000e-06	7.312658e-06	3.067362e-08	5.322548e+01	2.013559e+03
1.620000e-06	7.319752e-06	3.067896e-08	5.327712e+01	2.013898e+03
1.630000e-06	7.324342e-06	3.068231e-08	5.331053e+01	2.014011e+03
1.640000e-06	7.326358e-06	3.068306e-08	5.332520e+01	2.013875e+03
1.650000e-06	7.325761e-06	3.068046e-08	5.332085e+01	2.013489e+03
1.660000e-06	7.322767e-06	3.066689e-08	5.329906e+01	2.012870e+03
1.670000e-06	7.317361e-06	3.065452e-08	5.325971e+01	2.012051e+03
1.680000e-06	7.309468e-06	3.064236e-08	5.320227e+01	2.011069e+03
1.690000e-06	7.299172e-06	3.062672e-08	5.312733e+01	2.009949e+03
1.700000e-06	7.286307e-06	3.061005e-08	5.303368e+01	2.008701e+03
1.710000e-06	7.270877e-06	3.059654e-08	5.292137e+01	2.007314e+03
1.720000e-06	7.253204e-06	3.058755e-08	5.279275e+01	2.005761e+03
1.730000e-06	7.233396e-06	3.052671e-08	5.264857e+01	2.004017e+03
1.740000e-06	7.210932e-06	3.042575e-08	5.248506e+01	2.002061e+03
1.750000e-06	7.185172e-06	3.043059e-08	5.229757e+01	1.999897e+03
1.760000e-06	7.156089e-06	3.043528e-08	5.208588e+01	1.997548e+03
1.770000e-06	7.124282e-06	3.038263e-08	5.185438e+01	1.995058e+03
1.780000e-06	7.090430e-06	3.038181e-08	5.160799e+01	1.992476e+03
1.790000e-06	7.054880e-06	3.041079e-08	5.134923e+01	1.989839e+03
1.800000e-06	7.017637e-06	3.025704e-08	5.107816e+01	1.987158e+03
1.810000e-06	6.978028e-06	3.024161e-08	5.078986e+01	1.984409e+03
1.820000e-06	6.935783e-06	3.027646e-08	5.048238e+01	1.981528e+03
1.830000e-06	6.891297e-06	3.014633e-08	5.015859e+01	1.978431e+03
1.840000e-06	6.844326e-06	3.020415e-08	4.981671e+01	1.975022e+03
1.850000e-06	6.794742e-06	3.007009e-08	4.945581e+01	1.971224e+03
1.860000e-06	6.742533e-06	2.998962e-08	4.907580e+01	1.966992e+03
1.870000e-06	6.687563e-06	2.998114e-08	4.867570e+01	1.962323e+03
1.880000e-06	6.630190e-06	2.981788e-08	4.825811e+01	1.957257e+03
1.890000e-06	6.570325e-06	2.981351e-08	4.782238e+01	1.951864e+03
1.900000e-06	6.507847e-06	2.970178e-08	4.736763e+01	1.946221e+03
1.910000e-06	6.442921e-06	2.961226e-08	4.689506e+01	1.940389e+03
1.920000e-06	6.375604e-06	2.953270e-08	4.640510e+01	1.934397e+03
1.930000e-06	6.305892e-06	2.940839e-08	4.589770e+01	1.928233e+03
1.940000e-06	6.233730e-06	2.936803e-08	4.537246e+01	1.921845e+03
1.950000e-06	6.159121e-06	2.920569e-08	4.482941e+01	1.915161e+03
1.960000e-06	6.081998e-06	2.912500e-08	4.426807e+01	1.908105e+03
1.970000e-06	6.002484e-06	2.900260e-08	4.368932e+01	1.900621e+03
1.980000e-06	5.920800e-06	2.887161e-08	4.309479e+01	1.892688e+03
1.990000e-06	5.837034e-06	2.877261e-08	4.248509e+01	1.884320e+03
2.000000e-06	5.751219e-06	2.861887e-08	4.186049e+01	1.875564e+03
2.010000e-06	5.663267e-06	2.851064e-08	4.122032e+01	1.866475e+03
2.020000e-06	5.573283e-06	2.834741e-08	4.056537e+01	1.857100e+03
2.030000e-06	5.481361e-06	2.821272e-08	3.989631e+01	1.847456e+03
2.040000e-06	5.387471e-06	2.805719e-08	3.921293e+01	1.837521e+03
2.050000e-06	5.291660e-06	2.789822e-08	3.851556e+01	1.827237e+03
2.060000e-06	5.194050e-06	2.772958e-08	3.780511e+01	1.816522e+03
2.070000e-06	5.094713e-06	2.754646e-08	3.708208e+01	1.805292e+03
2.080000e-06	4.993545e-06	2.737940e-08	3.634572e+01	1.793482e+03
2.090000e-06	4.890505e-06	2.718856e-08	3.559574e+01	1.781060e+03
2.100000e-06	4.785648e-06	2.700347e-08	3.483254e+01	1.768036e+03
2.110000e-06	4.679254e-06	2.679568e-08	3.405815e+01	1.754446e+03
2.120000e-06	4.571338e-06	2.658328e-08	3.327267e+01	1.740340e+03
2.130000e-06	4.461803e-06	2.635447e-08	3.247542e+01	1.725756e+03
2.140000e-06	4.350610e-06	2.612646e-08	3.166609e+01	1.710698e+03
2.150000e-06	4.237674e-06	2.589012e-08	3.084408e+01	1.695123e+03
2.160000e-06	4.123021e-06	2.564379e-08	3.000958e+01	1.678950e+03
2.170000e-06	4.006688e-06	2.538534e-08	2.916284e+01	1.662069e+03
2.180000e-06	3.888792e-06	2.511136e-08	2.830473e+01	1.644366e+03
2.190000e-06	3.769381e-06	2.482970e-08	2.743560e+01	1.625749e+03
2.200000e-06	3.648513e-06	2.453586e-08	2.655585e+01	1.606167e+03
2.210000e-06	3.526331e-06	2.423139e-08	2.566655e+01	1.585608e+03
2.220000e-06	3.402797e-06	2.390745e-08	2.476740e+01	1.564096e+03
2.230000e-06	3.277949e-06	2.357108e-08	2.385869e+01	1.541661e+03
2.240000e-06	3.151931e-06	2.321506e-08	2.294146e+01	1.518311e+03
2.250000e-06	3.024703e-06	2.284474e-08	2.201543e+01	1.494004e+03
2.260000e-06	2.896296e-06	2.245487e-08	2.108081e+01	1.468636e+03
2.270000e-06	2.766881e-06	2.204856e-08	2.013885e+01	1.442041e+03
2.280000e-06	2.636579e-06	2.161975e-08	1.919045e+01	1.414009e+03
2.290000e-06	2.505295e-06	2.116553e-08	1.823489e+01	1.384322e+03
2.300000e-06	2.373077e-06	2.068506e-08	1.727254e+01	1.352785e+03
2.310000e-06	2.240110e-06	2.017712e-08	1.630473e+01	1.319244e+03
2.320000e-06	2.106425e-06	1.963956e-08	1.533170e+01	1.283601e+03
2.330000e-06	1.971995e-06	1.906643e-08	1.435324e+01	1.245785e+03
2.340000e-06	1.836871e-06	1.846006e-08	1.336974e+01	1.205729e+03
2.350000e-06	1.701090e-06	1.781526e-08	1.238146e+01	1.163316e+03
2.360000e-06	1.564707e-06	1.712919e-08	1.138878e+01	1.118352e+03
2.370000e-06	1.427793e-06	1.639516e-08	1.039225e+01	1.070547e+03
2.380000e-06	1.290393e-06	1.560956e-08	9.392179e+00	1.019533e+03
2.390000e-06	1.152646e-06	1.477079e-08	8.389582e+00	9.649155e+02
2.400000e-06	1.014565e-06	1.387584e-08	7.384554e+00	9.063507e+02
2.410000e-06	8.761120e-07	1.292311e-08	6.376817e+00	8.436320e+02
2.420000e-06	7.372807e-07	1.191136e-08	5.366328e+00	7.767643e+02
2.430000e-06	5.980492e-07	1.084262e-08	4.352926e+00	7.060038e+02
2.440000e-06	4.585526e-07	9.719245e-09	3.337594e+00	6.318491e+02
2.450000e-06	3.189108e-07	8.545689e-09	2.321205e+00	5.549783e+02
2.460000e-06	1.791163e-07	7.334221e-09	1.303705e+00	4.761420e+02
2.470000e-06	3.922420e-08	6.100807e-09	2.854949e-01	3.960325e+02
2.480000e-06	-1.007111e-07	4.858131e-09	-7.330299e-01	3.151585e+02
2.490000e-06	-2.406587e-07	3.609339e-09	-1.751644e+00	2.337562e+02
2.500000e-06	-3.805294e-07	2.354427e-09	-2.769699e+00	1.517588e+02
2.510000e-06	-5.202551e-07	1.090863e-09	-3.786698e+00	6.883866e+01
2.520000e-06	-6.597691e-07	-1.914658e-10	-4.802156e+00	-1.548584e+01
2.530000e-06	-7.989929e-07	-1.501647e-09	-5.815503e+00	-1.016965e+02
2.540000e-06	-9.378443e-07	-2.845040e-09	-6.826138e+00	-1.901077e+02
2.550000e-06	-1.076312e-06	-4.223443e-09	-7.833979e+00	-2.807218e+02
2.560000e-06	-1.214417e-06	-5.636569e-09	-8.839182e+00	-3.731387e+02
2.570000e-06	-1.352087e-06	-7.074929e-09	-9.841223e+00	-4.665419e+02
2.580000e-06	-1.489265e-06	-8.513190e-09	-1.083968e+01	-5.597663e+02
2.590000e-06	-1.625951e-06	-9.924234e-09	-1.183455e+01	-6.514331e+02
2.600000e-06	-1.762061e-06	-1.128437e-08	-1.282524e+01	-7.401270e+02
2.610000e-06	-1.897493e-06	-1.257383e-08	-1.381098e+01	-8.245786e+02
2.620000e-06	-2.032106e-06	-1.377766e-08	-1.479077e+01	-9.038181e+02
2.630000e-06	-2.165817e-06	-1.489196e-08	-1.576398e+01	-9.772702e+02
2.640000e-06	-2.298705e-06	-1.592222e-08	-1.673122e+01	-1.044779e+03
2.650000e-06	-2.430800e-06	-1.687192e-08	-1.769267e+01	-1.106562e+03
2.660000e-06	-2.562001e-06	-1.774701e-08	-1.864763e+01	-1.163110e+03
2.670000e-06	-2.692261e-06	-1.855247e-08	-1.959573e+01	-1.215059e+03
2.680000e-06	-2.821615e-06	-1.929564e-08	-2.053724e+01	-1.263067e+03
2.690000e-06	-2.949978e-06	-1.998351e-08	-2.147154e+01	-1.307707e+03
2.700000e-06	-3.077223e-06	-2.062317e-08	-2.239770e+01	-1.349419e+03
2.710000e-06	-3.203291e-06	-2.122070e-08	-2.331529e+01	-1.388492e+03
2.720000e-06	-3.328247e-06	-2.177835e-08	-2.422478e+01	-1.425094e+03
2.730000e-06	-3.451995e-06	-2.229744e-08	-2.512549e+01	-1.459326e+03
2.740000e-06	-3.574427e-06	-2.278219e-08	-2.601661e+01	-1.491276e+03
2.750000e-06	-3.695674e-06	-2.323732e-08	-2.689911e+01	-1.521066e+03
2.760000e-06	-3.815612e-06	-2.366361e-08	-2.777209e+01	-1.548867e+03
2.770000e-06	-3.933936e-06	-2.406609e-08	-2.863331e+01	-1.574899e+03
2.780000e-06	-4.050702e-06	-2.444796e-08	-2.948320e+01	-1.599404e+03
2.790000e-06	-4.165954e-06	-2.480734e-08	-3.032207e+01	-1.622605e+03
2.800000e-06	-4.279489e-06	-2.514450e-08	-3.114844e+01	-1.644683e+03
2.810000e-06	-4.391281e-06	-2.546350e-08	-3.196212e+01	-1.665749e+03
2.820000e-06	-4.501473e-06	-2.576786e-08	-3.276416e+01	-1.685848e+03
2.830000e-06	-4.610172e-06	-2.605702e-08	-3.355532e+01	-1.704975e+03
2.840000e-06	-4.717398e-06	-2.633133e-08	-3.433578e+01	-1.723104e+03
2.850000e-06	-4.823089e-06	-2.659067e-08	-3.510505e+01	-1.740220e+03
2.860000e-06	-4.927010e-06	-2.683536e-08	-3.586144e+01	-1.756339e+03
2.870000e-06	-5.028950e-06	-2.706806e-08	-3.660342e+01	-1.771525e+03
2.880000e-06	-5.128940e-06	-2.729174e-08	-3.733120e+01	-1.785876e+03
2.890000e-06	-5.227163e-06	-2.750751e-08	-3.804612e+01	-1.799512e+03
2.900000e-06	-5.323642e-06	-2.771232e-08	-3.874835e+01	-1.812548e+03
2.910000e-06	-5.418185e-06	-2.790684e-08	-3.943648e+01	-1.825068e+03
2.920000e-06	-5.510707e-06	-2.809147e-08	-4.010990e+01	-1.837118e+03
2.930000e-06	-5.601254e-06	-2.826439e-08	-4.076896e+01	-1.848696e+03
2.940000e-06	-5.689874e-06	-2.842757e-08	-4.141398e+01	-1.859770e+03
