# Temperatura_=_81.93
# Concentracion g/m^3_=_28200.0
# C_Vs_to_Am_M_A/Vsm_=_65563218390.804596
# pendiente_HvsI_1/m_=_3716.3
# ordenada_HvsI_A/m_=_1297.0
# frecuencia_Hz_=_302138.40899795346

Tiempo_(s)	Campo_(V.s)	Magnetizacion_(V.s)	Campo_(kA/m)	Magnetizacion_(A/m)
0.000000e+00	-6.370568e-06	-2.943597e-08	-4.585155e+01	-1.927513e+03
1.000000e-08	-6.367319e-06	-2.943336e-08	-4.582816e+01	-1.926897e+03
2.000000e-08	-6.362010e-06	-2.942058e-08	-4.578995e+01	-1.926098e+03
3.000000e-08	-6.354744e-06	-2.940522e-08	-4.573765e+01	-1.925128e+03
4.000000e-08	-6.345390e-06	-2.938409e-08	-4.567033e+01	-1.923990e+03
5.000000e-08	-6.333708e-06	-2.935645e-08	-4.558625e+01	-1.922677e+03
6.000000e-08	-6.319681e-06	-2.932479e-08	-4.548529e+01	-1.921172e+03
7.000000e-08	-6.303355e-06	-2.928968e-08	-4.536779e+01	-1.919457e+03
8.000000e-08	-6.284900e-06	-2.928853e-08	-4.523496e+01	-1.917518e+03
9.000000e-08	-6.264328e-06	-2.934142e-08	-4.508690e+01	-1.915353e+03
1.000000e-07	-6.241365e-06	-2.927159e-08	-4.492162e+01	-1.912977e+03
1.100000e-07	-6.215841e-06	-2.916867e-08	-4.473792e+01	-1.910419e+03
1.200000e-07	-6.187936e-06	-2.913657e-08	-4.453707e+01	-1.907720e+03
1.300000e-07	-6.158080e-06	-2.904283e-08	-4.432219e+01	-1.904920e+03
1.400000e-07	-6.126649e-06	-2.890999e-08	-4.409596e+01	-1.902047e+03
1.500000e-07	-6.093505e-06	-2.904989e-08	-4.385742e+01	-1.899107e+03
1.600000e-07	-6.058334e-06	-2.900196e-08	-4.360427e+01	-1.896077e+03
1.700000e-07	-6.021323e-06	-2.879312e-08	-4.333789e+01	-1.892904e+03
1.800000e-07	-5.982291e-06	-2.891156e-08	-4.305696e+01	-1.889515e+03
1.900000e-07	-5.940801e-06	-2.875372e-08	-4.275834e+01	-1.885828e+03
2.000000e-07	-5.897140e-06	-2.864191e-08	-4.244409e+01	-1.881771e+03
2.100000e-07	-5.851464e-06	-2.867299e-08	-4.211534e+01	-1.877291e+03
2.200000e-07	-5.803548e-06	-2.850262e-08	-4.177048e+01	-1.872369e+03
2.300000e-07	-5.753188e-06	-2.843710e-08	-4.140801e+01	-1.867023e+03
2.400000e-07	-5.700256e-06	-2.835276e-08	-4.102704e+01	-1.861297e+03
2.500000e-07	-5.645105e-06	-2.824664e-08	-4.063010e+01	-1.855250e+03
2.600000e-07	-5.587857e-06	-2.819136e-08	-4.021806e+01	-1.848943e+03
2.700000e-07	-5.528471e-06	-2.807165e-08	-3.979064e+01	-1.842418e+03
2.800000e-07	-5.467117e-06	-2.796998e-08	-3.934905e+01	-1.835694e+03
2.900000e-07	-5.403847e-06	-2.783865e-08	-3.889367e+01	-1.828756e+03
3.000000e-07	-5.338525e-06	-2.775793e-08	-3.842352e+01	-1.821564e+03
3.100000e-07	-5.271123e-06	-2.766063e-08	-3.793840e+01	-1.814065e+03
3.200000e-07	-5.201757e-06	-2.752331e-08	-3.743914e+01	-1.806204e+03
3.300000e-07	-5.130568e-06	-2.740399e-08	-3.692677e+01	-1.797937e+03
3.400000e-07	-5.057535e-06	-2.723051e-08	-3.640112e+01	-1.789245e+03
3.500000e-07	-4.982440e-06	-2.710206e-08	-3.586063e+01	-1.780130e+03
3.600000e-07	-4.905268e-06	-2.695905e-08	-3.530519e+01	-1.770612e+03
3.700000e-07	-4.826095e-06	-2.681875e-08	-3.473535e+01	-1.760720e+03
3.800000e-07	-4.745028e-06	-2.669125e-08	-3.415188e+01	-1.750480e+03
3.900000e-07	-4.662299e-06	-2.650999e-08	-3.355644e+01	-1.739901e+03
4.000000e-07	-4.578119e-06	-2.632737e-08	-3.295057e+01	-1.728972e+03
4.100000e-07	-4.492546e-06	-2.615218e-08	-3.233467e+01	-1.717659e+03
4.200000e-07	-4.405635e-06	-2.598634e-08	-3.170913e+01	-1.705918e+03
4.300000e-07	-4.317311e-06	-2.579840e-08	-3.107343e+01	-1.693697e+03
4.400000e-07	-4.227362e-06	-2.559712e-08	-3.042603e+01	-1.680954e+03
4.500000e-07	-4.135781e-06	-2.539925e-08	-2.976688e+01	-1.667660e+03
4.600000e-07	-4.042673e-06	-2.518023e-08	-2.909675e+01	-1.653803e+03
4.700000e-07	-3.948208e-06	-2.496407e-08	-2.841684e+01	-1.639386e+03
4.800000e-07	-3.852506e-06	-2.474072e-08	-2.772804e+01	-1.624417e+03
4.900000e-07	-3.755374e-06	-2.450627e-08	-2.702894e+01	-1.608899e+03
5.000000e-07	-3.656687e-06	-2.425420e-08	-2.631865e+01	-1.592820e+03
5.100000e-07	-3.556611e-06	-2.399463e-08	-2.559836e+01	-1.576147e+03
5.200000e-07	-3.455262e-06	-2.372864e-08	-2.486891e+01	-1.558828e+03
5.300000e-07	-3.352741e-06	-2.344719e-08	-2.413103e+01	-1.540797e+03
5.400000e-07	-3.249094e-06	-2.316202e-08	-2.338504e+01	-1.521983e+03
5.500000e-07	-3.144202e-06	-2.286512e-08	-2.263009e+01	-1.502320e+03
5.600000e-07	-3.037961e-06	-2.255563e-08	-2.186543e+01	-1.481756e+03
5.700000e-07	-2.930477e-06	-2.222610e-08	-2.109183e+01	-1.460250e+03
5.800000e-07	-2.821882e-06	-2.188334e-08	-2.031022e+01	-1.437773e+03
5.900000e-07	-2.712302e-06	-2.152410e-08	-1.952153e+01	-1.414293e+03
6.000000e-07	-2.601841e-06	-2.114260e-08	-1.872650e+01	-1.389768e+03
6.100000e-07	-2.490427e-06	-2.074392e-08	-1.792461e+01	-1.364135e+03
6.200000e-07	-2.378142e-06	-2.033034e-08	-1.711645e+01	-1.337300e+03
6.300000e-07	-2.265004e-06	-1.990034e-08	-1.630215e+01	-1.309148e+03
6.400000e-07	-2.150791e-06	-1.944733e-08	-1.548011e+01	-1.279542e+03
6.500000e-07	-2.035507e-06	-1.897343e-08	-1.465037e+01	-1.248340e+03
6.600000e-07	-1.919422e-06	-1.847235e-08	-1.381485e+01	-1.215402e+03
6.700000e-07	-1.802664e-06	-1.794258e-08	-1.297450e+01	-1.180597e+03
6.800000e-07	-1.685283e-06	-1.738520e-08	-1.212966e+01	-1.143809e+03
6.900000e-07	-1.567369e-06	-1.679361e-08	-1.128099e+01	-1.104926e+03
7.000000e-07	-1.448968e-06	-1.616563e-08	-1.042881e+01	-1.063832e+03
7.100000e-07	-1.330104e-06	-1.549911e-08	-9.573298e+00	-1.020398e+03
7.200000e-07	-1.210828e-06	-1.479528e-08	-8.714818e+00	-9.744818e+02
7.300000e-07	-1.091155e-06	-1.405070e-08	-7.853482e+00	-9.259308e+02
7.400000e-07	-9.711071e-07	-1.326656e-08	-6.989450e+00	-8.746064e+02
7.500000e-07	-8.507177e-07	-1.244449e-08	-6.122958e+00	-8.204128e+02
7.600000e-07	-7.300258e-07	-1.157772e-08	-5.254290e+00	-7.633333e+02
7.700000e-07	-6.090955e-07	-1.066229e-08	-4.383906e+00	-7.034621e+02
7.800000e-07	-4.880091e-07	-9.708140e-09	-3.512398e+00	-6.410220e+02
7.900000e-07	-3.668236e-07	-8.723231e-09	-2.640177e+00	-5.763613e+02
8.000000e-07	-2.455304e-07	-7.709734e-09	-1.767181e+00	-5.099242e+02
8.100000e-07	-1.240953e-07	-6.678233e-09	-8.931642e-01	-4.421986e+02
8.200000e-07	-2.560823e-09	-5.637215e-09	-1.843128e-02	-3.736470e+02
8.300000e-07	1.190041e-07	-4.590787e-09	8.565207e-01	-3.046349e+02
8.400000e-07	2.405620e-07	-3.536589e-09	1.731422e+00	-2.353708e+02
8.500000e-07	3.620477e-07	-2.478305e-09	2.605803e+00	-1.658732e+02
8.600000e-07	4.834431e-07	-1.414652e-09	3.479535e+00	-9.597266e+01
8.700000e-07	6.046622e-07	-3.379169e-10	4.351997e+00	-2.535343e+01
8.800000e-07	7.257151e-07	7.574894e-10	5.223265e+00	4.637211e+01
8.900000e-07	8.465991e-07	1.873474e-09	6.093315e+00	1.195675e+02
9.000000e-07	9.672210e-07	3.012136e-09	6.961480e+00	1.944735e+02
9.100000e-07	1.087471e-06	4.179566e-09	7.826969e+00	2.711247e+02
9.200000e-07	1.207309e-06	5.371419e-09	8.689487e+00	3.492982e+02
9.300000e-07	1.326744e-06	6.578433e-09	9.549108e+00	4.285052e+02
9.400000e-07	1.445684e-06	7.788861e-09	1.040517e+01	5.080258e+02
9.500000e-07	1.564146e-06	8.991856e-09	1.125779e+01	5.869823e+02
9.600000e-07	1.682036e-06	1.017127e-08	1.210629e+01	6.644358e+02
9.700000e-07	1.799276e-06	1.131028e-08	1.295011e+01	7.394897e+02
9.800000e-07	1.915893e-06	1.239922e-08	1.378946e+01	8.113813e+02
9.900000e-07	2.031732e-06	1.343103e-08	1.462319e+01	8.795474e+02
1.000000e-06	2.146550e-06	1.440282e-08	1.544959e+01	9.436550e+02
1.010000e-06	2.260343e-06	1.530987e-08	1.626860e+01	1.003596e+03
1.020000e-06	2.373248e-06	1.615623e-08	1.708123e+01	1.059455e+03
1.030000e-06	2.485224e-06	1.694473e-08	1.788716e+01	1.111451e+03
1.040000e-06	2.596239e-06	1.767806e-08	1.868618e+01	1.159880e+03
1.050000e-06	2.706329e-06	1.836149e-08	1.947854e+01	1.205060e+03
1.060000e-06	2.815515e-06	1.900079e-08	2.026440e+01	1.247289e+03
1.070000e-06	2.923846e-06	1.959957e-08	2.104410e+01	1.286826e+03
1.080000e-06	3.031180e-06	2.015894e-08	2.181663e+01	1.323882e+03
1.090000e-06	3.137303e-06	2.068431e-08	2.258044e+01	1.358634e+03
1.100000e-06	3.242207e-06	2.117578e-08	2.333547e+01	1.391237e+03
1.110000e-06	3.345932e-06	2.163774e-08	2.408202e+01	1.421837e+03
1.120000e-06	3.448478e-06	2.207460e-08	2.482009e+01	1.450585e+03
1.130000e-06	3.549825e-06	2.248725e-08	2.554953e+01	1.477638e+03
1.140000e-06	3.650042e-06	2.287577e-08	2.627082e+01	1.503152e+03
1.150000e-06	3.748931e-06	2.324237e-08	2.698257e+01	1.527273e+03
1.160000e-06	3.846271e-06	2.358961e-08	2.768317e+01	1.550131e+03
1.170000e-06	3.942175e-06	2.392073e-08	2.837342e+01	1.571831e+03
1.180000e-06	4.036732e-06	2.423694e-08	2.905399e+01	1.592452e+03
1.190000e-06	4.129977e-06	2.453676e-08	2.972511e+01	1.612049e+03
1.200000e-06	4.221914e-06	2.481853e-08	3.038682e+01	1.630665e+03
1.210000e-06	4.312347e-06	2.508336e-08	3.103770e+01	1.648337e+03
1.220000e-06	4.401106e-06	2.533400e-08	3.167653e+01	1.665103e+03
1.230000e-06	4.488262e-06	2.557369e-08	3.230383e+01	1.681011e+03
1.240000e-06	4.573888e-06	2.580429e-08	3.292012e+01	1.696114e+03
1.250000e-06	4.658036e-06	2.602363e-08	3.352576e+01	1.710472e+03
1.260000e-06	4.740501e-06	2.623209e-08	3.411930e+01	1.724142e+03
1.270000e-06	4.821082e-06	2.642944e-08	3.469927e+01	1.737176e+03
1.280000e-06	4.899836e-06	2.661600e-08	3.526609e+01	1.749617e+03
1.290000e-06	4.976825e-06	2.679444e-08	3.582022e+01	1.761495e+03
1.300000e-06	5.051878e-06	2.696650e-08	3.636041e+01	1.772831e+03
1.310000e-06	5.124846e-06	2.713065e-08	3.688559e+01	1.783639e+03
1.320000e-06	5.195918e-06	2.728706e-08	3.739712e+01	1.793932e+03
1.330000e-06	5.265265e-06	2.743625e-08	3.789623e+01	1.803721e+03
1.340000e-06	5.332794e-06	2.757910e-08	3.838227e+01	1.813022e+03
1.350000e-06	5.398256e-06	2.771704e-08	3.885342e+01	1.821850e+03
1.360000e-06	5.461656e-06	2.784798e-08	3.930974e+01	1.830221e+03
1.370000e-06	5.523256e-06	2.797107e-08	3.975310e+01	1.838151e+03
1.380000e-06	5.583107e-06	2.808666e-08	4.018388e+01	1.845652e+03
1.390000e-06	5.640910e-06	2.819512e-08	4.059991e+01	1.852733e+03
1.400000e-06	5.696592e-06	2.829637e-08	4.100067e+01	1.859405e+03
1.410000e-06	5.750202e-06	2.838982e-08	4.138652e+01	1.865681e+03
1.420000e-06	5.801484e-06	2.847842e-08	4.175562e+01	1.871578e+03
1.430000e-06	5.850346e-06	2.856278e-08	4.210730e+01	1.877120e+03
1.440000e-06	5.897031e-06	2.864289e-08	4.244331e+01	1.882334e+03
1.450000e-06	5.941797e-06	2.871950e-08	4.276551e+01	1.887249e+03
1.460000e-06	5.984517e-06	2.879254e-08	4.307298e+01	1.891893e+03
1.470000e-06	6.024998e-06	2.886128e-08	4.336434e+01	1.896282e+03
1.480000e-06	6.063416e-06	2.892550e-08	4.364085e+01	1.900425e+03
1.490000e-06	6.099944e-06	2.898555e-08	4.390376e+01	1.904315e+03
1.500000e-06	6.134242e-06	2.904053e-08	4.415061e+01	1.907939e+03
1.510000e-06	6.166202e-06	2.909027e-08	4.438065e+01	1.911275e+03
1.520000e-06	6.196100e-06	2.913650e-08	4.459583e+01	1.914305e+03
1.530000e-06	6.223918e-06	2.917933e-08	4.479605e+01	1.917017e+03
1.540000e-06	6.249351e-06	2.921661e-08	4.497910e+01	1.919408e+03
1.550000e-06	6.272315e-06	2.925013e-08	4.514438e+01	1.921489e+03
1.560000e-06	6.293157e-06	2.928085e-08	4.529439e+01	1.923277e+03
1.570000e-06	6.311900e-06	2.930651e-08	4.542929e+01	1.924795e+03
1.580000e-06	6.328329e-06	2.932730e-08	4.554753e+01	1.926065e+03
1.590000e-06	6.342387e-06	2.934316e-08	4.564871e+01	1.927102e+03
1.600000e-06	6.353973e-06	2.935482e-08	4.573210e+01	1.927915e+03
1.610000e-06	6.362974e-06	2.936436e-08	4.579689e+01	1.928504e+03
1.620000e-06	6.369575e-06	2.936984e-08	4.584440e+01	1.928866e+03
1.630000e-06	6.374059e-06	2.937258e-08	4.587667e+01	1.928997e+03
1.640000e-06	6.376272e-06	2.937371e-08	4.589260e+01	1.928899e+03
1.650000e-06	6.376132e-06	2.937273e-08	4.589159e+01	1.928580e+03
1.660000e-06	6.373881e-06	2.936168e-08	4.587539e+01	1.928054e+03
1.670000e-06	6.369603e-06	2.935251e-08	4.584460e+01	1.927337e+03
1.680000e-06	6.363166e-06	2.933970e-08	4.579827e+01	1.926446e+03
1.690000e-06	6.354603e-06	2.932235e-08	4.573664e+01	1.925386e+03
1.700000e-06	6.344072e-06	2.930605e-08	4.566084e+01	1.924156e+03
1.710000e-06	6.331354e-06	2.928957e-08	4.556931e+01	1.922742e+03
1.720000e-06	6.316360e-06	2.928423e-08	4.546139e+01	1.921126e+03
1.730000e-06	6.299394e-06	2.921942e-08	4.533928e+01	1.919293e+03
1.740000e-06	6.280334e-06	2.909454e-08	4.520210e+01	1.917232e+03
1.750000e-06	6.258404e-06	2.910858e-08	4.504426e+01	1.914951e+03
1.760000e-06	6.233320e-06	2.912198e-08	4.486372e+01	1.912473e+03
1.770000e-06	6.205944e-06	2.907129e-08	4.466668e+01	1.909834e+03
1.780000e-06	6.176699e-06	2.917021e-08	4.445620e+01	1.907075e+03
1.790000e-06	6.145781e-06	2.908509e-08	4.423367e+01	1.904234e+03
1.800000e-06	6.113491e-06	2.887380e-08	4.400126e+01	1.901326e+03
1.810000e-06	6.079250e-06	2.896555e-08	4.375481e+01	1.898342e+03
1.820000e-06	6.042977e-06	2.880864e-08	4.349374e+01	1.895243e+03
1.830000e-06	6.004616e-06	2.879619e-08	4.321764e+01	1.891965e+03
1.840000e-06	5.963880e-06	2.895144e-08	4.292445e+01	1.888426e+03
1.850000e-06	5.921171e-06	2.868361e-08	4.261706e+01	1.884548e+03
1.860000e-06	5.876376e-06	2.870686e-08	4.229465e+01	1.880269e+03
1.870000e-06	5.829369e-06	2.865807e-08	4.195632e+01	1.875552e+03
1.880000e-06	5.780392e-06	2.850867e-08	4.160381e+01	1.870399e+03
1.890000e-06	5.728950e-06	2.854606e-08	4.123356e+01	1.864842e+03
1.900000e-06	5.674881e-06	2.830871e-08	4.084441e+01	1.858936e+03
1.910000e-06	5.618593e-06	2.827794e-08	4.043928e+01	1.852743e+03
1.920000e-06	5.560300e-06	2.823193e-08	4.001972e+01	1.846315e+03
1.930000e-06	5.500219e-06	2.805954e-08	3.958730e+01	1.839683e+03
1.940000e-06	5.438073e-06	2.803707e-08	3.914000e+01	1.832848e+03
1.950000e-06	5.373741e-06	2.783862e-08	3.867698e+01	1.825780e+03
1.960000e-06	5.307418e-06	2.779321e-08	3.819963e+01	1.818430e+03
1.970000e-06	5.239110e-06	2.763411e-08	3.770799e+01	1.810743e+03
1.980000e-06	5.168702e-06	2.748594e-08	3.720123e+01	1.802669e+03
1.990000e-06	5.096238e-06	2.744725e-08	3.667968e+01	1.794175e+03
2.000000e-06	5.022060e-06	2.726023e-08	3.614579e+01	1.785254e+03
2.010000e-06	4.945913e-06	2.714950e-08	3.559773e+01	1.775920e+03
2.020000e-06	4.867646e-06	2.693042e-08	3.503441e+01	1.766198e+03
2.030000e-06	4.787521e-06	2.680619e-08	3.445772e+01	1.756118e+03
2.040000e-06	4.705766e-06	2.668998e-08	3.386930e+01	1.745696e+03
2.050000e-06	4.622529e-06	2.650738e-08	3.327021e+01	1.734931e+03
2.060000e-06	4.537638e-06	2.636010e-08	3.265921e+01	1.723801e+03
2.070000e-06	4.451028e-06	2.615130e-08	3.203584e+01	1.712265e+03
2.080000e-06	4.362799e-06	2.598095e-08	3.140082e+01	1.700273e+03
2.090000e-06	4.273132e-06	2.575737e-08	3.075546e+01	1.687777e+03
2.100000e-06	4.182155e-06	2.557182e-08	3.010066e+01	1.674741e+03
2.110000e-06	4.089844e-06	2.538077e-08	2.943626e+01	1.661145e+03
2.120000e-06	3.995981e-06	2.516312e-08	2.876069e+01	1.646988e+03
2.130000e-06	3.900575e-06	2.494584e-08	2.807401e+01	1.632274e+03
2.140000e-06	3.803831e-06	2.470594e-08	2.737770e+01	1.617011e+03
2.150000e-06	3.705700e-06	2.448001e-08	2.667142e+01	1.601195e+03
2.160000e-06	3.606312e-06	2.422545e-08	2.595608e+01	1.584802e+03
2.170000e-06	3.505677e-06	2.397585e-08	2.523177e+01	1.567791e+03
2.180000e-06	3.403565e-06	2.369545e-08	2.449683e+01	1.550099e+03
2.190000e-06	3.300069e-06	2.341014e-08	2.375193e+01	1.531657e+03
2.200000e-06	3.195383e-06	2.311143e-08	2.299846e+01	1.512396e+03
2.210000e-06	3.089566e-06	2.280696e-08	2.223685e+01	1.492256e+03
2.220000e-06	2.982664e-06	2.248899e-08	2.146743e+01	1.471191e+03
2.230000e-06	2.874753e-06	2.215445e-08	2.069076e+01	1.449168e+03
2.240000e-06	2.765926e-06	2.181512e-08	1.990749e+01	1.426158e+03
2.250000e-06	2.656032e-06	2.145870e-08	1.911653e+01	1.402125e+03
2.260000e-06	2.545074e-06	2.108288e-08	1.831793e+01	1.377015e+03
2.270000e-06	2.433098e-06	2.067641e-08	1.751199e+01	1.350751e+03
2.280000e-06	2.320122e-06	2.025471e-08	1.669885e+01	1.323227e+03
2.290000e-06	2.206328e-06	1.980916e-08	1.587983e+01	1.294313e+03
2.300000e-06	2.091689e-06	1.934503e-08	1.505473e+01	1.263870e+03
2.310000e-06	1.976240e-06	1.885501e-08	1.422380e+01	1.231754e+03
2.320000e-06	1.860075e-06	1.834140e-08	1.338771e+01	1.197831e+03
2.330000e-06	1.743186e-06	1.779743e-08	1.254641e+01	1.161978e+03
2.340000e-06	1.625564e-06	1.721915e-08	1.169984e+01	1.124081e+03
2.350000e-06	1.507209e-06	1.660785e-08	1.084799e+01	1.084029e+03
2.360000e-06	1.388228e-06	1.596497e-08	9.991634e+00	1.041698e+03
2.370000e-06	1.268763e-06	1.528809e-08	9.131799e+00	9.969527e+02
2.380000e-06	1.148911e-06	1.456529e-08	8.269173e+00	9.496434e+02
2.390000e-06	1.028676e-06	1.379897e-08	7.403796e+00	8.996218e+02
2.400000e-06	9.081360e-07	1.298695e-08	6.536221e+00	8.467678e+02
2.410000e-06	7.873380e-07	1.213360e-08	5.666789e+00	7.910237e+02
2.420000e-06	6.663215e-07	1.124086e-08	4.795784e+00	7.324288e+02
2.430000e-06	5.451554e-07	1.031098e-08	3.923704e+00	6.711451e+02
2.440000e-06	4.238214e-07	9.345166e-09	3.050414e+00	6.074648e+02
2.450000e-06	3.023057e-07	8.344750e-09	2.175816e+00	5.417928e+02
2.460000e-06	1.806114e-07	7.316496e-09	1.299933e+00	4.746045e+02
2.470000e-06	5.885657e-08	6.268918e-09	4.236144e-01	4.063833e+02
2.480000e-06	-6.288984e-08	5.214423e-09	-4.526436e-01	3.375481e+02
2.490000e-06	-1.846493e-07	4.155664e-09	-1.328995e+00	2.683866e+02
2.500000e-06	-3.063246e-07	3.091647e-09	-2.204742e+00	1.990074e+02
2.510000e-06	-4.278632e-07	2.025103e-09	-3.079504e+00	1.293256e+02
2.520000e-06	-5.493338e-07	9.531114e-10	-3.953777e+00	5.908578e+01
2.530000e-06	-6.706688e-07	-1.315658e-10	-4.827074e+00	-1.207727e+01
2.540000e-06	-7.917536e-07	-1.237016e-09	-5.698570e+00	-8.455082e+01
2.550000e-06	-9.126143e-07	-2.366249e-09	-6.568453e+00	-1.586444e+02
2.560000e-06	-1.033233e-06	-3.521111e-09	-7.436591e+00	-2.344968e+02
2.570000e-06	-1.153499e-06	-4.702387e-09	-8.302200e+00	-3.120087e+02
2.580000e-06	-1.273377e-06	-5.905273e-09	-9.165006e+00	-3.908129e+02
2.590000e-06	-1.392839e-06	-7.122169e-09	-1.002483e+01	-4.702897e+02
2.600000e-06	-1.511732e-06	-8.341772e-09	-1.088055e+01	-5.496238e+02
2.610000e-06	-1.629862e-06	-9.545564e-09	-1.173077e+01	-6.278916e+02
2.620000e-06	-1.747248e-06	-1.071626e-08	-1.257565e+01	-7.041647e+02
2.630000e-06	-1.863917e-06	-1.184037e-08	-1.341537e+01	-7.776080e+02
2.640000e-06	-1.979787e-06	-1.290917e-08	-1.424933e+01	-8.475597e+02
2.650000e-06	-2.094837e-06	-1.391896e-08	-1.507739e+01	-9.135783e+02
2.660000e-06	-2.209011e-06	-1.486677e-08	-1.589914e+01	-9.754543e+02
2.670000e-06	-2.322202e-06	-1.575311e-08	-1.671382e+01	-1.033188e+03
2.680000e-06	-2.434302e-06	-1.657844e-08	-1.752065e+01	-1.086944e+03
2.690000e-06	-2.545360e-06	-1.734703e-08	-1.831998e+01	-1.136990e+03
2.700000e-06	-2.655513e-06	-1.806502e-08	-1.911280e+01	-1.183640e+03
2.710000e-06	-2.764740e-06	-1.873667e-08	-1.989895e+01	-1.227204e+03
2.720000e-06	-2.873027e-06	-1.936493e-08	-2.067833e+01	-1.267962e+03
2.730000e-06	-2.980413e-06	-1.995338e-08	-2.145123e+01	-1.306147e+03
2.740000e-06	-3.086834e-06	-2.050496e-08	-2.221719e+01	-1.341949e+03
2.750000e-06	-3.192275e-06	-2.101703e-08	-2.297609e+01	-1.375531e+03
2.760000e-06	-3.296645e-06	-2.149449e-08	-2.372728e+01	-1.407042e+03
2.770000e-06	-3.399719e-06	-2.194588e-08	-2.446915e+01	-1.436631e+03
2.780000e-06	-3.501452e-06	-2.237178e-08	-2.520136e+01	-1.464452e+03
2.790000e-06	-3.601921e-06	-2.277296e-08	-2.592448e+01	-1.490661e+03
2.800000e-06	-3.701107e-06	-2.315424e-08	-2.663836e+01	-1.515412e+03
2.810000e-06	-3.799072e-06	-2.351681e-08	-2.734346e+01	-1.538842e+03
2.820000e-06	-3.895910e-06	-2.385742e-08	-2.804044e+01	-1.561069e+03
2.830000e-06	-3.991467e-06	-2.417748e-08	-2.872820e+01	-1.582182e+03
2.840000e-06	-4.085501e-06	-2.448253e-08	-2.940500e+01	-1.602249e+03
2.850000e-06	-4.178005e-06	-2.477384e-08	-3.007079e+01	-1.621316e+03
2.860000e-06	-4.269004e-06	-2.505012e-08	-3.072574e+01	-1.639422e+03
2.870000e-06	-4.358472e-06	-2.531204e-08	-3.136968e+01	-1.656604e+03
2.880000e-06	-4.446431e-06	-2.556048e-08	-3.200276e+01	-1.672904e+03
2.890000e-06	-4.532688e-06	-2.579678e-08	-3.262358e+01	-1.688374e+03
2.900000e-06	-4.617216e-06	-2.602340e-08	-3.323197e+01	-1.703070e+03
2.910000e-06	-4.700175e-06	-2.624221e-08	-3.382906e+01	-1.717053e+03
2.920000e-06	-4.781547e-06	-2.645108e-08	-3.441472e+01	-1.730377e+03
2.930000e-06	-4.861252e-06	-2.664971e-08	-3.498839e+01	-1.743089e+03
2.940000e-06	-4.939014e-06	-2.683777e-08	-3.554808e+01	-1.755225e+03
