# Temperatura_=_48.56
# Concentracion g/m^3_=_28200.0
# C_Vs_to_Am_M_A/Vsm_=_65563218390.804596
# pendiente_HvsI_1/m_=_3716.3
# ordenada_HvsI_A/m_=_1297.0
# frecuencia_Hz_=_302131.0981361093

Tiempo_(s)	Campo_(V.s)	Magnetizacion_(V.s)	Campo_(kA/m)	Magnetizacion_(A/m)
0.000000e+00	-6.400290e-06	-2.236609e-08	-4.585413e+01	-1.466020e+03
1.000000e-08	-6.396658e-06	-2.235775e-08	-4.582811e+01	-1.465663e+03
2.000000e-08	-6.390927e-06	-2.234357e-08	-4.578705e+01	-1.465113e+03
3.000000e-08	-6.383408e-06	-2.233231e-08	-4.573318e+01	-1.464366e+03
4.000000e-08	-6.373826e-06	-2.231680e-08	-4.566453e+01	-1.463436e+03
5.000000e-08	-6.361767e-06	-2.229914e-08	-4.557814e+01	-1.462358e+03
6.000000e-08	-6.347261e-06	-2.227049e-08	-4.547421e+01	-1.461176e+03
7.000000e-08	-6.330504e-06	-2.223851e-08	-4.535416e+01	-1.459936e+03
8.000000e-08	-6.311836e-06	-2.226578e-08	-4.522041e+01	-1.458675e+03
9.000000e-08	-6.291004e-06	-2.233896e-08	-4.507116e+01	-1.457404e+03
1.000000e-07	-6.267675e-06	-2.226052e-08	-4.490403e+01	-1.456106e+03
1.100000e-07	-6.241781e-06	-2.216954e-08	-4.471851e+01	-1.454731e+03
1.200000e-07	-6.213537e-06	-2.216015e-08	-4.451616e+01	-1.453206e+03
1.300000e-07	-6.183290e-06	-2.204256e-08	-4.429946e+01	-1.451443e+03
1.400000e-07	-6.151497e-06	-2.188017e-08	-4.407168e+01	-1.449354e+03
1.500000e-07	-6.117950e-06	-2.211863e-08	-4.383134e+01	-1.446871e+03
1.600000e-07	-6.082280e-06	-2.203529e-08	-4.357579e+01	-1.443958e+03
1.700000e-07	-6.044794e-06	-2.183378e-08	-4.330722e+01	-1.440616e+03
1.800000e-07	-6.005327e-06	-2.202674e-08	-4.302447e+01	-1.436886e+03
1.900000e-07	-5.963487e-06	-2.180390e-08	-4.272471e+01	-1.432840e+03
2.000000e-07	-5.919438e-06	-2.174860e-08	-4.240912e+01	-1.428570e+03
2.100000e-07	-5.873391e-06	-2.180041e-08	-4.207923e+01	-1.424169e+03
2.200000e-07	-5.825032e-06	-2.162913e-08	-4.173276e+01	-1.419718e+03
2.300000e-07	-5.774103e-06	-2.161184e-08	-4.136789e+01	-1.415272e+03
2.400000e-07	-5.720661e-06	-2.154309e-08	-4.098501e+01	-1.410850e+03
2.500000e-07	-5.665018e-06	-2.146528e-08	-4.058636e+01	-1.406439e+03
2.600000e-07	-5.607259e-06	-2.141774e-08	-4.017255e+01	-1.401996e+03
2.700000e-07	-5.547308e-06	-2.133122e-08	-3.974304e+01	-1.397460e+03
2.800000e-07	-5.485406e-06	-2.126859e-08	-3.929955e+01	-1.392760e+03
2.900000e-07	-5.421568e-06	-2.114634e-08	-3.884219e+01	-1.387833e+03
3.000000e-07	-5.355627e-06	-2.112788e-08	-3.836976e+01	-1.382628e+03
3.100000e-07	-5.287585e-06	-2.104380e-08	-3.788228e+01	-1.377115e+03
3.200000e-07	-5.217656e-06	-2.092963e-08	-3.738129e+01	-1.371281e+03
3.300000e-07	-5.146025e-06	-2.084926e-08	-3.686809e+01	-1.365132e+03
3.400000e-07	-5.072369e-06	-2.071083e-08	-3.634039e+01	-1.358680e+03
3.500000e-07	-4.996520e-06	-2.063724e-08	-3.579698e+01	-1.351943e+03
3.600000e-07	-4.918619e-06	-2.052302e-08	-3.523887e+01	-1.344934e+03
3.700000e-07	-4.838777e-06	-2.041754e-08	-3.466685e+01	-1.337657e+03
3.800000e-07	-4.757115e-06	-2.030785e-08	-3.408179e+01	-1.330107e+03
3.900000e-07	-4.673872e-06	-2.017558e-08	-3.348541e+01	-1.322268e+03
4.000000e-07	-4.589146e-06	-2.004696e-08	-3.287840e+01	-1.314121e+03
4.100000e-07	-4.502950e-06	-1.991352e-08	-3.226086e+01	-1.305642e+03
4.200000e-07	-4.415471e-06	-1.979669e-08	-3.163413e+01	-1.296811e+03
4.300000e-07	-4.326510e-06	-1.965099e-08	-3.099677e+01	-1.287611e+03
4.400000e-07	-4.235906e-06	-1.949708e-08	-3.034765e+01	-1.278030e+03
4.500000e-07	-4.143681e-06	-1.934428e-08	-2.968692e+01	-1.268061e+03
4.600000e-07	-4.049988e-06	-1.917962e-08	-2.901567e+01	-1.257696e+03
4.700000e-07	-3.955016e-06	-1.902091e-08	-2.833525e+01	-1.246926e+03
4.800000e-07	-3.858591e-06	-1.885466e-08	-2.764442e+01	-1.235738e+03
4.900000e-07	-3.760647e-06	-1.867503e-08	-2.694272e+01	-1.224108e+03
5.000000e-07	-3.661320e-06	-1.848142e-08	-2.623110e+01	-1.212006e+03
5.100000e-07	-3.560614e-06	-1.828406e-08	-2.550960e+01	-1.199395e+03
5.200000e-07	-3.458712e-06	-1.808000e-08	-2.477954e+01	-1.186233e+03
5.300000e-07	-3.355648e-06	-1.786635e-08	-2.404114e+01	-1.172477e+03
5.400000e-07	-3.251249e-06	-1.764874e-08	-2.329319e+01	-1.158088e+03
5.500000e-07	-3.145583e-06	-1.741883e-08	-2.253616e+01	-1.143027e+03
5.600000e-07	-3.038698e-06	-1.717851e-08	-2.177040e+01	-1.127262e+03
5.700000e-07	-2.930624e-06	-1.692499e-08	-2.099611e+01	-1.110762e+03
5.800000e-07	-2.821460e-06	-1.665926e-08	-2.021402e+01	-1.093496e+03
5.900000e-07	-2.711394e-06	-1.638279e-08	-1.942546e+01	-1.075426e+03
6.000000e-07	-2.600419e-06	-1.609043e-08	-1.863040e+01	-1.056509e+03
6.100000e-07	-2.488408e-06	-1.578337e-08	-1.782791e+01	-1.036689e+03
6.200000e-07	-2.375365e-06	-1.546125e-08	-1.701802e+01	-1.015899e+03
6.300000e-07	-2.261311e-06	-1.512590e-08	-1.620090e+01	-9.940622e+02
6.400000e-07	-2.146302e-06	-1.477254e-08	-1.537693e+01	-9.710929e+02
6.500000e-07	-2.030360e-06	-1.440399e-08	-1.454627e+01	-9.468996e+02
6.600000e-07	-1.913575e-06	-1.401530e-08	-1.370959e+01	-9.213875e+02
6.700000e-07	-1.796190e-06	-1.360523e-08	-1.286859e+01	-8.944589e+02
6.800000e-07	-1.678313e-06	-1.317491e-08	-1.202407e+01	-8.660136e+02
6.900000e-07	-1.559925e-06	-1.271592e-08	-1.117590e+01	-8.359478e+02
7.000000e-07	-1.440986e-06	-1.222777e-08	-1.032378e+01	-8.041545e+02
7.100000e-07	-1.321526e-06	-1.170881e-08	-9.467918e+00	-7.705250e+02
7.200000e-07	-1.201622e-06	-1.116225e-08	-8.608878e+00	-7.349560e+02
7.300000e-07	-1.081265e-06	-1.058431e-08	-7.746598e+00	-6.973594e+02
7.400000e-07	-9.605581e-07	-9.978526e-09	-6.881806e+00	-6.576782e+02
7.500000e-07	-8.395110e-07	-9.345370e-09	-6.014579e+00	-6.159032e+02
7.600000e-07	-7.181375e-07	-8.680761e-09	-5.145012e+00	-5.720902e+02
7.700000e-07	-5.965808e-07	-7.983803e-09	-4.274133e+00	-5.263715e+02
7.800000e-07	-4.748889e-07	-7.261319e-09	-3.402286e+00	-4.789588e+02
7.900000e-07	-3.530956e-07	-6.520061e-09	-2.529712e+00	-4.301342e+02
8.000000e-07	-2.311908e-07	-5.757590e-09	-1.656340e+00	-3.802277e+02
8.100000e-07	-1.091399e-07	-4.984067e-09	-7.819198e-01	-3.295838e+02
8.200000e-07	1.297063e-08	-4.205091e-09	9.292653e-02	-2.785202e+02
8.300000e-07	1.350840e-07	-3.423770e-09	9.677937e-01	-2.272858e+02
8.400000e-07	2.572146e-07	-2.641429e-09	1.842784e+00	-1.760260e+02
8.500000e-07	3.792461e-07	-1.859375e-09	2.717064e+00	-1.247621e+02
8.600000e-07	5.011541e-07	-1.077234e-09	3.590460e+00	-7.339069e+01
8.700000e-07	6.229270e-07	-2.871983e-10	4.462888e+00	-2.170510e+01
8.800000e-07	7.445038e-07	5.130401e-10	5.333910e+00	3.056281e+01
8.900000e-07	8.659161e-07	1.324351e-09	6.203754e+00	8.368641e+01
9.000000e-07	9.870915e-07	2.148095e-09	7.071901e+00	1.378827e+02
9.100000e-07	1.107960e-06	2.991124e-09	7.937852e+00	1.932556e+02
9.200000e-07	1.228495e-06	3.851298e-09	8.801408e+00	2.497548e+02
9.300000e-07	1.348481e-06	4.724460e-09	9.661031e+00	3.071565e+02
9.400000e-07	1.467835e-06	5.606769e-09	1.051613e+01	3.650719e+02
9.500000e-07	1.586627e-06	6.491386e-09	1.136721e+01	4.229798e+02
9.600000e-07	1.704867e-06	7.367346e-09	1.221432e+01	4.802790e+02
9.700000e-07	1.822534e-06	8.221839e-09	1.305733e+01	5.363520e+02
9.800000e-07	1.939580e-06	9.047769e-09	1.389590e+01	5.906274e+02
9.900000e-07	2.055865e-06	9.832816e-09	1.472900e+01	6.426333e+02
1.000000e-06	2.171193e-06	1.057517e-08	1.555526e+01	6.920316e+02
1.010000e-06	2.285488e-06	1.127463e-08	1.637411e+01	7.386314e+02
1.020000e-06	2.398819e-06	1.193565e-08	1.718606e+01	7.823807e+02
1.030000e-06	2.511207e-06	1.255986e-08	1.799125e+01	8.233417e+02
1.040000e-06	2.622577e-06	1.314163e-08	1.878915e+01	8.616553e+02
1.050000e-06	2.732979e-06	1.368608e-08	1.958011e+01	8.975042e+02
1.060000e-06	2.842409e-06	1.419030e-08	2.036410e+01	9.310808e+02
1.070000e-06	2.950978e-06	1.466554e-08	2.114194e+01	9.625646e+02
1.080000e-06	3.058689e-06	1.511134e-08	2.191362e+01	9.921119e+02
1.090000e-06	3.165219e-06	1.552983e-08	2.267684e+01	1.019855e+03
1.100000e-06	3.270531e-06	1.592308e-08	2.343134e+01	1.045910e+03
1.110000e-06	3.374587e-06	1.629614e-08	2.417683e+01	1.070386e+03
1.120000e-06	3.477386e-06	1.664912e-08	2.491333e+01	1.093391e+03
1.130000e-06	3.578999e-06	1.697876e-08	2.564132e+01	1.115041e+03
1.140000e-06	3.679436e-06	1.728921e-08	2.636089e+01	1.135453e+03
1.150000e-06	3.778652e-06	1.758323e-08	2.707171e+01	1.154739e+03
1.160000e-06	3.876432e-06	1.786086e-08	2.777224e+01	1.173002e+03
1.170000e-06	3.972636e-06	1.812133e-08	2.846149e+01	1.190327e+03
1.180000e-06	4.067387e-06	1.837182e-08	2.914032e+01	1.206774e+03
1.190000e-06	4.160858e-06	1.861052e-08	2.980998e+01	1.222386e+03
1.200000e-06	4.253071e-06	1.883606e-08	3.047063e+01	1.237191e+03
1.210000e-06	4.343827e-06	1.904665e-08	3.112084e+01	1.251210e+03
1.220000e-06	4.432881e-06	1.924590e-08	3.175885e+01	1.264471e+03
1.230000e-06	4.520268e-06	1.943362e-08	3.238493e+01	1.277010e+03
1.240000e-06	4.606020e-06	1.961361e-08	3.299929e+01	1.288877e+03
1.250000e-06	4.690200e-06	1.978633e-08	3.360239e+01	1.300133e+03
1.260000e-06	4.772822e-06	1.995186e-08	3.419432e+01	1.310841e+03
1.270000e-06	4.853660e-06	2.010995e-08	3.477348e+01	1.321057e+03
1.280000e-06	4.932648e-06	2.026176e-08	3.533938e+01	1.330824e+03
1.290000e-06	5.009832e-06	2.040501e-08	3.589236e+01	1.340164e+03
1.300000e-06	5.085056e-06	2.054144e-08	3.643129e+01	1.349078e+03
1.310000e-06	5.158142e-06	2.067207e-08	3.695490e+01	1.357554e+03
1.320000e-06	5.229283e-06	2.079496e-08	3.746458e+01	1.365572e+03
1.330000e-06	5.298704e-06	2.091029e-08	3.796195e+01	1.373116e+03
1.340000e-06	5.366314e-06	2.101806e-08	3.844633e+01	1.380183e+03
1.350000e-06	5.431829e-06	2.111921e-08	3.891571e+01	1.386792e+03
1.360000e-06	5.495336e-06	2.121443e-08	3.937069e+01	1.392977e+03
1.370000e-06	5.557074e-06	2.130555e-08	3.981300e+01	1.398790e+03
1.380000e-06	5.616976e-06	2.139172e-08	4.024216e+01	1.404288e+03
1.390000e-06	5.674797e-06	2.147250e-08	4.065642e+01	1.409523e+03
1.400000e-06	5.730548e-06	2.154854e-08	4.105584e+01	1.414535e+03
1.410000e-06	5.784296e-06	2.161994e-08	4.144091e+01	1.419344e+03
1.420000e-06	5.835687e-06	2.168720e-08	4.180910e+01	1.423950e+03
1.430000e-06	5.884536e-06	2.175244e-08	4.215907e+01	1.428339e+03
1.440000e-06	5.931064e-06	2.181576e-08	4.249241e+01	1.432487e+03
1.450000e-06	5.975718e-06	2.187585e-08	4.281233e+01	1.436372e+03
1.460000e-06	6.018388e-06	2.193276e-08	4.311804e+01	1.439979e+03
1.470000e-06	6.058769e-06	2.198654e-08	4.340734e+01	1.443306e+03
1.480000e-06	6.096969e-06	2.203535e-08	4.368102e+01	1.446364e+03
1.490000e-06	6.133228e-06	2.207922e-08	4.394080e+01	1.449173e+03
1.500000e-06	6.167340e-06	2.211867e-08	4.418519e+01	1.451754e+03
1.510000e-06	6.199151e-06	2.215397e-08	4.441309e+01	1.454128e+03
1.520000e-06	6.228858e-06	2.218681e-08	4.462592e+01	1.456303e+03
1.530000e-06	6.256371e-06	2.221694e-08	4.482304e+01	1.458280e+03
1.540000e-06	6.281510e-06	2.224328e-08	4.500314e+01	1.460051e+03
1.550000e-06	6.304268e-06	2.226674e-08	4.516619e+01	1.461603e+03
1.560000e-06	6.324925e-06	2.228714e-08	4.531419e+01	1.462926e+03
1.570000e-06	6.343455e-06	2.230444e-08	4.544694e+01	1.464021e+03
1.580000e-06	6.359558e-06	2.232127e-08	4.556231e+01	1.464897e+03
1.590000e-06	6.373286e-06	2.233547e-08	4.566066e+01	1.465576e+03
1.600000e-06	6.384577e-06	2.234560e-08	4.574155e+01	1.466087e+03
1.610000e-06	6.393252e-06	2.235371e-08	4.580370e+01	1.466458e+03
1.620000e-06	6.399497e-06	2.235860e-08	4.584845e+01	1.466710e+03
1.630000e-06	6.403686e-06	2.236061e-08	4.587846e+01	1.466852e+03
1.640000e-06	6.405660e-06	2.236200e-08	4.589260e+01	1.466877e+03
1.650000e-06	6.405236e-06	2.236248e-08	4.588956e+01	1.466765e+03
1.660000e-06	6.402739e-06	2.235148e-08	4.587168e+01	1.466492e+03
1.670000e-06	6.398127e-06	2.234824e-08	4.583864e+01	1.466032e+03
1.680000e-06	6.391328e-06	2.234242e-08	4.578992e+01	1.465376e+03
1.690000e-06	6.382498e-06	2.233115e-08	4.572666e+01	1.464528e+03
1.700000e-06	6.371718e-06	2.232104e-08	4.564943e+01	1.463514e+03
1.710000e-06	6.358614e-06	2.231130e-08	4.555555e+01	1.462374e+03
1.720000e-06	6.343162e-06	2.232250e-08	4.544484e+01	1.461155e+03
1.730000e-06	6.325883e-06	2.223984e-08	4.532105e+01	1.459901e+03
1.740000e-06	6.306548e-06	2.213983e-08	4.518253e+01	1.458634e+03
1.750000e-06	6.284279e-06	2.219932e-08	4.502298e+01	1.457353e+03
1.760000e-06	6.258823e-06	2.219947e-08	4.484060e+01	1.456022e+03
1.770000e-06	6.231096e-06	2.212372e-08	4.464196e+01	1.454577e+03
1.780000e-06	6.201533e-06	2.231014e-08	4.443016e+01	1.452935e+03
1.790000e-06	6.170408e-06	2.220006e-08	4.420717e+01	1.451007e+03
1.800000e-06	6.137881e-06	2.202221e-08	4.397413e+01	1.448714e+03
1.810000e-06	6.103304e-06	2.226099e-08	4.372641e+01	1.446003e+03
1.820000e-06	6.066615e-06	2.200090e-08	4.346356e+01	1.442857e+03
1.830000e-06	6.027896e-06	2.196740e-08	4.318616e+01	1.439300e+03
1.840000e-06	5.986819e-06	2.202333e-08	4.289186e+01	1.435390e+03
1.850000e-06	5.943699e-06	2.164309e-08	4.258294e+01	1.431212e+03
1.860000e-06	5.898485e-06	2.177548e-08	4.225900e+01	1.426861e+03
1.870000e-06	5.851017e-06	2.167996e-08	4.191893e+01	1.422424e+03
1.880000e-06	5.801565e-06	2.158564e-08	4.156463e+01	1.417971e+03
1.890000e-06	5.749479e-06	2.165046e-08	4.119147e+01	1.413537e+03
1.900000e-06	5.694851e-06	2.137627e-08	4.080009e+01	1.409125e+03
1.910000e-06	5.638088e-06	2.144623e-08	4.039342e+01	1.404704e+03
1.920000e-06	5.579329e-06	2.133878e-08	3.997245e+01	1.400219e+03
1.930000e-06	5.518612e-06	2.123962e-08	3.953745e+01	1.395604e+03
1.940000e-06	5.455716e-06	2.124470e-08	3.908684e+01	1.390789e+03
1.950000e-06	5.390786e-06	2.104570e-08	3.862165e+01	1.385719e+03
1.960000e-06	5.323902e-06	2.109801e-08	3.814247e+01	1.380351e+03
1.970000e-06	5.255003e-06	2.089652e-08	3.764886e+01	1.374667e+03
1.980000e-06	5.184043e-06	2.082611e-08	3.714047e+01	1.368662e+03
1.990000e-06	5.111119e-06	2.080493e-08	3.661801e+01	1.362349e+03
2.000000e-06	5.036394e-06	2.065154e-08	3.608265e+01	1.355742e+03
2.010000e-06	4.959605e-06	2.061119e-08	3.553251e+01	1.348858e+03
2.020000e-06	4.880735e-06	2.039996e-08	3.496745e+01	1.341706e+03
2.030000e-06	4.800061e-06	2.034810e-08	3.438948e+01	1.334283e+03
2.040000e-06	4.717798e-06	2.022643e-08	3.380011e+01	1.326581e+03
2.050000e-06	4.634077e-06	2.010462e-08	3.320030e+01	1.318580e+03
2.060000e-06	4.548616e-06	1.999014e-08	3.258803e+01	1.310258e+03
2.070000e-06	4.461471e-06	1.982752e-08	3.196369e+01	1.301593e+03
2.080000e-06	4.372697e-06	1.972485e-08	3.132767e+01	1.292566e+03
2.090000e-06	4.282415e-06	1.953818e-08	3.068086e+01	1.283162e+03
2.100000e-06	4.190787e-06	1.941716e-08	3.002441e+01	1.273374e+03
2.110000e-06	4.097663e-06	1.925667e-08	2.935723e+01	1.263194e+03
2.120000e-06	4.003040e-06	1.910844e-08	2.867931e+01	1.252613e+03
2.130000e-06	3.907033e-06	1.894117e-08	2.799148e+01	1.241622e+03
2.140000e-06	3.809662e-06	1.876431e-08	2.729388e+01	1.230200e+03
2.150000e-06	3.710932e-06	1.859618e-08	2.658654e+01	1.218321e+03
2.160000e-06	3.610885e-06	1.840068e-08	2.586977e+01	1.205951e+03
2.170000e-06	3.509384e-06	1.821429e-08	2.514257e+01	1.193050e+03
2.180000e-06	3.406506e-06	1.799370e-08	2.440552e+01	1.179575e+03
2.190000e-06	3.302354e-06	1.778878e-08	2.365933e+01	1.165485e+03
2.200000e-06	3.196989e-06	1.756155e-08	2.290446e+01	1.150740e+03
2.210000e-06	3.090578e-06	1.733500e-08	2.214208e+01	1.135306e+03
2.220000e-06	2.983099e-06	1.708802e-08	2.137206e+01	1.119151e+03
2.230000e-06	2.874578e-06	1.683412e-08	2.059458e+01	1.102245e+03
2.240000e-06	2.765063e-06	1.656826e-08	1.980997e+01	1.084553e+03
2.250000e-06	2.654560e-06	1.628916e-08	1.901829e+01	1.066035e+03
2.260000e-06	2.543012e-06	1.599605e-08	1.821912e+01	1.046642e+03
2.270000e-06	2.430354e-06	1.568217e-08	1.741198e+01	1.026311e+03
2.280000e-06	2.316743e-06	1.536085e-08	1.659804e+01	1.004971e+03
2.290000e-06	2.202254e-06	1.501460e-08	1.577779e+01	9.825382e+02
2.300000e-06	2.086881e-06	1.465664e-08	1.495122e+01	9.589247e+02
2.310000e-06	1.970677e-06	1.427854e-08	1.411869e+01	9.340368e+02
2.320000e-06	1.853657e-06	1.388543e-08	1.328031e+01	9.077781e+02
2.330000e-06	1.735984e-06	1.346461e-08	1.243725e+01	8.800495e+02
2.340000e-06	1.617679e-06	1.301805e-08	1.158967e+01	8.507492e+02
2.350000e-06	1.498745e-06	1.254633e-08	1.073758e+01	8.197714e+02
2.360000e-06	1.379312e-06	1.204953e-08	9.881922e+00	7.870077e+02
2.370000e-06	1.259354e-06	1.152372e-08	9.022495e+00	7.523513e+02
2.380000e-06	1.138883e-06	1.096142e-08	8.159394e+00	7.157053e+02
2.390000e-06	1.018049e-06	1.036952e-08	7.293692e+00	6.769964e+02
2.400000e-06	8.969255e-07	9.745963e-09	6.425917e+00	6.361908e+02
2.410000e-06	7.755180e-07	9.092746e-09	5.556108e+00	5.933123e+02
2.420000e-06	6.538446e-07	8.410675e-09	4.684393e+00	5.484568e+02
2.430000e-06	5.320146e-07	7.700718e-09	3.811556e+00	5.017993e+02
2.440000e-06	4.100829e-07	6.965422e-09	2.937991e+00	4.535913e+02
2.450000e-06	2.880463e-07	6.207981e-09	2.063674e+00	4.041442e+02
2.460000e-06	1.659383e-07	5.436610e-09	1.188846e+00	3.538004e+02
2.470000e-06	4.371182e-08	4.656436e-09	3.131682e-01	3.028956e+02
2.480000e-06	-7.856836e-08	3.875128e-09	-5.628938e-01	2.517153e+02
2.490000e-06	-2.008143e-07	3.093326e-09	-1.438711e+00	2.004568e+02
2.500000e-06	-3.229885e-07	2.313126e-09	-2.314013e+00	1.492003e+02
2.510000e-06	-4.450525e-07	1.535525e-09	-3.188526e+00	9.789888e+01
2.520000e-06	-5.670784e-07	7.526209e-10	-4.062767e+00	4.638987e+01
2.530000e-06	-6.889956e-07	-3.798391e-11	-4.936229e+00	-5.572649e+00
2.540000e-06	-8.107037e-07	-8.443172e-10	-5.808192e+00	-5.826721e+01
2.550000e-06	-9.321069e-07	-1.664057e-09	-6.677971e+00	-1.119446e+02
2.560000e-06	-1.053145e-06	-2.499935e-09	-7.545136e+00	-1.667675e+02
2.570000e-06	-1.173884e-06	-3.355112e-09	-8.410153e+00	-2.227609e+02
2.580000e-06	-1.294315e-06	-4.225349e-09	-9.272970e+00	-2.797825e+02
2.590000e-06	-1.414337e-06	-5.107462e-09	-1.013285e+01	-3.375174e+02
2.600000e-06	-1.533679e-06	-5.993283e-09	-1.098787e+01	-3.955001e+02
2.610000e-06	-1.652264e-06	-6.875341e-09	-1.183745e+01	-4.531593e+02
2.620000e-06	-1.770183e-06	-7.744107e-09	-1.268227e+01	-5.098770e+02
2.630000e-06	-1.887452e-06	-8.590394e-09	-1.352243e+01	-5.650528e+02
2.640000e-06	-2.003913e-06	-9.404416e-09	-1.435680e+01	-6.181633e+02
2.650000e-06	-2.119465e-06	-1.017972e-08	-1.518466e+01	-6.688050e+02
2.660000e-06	-2.234157e-06	-1.091445e-08	-1.600636e+01	-7.167186e+02
2.670000e-06	-2.347794e-06	-1.160788e-08	-1.682049e+01	-7.617899e+02
2.680000e-06	-2.460266e-06	-1.225894e-08	-1.762629e+01	-8.040320e+02
2.690000e-06	-2.571833e-06	-1.286805e-08	-1.842560e+01	-8.435538e+02
2.700000e-06	-2.682409e-06	-1.343802e-08	-1.921780e+01	-8.805231e+02
2.710000e-06	-2.791884e-06	-1.397222e-08	-2.000213e+01	-9.151312e+02
2.720000e-06	-2.900513e-06	-1.447144e-08	-2.078039e+01	-9.475658e+02
2.730000e-06	-3.008261e-06	-1.493703e-08	-2.155233e+01	-9.779945e+02
2.740000e-06	-3.115043e-06	-1.537412e-08	-2.231736e+01	-1.006560e+03
2.750000e-06	-3.220762e-06	-1.578449e-08	-2.307477e+01	-1.033385e+03
2.760000e-06	-3.325347e-06	-1.617001e-08	-2.382406e+01	-1.058581e+03
2.770000e-06	-3.428699e-06	-1.653119e-08	-2.456451e+01	-1.082255e+03
2.780000e-06	-3.530751e-06	-1.687053e-08	-2.529565e+01	-1.104520e+03
2.790000e-06	-3.631509e-06	-1.719100e-08	-2.601752e+01	-1.125492e+03
2.800000e-06	-3.730982e-06	-1.749318e-08	-2.673018e+01	-1.145287e+03
2.810000e-06	-3.829243e-06	-1.778079e-08	-2.743416e+01	-1.164014e+03
2.820000e-06	-3.926265e-06	-1.805405e-08	-2.812926e+01	-1.181766e+03
2.830000e-06	-4.021976e-06	-1.831118e-08	-2.881497e+01	-1.198614e+03
2.840000e-06	-4.116210e-06	-1.855522e-08	-2.949011e+01	-1.214610e+03
2.850000e-06	-4.208963e-06	-1.878791e-08	-3.015462e+01	-1.229787e+03
2.860000e-06	-4.300235e-06	-1.900933e-08	-3.080853e+01	-1.244168e+03
2.870000e-06	-4.389978e-06	-1.921920e-08	-3.145148e+01	-1.257777e+03
2.880000e-06	-4.478100e-06	-1.941637e-08	-3.208282e+01	-1.270645e+03
2.890000e-06	-4.564513e-06	-1.960275e-08	-3.270192e+01	-1.282818e+03
2.900000e-06	-4.649252e-06	-1.977820e-08	-3.330902e+01	-1.294350e+03
2.910000e-06	-4.732385e-06	-1.994565e-08	-3.390462e+01	-1.305304e+03
2.920000e-06	-4.813966e-06	-2.010525e-08	-3.448910e+01	-1.315743e+03
2.930000e-06	-4.893791e-06	-2.025608e-08	-3.506099e+01	-1.325714e+03
2.940000e-06	-4.971586e-06	-2.040159e-08	-3.561834e+01	-1.335251e+03
