# Temperatura_=_78.7
# Concentracion g/m^3_=_28200.0
# C_Vs_to_Am_M_A/Vsm_=_65563218390.804596
# pendiente_HvsI_1/m_=_3716.3
# ordenada_HvsI_A/m_=_1297.0
# frecuencia_Hz_=_302139.48081568454

Tiempo_(s)	Campo_(V.s)	Magnetizacion_(V.s)	Campo_(kA/m)	Magnetizacion_(A/m)
0.000000e+00	-6.416467e-06	-2.784205e-08	-4.585385e+01	-1.822978e+03
1.000000e-08	-6.413464e-06	-2.784259e-08	-4.583239e+01	-1.822399e+03
2.000000e-08	-6.408263e-06	-2.783292e-08	-4.579522e+01	-1.821641e+03
3.000000e-08	-6.401124e-06	-2.782009e-08	-4.574420e+01	-1.820724e+03
4.000000e-08	-6.391893e-06	-2.780285e-08	-4.567824e+01	-1.819654e+03
5.000000e-08	-6.380293e-06	-2.777777e-08	-4.559534e+01	-1.818425e+03
6.000000e-08	-6.366337e-06	-2.774974e-08	-4.549560e+01	-1.817020e+03
7.000000e-08	-6.350025e-06	-2.771787e-08	-4.537903e+01	-1.815413e+03
8.000000e-08	-6.331616e-06	-2.770589e-08	-4.524748e+01	-1.813587e+03
9.000000e-08	-6.311161e-06	-2.776056e-08	-4.510130e+01	-1.811536e+03
1.000000e-07	-6.288324e-06	-2.770212e-08	-4.493811e+01	-1.809276e+03
1.100000e-07	-6.262867e-06	-2.759284e-08	-4.475618e+01	-1.806844e+03
1.200000e-07	-6.235017e-06	-2.756087e-08	-4.455716e+01	-1.804292e+03
1.300000e-07	-6.205208e-06	-2.750457e-08	-4.434413e+01	-1.801675e+03
1.400000e-07	-6.173843e-06	-2.737607e-08	-4.411999e+01	-1.799036e+03
1.500000e-07	-6.140807e-06	-2.746005e-08	-4.388391e+01	-1.796392e+03
1.600000e-07	-6.105709e-06	-2.747365e-08	-4.363309e+01	-1.793722e+03
1.700000e-07	-6.068686e-06	-2.724722e-08	-4.336851e+01	-1.790970e+03
1.800000e-07	-6.029652e-06	-2.733404e-08	-4.308956e+01	-1.788050e+03
1.900000e-07	-5.988149e-06	-2.724124e-08	-4.279297e+01	-1.784858e+03
2.000000e-07	-5.944431e-06	-2.710089e-08	-4.248055e+01	-1.781301e+03
2.100000e-07	-5.898713e-06	-2.714544e-08	-4.215384e+01	-1.777306e+03
2.200000e-07	-5.850693e-06	-2.699819e-08	-4.181068e+01	-1.772840e+03
2.300000e-07	-5.800186e-06	-2.691896e-08	-4.144974e+01	-1.767913e+03
2.400000e-07	-5.747114e-06	-2.683393e-08	-4.107047e+01	-1.762571e+03
2.500000e-07	-5.691872e-06	-2.672380e-08	-4.067569e+01	-1.756885e+03
2.600000e-07	-5.634424e-06	-2.668583e-08	-4.026515e+01	-1.750931e+03
2.700000e-07	-5.574758e-06	-2.657828e-08	-3.983876e+01	-1.744768e+03
2.800000e-07	-5.513210e-06	-2.647900e-08	-3.939893e+01	-1.738427e+03
2.900000e-07	-5.449764e-06	-2.635315e-08	-3.894552e+01	-1.731903e+03
3.000000e-07	-5.384201e-06	-2.625471e-08	-3.847699e+01	-1.725159e+03
3.100000e-07	-5.316473e-06	-2.616714e-08	-3.799299e+01	-1.718137e+03
3.200000e-07	-5.246717e-06	-2.604820e-08	-3.749449e+01	-1.710773e+03
3.300000e-07	-5.175159e-06	-2.595650e-08	-3.698312e+01	-1.703018e+03
3.400000e-07	-5.101781e-06	-2.579387e-08	-3.645874e+01	-1.694842e+03
3.500000e-07	-5.026300e-06	-2.565998e-08	-3.591933e+01	-1.686245e+03
3.600000e-07	-4.948746e-06	-2.552376e-08	-3.536511e+01	-1.677249e+03
3.700000e-07	-4.869115e-06	-2.537819e-08	-3.479604e+01	-1.667887e+03
3.800000e-07	-4.787575e-06	-2.526644e-08	-3.421334e+01	-1.658189e+03
3.900000e-07	-4.704500e-06	-2.510549e-08	-3.361966e+01	-1.648171e+03
4.000000e-07	-4.620012e-06	-2.493464e-08	-3.301589e+01	-1.637828e+03
4.100000e-07	-4.534071e-06	-2.476125e-08	-3.240173e+01	-1.627130e+03
4.200000e-07	-4.446816e-06	-2.459873e-08	-3.177818e+01	-1.616029e+03
4.300000e-07	-4.358095e-06	-2.442088e-08	-3.114415e+01	-1.604473e+03
4.400000e-07	-4.267655e-06	-2.422863e-08	-3.049785e+01	-1.592419e+03
4.500000e-07	-4.175598e-06	-2.404610e-08	-2.983998e+01	-1.579835e+03
4.600000e-07	-4.082001e-06	-2.383937e-08	-2.917111e+01	-1.566713e+03
4.700000e-07	-3.987070e-06	-2.363481e-08	-2.849271e+01	-1.553061e+03
4.800000e-07	-3.890807e-06	-2.342269e-08	-2.780478e+01	-1.538891e+03
4.900000e-07	-3.792960e-06	-2.320488e-08	-2.710554e+01	-1.524215e+03
5.000000e-07	-3.693634e-06	-2.296870e-08	-2.639573e+01	-1.509025e+03
5.100000e-07	-3.593044e-06	-2.272212e-08	-2.567688e+01	-1.493291e+03
5.200000e-07	-3.491181e-06	-2.247121e-08	-2.494895e+01	-1.476960e+03
5.300000e-07	-3.388177e-06	-2.220684e-08	-2.421285e+01	-1.459963e+03
5.400000e-07	-3.283985e-06	-2.193786e-08	-2.346826e+01	-1.442223e+03
5.500000e-07	-3.178378e-06	-2.165352e-08	-2.271357e+01	-1.423673e+03
5.600000e-07	-3.071431e-06	-2.135810e-08	-2.194930e+01	-1.404256e+03
5.700000e-07	-2.963329e-06	-2.104382e-08	-2.117677e+01	-1.383938e+03
5.800000e-07	-2.854177e-06	-2.072296e-08	-2.039674e+01	-1.362697e+03
5.900000e-07	-2.744025e-06	-2.038956e-08	-1.960956e+01	-1.340513e+03
6.000000e-07	-2.633063e-06	-2.003644e-08	-1.881660e+01	-1.317358e+03
6.100000e-07	-2.521209e-06	-1.966164e-08	-1.801726e+01	-1.293179e+03
6.200000e-07	-2.408257e-06	-1.926947e-08	-1.721007e+01	-1.267896e+03
6.300000e-07	-2.294215e-06	-1.886484e-08	-1.639509e+01	-1.241394e+03
6.400000e-07	-2.179099e-06	-1.843947e-08	-1.557245e+01	-1.213538e+03
6.500000e-07	-2.063023e-06	-1.799282e-08	-1.474293e+01	-1.184182e+03
6.600000e-07	-1.946149e-06	-1.751740e-08	-1.390772e+01	-1.153181e+03
6.700000e-07	-1.828615e-06	-1.701566e-08	-1.306779e+01	-1.120406e+03
6.800000e-07	-1.710495e-06	-1.648874e-08	-1.222367e+01	-1.085740e+03
6.900000e-07	-1.591883e-06	-1.593359e-08	-1.137604e+01	-1.049080e+03
7.000000e-07	-1.472859e-06	-1.534682e-08	-1.052546e+01	-1.010325e+03
7.100000e-07	-1.353440e-06	-1.472375e-08	-9.672057e+00	-9.693614e+02
7.200000e-07	-1.233600e-06	-1.406240e-08	-8.815650e+00	-9.260625e+02
7.300000e-07	-1.113310e-06	-1.335847e-08	-7.956018e+00	-8.802874e+02
7.400000e-07	-9.925248e-07	-1.261499e-08	-7.092857e+00	-8.319000e+02
7.500000e-07	-8.712405e-07	-1.183523e-08	-6.226126e+00	-7.807973e+02
7.600000e-07	-7.495356e-07	-1.101843e-08	-5.356389e+00	-7.269449e+02
7.700000e-07	-6.275401e-07	-1.015944e-08	-4.484576e+00	-6.704103e+02
7.800000e-07	-5.053761e-07	-9.263203e-09	-3.611557e+00	-6.113852e+02
7.900000e-07	-3.830410e-07	-8.333725e-09	-2.737317e+00	-5.501863e+02
8.000000e-07	-2.605723e-07	-7.372882e-09	-1.862122e+00	-4.872313e+02
8.100000e-07	-1.379927e-07	-6.393524e-09	-9.861338e-01	-4.229899e+02
8.200000e-07	-1.531030e-08	-5.405204e-09	-1.094116e-01	-3.579173e+02
8.300000e-07	1.073563e-07	-4.411448e-09	7.671981e-01	-2.923832e+02
8.400000e-07	2.299549e-07	-3.411342e-09	1.643322e+00	-2.266102e+02
8.500000e-07	3.525467e-07	-2.408452e-09	2.519396e+00	-1.606370e+02
8.600000e-07	4.750837e-07	-1.397785e-09	3.395080e+00	-9.431741e+01
8.700000e-07	5.974420e-07	-3.770649e-10	4.269486e+00	-2.735694e+01
8.800000e-07	7.196157e-07	6.576570e-10	5.142573e+00	4.061576e+01
8.900000e-07	8.415875e-07	1.710483e-09	6.014217e+00	1.099561e+02
9.000000e-07	9.632198e-07	2.787403e-09	6.883435e+00	1.809060e+02
9.100000e-07	1.084432e-06	3.893232e-09	7.749648e+00	2.535114e+02
9.200000e-07	1.205155e-06	5.021852e-09	8.612368e+00	3.275702e+02
9.300000e-07	1.325313e-06	6.166276e-09	9.471056e+00	4.026225e+02
9.400000e-07	1.444988e-06	7.315141e-09	1.032629e+01	4.779838e+02
9.500000e-07	1.564198e-06	8.456550e-09	1.117819e+01	5.528158e+02
9.600000e-07	1.682846e-06	9.572638e-09	1.202608e+01	6.262208e+02
9.700000e-07	1.800899e-06	1.065005e-08	1.286972e+01	6.973426e+02
9.800000e-07	1.918371e-06	1.168050e-08	1.370921e+01	7.654547e+02
9.900000e-07	2.035044e-06	1.265900e-08	1.454299e+01	8.300239e+02
1.000000e-06	2.150774e-06	1.358326e-08	1.537003e+01	8.907381e+02
1.010000e-06	2.265675e-06	1.444636e-08	1.619114e+01	9.475010e+02
1.020000e-06	2.379647e-06	1.525140e-08	1.700562e+01	1.000396e+03
1.030000e-06	2.492519e-06	1.599814e-08	1.781223e+01	1.049635e+03
1.040000e-06	2.604335e-06	1.669299e-08	1.861130e+01	1.095496e+03
1.050000e-06	2.715236e-06	1.734231e-08	1.940383e+01	1.138278e+03
1.060000e-06	2.825278e-06	1.795060e-08	2.019022e+01	1.178257e+03
1.070000e-06	2.934363e-06	1.852002e-08	2.096977e+01	1.215672e+03
1.080000e-06	3.042421e-06	1.905095e-08	2.174199e+01	1.250722e+03
1.090000e-06	3.149457e-06	1.954676e-08	2.250689e+01	1.283573e+03
1.100000e-06	3.255362e-06	2.001126e-08	2.326372e+01	1.314378e+03
1.110000e-06	3.359944e-06	2.044860e-08	2.401109e+01	1.343284e+03
1.120000e-06	3.463206e-06	2.085971e-08	2.474903e+01	1.370444e+03
1.130000e-06	3.565320e-06	2.124943e-08	2.547876e+01	1.396015e+03
1.140000e-06	3.666290e-06	2.161738e-08	2.620032e+01	1.420151e+03
1.150000e-06	3.766020e-06	2.196571e-08	2.691302e+01	1.442993e+03
1.160000e-06	3.864391e-06	2.229513e-08	2.761601e+01	1.464659e+03
1.170000e-06	3.961231e-06	2.260829e-08	2.830805e+01	1.485242e+03
1.180000e-06	4.056557e-06	2.290602e-08	2.898928e+01	1.504806e+03
1.190000e-06	4.150507e-06	2.318874e-08	2.966067e+01	1.523398e+03
1.200000e-06	4.243073e-06	2.345592e-08	3.032218e+01	1.541049e+03
1.210000e-06	4.334229e-06	2.370729e-08	3.097360e+01	1.557793e+03
1.220000e-06	4.423827e-06	2.394530e-08	3.161389e+01	1.573671e+03
1.230000e-06	4.511714e-06	2.417313e-08	3.224196e+01	1.588730e+03
1.240000e-06	4.597969e-06	2.439028e-08	3.285836e+01	1.603030e+03
1.250000e-06	4.682690e-06	2.459774e-08	3.346380e+01	1.616632e+03
1.260000e-06	4.765855e-06	2.479539e-08	3.405812e+01	1.629596e+03
1.270000e-06	4.847324e-06	2.498267e-08	3.464032e+01	1.641970e+03
1.280000e-06	4.926980e-06	2.516179e-08	3.520956e+01	1.653792e+03
1.290000e-06	5.004781e-06	2.533216e-08	3.576555e+01	1.665084e+03
1.300000e-06	5.080661e-06	2.549441e-08	3.630781e+01	1.675857e+03
1.310000e-06	5.154475e-06	2.565093e-08	3.683531e+01	1.686121e+03
1.320000e-06	5.226319e-06	2.580152e-08	3.734872e+01	1.695879e+03
1.330000e-06	5.296293e-06	2.594497e-08	3.784877e+01	1.705144e+03
1.340000e-06	5.364390e-06	2.608121e-08	3.833542e+01	1.713928e+03
1.350000e-06	5.430570e-06	2.620914e-08	3.880835e+01	1.722251e+03
1.360000e-06	5.494707e-06	2.632888e-08	3.926670e+01	1.730133e+03
1.370000e-06	5.556929e-06	2.644301e-08	3.971135e+01	1.737592e+03
1.380000e-06	5.617353e-06	2.655178e-08	4.014316e+01	1.744644e+03
1.390000e-06	5.675818e-06	2.665596e-08	4.056097e+01	1.751303e+03
1.400000e-06	5.732176e-06	2.675434e-08	4.096371e+01	1.757582e+03
1.410000e-06	5.786464e-06	2.684461e-08	4.135167e+01	1.763497e+03
1.420000e-06	5.838528e-06	2.692711e-08	4.172374e+01	1.769066e+03
1.430000e-06	5.888079e-06	2.700351e-08	4.207785e+01	1.774314e+03
1.440000e-06	5.935248e-06	2.707823e-08	4.241492e+01	1.779269e+03
1.450000e-06	5.980460e-06	2.715160e-08	4.273803e+01	1.783959e+03
1.460000e-06	6.023773e-06	2.722272e-08	4.304755e+01	1.788405e+03
1.470000e-06	6.064834e-06	2.728983e-08	4.334098e+01	1.792618e+03
1.480000e-06	6.103633e-06	2.735156e-08	4.361825e+01	1.796597e+03
1.490000e-06	6.140426e-06	2.740766e-08	4.388119e+01	1.800326e+03
1.500000e-06	6.175097e-06	2.745829e-08	4.412895e+01	1.803782e+03
1.510000e-06	6.207487e-06	2.750407e-08	4.436042e+01	1.806938e+03
1.520000e-06	6.237738e-06	2.754644e-08	4.457660e+01	1.809774e+03
1.530000e-06	6.265928e-06	2.758586e-08	4.477806e+01	1.812281e+03
1.540000e-06	6.291762e-06	2.762026e-08	4.496267e+01	1.814467e+03
1.550000e-06	6.315142e-06	2.765030e-08	4.512975e+01	1.816352e+03
1.560000e-06	6.336339e-06	2.767692e-08	4.528123e+01	1.817968e+03
1.570000e-06	6.355431e-06	2.770068e-08	4.541767e+01	1.819350e+03
1.580000e-06	6.372192e-06	2.772154e-08	4.553745e+01	1.820525e+03
1.590000e-06	6.386548e-06	2.773755e-08	4.564004e+01	1.821513e+03
1.600000e-06	6.398451e-06	2.774967e-08	4.572510e+01	1.822317e+03
1.610000e-06	6.407721e-06	2.775881e-08	4.579135e+01	1.822928e+03
1.620000e-06	6.414554e-06	2.776424e-08	4.584018e+01	1.823332e+03
1.630000e-06	6.419293e-06	2.776690e-08	4.587405e+01	1.823514e+03
1.640000e-06	6.421772e-06	2.776711e-08	4.589176e+01	1.823467e+03
1.650000e-06	6.421889e-06	2.776779e-08	4.589260e+01	1.823195e+03
1.660000e-06	6.419864e-06	2.775802e-08	4.587813e+01	1.822712e+03
1.670000e-06	6.415861e-06	2.774833e-08	4.584952e+01	1.822041e+03
1.680000e-06	6.409641e-06	2.773740e-08	4.580507e+01	1.821202e+03
1.690000e-06	6.401184e-06	2.772214e-08	4.574464e+01	1.820208e+03
1.700000e-06	6.390783e-06	2.770603e-08	4.567030e+01	1.819061e+03
1.710000e-06	6.378188e-06	2.768951e-08	4.558030e+01	1.817746e+03
1.720000e-06	6.363303e-06	2.768095e-08	4.547393e+01	1.816243e+03
1.730000e-06	6.346413e-06	2.763093e-08	4.535323e+01	1.814528e+03
1.740000e-06	6.327446e-06	2.749570e-08	4.521768e+01	1.812589e+03
1.750000e-06	6.305607e-06	2.750162e-08	4.506161e+01	1.810431e+03
1.760000e-06	6.280594e-06	2.753636e-08	4.488286e+01	1.808079e+03
1.770000e-06	6.253269e-06	2.748484e-08	4.468759e+01	1.805580e+03
1.780000e-06	6.224030e-06	2.754592e-08	4.447864e+01	1.802988e+03
1.790000e-06	6.193060e-06	2.752276e-08	4.425732e+01	1.800356e+03
1.800000e-06	6.160768e-06	2.730793e-08	4.402655e+01	1.797715e+03
1.810000e-06	6.126521e-06	2.736142e-08	4.378182e+01	1.795063e+03
1.820000e-06	6.090091e-06	2.725417e-08	4.352148e+01	1.792361e+03
1.830000e-06	6.051616e-06	2.717218e-08	4.324652e+01	1.789537e+03
1.840000e-06	6.010766e-06	2.738443e-08	4.295460e+01	1.786494e+03
1.850000e-06	5.967895e-06	2.717996e-08	4.264823e+01	1.783131e+03
1.860000e-06	5.923073e-06	2.715186e-08	4.232792e+01	1.779362e+03
1.870000e-06	5.875993e-06	2.714677e-08	4.199148e+01	1.775133e+03
1.880000e-06	5.826812e-06	2.696844e-08	4.164001e+01	1.770432e+03
1.890000e-06	5.775196e-06	2.703458e-08	4.127115e+01	1.765290e+03
1.900000e-06	5.720949e-06	2.683926e-08	4.088348e+01	1.759766e+03
1.910000e-06	5.664468e-06	2.675552e-08	4.047986e+01	1.753937e+03
1.920000e-06	5.605988e-06	2.675056e-08	4.006195e+01	1.747873e+03
1.930000e-06	5.545700e-06	2.656521e-08	3.963111e+01	1.741619e+03
1.940000e-06	5.483326e-06	2.656937e-08	3.918537e+01	1.735190e+03
1.950000e-06	5.418710e-06	2.639588e-08	3.872360e+01	1.728562e+03
1.960000e-06	5.352126e-06	2.632692e-08	3.824777e+01	1.721687e+03
1.970000e-06	5.283549e-06	2.619531e-08	3.775770e+01	1.714501e+03
1.980000e-06	5.212815e-06	2.602335e-08	3.725222e+01	1.706947e+03
1.990000e-06	5.140081e-06	2.599716e-08	3.673244e+01	1.698983e+03
2.000000e-06	5.065607e-06	2.581823e-08	3.620023e+01	1.690596e+03
2.010000e-06	4.989128e-06	2.573040e-08	3.565369e+01	1.681795e+03
2.020000e-06	4.910501e-06	2.554271e-08	3.509180e+01	1.672611e+03
2.030000e-06	4.830034e-06	2.538929e-08	3.451676e+01	1.663078e+03
2.040000e-06	4.747907e-06	2.527555e-08	3.392986e+01	1.653220e+03
2.050000e-06	4.664334e-06	2.509527e-08	3.333262e+01	1.643042e+03
2.060000e-06	4.579101e-06	2.497304e-08	3.272352e+01	1.632526e+03
2.070000e-06	4.492024e-06	2.478049e-08	3.210124e+01	1.621633e+03
2.080000e-06	4.403351e-06	2.462339e-08	3.146757e+01	1.610311e+03
2.090000e-06	4.313220e-06	2.441810e-08	3.082346e+01	1.598511e+03
2.100000e-06	4.221790e-06	2.423311e-08	3.017008e+01	1.586194e+03
2.110000e-06	4.128879e-06	2.405488e-08	2.950611e+01	1.573341e+03
2.120000e-06	4.034369e-06	2.384417e-08	2.883072e+01	1.559952e+03
2.130000e-06	3.938443e-06	2.363850e-08	2.814521e+01	1.546040e+03
2.140000e-06	3.841098e-06	2.340569e-08	2.744955e+01	1.531617e+03
2.150000e-06	3.742475e-06	2.319086e-08	2.674476e+01	1.516685e+03
2.160000e-06	3.642692e-06	2.294744e-08	2.603168e+01	1.501229e+03
2.170000e-06	3.541463e-06	2.271445e-08	2.530828e+01	1.485204e+03
2.180000e-06	3.438732e-06	2.245764e-08	2.457413e+01	1.468550e+03
2.190000e-06	3.334640e-06	2.219236e-08	2.383026e+01	1.451191e+03
2.200000e-06	3.229315e-06	2.191146e-08	2.307758e+01	1.433053e+03
2.210000e-06	3.122904e-06	2.162420e-08	2.231713e+01	1.414075e+03
2.220000e-06	3.015526e-06	2.132611e-08	2.154978e+01	1.394211e+03
2.230000e-06	2.907057e-06	2.100553e-08	2.077463e+01	1.373434e+03
2.240000e-06	2.797471e-06	2.067774e-08	1.999150e+01	1.351724e+03
2.250000e-06	2.686880e-06	2.033633e-08	1.920119e+01	1.329059e+03
2.260000e-06	2.575210e-06	1.998324e-08	1.840317e+01	1.305401e+03
2.270000e-06	2.462512e-06	1.960133e-08	1.759779e+01	1.280682e+03
2.280000e-06	2.348838e-06	1.920722e-08	1.678545e+01	1.254805e+03
2.290000e-06	2.234295e-06	1.879031e-08	1.596689e+01	1.227644e+03
2.300000e-06	2.118928e-06	1.835464e-08	1.514245e+01	1.199056e+03
2.310000e-06	2.002709e-06	1.789431e-08	1.431192e+01	1.168895e+03
2.320000e-06	1.885566e-06	1.741254e-08	1.347478e+01	1.137023e+03
2.330000e-06	1.767590e-06	1.690227e-08	1.263169e+01	1.103316e+03
2.340000e-06	1.649026e-06	1.635560e-08	1.178440e+01	1.067665e+03
2.350000e-06	1.529908e-06	1.577706e-08	1.093315e+01	1.029971e+03
2.360000e-06	1.410241e-06	1.516875e-08	1.007797e+01	9.901266e+02
2.370000e-06	1.290073e-06	1.453055e-08	9.219216e+00	9.480125e+02
2.380000e-06	1.169468e-06	1.385246e-08	8.357340e+00	9.034933e+02
2.390000e-06	1.048483e-06	1.313492e-08	7.492749e+00	8.564278e+02
2.400000e-06	9.271772e-07	1.237297e-08	6.625865e+00	8.066923e+02
2.410000e-06	8.055034e-07	1.156797e-08	5.756351e+00	7.542133e+02
2.420000e-06	6.835424e-07	1.072332e-08	4.884784e+00	6.990039e+02
2.430000e-06	5.614813e-07	9.841508e-09	4.012501e+00	6.411921e+02
2.440000e-06	4.392823e-07	8.925963e-09	3.139233e+00	5.810333e+02
2.450000e-06	3.168823e-07	7.981312e-09	2.264529e+00	5.188995e+02
2.460000e-06	1.943737e-07	7.009242e-09	1.389048e+00	4.552418e+02
2.470000e-06	7.180775e-08	6.015308e-09	5.131580e-01	3.905316e+02
2.480000e-06	-5.080111e-08	5.012179e-09	-3.630388e-01	3.251900e+02
2.490000e-06	-1.733918e-07	4.004834e-09	-1.239106e+00	2.595196e+02
2.500000e-06	-2.959460e-07	2.994036e-09	-2.114912e+00	1.936537e+02
2.510000e-06	-4.184260e-07	1.982968e-09	-2.990188e+00	1.275361e+02
2.520000e-06	-5.407879e-07	9.667836e-10	-3.864620e+00	6.093972e+01
2.530000e-06	-6.630110e-07	-6.347919e-11	-4.738060e+00	-6.479126e+00
2.540000e-06	-7.850054e-07	-1.113407e-09	-5.609866e+00	-7.509609e+01
2.550000e-06	-9.067258e-07	-2.184469e-09	-6.479714e+00	-1.452216e+02
2.560000e-06	-1.028184e-06	-3.276672e-09	-7.347686e+00	-2.170082e+02
2.570000e-06	-1.149333e-06	-4.394160e-09	-8.213451e+00	-2.903820e+02
2.580000e-06	-1.270050e-06	-5.534094e-09	-9.076131e+00	-3.650104e+02
2.590000e-06	-1.390238e-06	-6.687489e-09	-9.935026e+00	-4.403144e+02
2.600000e-06	-1.509873e-06	-7.842844e-09	-1.078997e+01	-5.155219e+02
2.610000e-06	-1.628949e-06	-8.983389e-09	-1.164092e+01	-5.897523e+02
2.620000e-06	-1.747488e-06	-1.009178e-08	-1.248804e+01	-6.621165e+02
2.630000e-06	-1.865339e-06	-1.115571e-08	-1.333023e+01	-7.318132e+02
2.640000e-06	-1.982284e-06	-1.216958e-08	-1.416595e+01	-7.982070e+02
2.650000e-06	-2.098284e-06	-1.312863e-08	-1.499492e+01	-8.608736e+02
2.660000e-06	-2.213312e-06	-1.402772e-08	-1.581694e+01	-9.196119e+02
2.670000e-06	-2.327390e-06	-1.486726e-08	-1.663217e+01	-9.744212e+02
2.680000e-06	-2.440583e-06	-1.565039e-08	-1.744108e+01	-1.025456e+03
2.690000e-06	-2.552805e-06	-1.637990e-08	-1.824305e+01	-1.072969e+03
2.700000e-06	-2.663838e-06	-1.705884e-08	-1.903652e+01	-1.117254e+03
2.710000e-06	-2.773804e-06	-1.769194e-08	-1.982237e+01	-1.158602e+03
2.720000e-06	-2.882886e-06	-1.828611e-08	-2.060190e+01	-1.197272e+03
2.730000e-06	-2.991031e-06	-1.884464e-08	-2.137474e+01	-1.233482e+03
2.740000e-06	-3.098272e-06	-1.936703e-08	-2.214111e+01	-1.267413e+03
2.750000e-06	-3.204584e-06	-1.985212e-08	-2.290084e+01	-1.299222e+03
2.760000e-06	-3.309793e-06	-2.030595e-08	-2.365269e+01	-1.329059e+03
2.770000e-06	-3.413717e-06	-2.073382e-08	-2.439537e+01	-1.357072e+03
2.780000e-06	-3.516400e-06	-2.113735e-08	-2.512917e+01	-1.383418e+03
2.790000e-06	-3.617772e-06	-2.152008e-08	-2.585360e+01	-1.408253e+03
2.800000e-06	-3.717766e-06	-2.188317e-08	-2.656818e+01	-1.431726e+03
2.810000e-06	-3.816496e-06	-2.222563e-08	-2.727374e+01	-1.453966e+03
2.820000e-06	-3.913953e-06	-2.254834e-08	-2.797019e+01	-1.475081e+03
2.830000e-06	-4.010114e-06	-2.285292e-08	-2.865739e+01	-1.495148e+03
2.840000e-06	-4.105023e-06	-2.314352e-08	-2.933563e+01	-1.514221e+03
2.850000e-06	-4.198401e-06	-2.342185e-08	-3.000294e+01	-1.532339e+03
2.860000e-06	-4.290104e-06	-2.368614e-08	-3.065827e+01	-1.549532e+03
2.870000e-06	-4.380337e-06	-2.393546e-08	-3.130310e+01	-1.565838e+03
2.880000e-06	-4.469002e-06	-2.417072e-08	-3.193672e+01	-1.581299e+03
2.890000e-06	-4.556126e-06	-2.439485e-08	-3.255934e+01	-1.595971e+03
2.900000e-06	-4.641538e-06	-2.461111e-08	-3.316972e+01	-1.609914e+03
2.910000e-06	-4.725159e-06	-2.481998e-08	-3.376729e+01	-1.623190e+03
2.920000e-06	-4.807230e-06	-2.501797e-08	-3.435380e+01	-1.635854e+03
2.930000e-06	-4.887687e-06	-2.520463e-08	-3.492877e+01	-1.647949e+03
2.940000e-06	-4.966333e-06	-2.538042e-08	-3.549079e+01	-1.659503e+03
