# Temperatura_=_67.32
# Concentracion g/m^3_=_28200.0
# C_Vs_to_Am_M_A/Vsm_=_65563218390.804596
# pendiente_HvsI_1/m_=_3716.3
# ordenada_HvsI_A/m_=_1297.0
# frecuencia_Hz_=_302134.74923167884

Tiempo_(s)	Campo_(V.s)	Magnetizacion_(V.s)	Campo_(kA/m)	Magnetizacion_(A/m)
0.000000e+00	-6.398870e-06	-2.462015e-08	-4.585636e+01	-1.614196e+03
1.000000e-08	-6.395719e-06	-2.461708e-08	-4.583378e+01	-1.613770e+03
2.000000e-08	-6.390516e-06	-2.460841e-08	-4.579649e+01	-1.613111e+03
3.000000e-08	-6.383374e-06	-2.459465e-08	-4.574532e+01	-1.612229e+03
4.000000e-08	-6.374145e-06	-2.457667e-08	-4.567917e+01	-1.611156e+03
5.000000e-08	-6.362636e-06	-2.455676e-08	-4.559670e+01	-1.609941e+03
6.000000e-08	-6.348731e-06	-2.453376e-08	-4.549705e+01	-1.608637e+03
7.000000e-08	-6.332562e-06	-2.450999e-08	-4.538118e+01	-1.607291e+03
8.000000e-08	-6.314377e-06	-2.451696e-08	-4.525086e+01	-1.605928e+03
9.000000e-08	-6.294013e-06	-2.452992e-08	-4.510492e+01	-1.604546e+03
1.000000e-07	-6.271152e-06	-2.448287e-08	-4.494109e+01	-1.603110e+03
1.100000e-07	-6.245716e-06	-2.442397e-08	-4.475881e+01	-1.601560e+03
1.200000e-07	-6.217945e-06	-2.439131e-08	-4.455980e+01	-1.599816e+03
1.300000e-07	-6.188198e-06	-2.430700e-08	-4.434662e+01	-1.597793e+03
1.400000e-07	-6.156848e-06	-2.421989e-08	-4.412195e+01	-1.595422e+03
1.500000e-07	-6.123791e-06	-2.429971e-08	-4.388505e+01	-1.592655e+03
1.600000e-07	-6.088720e-06	-2.424579e-08	-4.363373e+01	-1.589479e+03
1.700000e-07	-6.051710e-06	-2.415092e-08	-4.336850e+01	-1.585914e+03
1.800000e-07	-6.012630e-06	-2.419095e-08	-4.308844e+01	-1.582009e+03
1.900000e-07	-5.971226e-06	-2.407934e-08	-4.279173e+01	-1.577835e+03
2.000000e-07	-5.927590e-06	-2.400308e-08	-4.247902e+01	-1.573464e+03
2.100000e-07	-5.881923e-06	-2.396646e-08	-4.215175e+01	-1.568963e+03
2.200000e-07	-5.833961e-06	-2.386945e-08	-4.180804e+01	-1.564380e+03
2.300000e-07	-5.783480e-06	-2.380048e-08	-4.144628e+01	-1.559735e+03
2.400000e-07	-5.730514e-06	-2.371703e-08	-4.106671e+01	-1.555023e+03
2.500000e-07	-5.675345e-06	-2.366196e-08	-4.067135e+01	-1.550217e+03
2.600000e-07	-5.618087e-06	-2.359690e-08	-4.026102e+01	-1.545270e+03
2.700000e-07	-5.558640e-06	-2.349995e-08	-3.983500e+01	-1.540132e+03
2.800000e-07	-5.497213e-06	-2.341312e-08	-3.939480e+01	-1.534753e+03
2.900000e-07	-5.433860e-06	-2.329738e-08	-3.894079e+01	-1.529092e+03
3.000000e-07	-5.368461e-06	-2.322771e-08	-3.847212e+01	-1.523122e+03
3.100000e-07	-5.300954e-06	-2.315700e-08	-3.798834e+01	-1.516830e+03
3.200000e-07	-5.231433e-06	-2.305625e-08	-3.749013e+01	-1.510216e+03
3.300000e-07	-5.160164e-06	-2.293653e-08	-3.697939e+01	-1.503287e+03
3.400000e-07	-5.087043e-06	-2.280735e-08	-3.645539e+01	-1.496055e+03
3.500000e-07	-5.011791e-06	-2.269606e-08	-3.591611e+01	-1.488528e+03
3.600000e-07	-4.934453e-06	-2.256993e-08	-3.536188e+01	-1.480713e+03
3.700000e-07	-4.855052e-06	-2.246318e-08	-3.479286e+01	-1.472606e+03
3.800000e-07	-4.773759e-06	-2.234495e-08	-3.421029e+01	-1.464198e+03
3.900000e-07	-4.690917e-06	-2.219967e-08	-3.361662e+01	-1.455474e+03
4.000000e-07	-4.606648e-06	-2.204792e-08	-3.301272e+01	-1.446414e+03
4.100000e-07	-4.520896e-06	-2.189607e-08	-3.239819e+01	-1.436997e+03
4.200000e-07	-4.433753e-06	-2.175309e-08	-3.177370e+01	-1.427202e+03
4.300000e-07	-4.345135e-06	-2.160101e-08	-3.113863e+01	-1.417012e+03
4.400000e-07	-4.254903e-06	-2.144362e-08	-3.049200e+01	-1.406413e+03
4.500000e-07	-4.163027e-06	-2.127621e-08	-2.983359e+01	-1.395391e+03
4.600000e-07	-4.069624e-06	-2.109997e-08	-2.916424e+01	-1.383936e+03
4.700000e-07	-3.974965e-06	-2.091737e-08	-2.848588e+01	-1.372035e+03
4.800000e-07	-3.878896e-06	-2.072908e-08	-2.779742e+01	-1.359671e+03
4.900000e-07	-3.781308e-06	-2.053000e-08	-2.709807e+01	-1.346824e+03
5.000000e-07	-3.682312e-06	-2.031769e-08	-2.638863e+01	-1.333464e+03
5.100000e-07	-3.581893e-06	-2.010290e-08	-2.566900e+01	-1.319561e+03
5.200000e-07	-3.480168e-06	-1.987942e-08	-2.494000e+01	-1.305078e+03
5.300000e-07	-3.377300e-06	-1.964672e-08	-2.420282e+01	-1.289976e+03
5.400000e-07	-3.273225e-06	-1.940714e-08	-2.345699e+01	-1.274217e+03
5.500000e-07	-3.167871e-06	-1.915845e-08	-2.270198e+01	-1.257765e+03
5.600000e-07	-3.061279e-06	-1.889783e-08	-2.193811e+01	-1.240585e+03
5.700000e-07	-2.953502e-06	-1.862372e-08	-2.116574e+01	-1.222640e+03
5.800000e-07	-2.844605e-06	-1.833526e-08	-2.038536e+01	-1.203893e+03
5.900000e-07	-2.734731e-06	-1.803204e-08	-1.959796e+01	-1.184299e+03
6.000000e-07	-2.623961e-06	-1.771301e-08	-1.880415e+01	-1.163804e+03
6.100000e-07	-2.512219e-06	-1.737926e-08	-1.800337e+01	-1.142341e+03
6.200000e-07	-2.399416e-06	-1.703167e-08	-1.719499e+01	-1.119834e+03
6.300000e-07	-2.285591e-06	-1.667143e-08	-1.637928e+01	-1.096197e+03
6.400000e-07	-2.170797e-06	-1.629540e-08	-1.555663e+01	-1.071336e+03
6.500000e-07	-2.055113e-06	-1.589745e-08	-1.472760e+01	-1.045155e+03
6.600000e-07	-1.938630e-06	-1.547360e-08	-1.389285e+01	-1.017557e+03
6.700000e-07	-1.821464e-06	-1.502706e-08	-1.305320e+01	-9.884417e+02
6.800000e-07	-1.703717e-06	-1.456058e-08	-1.220938e+01	-9.577077e+02
6.900000e-07	-1.585424e-06	-1.406833e-08	-1.136166e+01	-9.252461e+02
7.000000e-07	-1.466661e-06	-1.354472e-08	-1.051056e+01	-8.909387e+02
7.100000e-07	-1.347434e-06	-1.298902e-08	-9.656146e+00	-8.546575e+02
7.200000e-07	-1.227697e-06	-1.240142e-08	-8.798073e+00	-8.162698e+02
7.300000e-07	-1.107544e-06	-1.177854e-08	-7.937015e+00	-7.756493e+02
7.400000e-07	-9.870494e-07	-1.112274e-08	-7.073514e+00	-7.326946e+02
7.500000e-07	-8.661977e-07	-1.043565e-08	-6.207451e+00	-6.873518e+02
7.600000e-07	-7.450447e-07	-9.713538e-09	-5.339230e+00	-6.396377e+02
7.700000e-07	-6.236327e-07	-8.951693e-09	-4.469152e+00	-5.896587e+02
7.800000e-07	-5.020282e-07	-8.155753e-09	-3.597696e+00	-5.376189e+02
7.900000e-07	-3.802105e-07	-7.334979e-09	-2.724711e+00	-4.838139e+02
8.000000e-07	-2.582146e-07	-6.491775e-09	-1.850449e+00	-4.286068e+02
8.100000e-07	-1.361394e-07	-5.635437e-09	-9.756186e-01	-3.723900e+02
8.200000e-07	-1.395847e-08	-4.772084e-09	-1.000309e-01	-3.155351e+02
8.300000e-07	1.082841e-07	-3.903521e-09	7.759989e-01	-2.583415e+02
8.400000e-07	2.305219e-07	-3.032238e-09	1.651994e+00	-2.009920e+02
8.500000e-07	3.526710e-07	-2.157548e-09	2.527354e+00	-1.435259e+02
8.600000e-07	4.746943e-07	-1.275844e-09	3.401812e+00	-8.583663e+01
8.700000e-07	5.965695e-07	-3.857649e-10	4.275209e+00	-2.769687e+01
8.800000e-07	7.182422e-07	5.115358e-10	5.147155e+00	3.119128e+01
8.900000e-07	8.396513e-07	1.422444e-09	6.017211e+00	9.112792e+01
9.000000e-07	9.607968e-07	2.352888e-09	6.885379e+00	1.523407e+02
9.100000e-07	1.081660e-06	3.304238e-09	7.751521e+00	2.149174e+02
9.200000e-07	1.202115e-06	4.275118e-09	8.614746e+00	2.787577e+02
9.300000e-07	1.322108e-06	5.262063e-09	9.474649e+00	3.435545e+02
9.400000e-07	1.441628e-06	6.255844e-09	1.033117e+01	4.088077e+02
9.500000e-07	1.560601e-06	7.245712e-09	1.118377e+01	4.738697e+02
9.600000e-07	1.678988e-06	8.222261e-09	1.203217e+01	5.380127e+02
9.700000e-07	1.796774e-06	9.173368e-09	1.287626e+01	6.005083e+02
9.800000e-07	1.913902e-06	1.008780e-08	1.371564e+01	6.607035e+02
9.900000e-07	2.030325e-06	1.095840e-08	1.454996e+01	7.180817e+02
1.000000e-06	2.145882e-06	1.178193e-08	1.537808e+01	7.722999e+02
1.010000e-06	2.260394e-06	1.255268e-08	1.619871e+01	8.231973e+02
1.020000e-06	2.373919e-06	1.327207e-08	1.701226e+01	8.707782e+02
1.030000e-06	2.486507e-06	1.394629e-08	1.781911e+01	9.151745e+02
1.040000e-06	2.598036e-06	1.457576e-08	1.861836e+01	9.565990e+02
1.050000e-06	2.708587e-06	1.516362e-08	1.941061e+01	9.952979e+02
1.060000e-06	2.818241e-06	1.571360e-08	2.019642e+01	1.031512e+03
1.070000e-06	2.926983e-06	1.623093e-08	2.097570e+01	1.065455e+03
1.080000e-06	3.034837e-06	1.671366e-08	2.174862e+01	1.097301e+03
1.090000e-06	3.141564e-06	1.716476e-08	2.251346e+01	1.127190e+03
1.100000e-06	3.247026e-06	1.758855e-08	2.326924e+01	1.155246e+03
1.110000e-06	3.351283e-06	1.798666e-08	2.401637e+01	1.181583e+03
1.120000e-06	3.454296e-06	1.836193e-08	2.475460e+01	1.206322e+03
1.130000e-06	3.556118e-06	1.871544e-08	2.548429e+01	1.229593e+03
1.140000e-06	3.656875e-06	1.904970e-08	2.620634e+01	1.251532e+03
1.150000e-06	3.756355e-06	1.936697e-08	2.691925e+01	1.272272e+03
1.160000e-06	3.854339e-06	1.966976e-08	2.762143e+01	1.291931e+03
1.170000e-06	3.950868e-06	1.995681e-08	2.831319e+01	1.310605e+03
1.180000e-06	4.045966e-06	2.022837e-08	2.899470e+01	1.328360e+03
1.190000e-06	4.139693e-06	2.048328e-08	2.966637e+01	1.345236e+03
1.200000e-06	4.232186e-06	2.072341e-08	3.032921e+01	1.361257e+03
1.210000e-06	4.323250e-06	2.095178e-08	3.098180e+01	1.376440e+03
1.220000e-06	4.412656e-06	2.116846e-08	3.162251e+01	1.390807e+03
1.230000e-06	4.500352e-06	2.137310e-08	3.225097e+01	1.404398e+03
1.240000e-06	4.586352e-06	2.156986e-08	3.286728e+01	1.417265e+03
1.250000e-06	4.670866e-06	2.175905e-08	3.347293e+01	1.429477e+03
1.260000e-06	4.753835e-06	2.193863e-08	3.406751e+01	1.441106e+03
1.270000e-06	4.835008e-06	2.210972e-08	3.464923e+01	1.452219e+03
1.280000e-06	4.914325e-06	2.227258e-08	3.521764e+01	1.462864e+03
1.290000e-06	4.991851e-06	2.242845e-08	3.577321e+01	1.473069e+03
1.300000e-06	5.067494e-06	2.257716e-08	3.631529e+01	1.482836e+03
1.310000e-06	5.141137e-06	2.271859e-08	3.684304e+01	1.492151e+03
1.320000e-06	5.212784e-06	2.285360e-08	3.735649e+01	1.500991e+03
1.330000e-06	5.282544e-06	2.298146e-08	3.785641e+01	1.509337e+03
1.340000e-06	5.350452e-06	2.310177e-08	3.834306e+01	1.517181e+03
1.350000e-06	5.416370e-06	2.321580e-08	3.881545e+01	1.524538e+03
1.360000e-06	5.480267e-06	2.332342e-08	3.927336e+01	1.531437e+03
1.370000e-06	5.542258e-06	2.342529e-08	3.971761e+01	1.537927e+03
1.380000e-06	5.602465e-06	2.352216e-08	4.014907e+01	1.544059e+03
1.390000e-06	5.660760e-06	2.361271e-08	4.056683e+01	1.549881e+03
1.400000e-06	5.716965e-06	2.369709e-08	4.096961e+01	1.555431e+03
1.410000e-06	5.771114e-06	2.377669e-08	4.135766e+01	1.560729e+03
1.420000e-06	5.822931e-06	2.385205e-08	4.172900e+01	1.565780e+03
1.430000e-06	5.872223e-06	2.392354e-08	4.208224e+01	1.570575e+03
1.440000e-06	5.919274e-06	2.399272e-08	4.241942e+01	1.575105e+03
1.450000e-06	5.964410e-06	2.405976e-08	4.274288e+01	1.579358e+03
1.460000e-06	6.007561e-06	2.412369e-08	4.305212e+01	1.583333e+03
1.470000e-06	6.048455e-06	2.418458e-08	4.334518e+01	1.587035e+03
1.480000e-06	6.087138e-06	2.424119e-08	4.362239e+01	1.590479e+03
1.490000e-06	6.123806e-06	2.429238e-08	4.388516e+01	1.593680e+03
1.500000e-06	6.158386e-06	2.433719e-08	4.413297e+01	1.596652e+03
1.510000e-06	6.190699e-06	2.437583e-08	4.436454e+01	1.599400e+03
1.520000e-06	6.220844e-06	2.441113e-08	4.458057e+01	1.601920e+03
1.530000e-06	6.248916e-06	2.444503e-08	4.478175e+01	1.604201e+03
1.540000e-06	6.274664e-06	2.447747e-08	4.496626e+01	1.606228e+03
1.550000e-06	6.297927e-06	2.450626e-08	4.513297e+01	1.607992e+03
1.560000e-06	6.318986e-06	2.453099e-08	4.528388e+01	1.609490e+03
1.570000e-06	6.337957e-06	2.455263e-08	4.541984e+01	1.610734e+03
1.580000e-06	6.354600e-06	2.457090e-08	4.553911e+01	1.611747e+03
1.590000e-06	6.368866e-06	2.458523e-08	4.564134e+01	1.612561e+03
1.600000e-06	6.380732e-06	2.459614e-08	4.572638e+01	1.613208e+03
1.610000e-06	6.389998e-06	2.460489e-08	4.579278e+01	1.613715e+03
1.620000e-06	6.396766e-06	2.461128e-08	4.584129e+01	1.614092e+03
1.630000e-06	6.401351e-06	2.461501e-08	4.587414e+01	1.614334e+03
1.640000e-06	6.403778e-06	2.461679e-08	4.589154e+01	1.614421e+03
1.650000e-06	6.403927e-06	2.461655e-08	4.589260e+01	1.614323e+03
1.660000e-06	6.401945e-06	2.461095e-08	4.587840e+01	1.614012e+03
1.670000e-06	6.397886e-06	2.460274e-08	4.584931e+01	1.613470e+03
1.680000e-06	6.391620e-06	2.459429e-08	4.580441e+01	1.612696e+03
1.690000e-06	6.383229e-06	2.458473e-08	4.574428e+01	1.611714e+03
1.700000e-06	6.372831e-06	2.457248e-08	4.566976e+01	1.610563e+03
1.710000e-06	6.360254e-06	2.455737e-08	4.557963e+01	1.609297e+03
1.720000e-06	6.345426e-06	2.454225e-08	4.547336e+01	1.607967e+03
1.730000e-06	6.328585e-06	2.448331e-08	4.535268e+01	1.606611e+03
1.740000e-06	6.309624e-06	2.442397e-08	4.521680e+01	1.605240e+03
1.750000e-06	6.287832e-06	2.442725e-08	4.506063e+01	1.603838e+03
1.760000e-06	6.262910e-06	2.442757e-08	4.488203e+01	1.602354e+03
1.770000e-06	6.235574e-06	2.439877e-08	4.468613e+01	1.600717e+03
1.780000e-06	6.206306e-06	2.444215e-08	4.447639e+01	1.598844e+03
1.790000e-06	6.175419e-06	2.440658e-08	4.425504e+01	1.596655e+03
1.800000e-06	6.143147e-06	2.436932e-08	4.402377e+01	1.594090e+03
1.810000e-06	6.108951e-06	2.438151e-08	4.377871e+01	1.591118e+03
1.820000e-06	6.072691e-06	2.418567e-08	4.351886e+01	1.587742e+03
1.830000e-06	6.034403e-06	2.409602e-08	4.324447e+01	1.584000e+03
1.840000e-06	5.993798e-06	2.409046e-08	4.295349e+01	1.579951e+03
1.850000e-06	5.951109e-06	2.397411e-08	4.264756e+01	1.575669e+03
1.860000e-06	5.906385e-06	2.395102e-08	4.232705e+01	1.571226e+03
1.870000e-06	5.859432e-06	2.388039e-08	4.199058e+01	1.566680e+03
1.880000e-06	5.810389e-06	2.383314e-08	4.163912e+01	1.562065e+03
1.890000e-06	5.758937e-06	2.378240e-08	4.127040e+01	1.557389e+03
1.900000e-06	5.704935e-06	2.362562e-08	4.088340e+01	1.552634e+03
1.910000e-06	5.648658e-06	2.359910e-08	4.048010e+01	1.547764e+03
1.920000e-06	5.590354e-06	2.351809e-08	4.006228e+01	1.542728e+03
1.930000e-06	5.530131e-06	2.343498e-08	3.963070e+01	1.537475e+03
1.940000e-06	5.467774e-06	2.338687e-08	3.918382e+01	1.531959e+03
1.950000e-06	5.403295e-06	2.326759e-08	3.872175e+01	1.526146e+03
1.960000e-06	5.336892e-06	2.319433e-08	3.824588e+01	1.520016e+03
1.970000e-06	5.268511e-06	2.306107e-08	3.775585e+01	1.513563e+03
1.980000e-06	5.198055e-06	2.296014e-08	3.725093e+01	1.506790e+03
1.990000e-06	5.125590e-06	2.288108e-08	3.673163e+01	1.499708e+03
2.000000e-06	5.051306e-06	2.277367e-08	3.619928e+01	1.492328e+03
2.010000e-06	4.974978e-06	2.266671e-08	3.565229e+01	1.484657e+03
2.020000e-06	4.896563e-06	2.250867e-08	3.509035e+01	1.476696e+03
2.030000e-06	4.816314e-06	2.239397e-08	3.451526e+01	1.468441e+03
2.040000e-06	4.734361e-06	2.226449e-08	3.392796e+01	1.459877e+03
2.050000e-06	4.650997e-06	2.213963e-08	3.333054e+01	1.450988e+03
2.060000e-06	4.565973e-06	2.201207e-08	3.272123e+01	1.441751e+03
2.070000e-06	4.479196e-06	2.186193e-08	3.209936e+01	1.432148e+03
2.080000e-06	4.390825e-06	2.170863e-08	3.146607e+01	1.422158e+03
2.090000e-06	4.300888e-06	2.153117e-08	3.082155e+01	1.411765e+03
2.100000e-06	4.209617e-06	2.137123e-08	3.016747e+01	1.400956e+03
2.110000e-06	4.116907e-06	2.120177e-08	2.950308e+01	1.389719e+03
2.120000e-06	4.022665e-06	2.103054e-08	2.882771e+01	1.378042e+03
2.130000e-06	3.927028e-06	2.084646e-08	2.814235e+01	1.365912e+03
2.140000e-06	3.829972e-06	2.065969e-08	2.744681e+01	1.353310e+03
2.150000e-06	3.731554e-06	2.046256e-08	2.674152e+01	1.340210e+03
2.160000e-06	3.631918e-06	2.025393e-08	2.602750e+01	1.326583e+03
2.170000e-06	3.530932e-06	2.004344e-08	2.530379e+01	1.312395e+03
2.180000e-06	3.428484e-06	1.981541e-08	2.456962e+01	1.297607e+03
2.190000e-06	3.324716e-06	1.957975e-08	2.382599e+01	1.282181e+03
2.200000e-06	3.219691e-06	1.933176e-08	2.307334e+01	1.266080e+03
2.210000e-06	3.113524e-06	1.907879e-08	2.231252e+01	1.249268e+03
2.220000e-06	3.006309e-06	1.881160e-08	2.154418e+01	1.231710e+03
2.230000e-06	2.898036e-06	1.853486e-08	2.076826e+01	1.213370e+03
2.240000e-06	2.788722e-06	1.824798e-08	1.998488e+01	1.194205e+03
2.250000e-06	2.678335e-06	1.795190e-08	1.919381e+01	1.174168e+03
2.260000e-06	2.566962e-06	1.763696e-08	1.839567e+01	1.153198e+03
2.270000e-06	2.454616e-06	1.729907e-08	1.759057e+01	1.131223e+03
2.280000e-06	2.341247e-06	1.694340e-08	1.677813e+01	1.108162e+03
2.290000e-06	2.226964e-06	1.657116e-08	1.595914e+01	1.083925e+03
2.300000e-06	2.111830e-06	1.618383e-08	1.513405e+01	1.058417e+03
2.310000e-06	1.995844e-06	1.577761e-08	1.430286e+01	1.031539e+03
2.320000e-06	1.879067e-06	1.535149e-08	1.346600e+01	1.003195e+03
2.330000e-06	1.761599e-06	1.489769e-08	1.262418e+01	9.732837e+02
2.340000e-06	1.643419e-06	1.441512e-08	1.177727e+01	9.417000e+02
2.350000e-06	1.524573e-06	1.390362e-08	1.092558e+01	9.083309e+02
2.360000e-06	1.405152e-06	1.336503e-08	1.006977e+01	8.730531e+02
2.370000e-06	1.285235e-06	1.279573e-08	9.210405e+00	8.357352e+02
2.380000e-06	1.164939e-06	1.219220e-08	8.348325e+00	7.962458e+02
2.390000e-06	1.044231e-06	1.155380e-08	7.483292e+00	7.544685e+02
2.400000e-06	9.231833e-07	1.087853e-08	6.615829e+00	7.103226e+02
2.410000e-06	8.018770e-07	1.016818e-08	5.746508e+00	6.637868e+02
2.420000e-06	6.803042e-07	9.424474e-09	4.875279e+00	6.149209e+02
2.430000e-06	5.585185e-07	8.649351e-09	4.002523e+00	5.638799e+02
2.440000e-06	4.366225e-07	7.843018e-09	3.128977e+00	5.109155e+02
2.450000e-06	3.146321e-07	7.008422e-09	2.254755e+00	4.563612e+02
2.460000e-06	1.925103e-07	6.155117e-09	1.379591e+00	4.006003e+02
2.470000e-06	7.025678e-08	5.288862e-09	5.034827e-01	3.440213e+02
2.480000e-06	-5.206661e-08	4.414014e-09	-3.731261e-01	2.869661e+02
2.490000e-06	-1.743151e-07	3.536740e-09	-1.249198e+00	2.296802e+02
2.500000e-06	-2.965054e-07	2.660647e-09	-2.124853e+00	1.722769e+02
2.510000e-06	-4.186612e-07	1.783809e-09	-3.000261e+00	1.147210e+02
2.520000e-06	-5.407183e-07	9.009415e-10	-3.874961e+00	5.684077e+01
2.530000e-06	-6.625961e-07	7.894005e-12	-4.748377e+00	-1.634077e+00
2.540000e-06	-7.842547e-07	-9.001305e-10	-5.620222e+00	-6.101175e+01
2.550000e-06	-9.056866e-07	-1.823604e-09	-6.490442e+00	-1.215654e+02
2.560000e-06	-1.026833e-06	-2.766172e-09	-7.358612e+00	-1.834601e+02
2.570000e-06	-1.147664e-06	-3.731355e-09	-8.224529e+00	-2.466940e+02
2.580000e-06	-1.268134e-06	-4.715445e-09	-9.087854e+00	-3.110636e+02
2.590000e-06	-1.388195e-06	-5.713094e-09	-9.948250e+00	-3.761618e+02
2.600000e-06	-1.507748e-06	-6.715331e-09	-1.080501e+01	-4.414071e+02
2.610000e-06	-1.626595e-06	-7.710045e-09	-1.165671e+01	-5.061025e+02
2.620000e-06	-1.744639e-06	-8.679841e-09	-1.250265e+01	-5.695098e+02
2.630000e-06	-1.861885e-06	-9.614770e-09	-1.334286e+01	-6.309295e+02
2.640000e-06	-1.978347e-06	-1.051171e-08	-1.417747e+01	-6.897705e+02
2.650000e-06	-2.094000e-06	-1.136581e-08	-1.500628e+01	-7.456000e+02
2.660000e-06	-2.208812e-06	-1.217206e-08	-1.582906e+01	-7.981669e+02
2.670000e-06	-2.322628e-06	-1.292712e-08	-1.664470e+01	-8.473965e+02
2.680000e-06	-2.435325e-06	-1.363216e-08	-1.745232e+01	-8.933624e+02
2.690000e-06	-2.546995e-06	-1.429069e-08	-1.825258e+01	-9.362431e+02
2.700000e-06	-2.657635e-06	-1.490634e-08	-1.904546e+01	-9.762736e+02
2.710000e-06	-2.767262e-06	-1.548332e-08	-1.983109e+01	-1.013702e+03
2.720000e-06	-2.876032e-06	-1.602499e-08	-2.061057e+01	-1.048756e+03
2.730000e-06	-2.983948e-06	-1.652936e-08	-2.138393e+01	-1.081630e+03
2.740000e-06	-3.090930e-06	-1.699841e-08	-2.215060e+01	-1.112482e+03
2.750000e-06	-3.196874e-06	-1.743759e-08	-2.290983e+01	-1.141440e+03
2.760000e-06	-3.301742e-06	-1.785082e-08	-2.366135e+01	-1.168622e+03
2.770000e-06	-3.405436e-06	-1.824244e-08	-2.440445e+01	-1.194144e+03
2.780000e-06	-3.507798e-06	-1.861240e-08	-2.513801e+01	-1.218132e+03
2.790000e-06	-3.608784e-06	-1.896106e-08	-2.586170e+01	-1.240720e+03
2.800000e-06	-3.708479e-06	-1.928947e-08	-2.657615e+01	-1.262044e+03
2.810000e-06	-3.806897e-06	-1.959788e-08	-2.728145e+01	-1.282230e+03
2.820000e-06	-3.904089e-06	-1.989044e-08	-2.797796e+01	-1.301387e+03
2.830000e-06	-4.000109e-06	-2.016705e-08	-2.866607e+01	-1.319594e+03
2.840000e-06	-4.094682e-06	-2.042904e-08	-2.934381e+01	-1.336906e+03
2.850000e-06	-4.187722e-06	-2.067846e-08	-3.001057e+01	-1.353352e+03
2.860000e-06	-4.279301e-06	-2.091629e-08	-3.066685e+01	-1.368952e+03
2.870000e-06	-4.369361e-06	-2.114367e-08	-3.131225e+01	-1.383724e+03
2.880000e-06	-4.457880e-06	-2.135914e-08	-3.194660e+01	-1.397697e+03
2.890000e-06	-4.544692e-06	-2.156260e-08	-3.256872e+01	-1.410918e+03
2.900000e-06	-4.629726e-06	-2.175482e-08	-3.317811e+01	-1.423448e+03
2.910000e-06	-4.713192e-06	-2.193841e-08	-3.377625e+01	-1.435360e+03
2.920000e-06	-4.795093e-06	-2.211248e-08	-3.436318e+01	-1.446723e+03
2.930000e-06	-4.875225e-06	-2.227714e-08	-3.493743e+01	-1.457598e+03
2.940000e-06	-4.953410e-06	-2.243469e-08	-3.549773e+01	-1.468021e+03
