# Temperatura_=_87.13
# Concentracion g/m^3_=_28200.0
# C_Vs_to_Am_M_A/Vsm_=_65563218390.804596
# pendiente_HvsI_1/m_=_3716.3
# ordenada_HvsI_A/m_=_1297.0
# frecuencia_Hz_=_302135.3862287026

Tiempo_(s)	Campo_(V.s)	Magnetizacion_(V.s)	Campo_(kA/m)	Magnetizacion_(A/m)
0.000000e+00	-6.399321e-06	-3.003811e-08	-4.585538e+01	-1.966930e+03
1.000000e-08	-6.396454e-06	-3.003825e-08	-4.583483e+01	-1.966375e+03
2.000000e-08	-6.391496e-06	-3.002866e-08	-4.579931e+01	-1.965646e+03
3.000000e-08	-6.384572e-06	-3.001626e-08	-4.574969e+01	-1.964734e+03
4.000000e-08	-6.375531e-06	-2.999814e-08	-4.568491e+01	-1.963617e+03
5.000000e-08	-6.364190e-06	-2.997088e-08	-4.560364e+01	-1.962270e+03
6.000000e-08	-6.350505e-06	-2.994443e-08	-4.550558e+01	-1.960668e+03
7.000000e-08	-6.334471e-06	-2.991300e-08	-4.539068e+01	-1.958797e+03
8.000000e-08	-6.316276e-06	-2.988241e-08	-4.526030e+01	-1.956662e+03
9.000000e-08	-6.295990e-06	-2.992868e-08	-4.511494e+01	-1.954293e+03
1.000000e-07	-6.273328e-06	-2.988605e-08	-4.495256e+01	-1.951742e+03
1.100000e-07	-6.248083e-06	-2.977239e-08	-4.477166e+01	-1.949076e+03
1.200000e-07	-6.220448e-06	-2.972599e-08	-4.457363e+01	-1.946367e+03
1.300000e-07	-6.190885e-06	-2.968293e-08	-4.436180e+01	-1.943671e+03
1.400000e-07	-6.159684e-06	-2.955102e-08	-4.413822e+01	-1.941015e+03
1.500000e-07	-6.126794e-06	-2.958803e-08	-4.390254e+01	-1.938388e+03
1.600000e-07	-6.091901e-06	-2.965506e-08	-4.365251e+01	-1.935731e+03
1.700000e-07	-6.055040e-06	-2.940141e-08	-4.338837e+01	-1.932953e+03
1.800000e-07	-6.016233e-06	-2.945419e-08	-4.311030e+01	-1.929938e+03
1.900000e-07	-5.975029e-06	-2.942481e-08	-4.281504e+01	-1.926569e+03
2.000000e-07	-5.931534e-06	-2.921765e-08	-4.250337e+01	-1.922749e+03
2.100000e-07	-5.886029e-06	-2.925737e-08	-4.217730e+01	-1.918416e+03
2.200000e-07	-5.838315e-06	-2.913542e-08	-4.183540e+01	-1.913557e+03
2.300000e-07	-5.788110e-06	-2.902810e-08	-4.147565e+01	-1.908201e+03
2.400000e-07	-5.735381e-06	-2.896761e-08	-4.109781e+01	-1.902413e+03
2.500000e-07	-5.680444e-06	-2.885480e-08	-4.070415e+01	-1.896276e+03
2.600000e-07	-5.623321e-06	-2.878754e-08	-4.029482e+01	-1.889864e+03
2.700000e-07	-5.564078e-06	-2.867413e-08	-3.987031e+01	-1.883233e+03
2.800000e-07	-5.502875e-06	-2.858263e-08	-3.943175e+01	-1.876403e+03
2.900000e-07	-5.439692e-06	-2.845123e-08	-3.897900e+01	-1.869356e+03
3.000000e-07	-5.374476e-06	-2.832499e-08	-3.851168e+01	-1.862049e+03
3.100000e-07	-5.307142e-06	-2.824468e-08	-3.802919e+01	-1.854423e+03
3.200000e-07	-5.237740e-06	-2.809856e-08	-3.753188e+01	-1.846420e+03
3.300000e-07	-5.166481e-06	-2.798785e-08	-3.702126e+01	-1.837998e+03
3.400000e-07	-5.093430e-06	-2.783429e-08	-3.649780e+01	-1.829142e+03
3.500000e-07	-5.018365e-06	-2.768204e-08	-3.595991e+01	-1.819860e+03
3.600000e-07	-4.941184e-06	-2.754714e-08	-3.540686e+01	-1.810180e+03
3.700000e-07	-4.861950e-06	-2.738895e-08	-3.483910e+01	-1.800133e+03
3.800000e-07	-4.780837e-06	-2.725700e-08	-3.425786e+01	-1.789745e+03
3.900000e-07	-4.698093e-06	-2.708012e-08	-3.366495e+01	-1.779019e+03
4.000000e-07	-4.613894e-06	-2.690572e-08	-3.306161e+01	-1.767938e+03
4.100000e-07	-4.528292e-06	-2.672681e-08	-3.244822e+01	-1.756462e+03
4.200000e-07	-4.441296e-06	-2.654773e-08	-3.182483e+01	-1.744538e+03
4.300000e-07	-4.352811e-06	-2.636222e-08	-3.119078e+01	-1.732114e+03
4.400000e-07	-4.262739e-06	-2.615394e-08	-3.054535e+01	-1.719147e+03
4.500000e-07	-4.171048e-06	-2.595595e-08	-2.988832e+01	-1.705616e+03
4.600000e-07	-4.077733e-06	-2.573602e-08	-2.921966e+01	-1.691514e+03
4.700000e-07	-3.983073e-06	-2.551926e-08	-2.854136e+01	-1.676854e+03
4.800000e-07	-3.887086e-06	-2.529479e-08	-2.785355e+01	-1.661647e+03
4.900000e-07	-3.789668e-06	-2.505802e-08	-2.715548e+01	-1.645897e+03
5.000000e-07	-3.690791e-06	-2.480103e-08	-2.644697e+01	-1.629591e+03
5.100000e-07	-3.590480e-06	-2.453600e-08	-2.572817e+01	-1.612689e+03
5.200000e-07	-3.488922e-06	-2.426794e-08	-2.500044e+01	-1.595132e+03
5.300000e-07	-3.386269e-06	-2.398363e-08	-2.426486e+01	-1.576847e+03
5.400000e-07	-3.282410e-06	-2.369624e-08	-2.352064e+01	-1.557760e+03
5.500000e-07	-3.177223e-06	-2.339223e-08	-2.276691e+01	-1.537804e+03
5.600000e-07	-3.070772e-06	-2.307662e-08	-2.200412e+01	-1.516931e+03
5.700000e-07	-2.963062e-06	-2.274163e-08	-2.123231e+01	-1.495108e+03
5.800000e-07	-2.854200e-06	-2.239464e-08	-2.045223e+01	-1.472314e+03
5.900000e-07	-2.744354e-06	-2.203215e-08	-1.966512e+01	-1.448523e+03
6.000000e-07	-2.633669e-06	-2.165218e-08	-1.887198e+01	-1.423696e+03
6.100000e-07	-2.522003e-06	-2.125320e-08	-1.807182e+01	-1.397767e+03
6.200000e-07	-2.409258e-06	-2.083541e-08	-1.726393e+01	-1.370638e+03
6.300000e-07	-2.295519e-06	-2.040022e-08	-1.644891e+01	-1.342184e+03
6.400000e-07	-2.180815e-06	-1.994166e-08	-1.562699e+01	-1.312259e+03
6.500000e-07	-2.065194e-06	-1.946184e-08	-1.479849e+01	-1.280715e+03
6.600000e-07	-1.948714e-06	-1.895341e-08	-1.396383e+01	-1.247409e+03
6.700000e-07	-1.831503e-06	-1.841747e-08	-1.312393e+01	-1.212214e+03
6.800000e-07	-1.713778e-06	-1.785458e-08	-1.228035e+01	-1.175018e+03
6.900000e-07	-1.595632e-06	-1.726016e-08	-1.143376e+01	-1.135715e+03
7.000000e-07	-1.476980e-06	-1.662832e-08	-1.058354e+01	-1.094193e+03
7.100000e-07	-1.357788e-06	-1.595798e-08	-9.729453e+00	-1.050322e+03
7.200000e-07	-1.238072e-06	-1.525064e-08	-8.871606e+00	-1.003948e+03
7.300000e-07	-1.117882e-06	-1.450039e-08	-8.010365e+00	-9.549005e+02
7.400000e-07	-9.972938e-07	-1.370554e-08	-7.146271e+00	-9.030139e+02
7.500000e-07	-8.763378e-07	-1.286969e-08	-6.279542e+00	-8.481609e+02
7.600000e-07	-7.550697e-07	-1.199155e-08	-5.410575e+00	-7.902930e+02
7.700000e-07	-6.335830e-07	-1.106295e-08	-4.540043e+00	-7.294768e+02
7.800000e-07	-5.119210e-07	-1.009321e-08	-3.668254e+00	-6.659160e+02
7.900000e-07	-3.900783e-07	-9.091384e-09	-2.795170e+00	-5.999507e+02
8.000000e-07	-2.681222e-07	-8.060383e-09	-1.921273e+00	-5.320290e+02
8.100000e-07	-1.460792e-07	-7.007188e-09	-1.046754e+00	-4.626528e+02
8.200000e-07	-2.390464e-08	-5.939637e-09	-1.712926e-01	-3.923056e+02
8.300000e-07	9.834817e-08	-4.863307e-09	7.047298e-01	-3.213768e+02
8.400000e-07	2.205550e-07	-3.776556e-09	1.580423e+00	-2.500975e+02
8.500000e-07	3.426692e-07	-2.684463e-09	2.455452e+00	-1.785041e+02
8.600000e-07	4.647076e-07	-1.583939e-09	3.329938e+00	-1.064385e+02
8.700000e-07	5.865980e-07	-4.725366e-10	4.203364e+00	-3.358997e+01
8.800000e-07	7.082982e-07	6.551139e-10	5.075426e+00	4.042828e+01
8.900000e-07	8.298133e-07	1.806584e-09	5.946162e+00	1.159800e+02
9.000000e-07	9.510884e-07	2.982637e-09	6.815179e+00	1.933030e+02
9.100000e-07	1.072011e-06	4.182952e-09	7.681670e+00	2.724226e+02
9.200000e-07	1.192514e-06	5.408719e-09	8.545157e+00	3.530976e+02
9.300000e-07	1.312567e-06	6.653989e-09	9.405416e+00	4.348111e+02
9.400000e-07	1.432153e-06	7.904809e-09	1.026233e+01	5.168065e+02
9.500000e-07	1.551218e-06	9.146977e-09	1.111551e+01	5.981640e+02
9.600000e-07	1.669646e-06	1.036229e-08	1.196412e+01	6.779008e+02
9.700000e-07	1.787446e-06	1.153332e-08	1.280824e+01	7.550803e+02
9.800000e-07	1.904617e-06	1.265107e-08	1.364784e+01	8.289071e+02
9.900000e-07	2.021077e-06	1.371184e-08	1.448236e+01	8.987968e+02
1.000000e-06	2.136663e-06	1.470996e-08	1.531061e+01	9.644088e+02
1.010000e-06	2.251261e-06	1.563855e-08	1.613177e+01	1.025641e+03
1.020000e-06	2.364888e-06	1.649883e-08	1.694599e+01	1.082595e+03
1.030000e-06	2.477517e-06	1.729936e-08	1.775305e+01	1.135517e+03
1.040000e-06	2.589172e-06	1.804909e-08	1.855313e+01	1.184734e+03
1.050000e-06	2.699878e-06	1.874649e-08	1.934641e+01	1.230599e+03
1.060000e-06	2.809627e-06	1.939825e-08	2.013284e+01	1.273438e+03
1.070000e-06	2.918507e-06	2.000472e-08	2.091304e+01	1.313534e+03
1.080000e-06	3.026501e-06	2.057188e-08	2.168688e+01	1.351116e+03
1.090000e-06	3.133345e-06	2.110220e-08	2.245250e+01	1.386370e+03
1.100000e-06	3.238903e-06	2.160116e-08	2.320889e+01	1.419453e+03
1.110000e-06	3.343268e-06	2.207053e-08	2.395673e+01	1.450512e+03
1.120000e-06	3.446440e-06	2.251250e-08	2.469602e+01	1.479695e+03
1.130000e-06	3.548368e-06	2.293255e-08	2.542641e+01	1.507153e+03
1.140000e-06	3.649135e-06	2.332846e-08	2.614847e+01	1.533043e+03
1.150000e-06	3.748733e-06	2.370223e-08	2.686215e+01	1.557515e+03
1.160000e-06	3.846939e-06	2.405499e-08	2.756587e+01	1.580702e+03
1.170000e-06	3.943594e-06	2.439146e-08	2.825847e+01	1.602717e+03
1.180000e-06	4.038763e-06	2.471142e-08	2.894041e+01	1.623644e+03
1.190000e-06	4.132572e-06	2.501674e-08	2.961262e+01	1.643546e+03
1.200000e-06	4.225076e-06	2.530436e-08	3.027547e+01	1.662468e+03
1.210000e-06	4.316197e-06	2.557675e-08	3.092841e+01	1.680448e+03
1.220000e-06	4.405671e-06	2.583253e-08	3.156956e+01	1.697522e+03
1.230000e-06	4.493482e-06	2.607479e-08	3.219878e+01	1.713732e+03
1.240000e-06	4.579764e-06	2.630680e-08	3.281705e+01	1.729128e+03
1.250000e-06	4.664535e-06	2.653080e-08	3.342449e+01	1.743764e+03
1.260000e-06	4.747680e-06	2.674445e-08	3.402027e+01	1.757695e+03
1.270000e-06	4.828983e-06	2.694680e-08	3.460287e+01	1.770973e+03
1.280000e-06	4.908423e-06	2.713825e-08	3.517211e+01	1.783642e+03
1.290000e-06	4.986083e-06	2.731969e-08	3.572859e+01	1.795735e+03
1.300000e-06	5.061888e-06	2.749285e-08	3.627178e+01	1.807277e+03
1.310000e-06	5.135657e-06	2.765874e-08	3.680039e+01	1.818287e+03
1.320000e-06	5.207408e-06	2.781939e-08	3.731453e+01	1.828777e+03
1.330000e-06	5.277307e-06	2.797415e-08	3.781541e+01	1.838761e+03
1.340000e-06	5.345362e-06	2.812011e-08	3.830306e+01	1.848253e+03
1.350000e-06	5.411462e-06	2.825792e-08	3.877671e+01	1.857268e+03
1.360000e-06	5.475553e-06	2.839035e-08	3.923597e+01	1.865823e+03
1.370000e-06	5.537705e-06	2.851771e-08	3.968133e+01	1.873932e+03
1.380000e-06	5.598067e-06	2.863728e-08	4.011386e+01	1.881610e+03
1.390000e-06	5.656478e-06	2.874960e-08	4.053241e+01	1.888869e+03
1.400000e-06	5.712793e-06	2.885575e-08	4.093595e+01	1.895723e+03
1.410000e-06	5.767083e-06	2.895415e-08	4.132498e+01	1.902185e+03
1.420000e-06	5.819166e-06	2.904532e-08	4.169819e+01	1.908271e+03
1.430000e-06	5.868751e-06	2.913065e-08	4.205349e+01	1.914003e+03
1.440000e-06	5.916021e-06	2.921210e-08	4.239221e+01	1.919402e+03
1.450000e-06	5.961330e-06	2.928948e-08	4.271688e+01	1.924492e+03
1.460000e-06	6.004591e-06	2.936487e-08	4.302688e+01	1.929293e+03
1.470000e-06	6.045616e-06	2.943747e-08	4.332084e+01	1.933819e+03
1.480000e-06	6.084470e-06	2.950482e-08	4.359926e+01	1.938077e+03
1.490000e-06	6.121357e-06	2.956543e-08	4.386358e+01	1.942066e+03
1.500000e-06	6.156086e-06	2.962052e-08	4.411244e+01	1.945776e+03
1.510000e-06	6.188488e-06	2.967229e-08	4.434462e+01	1.949196e+03
1.520000e-06	6.218753e-06	2.972003e-08	4.456149e+01	1.952313e+03
1.530000e-06	6.247025e-06	2.976253e-08	4.476408e+01	1.955121e+03
1.540000e-06	6.273020e-06	2.980069e-08	4.495035e+01	1.957616e+03
1.550000e-06	6.296496e-06	2.983659e-08	4.511857e+01	1.959804e+03
1.560000e-06	6.317782e-06	2.986870e-08	4.527110e+01	1.961694e+03
1.570000e-06	6.336974e-06	2.989561e-08	4.540862e+01	1.963297e+03
1.580000e-06	6.353839e-06	2.991679e-08	4.552947e+01	1.964628e+03
1.590000e-06	6.368271e-06	2.993336e-08	4.563289e+01	1.965695e+03
1.600000e-06	6.380294e-06	2.994522e-08	4.571904e+01	1.966510e+03
1.610000e-06	6.389802e-06	2.995395e-08	4.578717e+01	1.967080e+03
1.620000e-06	6.396858e-06	2.996019e-08	4.583773e+01	1.967414e+03
1.630000e-06	6.401734e-06	2.996271e-08	4.587267e+01	1.967526e+03
1.640000e-06	6.404312e-06	2.996196e-08	4.589114e+01	1.967430e+03
1.650000e-06	6.404516e-06	2.996344e-08	4.589260e+01	1.967142e+03
1.660000e-06	6.402586e-06	2.995564e-08	4.587877e+01	1.966674e+03
1.670000e-06	6.398709e-06	2.994294e-08	4.585099e+01	1.966032e+03
1.680000e-06	6.392600e-06	2.992971e-08	4.580722e+01	1.965214e+03
1.690000e-06	6.384243e-06	2.991378e-08	4.574734e+01	1.964202e+03
1.700000e-06	6.373985e-06	2.989660e-08	4.567383e+01	1.962974e+03
1.710000e-06	6.361605e-06	2.987877e-08	4.558512e+01	1.961502e+03
1.720000e-06	6.346903e-06	2.986406e-08	4.547977e+01	1.959767e+03
1.730000e-06	6.330153e-06	2.983188e-08	4.535974e+01	1.957762e+03
1.740000e-06	6.311396e-06	2.968507e-08	4.522534e+01	1.955504e+03
1.750000e-06	6.289833e-06	2.966153e-08	4.507082e+01	1.953036e+03
1.760000e-06	6.265154e-06	2.970438e-08	4.489398e+01	1.950419e+03
1.770000e-06	6.238097e-06	2.966327e-08	4.470010e+01	1.947723e+03
1.780000e-06	6.209087e-06	2.969421e-08	4.449223e+01	1.945015e+03
1.790000e-06	6.178364e-06	2.969834e-08	4.427207e+01	1.942338e+03
1.800000e-06	6.146304e-06	2.943803e-08	4.404235e+01	1.939701e+03
1.810000e-06	6.112290e-06	2.947614e-08	4.379861e+01	1.937068e+03
1.820000e-06	6.076135e-06	2.950025e-08	4.353954e+01	1.934364e+03
1.830000e-06	6.038024e-06	2.936423e-08	4.326644e+01	1.931483e+03
1.840000e-06	5.997520e-06	2.957264e-08	4.297621e+01	1.928305e+03
1.850000e-06	5.954880e-06	2.939845e-08	4.267066e+01	1.924720e+03
1.860000e-06	5.910259e-06	2.928387e-08	4.235092e+01	1.920649e+03
1.870000e-06	5.863432e-06	2.932769e-08	4.201538e+01	1.916051e+03
1.880000e-06	5.814556e-06	2.910522e-08	4.166515e+01	1.910937e+03
1.890000e-06	5.763309e-06	2.914850e-08	4.129793e+01	1.905356e+03
1.900000e-06	5.709424e-06	2.902488e-08	4.091181e+01	1.899383e+03
1.910000e-06	5.653280e-06	2.888956e-08	4.050950e+01	1.893100e+03
1.920000e-06	5.595115e-06	2.889778e-08	4.009271e+01	1.886574e+03
1.930000e-06	5.535149e-06	2.867056e-08	3.966301e+01	1.879843e+03
1.940000e-06	5.473117e-06	2.866240e-08	3.921851e+01	1.872909e+03
1.950000e-06	5.408825e-06	2.849673e-08	3.875782e+01	1.865739e+03
1.960000e-06	5.342540e-06	2.839426e-08	3.828284e+01	1.858280e+03
1.970000e-06	5.274289e-06	2.831458e-08	3.779378e+01	1.850472e+03
1.980000e-06	5.203957e-06	2.810281e-08	3.728980e+01	1.842263e+03
1.990000e-06	5.131569e-06	2.807002e-08	3.677109e+01	1.833624e+03
2.000000e-06	5.057383e-06	2.787219e-08	3.623950e+01	1.824553e+03
2.010000e-06	4.981267e-06	2.774645e-08	3.569408e+01	1.815068e+03
2.020000e-06	4.903031e-06	2.759127e-08	3.513347e+01	1.805201e+03
2.030000e-06	4.822927e-06	2.741471e-08	3.455947e+01	1.794981e+03
2.040000e-06	4.741184e-06	2.730658e-08	3.397373e+01	1.784424e+03
2.050000e-06	4.657932e-06	2.709606e-08	3.337717e+01	1.773525e+03
2.060000e-06	4.573043e-06	2.696008e-08	3.276888e+01	1.762252e+03
2.070000e-06	4.486424e-06	2.675881e-08	3.214820e+01	1.750559e+03
2.080000e-06	4.398209e-06	2.657881e-08	3.151608e+01	1.738391e+03
2.090000e-06	4.308472e-06	2.637431e-08	3.087306e+01	1.725700e+03
2.100000e-06	4.217353e-06	2.616044e-08	3.022013e+01	1.712453e+03
2.110000e-06	4.124774e-06	2.597361e-08	2.955674e+01	1.698636e+03
2.120000e-06	4.030695e-06	2.573715e-08	2.888260e+01	1.684253e+03
2.130000e-06	3.935147e-06	2.552161e-08	2.819793e+01	1.669318e+03
2.140000e-06	3.838155e-06	2.527670e-08	2.750293e+01	1.653840e+03
2.150000e-06	3.739870e-06	2.504582e-08	2.679865e+01	1.637816e+03
2.160000e-06	3.640278e-06	2.478820e-08	2.608501e+01	1.621218e+03
2.170000e-06	3.539270e-06	2.453271e-08	2.536121e+01	1.603997e+03
2.180000e-06	3.436885e-06	2.425795e-08	2.462756e+01	1.586086e+03
2.190000e-06	3.333182e-06	2.396624e-08	2.388446e+01	1.567408e+03
2.200000e-06	3.228187e-06	2.366464e-08	2.313210e+01	1.547894e+03
2.210000e-06	3.122130e-06	2.334778e-08	2.237213e+01	1.527484e+03
2.220000e-06	3.015084e-06	2.302918e-08	2.160507e+01	1.506140e+03
2.230000e-06	2.906908e-06	2.269023e-08	2.082992e+01	1.483834e+03
2.240000e-06	2.797680e-06	2.234459e-08	2.004724e+01	1.460545e+03
2.250000e-06	2.687449e-06	2.197790e-08	1.925735e+01	1.436243e+03
2.260000e-06	2.576145e-06	2.159654e-08	1.845979e+01	1.410875e+03
2.270000e-06	2.463786e-06	2.118777e-08	1.765466e+01	1.384360e+03
2.280000e-06	2.350484e-06	2.076275e-08	1.684278e+01	1.356585e+03
2.290000e-06	2.236312e-06	2.031471e-08	1.602466e+01	1.327414e+03
2.300000e-06	2.121252e-06	1.984428e-08	1.520017e+01	1.296699e+03
2.310000e-06	2.005314e-06	1.934975e-08	1.436941e+01	1.264291e+03
2.320000e-06	1.888561e-06	1.882667e-08	1.353279e+01	1.230055e+03
2.330000e-06	1.771135e-06	1.827630e-08	1.269136e+01	1.193873e+03
2.340000e-06	1.653044e-06	1.769343e-08	1.184516e+01	1.155637e+03
2.350000e-06	1.534270e-06	1.707832e-08	1.099406e+01	1.115239e+03
2.360000e-06	1.414944e-06	1.642810e-08	1.013901e+01	1.072560e+03
2.370000e-06	1.295113e-06	1.574307e-08	9.280342e+00	1.027458e+03
2.380000e-06	1.174825e-06	1.501330e-08	8.418398e+00	9.797692e+02
2.390000e-06	1.054099e-06	1.423938e-08	7.553315e+00	9.293214e+02
2.400000e-06	9.329955e-07	1.342168e-08	6.685532e+00	8.759635e+02
2.410000e-06	8.116525e-07	1.256032e-08	5.816028e+00	8.196027e+02
2.420000e-06	6.901301e-07	1.165438e-08	4.945240e+00	7.602441e+02
2.430000e-06	5.684407e-07	1.070480e-08	4.073255e+00	6.980212e+02
2.440000e-06	4.466340e-07	9.717211e-09	3.200429e+00	6.332079e+02
2.450000e-06	3.247279e-07	8.696353e-09	2.326891e+00	5.662035e+02
2.460000e-06	2.026850e-07	7.646478e-09	1.452372e+00	4.974912e+02
2.470000e-06	8.053283e-08	6.575941e-09	5.770711e-01	4.275732e+02
2.480000e-06	-4.169389e-08	5.493166e-09	-2.987644e-01	3.568951e+02
2.490000e-06	-1.639130e-07	4.402769e-09	-1.174545e+00	2.857739e+02
2.500000e-06	-2.860827e-07	3.306597e-09	-2.049972e+00	2.143457e+02
2.510000e-06	-4.081839e-07	2.207400e-09	-2.924908e+00	1.425469e+02
2.520000e-06	-5.301556e-07	1.101487e-09	-3.798917e+00	7.013559e+01
2.530000e-06	-6.520050e-07	-1.927876e-11	-4.672048e+00	-3.248429e+00
2.540000e-06	-7.736996e-07	-1.159273e-09	-5.544070e+00	-7.799349e+01
2.550000e-06	-8.951970e-07	-2.322445e-09	-6.414680e+00	-1.544127e+02
2.560000e-06	-1.016442e-06	-3.510852e-09	-7.283479e+00	-2.326467e+02
2.570000e-06	-1.137350e-06	-4.728193e-09	-8.149866e+00	-3.125917e+02
2.580000e-06	-1.257880e-06	-5.970233e-09	-9.013548e+00	-3.938669e+02
2.590000e-06	-1.377965e-06	-7.225760e-09	-9.874035e+00	-4.758283e+02
2.600000e-06	-1.497460e-06	-8.482418e-09	-1.073030e+01	-5.576262e+02
2.610000e-06	-1.616249e-06	-9.723893e-09	-1.158150e+01	-6.382958e+02
2.620000e-06	-1.734346e-06	-1.093119e-08	-1.242774e+01	-7.168642e+02
2.630000e-06	-1.851755e-06	-1.208644e-08	-1.326905e+01	-7.924548e+02
2.640000e-06	-1.968387e-06	-1.318087e-08	-1.410480e+01	-8.643712e+02
2.650000e-06	-2.084202e-06	-1.421351e-08	-1.493469e+01	-9.321492e+02
2.660000e-06	-2.199126e-06	-1.518161e-08	-1.575819e+01	-9.955702e+02
2.670000e-06	-2.313025e-06	-1.608650e-08	-1.657436e+01	-1.054640e+03
2.680000e-06	-2.425942e-06	-1.693098e-08	-1.738348e+01	-1.109540e+03
2.690000e-06	-2.537816e-06	-1.771642e-08	-1.818514e+01	-1.160567e+03
2.700000e-06	-2.648665e-06	-1.844871e-08	-1.897944e+01	-1.208064e+03
2.710000e-06	-2.758495e-06	-1.913255e-08	-1.976644e+01	-1.252378e+03
2.720000e-06	-2.867338e-06	-1.977063e-08	-2.054637e+01	-1.293813e+03
2.730000e-06	-2.975320e-06	-2.036778e-08	-2.132014e+01	-1.332627e+03
2.740000e-06	-3.082342e-06	-2.092899e-08	-2.208702e+01	-1.369024e+03
2.750000e-06	-3.188361e-06	-2.145101e-08	-2.284672e+01	-1.403174e+03
2.760000e-06	-3.293322e-06	-2.193669e-08	-2.359883e+01	-1.435227e+03
2.770000e-06	-3.397108e-06	-2.239481e-08	-2.434253e+01	-1.465329e+03
2.780000e-06	-3.499573e-06	-2.282820e-08	-2.507676e+01	-1.493630e+03
2.790000e-06	-3.600698e-06	-2.323841e-08	-2.580139e+01	-1.520285e+03
2.800000e-06	-3.700554e-06	-2.362774e-08	-2.651692e+01	-1.545448e+03
2.810000e-06	-3.799131e-06	-2.399577e-08	-2.722329e+01	-1.569262e+03
2.820000e-06	-3.896488e-06	-2.434097e-08	-2.792092e+01	-1.591850e+03
2.830000e-06	-3.992638e-06	-2.466449e-08	-2.860990e+01	-1.613312e+03
2.840000e-06	-4.087339e-06	-2.497153e-08	-2.928849e+01	-1.633720e+03
2.850000e-06	-4.180506e-06	-2.526717e-08	-2.995610e+01	-1.653127e+03
2.860000e-06	-4.272195e-06	-2.555059e-08	-3.061311e+01	-1.671574e+03
2.870000e-06	-4.362320e-06	-2.581963e-08	-3.125891e+01	-1.689096e+03
2.880000e-06	-4.450939e-06	-2.607409e-08	-3.189393e+01	-1.705732e+03
2.890000e-06	-4.537922e-06	-2.631508e-08	-3.251722e+01	-1.721529e+03
2.900000e-06	-4.623117e-06	-2.654563e-08	-3.312770e+01	-1.736537e+03
2.910000e-06	-4.706701e-06	-2.676798e-08	-3.372663e+01	-1.750814e+03
2.920000e-06	-4.788692e-06	-2.698154e-08	-3.431415e+01	-1.764413e+03
2.930000e-06	-4.869006e-06	-2.718370e-08	-3.488965e+01	-1.777381e+03
2.940000e-06	-4.947425e-06	-2.737355e-08	-3.545158e+01	-1.789758e+03
