# Temperatura_=_52.5
# Concentracion g/m^3_=_28200.0
# C_Vs_to_Am_M_A/Vsm_=_65563218390.804596
# pendiente_HvsI_1/m_=_3716.3
# ordenada_HvsI_A/m_=_1297.0
# frecuencia_Hz_=_302133.35624088574

Tiempo_(s)	Campo_(V.s)	Magnetizacion_(V.s)	Campo_(kA/m)	Magnetizacion_(A/m)
0.000000e+00	-6.391571e-06	-2.293803e-08	-4.585638e+01	-1.502568e+03
1.000000e-08	-6.388842e-06	-2.293982e-08	-4.583680e+01	-1.502220e+03
2.000000e-08	-6.383971e-06	-2.293255e-08	-4.580185e+01	-1.501727e+03
3.000000e-08	-6.377137e-06	-2.292246e-08	-4.575281e+01	-1.501083e+03
4.000000e-08	-6.368249e-06	-2.291045e-08	-4.568905e+01	-1.500282e+03
5.000000e-08	-6.357030e-06	-2.289156e-08	-4.560856e+01	-1.499325e+03
6.000000e-08	-6.343493e-06	-2.287012e-08	-4.551144e+01	-1.498220e+03
7.000000e-08	-6.327635e-06	-2.284458e-08	-4.539766e+01	-1.496981e+03
8.000000e-08	-6.309584e-06	-2.282467e-08	-4.526816e+01	-1.495626e+03
9.000000e-08	-6.289538e-06	-2.287731e-08	-4.512433e+01	-1.494176e+03
1.000000e-07	-6.267145e-06	-2.285724e-08	-4.496368e+01	-1.492644e+03
1.100000e-07	-6.242094e-06	-2.276537e-08	-4.478395e+01	-1.491036e+03
1.200000e-07	-6.214639e-06	-2.272414e-08	-4.458697e+01	-1.489343e+03
1.300000e-07	-6.185182e-06	-2.268423e-08	-4.437564e+01	-1.487545e+03
1.400000e-07	-6.154070e-06	-2.255679e-08	-4.415242e+01	-1.485607e+03
1.500000e-07	-6.121337e-06	-2.259774e-08	-4.391757e+01	-1.483489e+03
1.600000e-07	-6.086601e-06	-2.269084e-08	-4.366836e+01	-1.481145e+03
1.700000e-07	-6.049944e-06	-2.248294e-08	-4.340537e+01	-1.478539e+03
1.800000e-07	-6.011353e-06	-2.252335e-08	-4.312850e+01	-1.475645e+03
1.900000e-07	-5.970298e-06	-2.251511e-08	-4.283395e+01	-1.472452e+03
2.000000e-07	-5.926994e-06	-2.234544e-08	-4.252326e+01	-1.468971e+03
2.100000e-07	-5.881742e-06	-2.238171e-08	-4.219860e+01	-1.465224e+03
2.200000e-07	-5.834283e-06	-2.228882e-08	-4.185810e+01	-1.461250e+03
2.300000e-07	-5.784334e-06	-2.219963e-08	-4.149975e+01	-1.457087e+03
2.400000e-07	-5.731782e-06	-2.214952e-08	-4.112271e+01	-1.452770e+03
2.500000e-07	-5.676986e-06	-2.206954e-08	-4.072958e+01	-1.448323e+03
2.600000e-07	-5.620065e-06	-2.204293e-08	-4.032120e+01	-1.443752e+03
2.700000e-07	-5.560947e-06	-2.195673e-08	-3.989706e+01	-1.439047e+03
2.800000e-07	-5.499860e-06	-2.188003e-08	-3.945879e+01	-1.434180e+03
2.900000e-07	-5.436803e-06	-2.178964e-08	-3.900639e+01	-1.429117e+03
3.000000e-07	-5.371717e-06	-2.169488e-08	-3.853943e+01	-1.423816e+03
3.100000e-07	-5.304598e-06	-2.163637e-08	-3.805788e+01	-1.418242e+03
3.200000e-07	-5.235464e-06	-2.153613e-08	-3.756188e+01	-1.412370e+03
3.300000e-07	-5.164489e-06	-2.145410e-08	-3.705266e+01	-1.406187e+03
3.400000e-07	-5.091706e-06	-2.133255e-08	-3.653048e+01	-1.399692e+03
3.500000e-07	-5.016876e-06	-2.122391e-08	-3.599361e+01	-1.392893e+03
3.600000e-07	-4.939892e-06	-2.113063e-08	-3.544129e+01	-1.385803e+03
3.700000e-07	-4.860878e-06	-2.101151e-08	-3.487440e+01	-1.378430e+03
3.800000e-07	-4.779957e-06	-2.091464e-08	-3.429384e+01	-1.370776e+03
3.900000e-07	-4.697348e-06	-2.077777e-08	-3.370116e+01	-1.362833e+03
4.000000e-07	-4.613320e-06	-2.063845e-08	-3.309830e+01	-1.354583e+03
4.100000e-07	-4.527900e-06	-2.050367e-08	-3.248545e+01	-1.346002e+03
4.200000e-07	-4.440974e-06	-2.037300e-08	-3.186180e+01	-1.337062e+03
4.300000e-07	-4.352644e-06	-2.023764e-08	-3.122808e+01	-1.327740e+03
4.400000e-07	-4.262791e-06	-2.008121e-08	-3.058343e+01	-1.318018e+03
4.500000e-07	-4.171223e-06	-1.993311e-08	-2.992647e+01	-1.307886e+03
4.600000e-07	-4.078143e-06	-1.976656e-08	-2.925866e+01	-1.297340e+03
4.700000e-07	-3.983743e-06	-1.959930e-08	-2.858139e+01	-1.286378e+03
4.800000e-07	-3.887979e-06	-1.942656e-08	-2.789434e+01	-1.274997e+03
4.900000e-07	-3.790797e-06	-1.924634e-08	-2.719710e+01	-1.263183e+03
5.000000e-07	-3.692133e-06	-1.905122e-08	-2.648923e+01	-1.250914e+03
5.100000e-07	-3.592020e-06	-1.884863e-08	-2.577097e+01	-1.238154e+03
5.200000e-07	-3.490634e-06	-1.864629e-08	-2.504358e+01	-1.224858e+03
5.300000e-07	-3.388061e-06	-1.843175e-08	-2.430767e+01	-1.210977e+03
5.400000e-07	-3.284288e-06	-1.821248e-08	-2.356315e+01	-1.196461e+03
5.500000e-07	-3.179304e-06	-1.797975e-08	-2.280994e+01	-1.181265e+03
5.600000e-07	-3.072999e-06	-1.773846e-08	-2.204725e+01	-1.165351e+03
5.700000e-07	-2.965406e-06	-1.748133e-08	-2.127533e+01	-1.148689e+03
5.800000e-07	-2.856731e-06	-1.721465e-08	-2.049564e+01	-1.131253e+03
5.900000e-07	-2.747131e-06	-1.693443e-08	-1.970931e+01	-1.113013e+03
6.000000e-07	-2.636617e-06	-1.663993e-08	-1.891643e+01	-1.093933e+03
6.100000e-07	-2.525122e-06	-1.632987e-08	-1.811650e+01	-1.073964e+03
6.200000e-07	-2.412671e-06	-1.600554e-08	-1.730972e+01	-1.053039e+03
6.300000e-07	-2.299243e-06	-1.567050e-08	-1.649594e+01	-1.031077e+03
6.400000e-07	-2.184798e-06	-1.531809e-08	-1.567485e+01	-1.007985e+03
6.500000e-07	-2.069374e-06	-1.494700e-08	-1.484674e+01	-9.836637e+02
6.600000e-07	-1.953093e-06	-1.455258e-08	-1.401248e+01	-9.580104e+02
6.700000e-07	-1.836089e-06	-1.413887e-08	-1.317304e+01	-9.309242e+02
6.800000e-07	-1.718526e-06	-1.370574e-08	-1.232958e+01	-9.023060e+02
6.900000e-07	-1.600451e-06	-1.324823e-08	-1.148245e+01	-8.720573e+02
7.000000e-07	-1.481803e-06	-1.276069e-08	-1.063121e+01	-8.400767e+02
7.100000e-07	-1.362643e-06	-1.224240e-08	-9.776290e+00	-8.062588e+02
7.200000e-07	-1.243091e-06	-1.169492e-08	-8.918568e+00	-7.704964e+02
7.300000e-07	-1.123134e-06	-1.111577e-08	-8.057932e+00	-7.326879e+02
7.400000e-07	-1.002742e-06	-1.050568e-08	-7.194177e+00	-6.927519e+02
7.500000e-07	-8.820236e-07	-9.866754e-09	-6.328085e+00	-6.506460e+02
7.600000e-07	-7.610098e-07	-9.197405e-09	-5.459871e+00	-6.063878e+02
7.700000e-07	-6.396987e-07	-8.491094e-09	-4.589523e+00	-5.600723e+02
7.800000e-07	-5.182590e-07	-7.755695e-09	-3.718253e+00	-5.118816e+02
7.900000e-07	-3.966670e-07	-6.998671e-09	-2.845891e+00	-4.620811e+02
8.000000e-07	-2.748579e-07	-6.219942e-09	-1.971970e+00	-4.110009e+02
8.100000e-07	-1.529598e-07	-5.427381e-09	-1.097411e+00	-3.590028e+02
8.200000e-07	-3.098939e-08	-4.626718e-09	-2.223336e-01	-3.064369e+02
8.300000e-07	9.107094e-08	-3.822177e-09	6.533891e-01	-2.535940e+02
8.400000e-07	2.131514e-07	-3.015516e-09	1.529257e+00	-2.006648e+02
8.500000e-07	3.351524e-07	-2.208820e-09	2.404553e+00	-1.477117e+02
8.600000e-07	4.570564e-07	-1.400470e-09	3.279155e+00	-9.466196e+01
8.700000e-07	5.788618e-07	-5.870342e-10	4.153048e+00	-4.132535e+01
8.800000e-07	7.004424e-07	2.359458e-10	5.025329e+00	1.256579e+01
8.900000e-07	8.217783e-07	1.068734e-09	5.895854e+00	6.729897e+01
9.000000e-07	9.428703e-07	1.915738e-09	6.764630e+00	1.231162e+02
9.100000e-07	1.063615e-06	2.780884e-09	7.630914e+00	1.801519e+02
9.200000e-07	1.183996e-06	3.664505e-09	8.494588e+00	2.383860e+02
9.300000e-07	1.303913e-06	4.565101e-09	9.354934e+00	2.976187e+02
9.400000e-07	1.423334e-06	5.475979e-09	1.021172e+01	3.574747e+02
9.500000e-07	1.542256e-06	6.392835e-09	1.106493e+01	4.174326e+02
9.600000e-07	1.660580e-06	7.300463e-09	1.191385e+01	4.768774e+02
9.700000e-07	1.778298e-06	8.185105e-09	1.275841e+01	5.351643e+02
9.800000e-07	1.895370e-06	9.040147e-09	1.359835e+01	5.916847e+02
9.900000e-07	2.011665e-06	9.861829e-09	1.443271e+01	6.459234e+02
1.000000e-06	2.127075e-06	1.064658e-08	1.526072e+01	6.974981e+02
1.010000e-06	2.241547e-06	1.138498e-08	1.608200e+01	7.461773e+02
1.020000e-06	2.355041e-06	1.207676e-08	1.689626e+01	7.918764e+02
1.030000e-06	2.467551e-06	1.272424e-08	1.770347e+01	8.346356e+02
1.040000e-06	2.579114e-06	1.333080e-08	1.850387e+01	8.745862e+02
1.050000e-06	2.689738e-06	1.389722e-08	1.929754e+01	9.119133e+02
1.060000e-06	2.799435e-06	1.442819e-08	2.008456e+01	9.468211e+02
1.070000e-06	2.908268e-06	1.492386e-08	2.086539e+01	9.795077e+02
1.080000e-06	3.016159e-06	1.538639e-08	2.163946e+01	1.010150e+03
1.090000e-06	3.122966e-06	1.581977e-08	2.240574e+01	1.038901e+03
1.100000e-06	3.228611e-06	1.622821e-08	2.316369e+01	1.065891e+03
1.110000e-06	3.332933e-06	1.661474e-08	2.391215e+01	1.091240e+03
1.120000e-06	3.435955e-06	1.697736e-08	2.465128e+01	1.115061e+03
1.130000e-06	3.537814e-06	1.731893e-08	2.538207e+01	1.137470e+03
1.140000e-06	3.638597e-06	1.764108e-08	2.610514e+01	1.158583e+03
1.150000e-06	3.738154e-06	1.794633e-08	2.681942e+01	1.178515e+03
1.160000e-06	3.836246e-06	1.823310e-08	2.752317e+01	1.197374e+03
1.170000e-06	3.932801e-06	1.850310e-08	2.821591e+01	1.215251e+03
1.180000e-06	4.027898e-06	1.875910e-08	2.889818e+01	1.232222e+03
1.190000e-06	4.121691e-06	1.900445e-08	2.957110e+01	1.248342e+03
1.200000e-06	4.214202e-06	1.923728e-08	3.023482e+01	1.263650e+03
1.210000e-06	4.305345e-06	1.945883e-08	3.088873e+01	1.278177e+03
1.220000e-06	4.394854e-06	1.966749e-08	3.153091e+01	1.291951e+03
1.230000e-06	4.482649e-06	1.986303e-08	3.216079e+01	1.305001e+03
1.240000e-06	4.568807e-06	2.004921e-08	3.277894e+01	1.317367e+03
1.250000e-06	4.653436e-06	2.022632e-08	3.338611e+01	1.329096e+03
1.260000e-06	4.736549e-06	2.039453e-08	3.398241e+01	1.340237e+03
1.270000e-06	4.817907e-06	2.055667e-08	3.456611e+01	1.350839e+03
1.280000e-06	4.897420e-06	2.071362e-08	3.513658e+01	1.360946e+03
1.290000e-06	4.975119e-06	2.086294e-08	3.569403e+01	1.370587e+03
1.300000e-06	5.050954e-06	2.100357e-08	3.623811e+01	1.379777e+03
1.310000e-06	5.124723e-06	2.113622e-08	3.676736e+01	1.388518e+03
1.320000e-06	5.196489e-06	2.126394e-08	3.728225e+01	1.396804e+03
1.330000e-06	5.266423e-06	2.138416e-08	3.778399e+01	1.404630e+03
1.340000e-06	5.334551e-06	2.149599e-08	3.827277e+01	1.411991e+03
1.350000e-06	5.400753e-06	2.160114e-08	3.874774e+01	1.418897e+03
1.360000e-06	5.464895e-06	2.169998e-08	3.920793e+01	1.425371e+03
1.370000e-06	5.527122e-06	2.179403e-08	3.965438e+01	1.431446e+03
1.380000e-06	5.587536e-06	2.188290e-08	4.008782e+01	1.437167e+03
1.390000e-06	5.645961e-06	2.196645e-08	4.050699e+01	1.442579e+03
1.400000e-06	5.702280e-06	2.204510e-08	4.091105e+01	1.447725e+03
1.410000e-06	5.756595e-06	2.211954e-08	4.130073e+01	1.452637e+03
1.420000e-06	5.808709e-06	2.219029e-08	4.167463e+01	1.457333e+03
1.430000e-06	5.858312e-06	2.225676e-08	4.203050e+01	1.461820e+03
1.440000e-06	5.905595e-06	2.232182e-08	4.236974e+01	1.466091e+03
1.450000e-06	5.950943e-06	2.238498e-08	4.269508e+01	1.470132e+03
1.460000e-06	5.994348e-06	2.244382e-08	4.300650e+01	1.473929e+03
1.470000e-06	6.035519e-06	2.249905e-08	4.330188e+01	1.477470e+03
1.480000e-06	6.074456e-06	2.255000e-08	4.358123e+01	1.480749e+03
1.490000e-06	6.111391e-06	2.259597e-08	4.384622e+01	1.483766e+03
1.500000e-06	6.146241e-06	2.263682e-08	4.409625e+01	1.486529e+03
1.510000e-06	6.178810e-06	2.267295e-08	4.432992e+01	1.489049e+03
1.520000e-06	6.209119e-06	2.270791e-08	4.454737e+01	1.491338e+03
1.530000e-06	6.237403e-06	2.274191e-08	4.475029e+01	1.493406e+03
1.540000e-06	6.263430e-06	2.277055e-08	4.493703e+01	1.495260e+03
1.550000e-06	6.286996e-06	2.279455e-08	4.510610e+01	1.496903e+03
1.560000e-06	6.308374e-06	2.281720e-08	4.525948e+01	1.498335e+03
1.570000e-06	6.327712e-06	2.283730e-08	4.539822e+01	1.499557e+03
1.580000e-06	6.344779e-06	2.285329e-08	4.552066e+01	1.500570e+03
1.590000e-06	6.359375e-06	2.286657e-08	4.562539e+01	1.501381e+03
1.600000e-06	6.371580e-06	2.287740e-08	4.571295e+01	1.502000e+03
1.610000e-06	6.381239e-06	2.288448e-08	4.578224e+01	1.502441e+03
1.620000e-06	6.388419e-06	2.288861e-08	4.583376e+01	1.502718e+03
1.630000e-06	6.393445e-06	2.289216e-08	4.586982e+01	1.502846e+03
1.640000e-06	6.396210e-06	2.289382e-08	4.588966e+01	1.502835e+03
1.650000e-06	6.396620e-06	2.289618e-08	4.589260e+01	1.502691e+03
1.660000e-06	6.394856e-06	2.288951e-08	4.587994e+01	1.502412e+03
1.670000e-06	6.391142e-06	2.288134e-08	4.585330e+01	1.501992e+03
1.680000e-06	6.385249e-06	2.287493e-08	4.581101e+01	1.501425e+03
1.690000e-06	6.377117e-06	2.286475e-08	4.575267e+01	1.500702e+03
1.700000e-06	6.367026e-06	2.285301e-08	4.568027e+01	1.499823e+03
1.710000e-06	6.354792e-06	2.284224e-08	4.559250e+01	1.498790e+03
1.720000e-06	6.340235e-06	2.283646e-08	4.548806e+01	1.497616e+03
1.730000e-06	6.323632e-06	2.281846e-08	4.536895e+01	1.496317e+03
1.740000e-06	6.305137e-06	2.270361e-08	4.523625e+01	1.494912e+03
1.750000e-06	6.283946e-06	2.268746e-08	4.508421e+01	1.493420e+03
1.760000e-06	6.259476e-06	2.273313e-08	4.490866e+01	1.491850e+03
1.770000e-06	6.232451e-06	2.269570e-08	4.471476e+01	1.490201e+03
1.780000e-06	6.203537e-06	2.273596e-08	4.450732e+01	1.488459e+03
1.790000e-06	6.172891e-06	2.277635e-08	4.428745e+01	1.486596e+03
1.800000e-06	6.140884e-06	2.256390e-08	4.405781e+01	1.484573e+03
1.810000e-06	6.107073e-06	2.261273e-08	4.381524e+01	1.482348e+03
1.820000e-06	6.071132e-06	2.263171e-08	4.355738e+01	1.479877e+03
1.830000e-06	6.033186e-06	2.243624e-08	4.328513e+01	1.477129e+03
1.840000e-06	5.992838e-06	2.256686e-08	4.299566e+01	1.474086e+03
1.850000e-06	5.950353e-06	2.242219e-08	4.269085e+01	1.470746e+03
1.860000e-06	5.905991e-06	2.231785e-08	4.237257e+01	1.467128e+03
1.870000e-06	5.859388e-06	2.238004e-08	4.203822e+01	1.463263e+03
1.880000e-06	5.810634e-06	2.220854e-08	4.168844e+01	1.459190e+03
1.890000e-06	5.759576e-06	2.224166e-08	4.132212e+01	1.454946e+03
1.900000e-06	5.705984e-06	2.212496e-08	4.093762e+01	1.450562e+03
1.910000e-06	5.650147e-06	2.200230e-08	4.053702e+01	1.446053e+03
1.920000e-06	5.592197e-06	2.204258e-08	4.012126e+01	1.441417e+03
1.930000e-06	5.532339e-06	2.186709e-08	3.969181e+01	1.436636e+03
1.940000e-06	5.470399e-06	2.187403e-08	3.924742e+01	1.431676e+03
1.950000e-06	5.406279e-06	2.176464e-08	3.878739e+01	1.426498e+03
1.960000e-06	5.340185e-06	2.167350e-08	3.831319e+01	1.421065e+03
1.970000e-06	5.272086e-06	2.161315e-08	3.782462e+01	1.415345e+03
1.980000e-06	5.201942e-06	2.144572e-08	3.732137e+01	1.409318e+03
1.990000e-06	5.129765e-06	2.143541e-08	3.680354e+01	1.402978e+03
2.000000e-06	5.055821e-06	2.129935e-08	3.627303e+01	1.396330e+03
2.010000e-06	4.979916e-06	2.120751e-08	3.572845e+01	1.389384e+03
2.020000e-06	4.901845e-06	2.109215e-08	3.516833e+01	1.382151e+03
2.030000e-06	4.821916e-06	2.095205e-08	3.459487e+01	1.374638e+03
2.040000e-06	4.740291e-06	2.088348e-08	3.400925e+01	1.366841e+03
2.050000e-06	4.657139e-06	2.073127e-08	3.341268e+01	1.358748e+03
2.060000e-06	4.572457e-06	2.062917e-08	3.280513e+01	1.350336e+03
2.070000e-06	4.486048e-06	2.047773e-08	3.218519e+01	1.341578e+03
2.080000e-06	4.397961e-06	2.034144e-08	3.155320e+01	1.332450e+03
2.090000e-06	4.308348e-06	2.019118e-08	3.091027e+01	1.322930e+03
2.100000e-06	4.217363e-06	2.002838e-08	3.025750e+01	1.313004e+03
2.110000e-06	4.125014e-06	1.989421e-08	2.959494e+01	1.302665e+03
2.120000e-06	4.031244e-06	1.972139e-08	2.892219e+01	1.291911e+03
2.130000e-06	3.935948e-06	1.956186e-08	2.823849e+01	1.280741e+03
2.140000e-06	3.839164e-06	1.938048e-08	2.754411e+01	1.269145e+03
2.150000e-06	3.741065e-06	1.921072e-08	2.684030e+01	1.257107e+03
2.160000e-06	3.641669e-06	1.901817e-08	2.612718e+01	1.244597e+03
2.170000e-06	3.540953e-06	1.882085e-08	2.540459e+01	1.231576e+03
2.180000e-06	3.438828e-06	1.861083e-08	2.467190e+01	1.217994e+03
2.190000e-06	3.335291e-06	1.838954e-08	2.392907e+01	1.203801e+03
2.200000e-06	3.230491e-06	1.816547e-08	2.317718e+01	1.188950e+03
2.210000e-06	3.124622e-06	1.792998e-08	2.241762e+01	1.173400e+03
2.220000e-06	3.017681e-06	1.768939e-08	2.165038e+01	1.157115e+03
2.230000e-06	2.909675e-06	1.742966e-08	2.087548e+01	1.140069e+03
2.240000e-06	2.800715e-06	1.716425e-08	2.009375e+01	1.122235e+03
2.250000e-06	2.690700e-06	1.688292e-08	1.930445e+01	1.103581e+03
2.260000e-06	2.579612e-06	1.658987e-08	1.850744e+01	1.084064e+03
2.270000e-06	2.467509e-06	1.627465e-08	1.770316e+01	1.063625e+03
2.280000e-06	2.354438e-06	1.594665e-08	1.689193e+01	1.042193e+03
2.290000e-06	2.240472e-06	1.560322e-08	1.607428e+01	1.019678e+03
2.300000e-06	2.125574e-06	1.524311e-08	1.524994e+01	9.959846e+02
2.310000e-06	2.009808e-06	1.486506e-08	1.441939e+01	9.710099e+02
2.320000e-06	1.893307e-06	1.446682e-08	1.358355e+01	9.446526e+02
2.330000e-06	1.776071e-06	1.404651e-08	1.274244e+01	9.168127e+02
2.340000e-06	1.658158e-06	1.359742e-08	1.189647e+01	8.873917e+02
2.350000e-06	1.539610e-06	1.312087e-08	1.104595e+01	8.562900e+02
2.360000e-06	1.420399e-06	1.261542e-08	1.019066e+01	8.234041e+02
2.370000e-06	1.300693e-06	1.208357e-08	9.331829e+00	7.886273e+02
2.380000e-06	1.180647e-06	1.152109e-08	8.470558e+00	7.518537e+02
2.390000e-06	1.060249e-06	1.092893e-08	7.606763e+00	7.129896e+02
2.400000e-06	9.394514e-07	1.030421e-08	6.740101e+00	6.719707e+02
2.410000e-06	8.182815e-07	9.645456e-09	5.870766e+00	6.287820e+02
2.420000e-06	6.968420e-07	8.954819e-09	4.999498e+00	5.834779e+02
2.430000e-06	5.752858e-07	8.233104e-09	4.127392e+00	5.361966e+02
2.440000e-06	4.536184e-07	7.483554e-09	3.254488e+00	4.871631e+02
2.450000e-06	3.318065e-07	6.711330e-09	2.380548e+00	4.366786e+02
2.460000e-06	2.098212e-07	5.921824e-09	1.505364e+00	3.850939e+02
2.470000e-06	8.772564e-08	5.120734e-09	6.293882e-01	3.327707e+02
2.480000e-06	-3.439242e-08	4.315529e-09	-2.467486e-01	2.800354e+02
2.490000e-06	-1.565127e-07	3.509398e-09	-1.122901e+00	2.271331e+02
2.500000e-06	-2.785849e-07	2.701557e-09	-1.998709e+00	1.741927e+02
2.510000e-06	-4.005783e-07	1.893834e-09	-2.873952e+00	1.212084e+02
2.520000e-06	-5.224340e-07	1.083559e-09	-3.748207e+00	6.804504e+01
2.530000e-06	-6.441977e-07	2.650556e-10	-4.621801e+00	1.446735e+01
2.540000e-06	-7.658123e-07	-5.676982e-10	-5.494326e+00	-3.981016e+01
2.550000e-06	-8.872128e-07	-1.415269e-09	-6.365315e+00	-9.506049e+01
2.560000e-06	-1.008375e-06	-2.276612e-09	-7.234597e+00	-1.514790e+02
2.570000e-06	-1.129150e-06	-3.156401e-09	-8.101092e+00	-2.091273e+02
2.580000e-06	-1.249497e-06	-4.053240e-09	-8.964528e+00	-2.678971e+02
2.590000e-06	-1.369405e-06	-4.964120e-09	-9.824806e+00	-3.274985e+02
2.600000e-06	-1.488748e-06	-5.882769e-09	-1.068103e+01	-3.874779e+02
2.610000e-06	-1.607402e-06	-6.799847e-09	-1.153232e+01	-4.472596e+02
2.620000e-06	-1.725422e-06	-7.703770e-09	-1.237905e+01	-5.062052e+02
2.630000e-06	-1.842757e-06	-8.583117e-09	-1.322087e+01	-5.636802e+02
2.640000e-06	-1.959258e-06	-9.431784e-09	-1.405671e+01	-6.191166e+02
2.650000e-06	-2.074904e-06	-1.024231e-08	-1.488641e+01	-6.720618e+02
2.660000e-06	-2.189655e-06	-1.100809e-08	-1.570970e+01	-7.222082e+02
2.670000e-06	-2.303412e-06	-1.173021e-08	-1.652585e+01	-7.693994e+02
2.680000e-06	-2.416151e-06	-1.240926e-08	-1.733469e+01	-8.136169e+02
2.690000e-06	-2.527909e-06	-1.304473e-08	-1.813650e+01	-8.549512e+02
2.700000e-06	-2.638602e-06	-1.363865e-08	-1.893067e+01	-8.935650e+02
2.710000e-06	-2.748293e-06	-1.419517e-08	-1.971765e+01	-9.296568e+02
2.720000e-06	-2.857100e-06	-1.471684e-08	-2.049828e+01	-9.634304e+02
2.730000e-06	-2.965027e-06	-1.520206e-08	-2.127261e+01	-9.950744e+02
2.740000e-06	-3.072006e-06	-1.565529e-08	-2.204013e+01	-1.024753e+03
2.750000e-06	-3.177940e-06	-1.607916e-08	-2.280016e+01	-1.052608e+03
2.760000e-06	-3.282840e-06	-1.647790e-08	-2.355276e+01	-1.078764e+03
2.770000e-06	-3.386620e-06	-1.685554e-08	-2.429733e+01	-1.103334e+03
2.780000e-06	-3.489086e-06	-1.721055e-08	-2.503247e+01	-1.126435e+03
2.790000e-06	-3.590211e-06	-1.754337e-08	-2.575800e+01	-1.148181e+03
2.800000e-06	-3.690049e-06	-1.785659e-08	-2.647428e+01	-1.168690e+03
2.810000e-06	-3.788652e-06	-1.815322e-08	-2.718172e+01	-1.188073e+03
2.820000e-06	-3.886045e-06	-1.843454e-08	-2.788046e+01	-1.206430e+03
2.830000e-06	-3.982125e-06	-1.870009e-08	-2.856978e+01	-1.223846e+03
2.840000e-06	-4.076767e-06	-1.895234e-08	-2.924879e+01	-1.240385e+03
2.850000e-06	-4.169923e-06	-1.919246e-08	-2.991714e+01	-1.256095e+03
2.860000e-06	-4.261595e-06	-1.942130e-08	-3.057485e+01	-1.271010e+03
2.870000e-06	-4.351796e-06	-1.964106e-08	-3.122199e+01	-1.285157e+03
2.880000e-06	-4.440465e-06	-1.984991e-08	-3.185815e+01	-1.298564e+03
2.890000e-06	-4.527465e-06	-2.004394e-08	-3.248233e+01	-1.311267e+03
2.900000e-06	-4.612712e-06	-2.022621e-08	-3.309393e+01	-1.323308e+03
2.910000e-06	-4.696259e-06	-2.040106e-08	-3.369335e+01	-1.334736e+03
2.920000e-06	-4.778242e-06	-2.056809e-08	-3.428153e+01	-1.345602e+03
2.930000e-06	-4.858590e-06	-2.072542e-08	-3.485799e+01	-1.355953e+03
2.940000e-06	-4.937041e-06	-2.087562e-08	-3.542084e+01	-1.365824e+03
