# Temperatura_=_68.44
# Concentracion g/m^3_=_28200.0
# C_Vs_to_Am_M_A/Vsm_=_65563218390.804596
# pendiente_HvsI_1/m_=_3716.3
# ordenada_HvsI_A/m_=_1297.0
# frecuencia_Hz_=_302135.8740619152

Tiempo_(s)	Campo_(V.s)	Magnetizacion_(V.s)	Campo_(kA/m)	Magnetizacion_(A/m)
0.000000e+00	-6.380222e-06	-2.467956e-08	-4.585334e+01	-1.617956e+03
1.000000e-08	-6.377089e-06	-2.467393e-08	-4.583083e+01	-1.617481e+03
2.000000e-08	-6.371845e-06	-2.466355e-08	-4.579314e+01	-1.616822e+03
3.000000e-08	-6.364726e-06	-2.465247e-08	-4.574198e+01	-1.615987e+03
4.000000e-08	-6.355510e-06	-2.463541e-08	-4.567574e+01	-1.614988e+03
5.000000e-08	-6.343872e-06	-2.461261e-08	-4.559210e+01	-1.613842e+03
6.000000e-08	-6.329958e-06	-2.458686e-08	-4.549211e+01	-1.612568e+03
7.000000e-08	-6.313838e-06	-2.455972e-08	-4.537626e+01	-1.611180e+03
8.000000e-08	-6.295604e-06	-2.456020e-08	-4.524521e+01	-1.609681e+03
9.000000e-08	-6.275204e-06	-2.460262e-08	-4.509860e+01	-1.608067e+03
1.000000e-07	-6.252418e-06	-2.454542e-08	-4.493484e+01	-1.606320e+03
1.100000e-07	-6.227062e-06	-2.445743e-08	-4.475261e+01	-1.604414e+03
1.200000e-07	-6.199276e-06	-2.442396e-08	-4.455292e+01	-1.602313e+03
1.300000e-07	-6.169475e-06	-2.433639e-08	-4.433875e+01	-1.599982e+03
1.400000e-07	-6.138116e-06	-2.421643e-08	-4.411338e+01	-1.597390e+03
1.500000e-07	-6.105087e-06	-2.435243e-08	-4.387600e+01	-1.594513e+03
1.600000e-07	-6.070043e-06	-2.430396e-08	-4.362415e+01	-1.591338e+03
1.700000e-07	-6.033195e-06	-2.413001e-08	-4.335933e+01	-1.587868e+03
1.800000e-07	-5.994346e-06	-2.421853e-08	-4.308013e+01	-1.584118e+03
1.900000e-07	-5.953012e-06	-2.406916e-08	-4.278307e+01	-1.580113e+03
2.000000e-07	-5.909455e-06	-2.399186e-08	-4.247004e+01	-1.575886e+03
2.100000e-07	-5.863878e-06	-2.401420e-08	-4.214248e+01	-1.571471e+03
2.200000e-07	-5.816061e-06	-2.389785e-08	-4.179884e+01	-1.566900e+03
2.300000e-07	-5.765799e-06	-2.385796e-08	-4.143761e+01	-1.562194e+03
2.400000e-07	-5.712959e-06	-2.376268e-08	-4.105787e+01	-1.557366e+03
2.500000e-07	-5.657915e-06	-2.366789e-08	-4.066227e+01	-1.552412e+03
2.600000e-07	-5.600746e-06	-2.362236e-08	-4.025141e+01	-1.547318e+03
2.700000e-07	-5.541383e-06	-2.351544e-08	-3.982478e+01	-1.542056e+03
2.800000e-07	-5.480052e-06	-2.344143e-08	-3.938400e+01	-1.536592e+03
2.900000e-07	-5.416860e-06	-2.334207e-08	-3.892986e+01	-1.530891e+03
3.000000e-07	-5.351581e-06	-2.327351e-08	-3.846071e+01	-1.524920e+03
3.100000e-07	-5.284142e-06	-2.317968e-08	-3.797604e+01	-1.518652e+03
3.200000e-07	-5.214688e-06	-2.306556e-08	-3.747689e+01	-1.512071e+03
3.300000e-07	-5.143457e-06	-2.296876e-08	-3.696497e+01	-1.505172e+03
3.400000e-07	-5.070464e-06	-2.283455e-08	-3.644039e+01	-1.497957e+03
3.500000e-07	-4.995359e-06	-2.273788e-08	-3.590062e+01	-1.490432e+03
3.600000e-07	-4.918202e-06	-2.261073e-08	-3.534611e+01	-1.482606e+03
3.700000e-07	-4.839004e-06	-2.249081e-08	-3.477693e+01	-1.474482e+03
3.800000e-07	-4.757841e-06	-2.237831e-08	-3.419362e+01	-1.466054e+03
3.900000e-07	-4.675100e-06	-2.222841e-08	-3.359898e+01	-1.457311e+03
4.000000e-07	-4.591004e-06	-2.208138e-08	-3.299460e+01	-1.448231e+03
4.100000e-07	-4.505440e-06	-2.193636e-08	-3.237967e+01	-1.438789e+03
4.200000e-07	-4.418419e-06	-2.179562e-08	-3.175427e+01	-1.428959e+03
4.300000e-07	-4.330016e-06	-2.163771e-08	-3.111893e+01	-1.418718e+03
4.400000e-07	-4.239993e-06	-2.147053e-08	-3.047196e+01	-1.408049e+03
4.500000e-07	-4.148321e-06	-2.130365e-08	-2.981313e+01	-1.396942e+03
4.600000e-07	-4.055158e-06	-2.112055e-08	-2.914359e+01	-1.385391e+03
4.700000e-07	-3.960647e-06	-2.093917e-08	-2.846436e+01	-1.373391e+03
4.800000e-07	-3.864851e-06	-2.075345e-08	-2.777589e+01	-1.360935e+03
4.900000e-07	-3.767583e-06	-2.055912e-08	-2.707685e+01	-1.348005e+03
5.000000e-07	-3.668736e-06	-2.034929e-08	-2.636645e+01	-1.334577e+03
5.100000e-07	-3.568516e-06	-2.013025e-08	-2.564619e+01	-1.320614e+03
5.200000e-07	-3.467108e-06	-1.990407e-08	-2.491739e+01	-1.306073e+03
5.300000e-07	-3.364560e-06	-1.966632e-08	-2.418040e+01	-1.290908e+03
5.400000e-07	-3.260884e-06	-1.942716e-08	-2.343530e+01	-1.275075e+03
5.500000e-07	-3.155969e-06	-1.917747e-08	-2.268130e+01	-1.258534e+03
5.600000e-07	-3.049646e-06	-1.891542e-08	-2.191718e+01	-1.241251e+03
5.700000e-07	-2.942040e-06	-1.863668e-08	-2.114384e+01	-1.223198e+03
5.800000e-07	-2.833420e-06	-1.834575e-08	-2.036321e+01	-1.204344e+03
5.900000e-07	-2.723833e-06	-1.804305e-08	-1.957562e+01	-1.184655e+03
6.000000e-07	-2.613308e-06	-1.772631e-08	-1.878131e+01	-1.164081e+03
6.100000e-07	-2.501935e-06	-1.739712e-08	-1.798089e+01	-1.142557e+03
6.200000e-07	-2.389669e-06	-1.705000e-08	-1.717406e+01	-1.120004e+03
6.300000e-07	-2.276383e-06	-1.668463e-08	-1.635990e+01	-1.096323e+03
6.400000e-07	-2.161957e-06	-1.629818e-08	-1.553754e+01	-1.071412e+03
6.500000e-07	-2.046481e-06	-1.589613e-08	-1.470764e+01	-1.045163e+03
6.600000e-07	-1.930231e-06	-1.547321e-08	-1.387217e+01	-1.017472e+03
6.700000e-07	-1.813331e-06	-1.502722e-08	-1.303204e+01	-9.882391e+02
6.800000e-07	-1.695787e-06	-1.456067e-08	-1.218727e+01	-9.573684e+02
6.900000e-07	-1.577650e-06	-1.406473e-08	-1.133825e+01	-9.247626e+02
7.000000e-07	-1.459073e-06	-1.353722e-08	-1.048606e+01	-8.903172e+02
7.100000e-07	-1.340108e-06	-1.297883e-08	-9.631079e+00	-8.539172e+02
7.200000e-07	-1.220751e-06	-1.239134e-08	-8.773285e+00	-8.154390e+02
7.300000e-07	-1.101040e-06	-1.176887e-08	-7.912945e+00	-7.747597e+02
7.400000e-07	-9.809213e-07	-1.111307e-08	-7.049680e+00	-7.317748e+02
7.500000e-07	-8.604298e-07	-1.042501e-08	-6.183732e+00	-6.864223e+02
7.600000e-07	-7.396220e-07	-9.700241e-09	-5.315511e+00	-6.387089e+02
7.700000e-07	-6.185166e-07	-8.936690e-09	-4.445152e+00	-5.887308e+02
7.800000e-07	-4.971978e-07	-8.141497e-09	-3.573259e+00	-5.366855e+02
7.900000e-07	-3.756971e-07	-7.322800e-09	-2.700058e+00	-4.828660e+02
8.000000e-07	-2.540156e-07	-6.480160e-09	-1.825558e+00	-4.276381e+02
8.100000e-07	-1.322411e-07	-5.623100e-09	-9.503899e-01	-3.713998e+02
8.200000e-07	-1.034116e-08	-4.758424e-09	-7.431977e-02	-3.145292e+02
8.300000e-07	1.116431e-07	-3.889274e-09	8.023557e-01	-2.573311e+02
8.400000e-07	2.335872e-07	-3.015659e-09	1.678743e+00	-1.999903e+02
8.500000e-07	3.554998e-07	-2.139754e-09	2.554904e+00	-1.425442e+02
8.600000e-07	4.772623e-07	-1.259384e-09	3.429986e+00	-8.488088e+01
8.700000e-07	5.987966e-07	-3.714018e-10	4.303428e+00	-2.676552e+01
8.800000e-07	7.201537e-07	5.251690e-10	5.175597e+00	3.210674e+01
8.900000e-07	8.412561e-07	1.436137e-09	6.045935e+00	9.204076e+01
9.000000e-07	9.620366e-07	2.365373e-09	6.913959e+00	1.532655e+02
9.100000e-07	1.082404e-06	3.316833e-09	7.779013e+00	2.158665e+02
9.200000e-07	1.202298e-06	4.288108e-09	8.640671e+00	2.797386e+02
9.300000e-07	1.321788e-06	5.274847e-09	9.499419e+00	3.445691e+02
9.400000e-07	1.440827e-06	6.268661e-09	1.035493e+01	4.098537e+02
9.500000e-07	1.559426e-06	7.260085e-09	1.120727e+01	4.749432e+02
9.600000e-07	1.677524e-06	8.239191e-09	1.205602e+01	5.391113e+02
9.700000e-07	1.794957e-06	9.192143e-09	1.289999e+01	6.016341e+02
9.800000e-07	1.911696e-06	1.010657e-08	1.373897e+01	6.618639e+02
9.900000e-07	2.027700e-06	1.097404e-08	1.457266e+01	7.192890e+02
1.000000e-06	2.142804e-06	1.179649e-08	1.539989e+01	7.735687e+02
1.010000e-06	2.256925e-06	1.256846e-08	1.622006e+01	8.245413e+02
1.020000e-06	2.369998e-06	1.329191e-08	1.703269e+01	8.722066e+02
1.030000e-06	2.482046e-06	1.397093e-08	1.783796e+01	9.166902e+02
1.040000e-06	2.593202e-06	1.460450e-08	1.863681e+01	9.581982e+02
1.050000e-06	2.703484e-06	1.519459e-08	1.942939e+01	9.969714e+02
1.060000e-06	2.812890e-06	1.574407e-08	2.021566e+01	1.033249e+03
1.070000e-06	2.921377e-06	1.625962e-08	2.099533e+01	1.067245e+03
1.080000e-06	3.028905e-06	1.674147e-08	2.176811e+01	1.099139e+03
1.090000e-06	3.135379e-06	1.719371e-08	2.253332e+01	1.129075e+03
1.100000e-06	3.240584e-06	1.761847e-08	2.328941e+01	1.157181e+03
1.110000e-06	3.344495e-06	1.801878e-08	2.403620e+01	1.183573e+03
1.120000e-06	3.447154e-06	1.839579e-08	2.477399e+01	1.208370e+03
1.130000e-06	3.548673e-06	1.875228e-08	2.550358e+01	1.231698e+03
1.140000e-06	3.649125e-06	1.908926e-08	2.622551e+01	1.253687e+03
1.150000e-06	3.748338e-06	1.940818e-08	2.693854e+01	1.274465e+03
1.160000e-06	3.846012e-06	1.970947e-08	2.764050e+01	1.294149e+03
1.170000e-06	3.942097e-06	1.999323e-08	2.833104e+01	1.312836e+03
1.180000e-06	4.036787e-06	2.026210e-08	2.901156e+01	1.330602e+03
1.190000e-06	4.130160e-06	2.051709e-08	2.968261e+01	1.347498e+03
1.200000e-06	4.222293e-06	2.076053e-08	3.034476e+01	1.363557e+03
1.210000e-06	4.313117e-06	2.099264e-08	3.099749e+01	1.378806e+03
1.220000e-06	4.402254e-06	2.121282e-08	3.163810e+01	1.393271e+03
1.230000e-06	4.489587e-06	2.141992e-08	3.226574e+01	1.406986e+03
1.240000e-06	4.575331e-06	2.161684e-08	3.288196e+01	1.419995e+03
1.250000e-06	4.659604e-06	2.180448e-08	3.348762e+01	1.432351e+03
1.260000e-06	4.742332e-06	2.198308e-08	3.408216e+01	1.444111e+03
1.270000e-06	4.823312e-06	2.215336e-08	3.466415e+01	1.455328e+03
1.280000e-06	4.902428e-06	2.231748e-08	3.523274e+01	1.466045e+03
1.290000e-06	4.979685e-06	2.247540e-08	3.578797e+01	1.476289e+03
1.300000e-06	5.055010e-06	2.262563e-08	3.632932e+01	1.486072e+03
1.310000e-06	5.128247e-06	2.276975e-08	3.685566e+01	1.495393e+03
1.320000e-06	5.199518e-06	2.290720e-08	3.736787e+01	1.504243e+03
1.330000e-06	5.268986e-06	2.303580e-08	3.786712e+01	1.512615e+03
1.340000e-06	5.336649e-06	2.315539e-08	3.835340e+01	1.520508e+03
1.350000e-06	5.402318e-06	2.326815e-08	3.882535e+01	1.527932e+03
1.360000e-06	5.465922e-06	2.337678e-08	3.928246e+01	1.534910e+03
1.370000e-06	5.527672e-06	2.348157e-08	3.972625e+01	1.541476e+03
1.380000e-06	5.587750e-06	2.357998e-08	4.015801e+01	1.547667e+03
1.390000e-06	5.645881e-06	2.367029e-08	4.057579e+01	1.553522e+03
1.400000e-06	5.701846e-06	2.375404e-08	4.097800e+01	1.559075e+03
1.410000e-06	5.755707e-06	2.383208e-08	4.136508e+01	1.564351e+03
1.420000e-06	5.807185e-06	2.390712e-08	4.173505e+01	1.569366e+03
1.430000e-06	5.856237e-06	2.397905e-08	4.208757e+01	1.574127e+03
1.440000e-06	5.903134e-06	2.404958e-08	4.242461e+01	1.578638e+03
1.450000e-06	5.948096e-06	2.411825e-08	4.274774e+01	1.582900e+03
1.460000e-06	5.991080e-06	2.418281e-08	4.305666e+01	1.586914e+03
1.470000e-06	6.031830e-06	2.424350e-08	4.334952e+01	1.590682e+03
1.480000e-06	6.070399e-06	2.429997e-08	4.362671e+01	1.594207e+03
1.490000e-06	6.106989e-06	2.435275e-08	4.388968e+01	1.597494e+03
1.500000e-06	6.141425e-06	2.439840e-08	4.413716e+01	1.600543e+03
1.510000e-06	6.173583e-06	2.443875e-08	4.436827e+01	1.603352e+03
1.520000e-06	6.203607e-06	2.447558e-08	4.458405e+01	1.605915e+03
1.530000e-06	6.231552e-06	2.450914e-08	4.478489e+01	1.608227e+03
1.540000e-06	6.257180e-06	2.454040e-08	4.496906e+01	1.610280e+03
1.550000e-06	6.280337e-06	2.457051e-08	4.513549e+01	1.612073e+03
1.560000e-06	6.301382e-06	2.459761e-08	4.528674e+01	1.613607e+03
1.570000e-06	6.320339e-06	2.461962e-08	4.542298e+01	1.614894e+03
1.580000e-06	6.336907e-06	2.463708e-08	4.554205e+01	1.615949e+03
1.590000e-06	6.351070e-06	2.465072e-08	4.564383e+01	1.616791e+03
1.600000e-06	6.362733e-06	2.466089e-08	4.572765e+01	1.617440e+03
1.610000e-06	6.371846e-06	2.466700e-08	4.579315e+01	1.617912e+03
1.620000e-06	6.378598e-06	2.467166e-08	4.584167e+01	1.618216e+03
1.630000e-06	6.383203e-06	2.467624e-08	4.587477e+01	1.618356e+03
1.640000e-06	6.385596e-06	2.467899e-08	4.589196e+01	1.618328e+03
1.650000e-06	6.385684e-06	2.467904e-08	4.589260e+01	1.618125e+03
1.660000e-06	6.383616e-06	2.466939e-08	4.587774e+01	1.617742e+03
1.670000e-06	6.379449e-06	2.466176e-08	4.584779e+01	1.617174e+03
1.680000e-06	6.373111e-06	2.465249e-08	4.580224e+01	1.616426e+03
1.690000e-06	6.364642e-06	2.463992e-08	4.574137e+01	1.615507e+03
1.700000e-06	6.354205e-06	2.462817e-08	4.566636e+01	1.614432e+03
1.710000e-06	6.341591e-06	2.461493e-08	4.557571e+01	1.613221e+03
1.720000e-06	6.326644e-06	2.461059e-08	4.546829e+01	1.611888e+03
1.730000e-06	6.309687e-06	2.455768e-08	4.534642e+01	1.610444e+03
1.740000e-06	6.290727e-06	2.446188e-08	4.521016e+01	1.608889e+03
1.750000e-06	6.269010e-06	2.447491e-08	4.505408e+01	1.607212e+03
1.760000e-06	6.244142e-06	2.448611e-08	4.487536e+01	1.605389e+03
1.770000e-06	6.216895e-06	2.443650e-08	4.467955e+01	1.603390e+03
1.780000e-06	6.187767e-06	2.453055e-08	4.447021e+01	1.601178e+03
1.790000e-06	6.156988e-06	2.446602e-08	4.424901e+01	1.598721e+03
1.800000e-06	6.124830e-06	2.429520e-08	4.401790e+01	1.595988e+03
1.810000e-06	6.090696e-06	2.438163e-08	4.377258e+01	1.592963e+03
1.820000e-06	6.054541e-06	2.423210e-08	4.351274e+01	1.589639e+03
1.830000e-06	6.016370e-06	2.417971e-08	4.323842e+01	1.586027e+03
1.840000e-06	5.975752e-06	2.424750e-08	4.294650e+01	1.582145e+03
1.850000e-06	5.933086e-06	2.399396e-08	4.263987e+01	1.578025e+03
1.860000e-06	5.888385e-06	2.399462e-08	4.231861e+01	1.573700e+03
1.870000e-06	5.841446e-06	2.393179e-08	4.198127e+01	1.569204e+03
1.880000e-06	5.792458e-06	2.381794e-08	4.162920e+01	1.564563e+03
1.890000e-06	5.741056e-06	2.384633e-08	4.125979e+01	1.559795e+03
1.900000e-06	5.687098e-06	2.365507e-08	4.087200e+01	1.554905e+03
1.910000e-06	5.630891e-06	2.365057e-08	4.046805e+01	1.549884e+03
1.920000e-06	5.572646e-06	2.358854e-08	4.004946e+01	1.544710e+03
1.930000e-06	5.512557e-06	2.343436e-08	3.961762e+01	1.539351e+03
1.940000e-06	5.450394e-06	2.341753e-08	3.917086e+01	1.533774e+03
1.950000e-06	5.386081e-06	2.326655e-08	3.870865e+01	1.527941e+03
1.960000e-06	5.319830e-06	2.323957e-08	3.823253e+01	1.521824e+03
1.970000e-06	5.251640e-06	2.309886e-08	3.774246e+01	1.515401e+03
1.980000e-06	5.181362e-06	2.297401e-08	3.723738e+01	1.508662e+03
1.990000e-06	5.109046e-06	2.293181e-08	3.671767e+01	1.501603e+03
2.000000e-06	5.034949e-06	2.277725e-08	3.618514e+01	1.494232e+03
2.010000e-06	4.958803e-06	2.269356e-08	3.563790e+01	1.486556e+03
2.020000e-06	4.880489e-06	2.252025e-08	3.507507e+01	1.478581e+03
2.030000e-06	4.800350e-06	2.242194e-08	3.449913e+01	1.470306e+03
2.040000e-06	4.718587e-06	2.230941e-08	3.391151e+01	1.461723e+03
2.050000e-06	4.635368e-06	2.215400e-08	3.331344e+01	1.452815e+03
2.060000e-06	4.550543e-06	2.203381e-08	3.270381e+01	1.443557e+03
2.070000e-06	4.463943e-06	2.186697e-08	3.208144e+01	1.433924e+03
2.080000e-06	4.375705e-06	2.173071e-08	3.144729e+01	1.423891e+03
2.090000e-06	4.286002e-06	2.154475e-08	3.080261e+01	1.413438e+03
2.100000e-06	4.194972e-06	2.138950e-08	3.014840e+01	1.402551e+03
2.110000e-06	4.102595e-06	2.122706e-08	2.948450e+01	1.391222e+03
2.120000e-06	4.008708e-06	2.104955e-08	2.880976e+01	1.379448e+03
2.130000e-06	3.913276e-06	2.086671e-08	2.812391e+01	1.367221e+03
2.140000e-06	3.816464e-06	2.066563e-08	2.742814e+01	1.354530e+03
2.150000e-06	3.718333e-06	2.047370e-08	2.672289e+01	1.341355e+03
2.160000e-06	3.618929e-06	2.025711e-08	2.600850e+01	1.327665e+03
2.170000e-06	3.518176e-06	2.004902e-08	2.528441e+01	1.313418e+03
2.180000e-06	3.415940e-06	1.981905e-08	2.454966e+01	1.298571e+03
2.190000e-06	3.312329e-06	1.958655e-08	2.380503e+01	1.283078e+03
2.200000e-06	3.207569e-06	1.933770e-08	2.305214e+01	1.266895e+03
2.210000e-06	3.101705e-06	1.908306e-08	2.229132e+01	1.249987e+03
2.220000e-06	2.994701e-06	1.881714e-08	2.152230e+01	1.232322e+03
2.230000e-06	2.886734e-06	1.853834e-08	2.074636e+01	1.213873e+03
2.240000e-06	2.777817e-06	1.824974e-08	1.996360e+01	1.194607e+03
2.250000e-06	2.667794e-06	1.794492e-08	1.917289e+01	1.174482e+03
2.260000e-06	2.556706e-06	1.762624e-08	1.837452e+01	1.153442e+03
2.270000e-06	2.444655e-06	1.728620e-08	1.756924e+01	1.131415e+03
2.280000e-06	2.331593e-06	1.693924e-08	1.675668e+01	1.108311e+03
2.290000e-06	2.217567e-06	1.657129e-08	1.593720e+01	1.084028e+03
2.300000e-06	2.102810e-06	1.618484e-08	1.511246e+01	1.058462e+03
2.310000e-06	1.987330e-06	1.577422e-08	1.428253e+01	1.031504e+03
2.320000e-06	1.870994e-06	1.534280e-08	1.344645e+01	1.003054e+03
2.330000e-06	1.753869e-06	1.488653e-08	1.260470e+01	9.730145e+02
2.340000e-06	1.636009e-06	1.440454e-08	1.175766e+01	9.412887e+02
2.350000e-06	1.517482e-06	1.389554e-08	1.090583e+01	9.077768e+02
2.360000e-06	1.398357e-06	1.335464e-08	1.004970e+01	8.723691e+02
2.370000e-06	1.278667e-06	1.278211e-08	9.189513e+00	8.349458e+02
2.380000e-06	1.158601e-06	1.217464e-08	8.326624e+00	7.953817e+02
2.390000e-06	1.038284e-06	1.153529e-08	7.461935e+00	7.535606e+02
2.400000e-06	9.176523e-07	1.086187e-08	6.594979e+00	7.093960e+02
2.410000e-06	7.967138e-07	1.015384e-08	5.725819e+00	6.628570e+02
2.420000e-06	6.755320e-07	9.410074e-09	4.854909e+00	6.139930e+02
2.430000e-06	5.541009e-07	8.633234e-09	3.982209e+00	5.629503e+02
2.440000e-06	4.324919e-07	7.825613e-09	3.108231e+00	5.099759e+02
2.450000e-06	3.108157e-07	6.990712e-09	2.233769e+00	4.554034e+02
2.460000e-06	1.889723e-07	6.135990e-09	1.358105e+00	3.996205e+02
2.470000e-06	6.695860e-08	5.270724e-09	4.812177e-01	3.430221e+02
2.480000e-06	-5.507973e-08	4.399366e-09	-3.958467e-01	2.859563e+02
2.490000e-06	-1.771018e-07	3.524064e-09	-1.272794e+00	2.286726e+02
2.500000e-06	-2.990905e-07	2.648411e-09	-2.149502e+00	1.712841e+02
2.510000e-06	-4.209786e-07	1.771921e-09	-3.025487e+00	1.137520e+02
2.520000e-06	-5.427061e-07	8.876143e-10	-3.900317e+00	5.589788e+01
2.530000e-06	-6.642396e-07	-8.563602e-12	-4.773754e+00	-2.556044e+00
2.540000e-06	-7.855370e-07	-9.180368e-10	-5.645493e+00	-6.192407e+01
2.550000e-06	-9.065906e-07	-1.840905e-09	-6.515480e+00	-1.224824e+02
2.560000e-06	-1.027372e-06	-2.781246e-09	-7.383512e+00	-1.843957e+02
2.570000e-06	-1.147864e-06	-3.745792e-09	-8.249464e+00	-2.476584e+02
2.580000e-06	-1.267990e-06	-4.731167e-09	-9.112787e+00	-3.120615e+02
2.590000e-06	-1.387666e-06	-5.730777e-09	-9.972873e+00	-3.771926e+02
2.600000e-06	-1.506835e-06	-6.734411e-09	-1.082931e+01	-4.424673e+02
2.610000e-06	-1.625394e-06	-7.727309e-09	-1.168137e+01	-5.071886e+02
2.620000e-06	-1.743245e-06	-8.696693e-09	-1.252834e+01	-5.706214e+02
2.630000e-06	-1.860242e-06	-9.633938e-09	-1.336917e+01	-6.320713e+02
2.640000e-06	-1.976307e-06	-1.053276e-08	-1.420331e+01	-6.909526e+02
2.650000e-06	-2.091535e-06	-1.138763e-08	-1.503143e+01	-7.468363e+02
2.660000e-06	-2.205903e-06	-1.219404e-08	-1.585337e+01	-7.994719e+02
2.670000e-06	-2.319351e-06	-1.294946e-08	-1.666870e+01	-8.487820e+02
2.680000e-06	-2.431796e-06	-1.365496e-08	-1.747681e+01	-8.948346e+02
2.690000e-06	-2.543094e-06	-1.431301e-08	-1.827669e+01	-9.378014e+02
2.700000e-06	-2.653338e-06	-1.492851e-08	-1.906900e+01	-9.779113e+02
2.710000e-06	-2.762656e-06	-1.550647e-08	-1.985464e+01	-1.015408e+03
2.720000e-06	-2.871126e-06	-1.604878e-08	-2.063420e+01	-1.050521e+03
2.730000e-06	-2.978750e-06	-1.655341e-08	-2.140767e+01	-1.083445e+03
2.740000e-06	-3.085415e-06	-1.702422e-08	-2.217424e+01	-1.114343e+03
2.750000e-06	-3.191053e-06	-1.746595e-08	-2.293344e+01	-1.143350e+03
2.760000e-06	-3.295619e-06	-1.788033e-08	-2.368494e+01	-1.170584e+03
2.770000e-06	-3.398964e-06	-1.827188e-08	-2.442766e+01	-1.196163e+03
2.780000e-06	-3.500926e-06	-1.864217e-08	-2.516044e+01	-1.220210e+03
2.790000e-06	-3.601529e-06	-1.899056e-08	-2.588345e+01	-1.242852e+03
2.800000e-06	-3.700913e-06	-1.931706e-08	-2.659770e+01	-1.264219e+03
2.810000e-06	-3.799128e-06	-1.962479e-08	-2.730355e+01	-1.284437e+03
2.820000e-06	-3.896097e-06	-1.991723e-08	-2.800045e+01	-1.303612e+03
2.830000e-06	-3.991769e-06	-2.019591e-08	-2.868802e+01	-1.321831e+03
2.840000e-06	-4.085972e-06	-2.046116e-08	-2.936504e+01	-1.339156e+03
2.850000e-06	-4.178632e-06	-2.071243e-08	-3.003097e+01	-1.355630e+03
2.860000e-06	-4.269849e-06	-2.095025e-08	-3.068653e+01	-1.371281e+03
2.870000e-06	-4.359526e-06	-2.117678e-08	-3.133102e+01	-1.386135e+03
2.880000e-06	-4.447645e-06	-2.139297e-08	-3.196431e+01	-1.400220e+03
2.890000e-06	-4.534184e-06	-2.159952e-08	-3.258625e+01	-1.413576e+03
2.900000e-06	-4.619010e-06	-2.179546e-08	-3.319587e+01	-1.426251e+03
2.910000e-06	-4.702164e-06	-2.198198e-08	-3.379349e+01	-1.438302e+03
2.920000e-06	-4.783654e-06	-2.215933e-08	-3.437914e+01	-1.449784e+03
2.930000e-06	-4.863477e-06	-2.232618e-08	-3.495281e+01	-1.460747e+03
2.940000e-06	-4.941428e-06	-2.248407e-08	-3.551303e+01	-1.471225e+03
