# Temperatura_=_38.66
# Concentracion g/m^3_=_28200.0
# C_Vs_to_Am_M_A/Vsm_=_65563218390.804596
# pendiente_HvsI_1/m_=_3716.3
# ordenada_HvsI_A/m_=_1297.0
# frecuencia_Hz_=_302132.1593665273

Tiempo_(s)	Campo_(V.s)	Magnetizacion_(V.s)	Campo_(kA/m)	Magnetizacion_(A/m)
0.000000e+00	-6.395600e-06	-2.129669e-08	-4.585401e+01	-1.393164e+03
1.000000e-08	-6.392636e-06	-2.129808e-08	-4.583276e+01	-1.392760e+03
2.000000e-08	-6.387555e-06	-2.128891e-08	-4.579633e+01	-1.392241e+03
3.000000e-08	-6.380563e-06	-2.127891e-08	-4.574620e+01	-1.391601e+03
4.000000e-08	-6.371393e-06	-2.126509e-08	-4.568045e+01	-1.390825e+03
5.000000e-08	-6.359843e-06	-2.124502e-08	-4.559765e+01	-1.389894e+03
6.000000e-08	-6.346035e-06	-2.122563e-08	-4.549865e+01	-1.388792e+03
7.000000e-08	-6.329922e-06	-2.120224e-08	-4.538312e+01	-1.387513e+03
8.000000e-08	-6.311665e-06	-2.117946e-08	-4.525223e+01	-1.386067e+03
9.000000e-08	-6.291375e-06	-2.124331e-08	-4.510676e+01	-1.384481e+03
1.000000e-07	-6.268757e-06	-2.121074e-08	-4.494459e+01	-1.382798e+03
1.100000e-07	-6.243458e-06	-2.110941e-08	-4.476321e+01	-1.381069e+03
1.200000e-07	-6.215649e-06	-2.108320e-08	-4.456383e+01	-1.379343e+03
1.300000e-07	-6.185915e-06	-2.105872e-08	-4.435065e+01	-1.377657e+03
1.400000e-07	-6.154660e-06	-2.092415e-08	-4.412656e+01	-1.376021e+03
1.500000e-07	-6.121738e-06	-2.099016e-08	-4.389052e+01	-1.374419e+03
1.600000e-07	-6.086738e-06	-2.108882e-08	-4.363959e+01	-1.372801e+03
1.700000e-07	-6.049856e-06	-2.083912e-08	-4.337515e+01	-1.371095e+03
1.800000e-07	-6.011099e-06	-2.091893e-08	-4.309728e+01	-1.369215e+03
1.900000e-07	-5.969911e-06	-2.089544e-08	-4.280198e+01	-1.367077e+03
2.000000e-07	-5.926465e-06	-2.070409e-08	-4.249049e+01	-1.364612e+03
2.100000e-07	-5.880931e-06	-2.076764e-08	-4.216403e+01	-1.361778e+03
2.200000e-07	-5.833167e-06	-2.067375e-08	-4.182158e+01	-1.358568e+03
2.300000e-07	-5.782966e-06	-2.061401e-08	-4.146166e+01	-1.355003e+03
2.400000e-07	-5.730165e-06	-2.058487e-08	-4.108309e+01	-1.351127e+03
2.500000e-07	-5.675161e-06	-2.049821e-08	-4.068873e+01	-1.346998e+03
2.600000e-07	-5.618017e-06	-2.045834e-08	-4.027904e+01	-1.342670e+03
2.700000e-07	-5.558696e-06	-2.036882e-08	-3.985373e+01	-1.338180e+03
2.800000e-07	-5.497411e-06	-2.031716e-08	-3.941434e+01	-1.333546e+03
2.900000e-07	-5.434194e-06	-2.023372e-08	-3.896110e+01	-1.328762e+03
3.000000e-07	-5.368869e-06	-2.015204e-08	-3.849274e+01	-1.323801e+03
3.100000e-07	-5.301465e-06	-2.009281e-08	-3.800948e+01	-1.318626e+03
3.200000e-07	-5.232083e-06	-1.997715e-08	-3.751204e+01	-1.313198e+03
3.300000e-07	-5.160857e-06	-1.991470e-08	-3.700137e+01	-1.307486e+03
3.400000e-07	-5.087796e-06	-1.980289e-08	-3.647755e+01	-1.301476e+03
3.500000e-07	-5.012682e-06	-1.970212e-08	-3.593902e+01	-1.295164e+03
3.600000e-07	-4.935467e-06	-1.961618e-08	-3.538542e+01	-1.288560e+03
3.700000e-07	-4.856155e-06	-1.949851e-08	-3.481678e+01	-1.281679e+03
3.800000e-07	-4.774986e-06	-1.940704e-08	-3.423483e+01	-1.274531e+03
3.900000e-07	-4.692195e-06	-1.927929e-08	-3.364124e+01	-1.267117e+03
4.000000e-07	-4.607932e-06	-1.916273e-08	-3.303711e+01	-1.259426e+03
4.100000e-07	-4.522282e-06	-1.904152e-08	-3.242303e+01	-1.251434e+03
4.200000e-07	-4.435243e-06	-1.891934e-08	-3.179900e+01	-1.243108e+03
4.300000e-07	-4.346838e-06	-1.879079e-08	-3.116517e+01	-1.234415e+03
4.400000e-07	-4.256755e-06	-1.864007e-08	-3.051931e+01	-1.225326e+03
4.500000e-07	-4.164981e-06	-1.850329e-08	-2.986133e+01	-1.215822e+03
4.600000e-07	-4.071725e-06	-1.834488e-08	-2.919271e+01	-1.205896e+03
4.700000e-07	-3.977051e-06	-1.818951e-08	-2.851394e+01	-1.195547e+03
4.800000e-07	-3.881116e-06	-1.802738e-08	-2.782612e+01	-1.184779e+03
4.900000e-07	-3.783798e-06	-1.785967e-08	-2.712838e+01	-1.173593e+03
5.000000e-07	-3.684920e-06	-1.767771e-08	-2.641947e+01	-1.161978e+03
5.100000e-07	-3.584633e-06	-1.748819e-08	-2.570045e+01	-1.149912e+03
5.200000e-07	-3.483125e-06	-1.729804e-08	-2.497267e+01	-1.137358e+03
5.300000e-07	-3.380456e-06	-1.709324e-08	-2.423658e+01	-1.124270e+03
5.400000e-07	-3.276636e-06	-1.688587e-08	-2.349223e+01	-1.110596e+03
5.500000e-07	-3.171539e-06	-1.666481e-08	-2.273872e+01	-1.096288e+03
5.600000e-07	-3.065024e-06	-1.643749e-08	-2.197505e+01	-1.081300e+03
5.700000e-07	-2.957226e-06	-1.619459e-08	-2.120218e+01	-1.065597e+03
5.800000e-07	-2.848362e-06	-1.594355e-08	-2.042167e+01	-1.049148e+03
5.900000e-07	-2.738561e-06	-1.567960e-08	-1.963444e+01	-1.031924e+03
6.000000e-07	-2.627893e-06	-1.540237e-08	-1.884099e+01	-1.013893e+03
6.100000e-07	-2.516238e-06	-1.511248e-08	-1.804046e+01	-9.950114e+02
6.200000e-07	-2.403599e-06	-1.480936e-08	-1.723289e+01	-9.752229e+02
6.300000e-07	-2.290027e-06	-1.449365e-08	-1.641862e+01	-9.544570e+02
6.400000e-07	-2.175352e-06	-1.415716e-08	-1.559644e+01	-9.326309e+02
6.500000e-07	-2.059715e-06	-1.380567e-08	-1.476737e+01	-9.096547e+02
6.600000e-07	-1.943313e-06	-1.343399e-08	-1.393281e+01	-8.854355e+02
6.700000e-07	-1.826172e-06	-1.304273e-08	-1.309296e+01	-8.598813e+02
6.800000e-07	-1.708378e-06	-1.263319e-08	-1.224842e+01	-8.329023e+02
6.900000e-07	-1.590090e-06	-1.220332e-08	-1.140034e+01	-8.044102e+02
7.000000e-07	-1.471399e-06	-1.174640e-08	-1.054937e+01	-7.743155e+02
7.100000e-07	-1.352229e-06	-1.125981e-08	-9.694965e+00	-7.425277e+02
7.200000e-07	-1.232546e-06	-1.074727e-08	-8.836886e+00	-7.089570e+02
7.300000e-07	-1.112424e-06	-1.020416e-08	-7.975658e+00	-6.735223e+02
7.400000e-07	-9.919527e-07	-9.633535e-09	-7.111922e+00	-6.361649e+02
7.500000e-07	-8.711422e-07	-9.034856e-09	-6.245756e+00	-5.968656e+02
7.600000e-07	-7.500042e-07	-8.408718e-09	-5.377244e+00	-5.556634e+02
7.700000e-07	-6.286316e-07	-7.754363e-09	-4.507048e+00	-5.126705e+02
7.800000e-07	-5.071079e-07	-7.077540e-09	-3.635770e+00	-4.680778e+02
7.900000e-07	-3.853968e-07	-6.382962e-09	-2.763148e+00	-4.221492e+02
8.000000e-07	-2.634920e-07	-5.669229e-09	-1.889137e+00	-3.752004e+02
8.100000e-07	-1.415033e-07	-4.944161e-09	-1.014525e+00	-3.275659e+02
8.200000e-07	-1.946897e-08	-4.213128e-09	-1.395851e-01	-2.795572e+02
8.300000e-07	1.026371e-07	-3.482166e-09	7.358689e-01	-2.314199e+02
8.400000e-07	2.247055e-07	-2.750022e-09	1.611052e+00	-1.832977e+02
8.500000e-07	3.466955e-07	-2.019912e-09	2.485674e+00	-1.352111e+02
8.600000e-07	4.686094e-07	-1.289227e-09	3.359750e+00	-8.705618e+01
8.700000e-07	5.903761e-07	-5.531234e-10	4.232771e+00	-3.862633e+01
8.800000e-07	7.119813e-07	1.924404e-10	5.104634e+00	1.034702e+01
8.900000e-07	8.334114e-07	9.501440e-10	5.975242e+00	6.013933e+01
9.000000e-07	9.546003e-07	1.723236e-09	6.844119e+00	1.109736e+02
9.100000e-07	1.075454e-06	2.514501e-09	7.710594e+00	1.629666e+02
9.200000e-07	1.195885e-06	3.322883e-09	8.574041e+00	2.160901e+02
9.300000e-07	1.315840e-06	4.145574e-09	9.434067e+00	2.701543e+02
9.400000e-07	1.435208e-06	4.975300e-09	1.028989e+01	3.248147e+02
9.500000e-07	1.554004e-06	5.809216e-09	1.114162e+01	3.796028e+02
9.600000e-07	1.672324e-06	6.636785e-09	1.198992e+01	4.339727e+02
9.700000e-07	1.790094e-06	7.447347e-09	1.283429e+01	4.873571e+02
9.800000e-07	1.907202e-06	8.233469e-09	1.367391e+01	5.392226e+02
9.900000e-07	2.023616e-06	8.989468e-09	1.450856e+01	5.891156e+02
1.000000e-06	2.139193e-06	9.714788e-09	1.533720e+01	6.366944e+02
1.010000e-06	2.253664e-06	1.040019e-08	1.615791e+01	6.817421e+02
1.020000e-06	2.367118e-06	1.104447e-08	1.697133e+01	7.241635e+02
1.030000e-06	2.479641e-06	1.164661e-08	1.777808e+01	7.639680e+02
1.040000e-06	2.591143e-06	1.221113e-08	1.857750e+01	8.012440e+02
1.050000e-06	2.701700e-06	1.274020e-08	1.937016e+01	8.361310e+02
1.060000e-06	2.811383e-06	1.323475e-08	2.015654e+01	8.687935e+02
1.070000e-06	2.920222e-06	1.369792e-08	2.093688e+01	8.994009e+02
1.080000e-06	3.028172e-06	1.413273e-08	2.171084e+01	9.281148e+02
1.090000e-06	3.135018e-06	1.454200e-08	2.247688e+01	9.550828e+02
1.100000e-06	3.240576e-06	1.492602e-08	2.323369e+01	9.804378e+02
1.110000e-06	3.344857e-06	1.528762e-08	2.398135e+01	1.004300e+03
1.120000e-06	3.447951e-06	1.562912e-08	2.472049e+01	1.026779e+03
1.130000e-06	3.549846e-06	1.595356e-08	2.545104e+01	1.047978e+03
1.140000e-06	3.650576e-06	1.625792e-08	2.617324e+01	1.067992e+03
1.150000e-06	3.750051e-06	1.654489e-08	2.688644e+01	1.086909e+03
1.160000e-06	3.848070e-06	1.681598e-08	2.758919e+01	1.104807e+03
1.170000e-06	3.944596e-06	1.707240e-08	2.828124e+01	1.121757e+03
1.180000e-06	4.039667e-06	1.731450e-08	2.896287e+01	1.137818e+03
1.190000e-06	4.133372e-06	1.754579e-08	2.963470e+01	1.153044e+03
1.200000e-06	4.225787e-06	1.776536e-08	3.029728e+01	1.167481e+03
1.210000e-06	4.316854e-06	1.797280e-08	3.095019e+01	1.181174e+03
1.220000e-06	4.406287e-06	1.816792e-08	3.159139e+01	1.194167e+03
1.230000e-06	4.493930e-06	1.835256e-08	3.221976e+01	1.206503e+03
1.240000e-06	4.579933e-06	1.852889e-08	3.283637e+01	1.218224e+03
1.250000e-06	4.664463e-06	1.869699e-08	3.344242e+01	1.229372e+03
1.260000e-06	4.747517e-06	1.885794e-08	3.403788e+01	1.239983e+03
1.270000e-06	4.828815e-06	1.901259e-08	3.462076e+01	1.250087e+03
1.280000e-06	4.908187e-06	1.916149e-08	3.518982e+01	1.259706e+03
1.290000e-06	4.985748e-06	1.930274e-08	3.574591e+01	1.268855e+03
1.300000e-06	5.061489e-06	1.943662e-08	3.628894e+01	1.277543e+03
1.310000e-06	5.135190e-06	1.956262e-08	3.681735e+01	1.285773e+03
1.320000e-06	5.206865e-06	1.968084e-08	3.733123e+01	1.293552e+03
1.330000e-06	5.276635e-06	1.979207e-08	3.783146e+01	1.300888e+03
1.340000e-06	5.344619e-06	1.989644e-08	3.831888e+01	1.307794e+03
1.350000e-06	5.410585e-06	1.999416e-08	3.879183e+01	1.314291e+03
1.360000e-06	5.474448e-06	2.008544e-08	3.924970e+01	1.320406e+03
1.370000e-06	5.536493e-06	2.017262e-08	3.969454e+01	1.326171e+03
1.380000e-06	5.596805e-06	2.025661e-08	4.012695e+01	1.331621e+03
1.390000e-06	5.655205e-06	2.033740e-08	4.054566e+01	1.336789e+03
1.400000e-06	5.711464e-06	2.041477e-08	4.094901e+01	1.341708e+03
1.410000e-06	5.765609e-06	2.048680e-08	4.133721e+01	1.346399e+03
1.420000e-06	5.817481e-06	2.055432e-08	4.170912e+01	1.350880e+03
1.430000e-06	5.866866e-06	2.061652e-08	4.206319e+01	1.355155e+03
1.440000e-06	5.913947e-06	2.067724e-08	4.240074e+01	1.359225e+03
1.450000e-06	5.959108e-06	2.073645e-08	4.272453e+01	1.363078e+03
1.460000e-06	6.002339e-06	2.079378e-08	4.303448e+01	1.366703e+03
1.470000e-06	6.043357e-06	2.084815e-08	4.332856e+01	1.370085e+03
1.480000e-06	6.082134e-06	2.089545e-08	4.360658e+01	1.373211e+03
1.490000e-06	6.118914e-06	2.093716e-08	4.387028e+01	1.376075e+03
1.500000e-06	6.153519e-06	2.097410e-08	4.411838e+01	1.378675e+03
1.510000e-06	6.185816e-06	2.100859e-08	4.434994e+01	1.381020e+03
1.520000e-06	6.216025e-06	2.103996e-08	4.456652e+01	1.383123e+03
1.530000e-06	6.244259e-06	2.106829e-08	4.476895e+01	1.385002e+03
1.540000e-06	6.270190e-06	2.109389e-08	4.495487e+01	1.386675e+03
1.550000e-06	6.293590e-06	2.111621e-08	4.512264e+01	1.388158e+03
1.560000e-06	6.314788e-06	2.113559e-08	4.527462e+01	1.389462e+03
1.570000e-06	6.333883e-06	2.115317e-08	4.541152e+01	1.390593e+03
1.580000e-06	6.350698e-06	2.116863e-08	4.553208e+01	1.391551e+03
1.590000e-06	6.365114e-06	2.118132e-08	4.563544e+01	1.392330e+03
1.600000e-06	6.377073e-06	2.118991e-08	4.572117e+01	1.392927e+03
1.610000e-06	6.386418e-06	2.119596e-08	4.578817e+01	1.393340e+03
1.620000e-06	6.393362e-06	2.120037e-08	4.583796e+01	1.393573e+03
1.630000e-06	6.398222e-06	2.120225e-08	4.587281e+01	1.393638e+03
1.640000e-06	6.400797e-06	2.120212e-08	4.589127e+01	1.393549e+03
1.650000e-06	6.400983e-06	2.120571e-08	4.589260e+01	1.393323e+03
1.660000e-06	6.398977e-06	2.119827e-08	4.587822e+01	1.392976e+03
1.670000e-06	6.394974e-06	2.119079e-08	4.584952e+01	1.392515e+03
1.680000e-06	6.388772e-06	2.118238e-08	4.580505e+01	1.391937e+03
1.690000e-06	6.380406e-06	2.116906e-08	4.574507e+01	1.391231e+03
1.700000e-06	6.370100e-06	2.115570e-08	4.567118e+01	1.390380e+03
1.710000e-06	6.357645e-06	2.114346e-08	4.558189e+01	1.389365e+03
1.720000e-06	6.342937e-06	2.114316e-08	4.547643e+01	1.388175e+03
1.730000e-06	6.326136e-06	2.112089e-08	4.535598e+01	1.386810e+03
1.740000e-06	6.307319e-06	2.098511e-08	4.522106e+01	1.385289e+03
1.750000e-06	6.285772e-06	2.098487e-08	4.506658e+01	1.383649e+03
1.760000e-06	6.261055e-06	2.103377e-08	4.488937e+01	1.381936e+03
1.770000e-06	6.233894e-06	2.098473e-08	4.469464e+01	1.380203e+03
1.780000e-06	6.204756e-06	2.105387e-08	4.448573e+01	1.378494e+03
1.790000e-06	6.173918e-06	2.108128e-08	4.426463e+01	1.376833e+03
1.800000e-06	6.141799e-06	2.082114e-08	4.403435e+01	1.375218e+03
1.810000e-06	6.107711e-06	2.089826e-08	4.378995e+01	1.373616e+03
1.820000e-06	6.071502e-06	2.089554e-08	4.353035e+01	1.371964e+03
1.830000e-06	6.033378e-06	2.077175e-08	4.325702e+01	1.370182e+03
1.840000e-06	5.992870e-06	2.103042e-08	4.296659e+01	1.368183e+03
1.850000e-06	5.950238e-06	2.086212e-08	4.266093e+01	1.365888e+03
1.860000e-06	5.905611e-06	2.080476e-08	4.234098e+01	1.363242e+03
1.870000e-06	5.858731e-06	2.085052e-08	4.200486e+01	1.360220e+03
1.880000e-06	5.809785e-06	2.063468e-08	4.165394e+01	1.356827e+03
1.890000e-06	5.758432e-06	2.071067e-08	4.128576e+01	1.353100e+03
1.900000e-06	5.704444e-06	2.058816e-08	4.089868e+01	1.349091e+03
1.910000e-06	5.648232e-06	2.051484e-08	4.049567e+01	1.344856e+03
1.920000e-06	5.589973e-06	2.055598e-08	4.007797e+01	1.340443e+03
1.930000e-06	5.529948e-06	2.035175e-08	3.964762e+01	1.335881e+03
1.940000e-06	5.467836e-06	2.038491e-08	3.920229e+01	1.331174e+03
1.950000e-06	5.403524e-06	2.024080e-08	3.874121e+01	1.326306e+03
1.960000e-06	5.337282e-06	2.018964e-08	3.826627e+01	1.321243e+03
1.970000e-06	5.268999e-06	2.013259e-08	3.777671e+01	1.315945e+03
1.980000e-06	5.198605e-06	1.996846e-08	3.727201e+01	1.310379e+03
1.990000e-06	5.126144e-06	1.998260e-08	3.675249e+01	1.304519e+03
2.000000e-06	5.051935e-06	1.982056e-08	3.622044e+01	1.298357e+03
2.010000e-06	4.975826e-06	1.975305e-08	3.567477e+01	1.291897e+03
2.020000e-06	4.897549e-06	1.963822e-08	3.511356e+01	1.285153e+03
2.030000e-06	4.817416e-06	1.952707e-08	3.453903e+01	1.278138e+03
2.040000e-06	4.735652e-06	1.946374e-08	3.395282e+01	1.270858e+03
2.050000e-06	4.652323e-06	1.929859e-08	3.335538e+01	1.263308e+03
2.060000e-06	4.567407e-06	1.921037e-08	3.274656e+01	1.255470e+03
2.070000e-06	4.480743e-06	1.905792e-08	3.212522e+01	1.247315e+03
2.080000e-06	4.392453e-06	1.894205e-08	3.149221e+01	1.238809e+03
2.090000e-06	4.302664e-06	1.879389e-08	3.084846e+01	1.229921e+03
2.100000e-06	4.211434e-06	1.864723e-08	3.019437e+01	1.220627e+03
2.110000e-06	4.118901e-06	1.852073e-08	2.953095e+01	1.210912e+03
2.120000e-06	4.024939e-06	1.835305e-08	2.885727e+01	1.200774e+03
2.130000e-06	3.929421e-06	1.820481e-08	2.817245e+01	1.190215e+03
2.140000e-06	3.832459e-06	1.802707e-08	2.747727e+01	1.179239e+03
2.150000e-06	3.734153e-06	1.786809e-08	2.677245e+01	1.167840e+03
2.160000e-06	3.634567e-06	1.767926e-08	2.605846e+01	1.156003e+03
2.170000e-06	3.533666e-06	1.749687e-08	2.533504e+01	1.143698e+03
2.180000e-06	3.431348e-06	1.729973e-08	2.460145e+01	1.130884e+03
2.190000e-06	3.327635e-06	1.709621e-08	2.385787e+01	1.117509e+03
2.200000e-06	3.222700e-06	1.688307e-08	2.310553e+01	1.103524e+03
2.210000e-06	3.116688e-06	1.665739e-08	2.234547e+01	1.088881e+03
2.220000e-06	3.009586e-06	1.642751e-08	2.157758e+01	1.073540e+03
2.230000e-06	2.901452e-06	1.618273e-08	2.080231e+01	1.057467e+03
2.240000e-06	2.792399e-06	1.593613e-08	2.002043e+01	1.040635e+03
2.250000e-06	2.682269e-06	1.567022e-08	1.923084e+01	1.023012e+03
2.260000e-06	2.571036e-06	1.539368e-08	1.843335e+01	1.004562e+03
2.270000e-06	2.458802e-06	1.509285e-08	1.762867e+01	9.852346e+02
2.280000e-06	2.345534e-06	1.478311e-08	1.681658e+01	9.649671e+02
2.290000e-06	2.231340e-06	1.445687e-08	1.599786e+01	9.436820e+02
2.300000e-06	2.116342e-06	1.411595e-08	1.517337e+01	9.212924e+02
2.310000e-06	2.000504e-06	1.375794e-08	1.434285e+01	8.977063e+02
2.320000e-06	1.883857e-06	1.338049e-08	1.350654e+01	8.728309e+02
2.330000e-06	1.766485e-06	1.298139e-08	1.266503e+01	8.465754e+02
2.340000e-06	1.648426e-06	1.255916e-08	1.181858e+01	8.188509e+02
2.350000e-06	1.529682e-06	1.211433e-08	1.096723e+01	7.895688e+02
2.360000e-06	1.410277e-06	1.164277e-08	1.011115e+01	7.586390e+02
2.370000e-06	1.290436e-06	1.114632e-08	9.251935e+00	7.259706e+02
2.380000e-06	1.170232e-06	1.061573e-08	8.390117e+00	6.914771e+02
2.390000e-06	1.049670e-06	1.005665e-08	7.525734e+00	6.550863e+02
2.400000e-06	9.287909e-07	9.468725e-09	6.659076e+00	6.167571e+02
2.410000e-06	8.075773e-07	8.855437e-09	5.790021e+00	5.764972e+02
2.420000e-06	6.860683e-07	8.215074e-09	4.918847e+00	5.343807e+02
2.430000e-06	5.643915e-07	7.546598e-09	4.046472e+00	4.905592e+02
2.440000e-06	4.425867e-07	6.854521e-09	3.173177e+00	4.452617e+02
2.450000e-06	3.205916e-07	6.143818e-09	2.298519e+00	3.987814e+02
2.460000e-06	1.984278e-07	5.418738e-09	1.422652e+00	3.514483e+02
2.470000e-06	7.618272e-08	4.682054e-09	5.462010e-01	3.035909e+02
2.480000e-06	-4.605775e-08	3.943637e-09	-3.302164e-01	2.554929e+02
2.490000e-06	-1.682738e-07	3.206227e-09	-1.206459e+00	2.073527e+02
2.500000e-06	-2.904315e-07	2.470169e-09	-2.082283e+00	1.592537e+02
2.510000e-06	-4.125499e-07	1.735872e-09	-2.957825e+00	1.111531e+02
2.520000e-06	-5.346050e-07	9.982326e-10	-3.832914e+00	6.289156e+01
2.530000e-06	-6.564789e-07	2.534178e-10	-4.706703e+00	1.422535e+01
2.540000e-06	-7.781675e-07	-5.025457e-10	-5.579163e+00	-3.512496e+01
2.550000e-06	-8.996262e-07	-1.271924e-09	-6.449976e+00	-8.541589e+01
2.560000e-06	-1.020750e-06	-2.055475e-09	-7.318386e+00	-1.368233e+02
2.570000e-06	-1.141545e-06	-2.858459e-09	-8.184441e+00	-1.893951e+02
2.580000e-06	-1.261994e-06	-3.678947e-09	-9.048014e+00	-2.430228e+02
2.590000e-06	-1.381986e-06	-4.511957e-09	-9.908313e+00	-2.974368e+02
2.600000e-06	-1.501367e-06	-5.352326e-09	-1.076423e+01	-3.522258e+02
2.610000e-06	-1.620135e-06	-6.190754e-09	-1.161575e+01	-4.068757e+02
2.620000e-06	-1.738210e-06	-7.016703e-09	-1.246230e+01	-4.608229e+02
2.630000e-06	-1.855559e-06	-7.820905e-09	-1.330365e+01	-5.135104e+02
2.640000e-06	-1.972121e-06	-8.599781e-09	-1.413936e+01	-5.644399e+02
2.650000e-06	-2.087713e-06	-9.347474e-09	-1.496810e+01	-6.132108e+02
2.660000e-06	-2.202423e-06	-1.005788e-08	-1.579053e+01	-6.595433e+02
2.670000e-06	-2.316304e-06	-1.072762e-08	-1.660701e+01	-7.032827e+02
2.680000e-06	-2.429082e-06	-1.135652e-08	-1.741559e+01	-7.443888e+02
2.690000e-06	-2.540755e-06	-1.194799e-08	-1.821625e+01	-7.829142e+02
2.700000e-06	-2.651419e-06	-1.250349e-08	-1.900966e+01	-8.189762e+02
2.710000e-06	-2.761068e-06	-1.302342e-08	-1.979580e+01	-8.527297e+02
2.720000e-06	-2.869836e-06	-1.350840e-08	-2.057563e+01	-8.843437e+02
2.730000e-06	-2.977720e-06	-1.396236e-08	-2.134912e+01	-9.139850e+02
2.740000e-06	-3.084712e-06	-1.438873e-08	-2.211621e+01	-9.418084e+02
2.750000e-06	-3.190705e-06	-1.478897e-08	-2.287614e+01	-9.679542e+02
2.760000e-06	-3.295558e-06	-1.516792e-08	-2.362789e+01	-9.925484e+02
2.770000e-06	-3.399192e-06	-1.552508e-08	-2.437091e+01	-1.015706e+03
2.780000e-06	-3.501538e-06	-1.585881e-08	-2.510469e+01	-1.037533e+03
2.790000e-06	-3.602559e-06	-1.617141e-08	-2.582897e+01	-1.058128e+03
2.800000e-06	-3.702302e-06	-1.646754e-08	-2.654409e+01	-1.077583e+03
2.810000e-06	-3.800864e-06	-1.675067e-08	-2.725074e+01	-1.095981e+03
2.820000e-06	-3.898181e-06	-1.701878e-08	-2.794847e+01	-1.113397e+03
2.830000e-06	-3.994156e-06	-1.727044e-08	-2.863657e+01	-1.129895e+03
2.840000e-06	-4.088698e-06	-1.750961e-08	-2.931440e+01	-1.145532e+03
2.850000e-06	-4.181725e-06	-1.773861e-08	-2.998137e+01	-1.160358e+03
2.860000e-06	-4.273254e-06	-1.795745e-08	-3.063760e+01	-1.174418e+03
2.870000e-06	-4.363240e-06	-1.816528e-08	-3.128277e+01	-1.187755e+03
2.880000e-06	-4.451656e-06	-1.836108e-08	-3.191667e+01	-1.200414e+03
2.890000e-06	-4.538453e-06	-1.854471e-08	-3.253898e+01	-1.212438e+03
2.900000e-06	-4.623521e-06	-1.871815e-08	-3.314888e+01	-1.223868e+03
2.910000e-06	-4.706981e-06	-1.888471e-08	-3.374726e+01	-1.234743e+03
2.920000e-06	-4.788893e-06	-1.904221e-08	-3.433454e+01	-1.245097e+03
2.930000e-06	-4.869136e-06	-1.919151e-08	-3.490985e+01	-1.254956e+03
2.940000e-06	-4.947477e-06	-1.933494e-08	-3.547152e+01	-1.264339e+03
