# Temperatura_=_92.18
# Concentracion g/m^3_=_28200.0
# C_Vs_to_Am_M_A/Vsm_=_65563218390.804596
# pendiente_HvsI_1/m_=_3716.3
# ordenada_HvsI_A/m_=_1297.0
# frecuencia_Hz_=_302137.71449395566

Tiempo_(s)	Campo_(V.s)	Magnetizacion_(V.s)	Campo_(kA/m)	Magnetizacion_(A/m)
0.000000e+00	-6.431190e-06	-3.102207e-08	-4.585737e+01	-2.032955e+03
1.000000e-08	-6.428151e-06	-3.101830e-08	-4.583570e+01	-2.032369e+03
2.000000e-08	-6.422952e-06	-3.100744e-08	-4.579863e+01	-2.031571e+03
3.000000e-08	-6.415839e-06	-3.099069e-08	-4.574791e+01	-2.030560e+03
4.000000e-08	-6.406675e-06	-3.096911e-08	-4.568257e+01	-2.029338e+03
5.000000e-08	-6.395126e-06	-3.094344e-08	-4.560021e+01	-2.027907e+03
6.000000e-08	-6.381162e-06	-3.091415e-08	-4.550064e+01	-2.026270e+03
7.000000e-08	-6.364928e-06	-3.088181e-08	-4.538489e+01	-2.024430e+03
8.000000e-08	-6.346606e-06	-3.087277e-08	-4.525424e+01	-2.022394e+03
9.000000e-08	-6.326191e-06	-3.088449e-08	-4.510867e+01	-2.020167e+03
1.000000e-07	-6.303385e-06	-3.082572e-08	-4.494606e+01	-2.017754e+03
1.100000e-07	-6.277976e-06	-3.074024e-08	-4.476488e+01	-2.015159e+03
1.200000e-07	-6.250132e-06	-3.068924e-08	-4.456634e+01	-2.012381e+03
1.300000e-07	-6.220241e-06	-3.060729e-08	-4.435321e+01	-2.009413e+03
1.400000e-07	-6.188754e-06	-3.051311e-08	-4.412869e+01	-2.006235e+03
1.500000e-07	-6.155602e-06	-3.057019e-08	-4.389230e+01	-2.002821e+03
1.600000e-07	-6.120373e-06	-3.051129e-08	-4.364110e+01	-1.999136e+03
1.700000e-07	-6.083162e-06	-3.038532e-08	-4.337577e+01	-1.995140e+03
1.800000e-07	-6.043936e-06	-3.040077e-08	-4.309607e+01	-1.990802e+03
1.900000e-07	-6.002377e-06	-3.026250e-08	-4.279973e+01	-1.986097e+03
2.000000e-07	-5.958642e-06	-3.016391e-08	-4.248788e+01	-1.981019e+03
2.100000e-07	-5.912814e-06	-3.011570e-08	-4.216110e+01	-1.975584e+03
2.200000e-07	-5.864652e-06	-2.999722e-08	-4.181769e+01	-1.969823e+03
2.300000e-07	-5.813993e-06	-2.994155e-08	-4.145646e+01	-1.963781e+03
2.400000e-07	-5.760811e-06	-2.984433e-08	-4.107726e+01	-1.957503e+03
2.500000e-07	-5.705406e-06	-2.974550e-08	-4.068219e+01	-1.951028e+03
2.600000e-07	-5.647858e-06	-2.965632e-08	-4.027185e+01	-1.944376e+03
2.700000e-07	-5.588139e-06	-2.952110e-08	-3.984602e+01	-1.937542e+03
2.800000e-07	-5.526441e-06	-2.942464e-08	-3.940609e+01	-1.930496e+03
2.900000e-07	-5.462792e-06	-2.930592e-08	-3.895224e+01	-1.923190e+03
3.000000e-07	-5.397042e-06	-2.920480e-08	-3.848342e+01	-1.915567e+03
3.100000e-07	-5.329182e-06	-2.909663e-08	-3.799954e+01	-1.907572e+03
3.200000e-07	-5.259290e-06	-2.895197e-08	-3.750118e+01	-1.899163e+03
3.300000e-07	-5.187584e-06	-2.880267e-08	-3.698988e+01	-1.890320e+03
3.400000e-07	-5.114080e-06	-2.865046e-08	-3.646576e+01	-1.881044e+03
3.500000e-07	-5.038406e-06	-2.852084e-08	-3.592617e+01	-1.871355e+03
3.600000e-07	-4.960585e-06	-2.835757e-08	-3.537127e+01	-1.861281e+03
3.700000e-07	-4.880769e-06	-2.820567e-08	-3.480215e+01	-1.850845e+03
3.800000e-07	-4.799123e-06	-2.805384e-08	-3.421997e+01	-1.840058e+03
3.900000e-07	-4.715898e-06	-2.786645e-08	-3.362654e+01	-1.828910e+03
4.000000e-07	-4.631249e-06	-2.768759e-08	-3.302295e+01	-1.817373e+03
4.100000e-07	-4.545158e-06	-2.750775e-08	-3.240909e+01	-1.805401e+03
4.200000e-07	-4.457658e-06	-2.732020e-08	-3.178517e+01	-1.792945e+03
4.300000e-07	-4.368665e-06	-2.711845e-08	-3.115061e+01	-1.779961e+03
4.400000e-07	-4.277968e-06	-2.691067e-08	-3.050390e+01	-1.766419e+03
4.500000e-07	-4.185658e-06	-2.669689e-08	-2.984568e+01	-1.752307e+03
4.600000e-07	-4.091883e-06	-2.647127e-08	-2.917702e+01	-1.737631e+03
4.700000e-07	-3.996785e-06	-2.624363e-08	-2.849893e+01	-1.722402e+03
4.800000e-07	-3.900286e-06	-2.600261e-08	-2.781085e+01	-1.706632e+03
4.900000e-07	-3.802249e-06	-2.574844e-08	-2.711180e+01	-1.690317e+03
5.000000e-07	-3.702774e-06	-2.548395e-08	-2.640250e+01	-1.673433e+03
5.100000e-07	-3.601926e-06	-2.521746e-08	-2.568340e+01	-1.655932e+03
5.200000e-07	-3.499765e-06	-2.494084e-08	-2.495495e+01	-1.637750e+03
5.300000e-07	-3.396463e-06	-2.464745e-08	-2.421836e+01	-1.618810e+03
5.400000e-07	-3.292021e-06	-2.434726e-08	-2.347364e+01	-1.599040e+03
5.500000e-07	-3.186257e-06	-2.403313e-08	-2.271949e+01	-1.578377e+03
5.600000e-07	-3.079144e-06	-2.370267e-08	-2.195573e+01	-1.556778e+03
5.700000e-07	-2.970803e-06	-2.335696e-08	-2.118320e+01	-1.534212e+03
5.800000e-07	-2.861365e-06	-2.299659e-08	-2.040286e+01	-1.510657e+03
5.900000e-07	-2.750978e-06	-2.261808e-08	-1.961575e+01	-1.486086e+03
6.000000e-07	-2.639756e-06	-2.222232e-08	-1.882268e+01	-1.460451e+03
6.100000e-07	-2.527569e-06	-2.181335e-08	-1.802274e+01	-1.433678e+03
6.200000e-07	-2.414253e-06	-2.138613e-08	-1.721475e+01	-1.405659e+03
6.300000e-07	-2.299839e-06	-2.093685e-08	-1.639892e+01	-1.376262e+03
6.400000e-07	-2.184425e-06	-2.046373e-08	-1.557596e+01	-1.345336e+03
6.500000e-07	-2.068144e-06	-1.996596e-08	-1.474682e+01	-1.312728e+03
6.600000e-07	-1.951113e-06	-1.943907e-08	-1.391234e+01	-1.278296e+03
6.700000e-07	-1.833369e-06	-1.888444e-08	-1.307277e+01	-1.241910e+03
6.800000e-07	-1.715030e-06	-1.830485e-08	-1.222896e+01	-1.203456e+03
6.900000e-07	-1.596200e-06	-1.768995e-08	-1.138165e+01	-1.162826e+03
7.000000e-07	-1.476903e-06	-1.703507e-08	-1.053100e+01	-1.119899e+03
7.100000e-07	-1.357100e-06	-1.634197e-08	-9.676751e+00	-1.074537e+03
7.200000e-07	-1.236764e-06	-1.560932e-08	-8.818703e+00	-1.026573e+03
7.300000e-07	-1.116008e-06	-1.483200e-08	-7.957652e+00	-9.758271e+02
7.400000e-07	-9.948109e-07	-1.400902e-08	-7.093463e+00	-9.221230e+02
7.500000e-07	-8.731844e-07	-1.314407e-08	-6.226210e+00	-8.653287e+02
7.600000e-07	-7.512601e-07	-1.223384e-08	-5.356833e+00	-8.053952e+02
7.700000e-07	-6.291017e-07	-1.127306e-08	-4.485787e+00	-7.423945e+02
7.800000e-07	-5.067537e-07	-1.026857e-08	-3.613389e+00	-6.765397e+02
7.900000e-07	-3.842374e-07	-9.230494e-09	-2.739791e+00	-6.081833e+02
8.000000e-07	-2.615382e-07	-8.159786e-09	-1.864889e+00	-5.377853e+02
8.100000e-07	-1.387384e-07	-7.063219e-09	-9.892695e-01	-4.658565e+02
8.200000e-07	-1.591672e-08	-5.952478e-09	-1.134936e-01	-3.928838e+02
8.300000e-07	1.069506e-07	-4.831606e-09	7.626077e-01	-3.192527e+02
8.400000e-07	2.297588e-07	-3.702969e-09	1.638287e+00	-2.451837e+02
8.500000e-07	3.524437e-07	-2.568166e-09	2.513087e+00	-1.706975e+02
8.600000e-07	4.750733e-07	-1.422503e-09	3.387493e+00	-9.561876e+01
8.700000e-07	5.976081e-07	-2.616643e-10	4.261223e+00	-1.962358e+01
8.800000e-07	7.199656e-07	9.182711e-10	5.133689e+00	5.767850e+01
8.900000e-07	8.420986e-07	2.119040e-09	6.004554e+00	1.366399e+02
9.000000e-07	9.639926e-07	3.345289e-09	6.873715e+00	2.174686e+02
9.100000e-07	1.085591e-06	4.600324e-09	7.740770e+00	3.001397e+02
9.200000e-07	1.206785e-06	5.879462e-09	8.604934e+00	3.843442e+02
9.300000e-07	1.327452e-06	7.175902e-09	9.465346e+00	4.694841e+02
9.400000e-07	1.447487e-06	8.476712e-09	1.032125e+01	5.547175e+02
9.500000e-07	1.566948e-06	9.766194e-09	1.117306e+01	6.390441e+02
9.600000e-07	1.685914e-06	1.102385e-08	1.202135e+01	7.214161e+02
9.700000e-07	1.804275e-06	1.223242e-08	1.286532e+01	8.008552e+02
9.800000e-07	1.921967e-06	1.338023e-08	1.370452e+01	8.765535e+02
9.900000e-07	2.038970e-06	1.445854e-08	1.453880e+01	9.479443e+02
1.000000e-06	2.155151e-06	1.546812e-08	1.536723e+01	1.014731e+03
1.010000e-06	2.270472e-06	1.640827e-08	1.618952e+01	1.076877e+03
1.020000e-06	2.384834e-06	1.728306e-08	1.700497e+01	1.134557e+03
1.030000e-06	2.498054e-06	1.809784e-08	1.781228e+01	1.188089e+03
1.040000e-06	2.610163e-06	1.885686e-08	1.861167e+01	1.237864e+03
1.050000e-06	2.721304e-06	1.956249e-08	1.940416e+01	1.284277e+03
1.060000e-06	2.831477e-06	2.022146e-08	2.018975e+01	1.327679e+03
1.070000e-06	2.940759e-06	2.083885e-08	2.096897e+01	1.368357e+03
1.080000e-06	3.049126e-06	2.141756e-08	2.174169e+01	1.406529e+03
1.090000e-06	3.156416e-06	2.195963e-08	2.250671e+01	1.442361e+03
1.100000e-06	3.262559e-06	2.246880e-08	2.326356e+01	1.475992e+03
1.110000e-06	3.367461e-06	2.294741e-08	2.401156e+01	1.507554e+03
1.120000e-06	3.471085e-06	2.339650e-08	2.475044e+01	1.537188e+03
1.130000e-06	3.573462e-06	2.381891e-08	2.548044e+01	1.565052e+03
1.140000e-06	3.674653e-06	2.421863e-08	2.620198e+01	1.591312e+03
1.150000e-06	3.774629e-06	2.459955e-08	2.691486e+01	1.616133e+03
1.160000e-06	3.873210e-06	2.496128e-08	2.761778e+01	1.639661e+03
1.170000e-06	3.970243e-06	2.530470e-08	2.830967e+01	1.662017e+03
1.180000e-06	4.065753e-06	2.562989e-08	2.899070e+01	1.683288e+03
1.190000e-06	4.159887e-06	2.594015e-08	2.966192e+01	1.703530e+03
1.200000e-06	4.252753e-06	2.623336e-08	3.032410e+01	1.722780e+03
1.210000e-06	4.344171e-06	2.650795e-08	3.097596e+01	1.741065e+03
1.220000e-06	4.433940e-06	2.676604e-08	3.161605e+01	1.758416e+03
1.230000e-06	4.522060e-06	2.701305e-08	3.224439e+01	1.774872e+03
1.240000e-06	4.608559e-06	2.725188e-08	3.286116e+01	1.790489e+03
1.250000e-06	4.693519e-06	2.748230e-08	3.346697e+01	1.805332e+03
1.260000e-06	4.776895e-06	2.770103e-08	3.406148e+01	1.819468e+03
1.270000e-06	4.858498e-06	2.790847e-08	3.464334e+01	1.832960e+03
1.280000e-06	4.938244e-06	2.810530e-08	3.521197e+01	1.845859e+03
1.290000e-06	5.016154e-06	2.829105e-08	3.576751e+01	1.858199e+03
1.300000e-06	5.092186e-06	2.846707e-08	3.630965e+01	1.869999e+03
1.310000e-06	5.166176e-06	2.863601e-08	3.683723e+01	1.881266e+03
1.320000e-06	5.238145e-06	2.879819e-08	3.735041e+01	1.892003e+03
1.330000e-06	5.308274e-06	2.895310e-08	3.785046e+01	1.902214e+03
1.340000e-06	5.376588e-06	2.910288e-08	3.833756e+01	1.911907e+03
1.350000e-06	5.442929e-06	2.924641e-08	3.881061e+01	1.921100e+03
1.360000e-06	5.507220e-06	2.938309e-08	3.926903e+01	1.929815e+03
1.370000e-06	5.569565e-06	2.951381e-08	3.971359e+01	1.938078e+03
1.380000e-06	5.630093e-06	2.963830e-08	4.014517e+01	1.945913e+03
1.390000e-06	5.688677e-06	2.975536e-08	4.056290e+01	1.953338e+03
1.400000e-06	5.745165e-06	2.986450e-08	4.096569e+01	1.960367e+03
1.410000e-06	5.799564e-06	2.996486e-08	4.135358e+01	1.967008e+03
1.420000e-06	5.851643e-06	3.005623e-08	4.172493e+01	1.973268e+03
1.430000e-06	5.901242e-06	3.014181e-08	4.207859e+01	1.979153e+03
1.440000e-06	5.948582e-06	3.022566e-08	4.241615e+01	1.984677e+03
1.450000e-06	5.993944e-06	3.030712e-08	4.273960e+01	1.989858e+03
1.460000e-06	6.037250e-06	3.038525e-08	4.304839e+01	1.994717e+03
1.470000e-06	6.078292e-06	3.045952e-08	4.334104e+01	1.999278e+03
1.480000e-06	6.117164e-06	3.052853e-08	4.361821e+01	2.003561e+03
1.490000e-06	6.154042e-06	3.059030e-08	4.388117e+01	2.007577e+03
1.500000e-06	6.188822e-06	3.064551e-08	4.412917e+01	2.011330e+03
1.510000e-06	6.221306e-06	3.069612e-08	4.436080e+01	2.014811e+03
1.520000e-06	6.251595e-06	3.074331e-08	4.457677e+01	2.018006e+03
1.530000e-06	6.279779e-06	3.078774e-08	4.477774e+01	2.020899e+03
1.540000e-06	6.305640e-06	3.082774e-08	4.496214e+01	2.023473e+03
1.550000e-06	6.329103e-06	3.086294e-08	4.512944e+01	2.025723e+03
1.560000e-06	6.350403e-06	3.089432e-08	4.528132e+01	2.027648e+03
1.570000e-06	6.369568e-06	3.092199e-08	4.541797e+01	2.029261e+03
1.580000e-06	6.386380e-06	3.094415e-08	4.553785e+01	2.030580e+03
1.590000e-06	6.400746e-06	3.096077e-08	4.564029e+01	2.031628e+03
1.600000e-06	6.412603e-06	3.097351e-08	4.572484e+01	2.032428e+03
1.610000e-06	6.421888e-06	3.098229e-08	4.579104e+01	2.032998e+03
1.620000e-06	6.428784e-06	3.098747e-08	4.584021e+01	2.033353e+03
1.630000e-06	6.433520e-06	3.099039e-08	4.587398e+01	2.033498e+03
1.640000e-06	6.435986e-06	3.099079e-08	4.589157e+01	2.033437e+03
1.650000e-06	6.436131e-06	3.099014e-08	4.589260e+01	2.033168e+03
1.660000e-06	6.434173e-06	3.098415e-08	4.587864e+01	2.032689e+03
1.670000e-06	6.430137e-06	3.097622e-08	4.584986e+01	2.031997e+03
1.680000e-06	6.423863e-06	3.096519e-08	4.580512e+01	2.031092e+03
1.690000e-06	6.415442e-06	3.094882e-08	4.574508e+01	2.029975e+03
1.700000e-06	6.405003e-06	3.092966e-08	4.567065e+01	2.028648e+03
1.710000e-06	6.392373e-06	3.090904e-08	4.558059e+01	2.027114e+03
1.720000e-06	6.377470e-06	3.088912e-08	4.547432e+01	2.025375e+03
1.730000e-06	6.360557e-06	3.083609e-08	4.535372e+01	2.023437e+03
1.740000e-06	6.341591e-06	3.075902e-08	4.521848e+01	2.021304e+03
1.750000e-06	6.319773e-06	3.074999e-08	4.506291e+01	2.018983e+03
1.760000e-06	6.294804e-06	3.074701e-08	4.488488e+01	2.016479e+03
1.770000e-06	6.267470e-06	3.070702e-08	4.468997e+01	2.013793e+03
1.780000e-06	6.238191e-06	3.072917e-08	4.448120e+01	2.010922e+03
1.790000e-06	6.207180e-06	3.066029e-08	4.426008e+01	2.007851e+03
1.800000e-06	6.174825e-06	3.053473e-08	4.402936e+01	2.004560e+03
1.810000e-06	6.140632e-06	3.055738e-08	4.378555e+01	2.001015e+03
1.820000e-06	6.104274e-06	3.046025e-08	4.352630e+01	1.997179e+03
1.830000e-06	6.065703e-06	3.039708e-08	4.325128e+01	1.993016e+03
1.840000e-06	6.024759e-06	3.040086e-08	4.295932e+01	1.988496e+03
1.850000e-06	5.981817e-06	3.025014e-08	4.265313e+01	1.983604e+03
1.860000e-06	5.936878e-06	3.021373e-08	4.233269e+01	1.978345e+03
1.870000e-06	5.889691e-06	3.011476e-08	4.199623e+01	1.972742e+03
1.880000e-06	5.840369e-06	2.999464e-08	4.164454e+01	1.966834e+03
1.890000e-06	5.788598e-06	2.994784e-08	4.127539e+01	1.960669e+03
1.900000e-06	5.734240e-06	2.977766e-08	4.088779e+01	1.954289e+03
1.910000e-06	5.677655e-06	2.973646e-08	4.048431e+01	1.947724e+03
1.920000e-06	5.619052e-06	2.965949e-08	4.006645e+01	1.940983e+03
1.930000e-06	5.558579e-06	2.950509e-08	3.963525e+01	1.934048e+03
1.940000e-06	5.495957e-06	2.942423e-08	3.918873e+01	1.926879e+03
1.950000e-06	5.431169e-06	2.926334e-08	3.872675e+01	1.919422e+03
1.960000e-06	5.364424e-06	2.918192e-08	3.825083e+01	1.911619e+03
1.970000e-06	5.295610e-06	2.905057e-08	3.776015e+01	1.903421e+03
1.980000e-06	5.224664e-06	2.890414e-08	3.725428e+01	1.894796e+03
1.990000e-06	5.151775e-06	2.880071e-08	3.673455e+01	1.885735e+03
2.000000e-06	5.077149e-06	2.863892e-08	3.620243e+01	1.876250e+03
2.010000e-06	5.000477e-06	2.850283e-08	3.565572e+01	1.866364e+03
2.020000e-06	4.921682e-06	2.831366e-08	3.509387e+01	1.856107e+03
2.030000e-06	4.841084e-06	2.817526e-08	3.451917e+01	1.845495e+03
2.040000e-06	4.758807e-06	2.802515e-08	3.393250e+01	1.834530e+03
2.050000e-06	4.675001e-06	2.783609e-08	3.333493e+01	1.823193e+03
2.060000e-06	4.589562e-06	2.766649e-08	3.272570e+01	1.811444e+03
2.070000e-06	4.502398e-06	2.746736e-08	3.210419e+01	1.799236e+03
2.080000e-06	4.413632e-06	2.728202e-08	3.147124e+01	1.786521e+03
2.090000e-06	4.323379e-06	2.706091e-08	3.082770e+01	1.773261e+03
2.100000e-06	4.231786e-06	2.685383e-08	3.017460e+01	1.759434e+03
2.110000e-06	4.138684e-06	2.664226e-08	2.951073e+01	1.745039e+03
2.120000e-06	4.044018e-06	2.641903e-08	2.883573e+01	1.730085e+03
2.130000e-06	3.947939e-06	2.619092e-08	2.815064e+01	1.714585e+03
2.140000e-06	3.850485e-06	2.594532e-08	2.745575e+01	1.698543e+03
2.150000e-06	3.751705e-06	2.569868e-08	2.675139e+01	1.681948e+03
2.160000e-06	3.651589e-06	2.543095e-08	2.603753e+01	1.664763e+03
2.170000e-06	3.550042e-06	2.516243e-08	2.531345e+01	1.646931e+03
2.180000e-06	3.447089e-06	2.487412e-08	2.457934e+01	1.628379e+03
2.190000e-06	3.342823e-06	2.457799e-08	2.383588e+01	1.609033e+03
2.200000e-06	3.237324e-06	2.426811e-08	2.308362e+01	1.588823e+03
2.210000e-06	3.130773e-06	2.394651e-08	2.232387e+01	1.567697e+03
2.220000e-06	3.023176e-06	2.361196e-08	2.155665e+01	1.545617e+03
2.230000e-06	2.914451e-06	2.326729e-08	2.078139e+01	1.522560e+03
2.240000e-06	2.804656e-06	2.291190e-08	1.999850e+01	1.498501e+03
2.250000e-06	2.693730e-06	2.253417e-08	1.920754e+01	1.473405e+03
2.260000e-06	2.581737e-06	2.213511e-08	1.840898e+01	1.447213e+03
2.270000e-06	2.468797e-06	2.171185e-08	1.760366e+01	1.419832e+03
2.280000e-06	2.354846e-06	2.127083e-08	1.679114e+01	1.391142e+03
2.290000e-06	2.239945e-06	2.080717e-08	1.597185e+01	1.361000e+03
2.300000e-06	2.124221e-06	2.032482e-08	1.514668e+01	1.329252e+03
2.310000e-06	2.007622e-06	1.981586e-08	1.431527e+01	1.295749e+03
2.320000e-06	1.890191e-06	1.927573e-08	1.347794e+01	1.260354e+03
2.330000e-06	1.772051e-06	1.870480e-08	1.263554e+01	1.222948e+03
2.340000e-06	1.653252e-06	1.810344e-08	1.178845e+01	1.183420e+03
2.350000e-06	1.533806e-06	1.746892e-08	1.093675e+01	1.141657e+03
2.360000e-06	1.413778e-06	1.679718e-08	1.008089e+01	1.097532e+03
2.370000e-06	1.293302e-06	1.608542e-08	9.221844e+00	1.050891e+03
2.380000e-06	1.172402e-06	1.532852e-08	8.359768e+00	1.001560e+03
2.390000e-06	1.051144e-06	1.452709e-08	7.495146e+00	9.493545e+02
2.400000e-06	9.296085e-07	1.368257e-08	6.628540e+00	8.941176e+02
2.410000e-06	8.077789e-07	1.279459e-08	5.759838e+00	8.357530e+02
2.420000e-06	6.856995e-07	1.185880e-08	4.889355e+00	7.742684e+02
2.430000e-06	5.634222e-07	1.087563e-08	4.017462e+00	7.098048e+02
2.440000e-06	4.409484e-07	9.851842e-09	3.144167e+00	6.426474e+02
2.450000e-06	3.183455e-07	8.793444e-09	2.269951e+00	5.732079e+02
2.460000e-06	1.956470e-07	7.705125e-09	1.395054e+00	5.019804e+02
2.470000e-06	7.285137e-08	6.595644e-09	5.194641e-01	4.294733e+02
2.480000e-06	-4.997300e-08	5.474122e-09	-3.563307e-01	3.561323e+02
2.490000e-06	-1.727714e-07	4.343562e-09	-1.231940e+00	2.822668e+02
2.500000e-06	-2.955238e-07	3.206341e-09	-2.107222e+00	2.079995e+02
2.510000e-06	-4.181929e-07	2.065451e-09	-2.981909e+00	1.332497e+02
2.520000e-06	-5.407497e-07	9.138766e-10	-3.855796e+00	5.775974e+01
2.530000e-06	-6.631656e-07	-2.564347e-10	-4.728678e+00	-1.883988e+01
2.540000e-06	-7.854049e-07	-1.450426e-09	-5.600301e+00	-9.693425e+01
2.550000e-06	-9.074074e-07	-2.668357e-09	-6.470236e+00	-1.768162e+02
2.560000e-06	-1.029064e-06	-3.912398e-09	-7.337707e+00	-2.585862e+02
2.570000e-06	-1.150355e-06	-5.185685e-09	-8.202564e+00	-3.420812e+02
2.580000e-06	-1.271308e-06	-6.480851e-09	-9.065014e+00	-4.268449e+02
2.590000e-06	-1.391853e-06	-7.787602e-09	-9.924556e+00	-5.121491e+02
2.600000e-06	-1.511855e-06	-9.090720e-09	-1.078023e+01	-5.970599e+02
2.610000e-06	-1.631249e-06	-1.037156e-08	-1.163156e+01	-6.805385e+02
2.620000e-06	-1.750052e-06	-1.161217e-08	-1.247868e+01	-7.615577e+02
2.630000e-06	-1.868164e-06	-1.279864e-08	-1.332087e+01	-8.392136e+02
2.640000e-06	-1.985416e-06	-1.392098e-08	-1.415694e+01	-9.128123e+02
2.650000e-06	-2.101761e-06	-1.497757e-08	-1.498653e+01	-9.819213e+02
2.660000e-06	-2.217251e-06	-1.596584e-08	-1.581003e+01	-1.046378e+03
2.670000e-06	-2.331798e-06	-1.688419e-08	-1.662680e+01	-1.106258e+03
2.680000e-06	-2.445285e-06	-1.773724e-08	-1.743602e+01	-1.161818e+03
2.690000e-06	-2.557839e-06	-1.852982e-08	-1.823858e+01	-1.213421e+03
2.700000e-06	-2.669353e-06	-1.926820e-08	-1.903373e+01	-1.261467e+03
2.710000e-06	-2.779645e-06	-1.995792e-08	-1.982016e+01	-1.306335e+03
2.720000e-06	-2.888901e-06	-2.060250e-08	-2.059921e+01	-1.348344e+03
2.730000e-06	-2.997224e-06	-2.120610e-08	-2.137160e+01	-1.387745e+03
2.740000e-06	-3.104631e-06	-2.177416e-08	-2.213746e+01	-1.424729e+03
2.750000e-06	-3.211033e-06	-2.230575e-08	-2.289616e+01	-1.459444e+03
2.760000e-06	-3.316390e-06	-2.280144e-08	-2.364740e+01	-1.492023e+03
2.770000e-06	-3.420630e-06	-2.326817e-08	-2.439068e+01	-1.522602e+03
2.780000e-06	-3.523541e-06	-2.370789e-08	-2.512448e+01	-1.551331e+03
2.790000e-06	-3.625143e-06	-2.411950e-08	-2.584895e+01	-1.578372e+03
2.800000e-06	-3.725440e-06	-2.450905e-08	-2.656411e+01	-1.603893e+03
2.810000e-06	-3.824391e-06	-2.488080e-08	-2.726968e+01	-1.628050e+03
2.820000e-06	-3.922100e-06	-2.523359e-08	-2.796639e+01	-1.650980e+03
2.830000e-06	-4.018586e-06	-2.556566e-08	-2.865438e+01	-1.672784e+03
2.840000e-06	-4.113650e-06	-2.588034e-08	-2.933224e+01	-1.693535e+03
2.850000e-06	-4.207205e-06	-2.618149e-08	-2.999932e+01	-1.713277e+03
2.860000e-06	-4.299298e-06	-2.646889e-08	-3.065599e+01	-1.732042e+03
2.870000e-06	-4.389873e-06	-2.674096e-08	-3.130183e+01	-1.749855e+03
2.880000e-06	-4.478827e-06	-2.699653e-08	-3.193611e+01	-1.766753e+03
2.890000e-06	-4.566079e-06	-2.723778e-08	-3.255826e+01	-1.782782e+03
2.900000e-06	-4.651610e-06	-2.746901e-08	-3.316813e+01	-1.798003e+03
2.910000e-06	-4.735484e-06	-2.769281e-08	-3.376620e+01	-1.812484e+03
2.920000e-06	-4.817780e-06	-2.790823e-08	-3.435301e+01	-1.826291e+03
2.930000e-06	-4.898458e-06	-2.811430e-08	-3.492827e+01	-1.839481e+03
2.940000e-06	-4.977201e-06	-2.831022e-08	-3.548976e+01	-1.852097e+03
