# Temperatura_=_92.7
# Concentracion g/m^3_=_28200.0
# C_Vs_to_Am_M_A/Vsm_=_65563218390.804596
# pendiente_HvsI_1/m_=_3716.3
# ordenada_HvsI_A/m_=_1297.0
# frecuencia_Hz_=_302135.24149507465

Tiempo_(s)	Campo_(V.s)	Magnetizacion_(V.s)	Campo_(kA/m)	Magnetizacion_(A/m)
0.000000e+00	-6.386795e-06	-3.099357e-08	-4.585435e+01	-2.027260e+03
1.000000e-08	-6.383542e-06	-3.098651e-08	-4.583100e+01	-2.026651e+03
2.000000e-08	-6.378229e-06	-3.097365e-08	-4.579285e+01	-2.025869e+03
3.000000e-08	-6.371006e-06	-3.095744e-08	-4.574099e+01	-2.024914e+03
4.000000e-08	-6.361646e-06	-3.093760e-08	-4.567379e+01	-2.023774e+03
5.000000e-08	-6.349897e-06	-3.091232e-08	-4.558944e+01	-2.022423e+03
6.000000e-08	-6.335801e-06	-3.088272e-08	-4.548823e+01	-2.020829e+03
7.000000e-08	-6.319439e-06	-3.084582e-08	-4.537077e+01	-2.018961e+03
8.000000e-08	-6.300973e-06	-3.083010e-08	-4.523818e+01	-2.016807e+03
9.000000e-08	-6.280409e-06	-3.082590e-08	-4.509054e+01	-2.014377e+03
1.000000e-07	-6.257467e-06	-3.076465e-08	-4.492583e+01	-2.011709e+03
1.100000e-07	-6.231940e-06	-3.070010e-08	-4.474256e+01	-2.008864e+03
1.200000e-07	-6.204045e-06	-3.066219e-08	-4.454228e+01	-2.005916e+03
1.300000e-07	-6.174203e-06	-3.058350e-08	-4.432803e+01	-2.002932e+03
1.400000e-07	-6.142723e-06	-3.050355e-08	-4.410202e+01	-1.999956e+03
1.500000e-07	-6.109555e-06	-3.055046e-08	-4.386389e+01	-1.996992e+03
1.600000e-07	-6.074423e-06	-3.045461e-08	-4.361165e+01	-1.993997e+03
1.700000e-07	-6.037366e-06	-3.035928e-08	-4.334560e+01	-1.990885e+03
1.800000e-07	-5.998264e-06	-3.038618e-08	-4.306487e+01	-1.987542e+03
1.900000e-07	-5.956791e-06	-3.022214e-08	-4.276711e+01	-1.983845e+03
2.000000e-07	-5.913073e-06	-3.015606e-08	-4.245323e+01	-1.979688e+03
2.100000e-07	-5.867225e-06	-3.011760e-08	-4.212407e+01	-1.975004e+03
2.200000e-07	-5.819130e-06	-2.996945e-08	-4.177877e+01	-1.969773e+03
2.300000e-07	-5.768598e-06	-2.990373e-08	-4.141597e+01	-1.964029e+03
2.400000e-07	-5.715577e-06	-2.981688e-08	-4.103530e+01	-1.957847e+03
2.500000e-07	-5.660333e-06	-2.970495e-08	-4.063867e+01	-1.951320e+03
2.600000e-07	-5.602925e-06	-2.960975e-08	-4.022651e+01	-1.944536e+03
2.700000e-07	-5.543348e-06	-2.950929e-08	-3.979877e+01	-1.937558e+03
2.800000e-07	-5.481786e-06	-2.941086e-08	-3.935679e+01	-1.930407e+03
2.900000e-07	-5.418316e-06	-2.926968e-08	-3.890110e+01	-1.923061e+03
3.000000e-07	-5.352811e-06	-2.916822e-08	-3.843080e+01	-1.915459e+03
3.100000e-07	-5.285245e-06	-2.905831e-08	-3.794571e+01	-1.907524e+03
3.200000e-07	-5.215726e-06	-2.891727e-08	-3.744659e+01	-1.899181e+03
3.300000e-07	-5.144382e-06	-2.877430e-08	-3.693437e+01	-1.890376e+03
3.400000e-07	-5.071215e-06	-2.861970e-08	-3.640907e+01	-1.881087e+03
3.500000e-07	-4.995965e-06	-2.848057e-08	-3.586881e+01	-1.871330e+03
3.600000e-07	-4.918526e-06	-2.831663e-08	-3.531283e+01	-1.861144e+03
3.700000e-07	-4.839094e-06	-2.816536e-08	-3.474255e+01	-1.850580e+03
3.800000e-07	-4.757815e-06	-2.801651e-08	-3.415899e+01	-1.839678e+03
3.900000e-07	-4.674872e-06	-2.784058e-08	-3.356350e+01	-1.828455e+03
4.000000e-07	-4.590571e-06	-2.765562e-08	-3.295826e+01	-1.816895e+03
4.100000e-07	-4.504894e-06	-2.746639e-08	-3.234314e+01	-1.804950e+03
4.200000e-07	-4.417712e-06	-2.727722e-08	-3.171721e+01	-1.792553e+03
4.300000e-07	-4.329153e-06	-2.707637e-08	-3.108139e+01	-1.779632e+03
4.400000e-07	-4.239056e-06	-2.687070e-08	-3.043454e+01	-1.766127e+03
4.500000e-07	-4.147249e-06	-2.665761e-08	-2.977540e+01	-1.752004e+03
4.600000e-07	-4.053927e-06	-2.643038e-08	-2.910539e+01	-1.737256e+03
4.700000e-07	-3.959313e-06	-2.619901e-08	-2.842610e+01	-1.721902e+03
4.800000e-07	-3.863348e-06	-2.595883e-08	-2.773712e+01	-1.705969e+03
4.900000e-07	-3.765942e-06	-2.570430e-08	-2.703779e+01	-1.689482e+03
5.000000e-07	-3.666963e-06	-2.543718e-08	-2.632716e+01	-1.672442e+03
5.100000e-07	-3.566545e-06	-2.516440e-08	-2.560621e+01	-1.654822e+03
5.200000e-07	-3.464961e-06	-2.488277e-08	-2.487688e+01	-1.636565e+03
5.300000e-07	-3.362166e-06	-2.459154e-08	-2.413886e+01	-1.617590e+03
5.400000e-07	-3.258154e-06	-2.429315e-08	-2.339210e+01	-1.597806e+03
5.500000e-07	-3.153002e-06	-2.397964e-08	-2.263715e+01	-1.577131e+03
5.600000e-07	-3.046571e-06	-2.364952e-08	-2.187303e+01	-1.555497e+03
5.700000e-07	-2.938758e-06	-2.330285e-08	-2.109898e+01	-1.532861e+03
5.800000e-07	-2.829888e-06	-2.293953e-08	-2.031733e+01	-1.509197e+03
5.900000e-07	-2.720137e-06	-2.255814e-08	-1.952937e+01	-1.484485e+03
6.000000e-07	-2.609493e-06	-2.216086e-08	-1.873500e+01	-1.458695e+03
6.100000e-07	-2.497840e-06	-2.174856e-08	-1.793338e+01	-1.431770e+03
6.200000e-07	-2.385216e-06	-2.131584e-08	-1.712479e+01	-1.403623e+03
6.300000e-07	-2.271735e-06	-2.086331e-08	-1.631005e+01	-1.374129e+03
6.400000e-07	-2.157216e-06	-2.038990e-08	-1.548785e+01	-1.343136e+03
6.500000e-07	-2.041665e-06	-1.989300e-08	-1.465825e+01	-1.310481e+03
6.600000e-07	-1.925342e-06	-1.936646e-08	-1.382310e+01	-1.276002e+03
6.700000e-07	-1.808326e-06	-1.881044e-08	-1.298298e+01	-1.239553e+03
6.800000e-07	-1.690682e-06	-1.822725e-08	-1.213834e+01	-1.201005e+03
6.900000e-07	-1.572529e-06	-1.760882e-08	-1.129006e+01	-1.160243e+03
7.000000e-07	-1.453913e-06	-1.695221e-08	-1.043845e+01	-1.117154e+03
7.100000e-07	-1.334829e-06	-1.625685e-08	-9.583478e+00	-1.071615e+03
7.200000e-07	-1.215233e-06	-1.552252e-08	-8.724831e+00	-1.023485e+03
7.300000e-07	-1.095183e-06	-1.474310e-08	-7.862929e+00	-9.726081e+02
7.400000e-07	-9.747477e-07	-1.391757e-08	-6.998255e+00	-9.188319e+02
7.500000e-07	-8.539964e-07	-1.305202e-08	-6.131314e+00	-8.620394e+02
7.600000e-07	-7.330129e-07	-1.214367e-08	-5.262706e+00	-8.021870e+02
7.700000e-07	-6.117859e-07	-1.118587e-08	-4.392351e+00	-7.393415e+02
7.800000e-07	-4.903642e-07	-1.018426e-08	-3.520597e+00	-6.737034e+02
7.900000e-07	-3.688736e-07	-9.148346e-09	-2.648349e+00	-6.056079e+02
8.000000e-07	-2.473168e-07	-8.082022e-09	-1.775624e+00	-5.354971e+02
8.100000e-07	-1.255792e-07	-6.992335e-09	-9.016026e-01	-4.638670e+02
8.200000e-07	-3.708471e-09	-5.887025e-09	-2.662517e-02	-3.911948e+02
8.300000e-07	1.181876e-07	-4.772421e-09	8.485347e-01	-3.178618e+02
8.400000e-07	2.400463e-07	-3.649130e-09	1.723426e+00	-2.440892e+02
8.500000e-07	3.618129e-07	-2.517945e-09	2.597655e+00	-1.699017e+02
8.600000e-07	4.834607e-07	-1.375115e-09	3.471033e+00	-9.512997e+01
8.700000e-07	6.049413e-07	-2.186308e-10	4.343209e+00	-1.945576e+01
8.800000e-07	7.262646e-07	9.539244e-10	5.214257e+00	5.750639e+01
8.900000e-07	8.474031e-07	2.149381e-09	6.083977e+00	1.361054e+02
9.000000e-07	9.682781e-07	3.369851e-09	6.951806e+00	2.165475e+02
9.100000e-07	1.088883e-06	4.618160e-09	7.817699e+00	2.988079e+02
9.200000e-07	1.209122e-06	5.892300e-09	8.680958e+00	3.825806e+02
9.300000e-07	1.328845e-06	7.183443e-09	9.540513e+00	4.672738e+02
9.400000e-07	1.448041e-06	8.476691e-09	1.039629e+01	5.520553e+02
9.500000e-07	1.566738e-06	9.755768e-09	1.124848e+01	6.359387e+02
9.600000e-07	1.684881e-06	1.100430e-08	1.209670e+01	7.178929e+02
9.700000e-07	1.802383e-06	1.220483e-08	1.294031e+01	7.969577e+02
9.800000e-07	1.919223e-06	1.334597e-08	1.377917e+01	8.723420e+02
9.900000e-07	2.035283e-06	1.442094e-08	1.461242e+01	9.434910e+02
1.000000e-06	2.150474e-06	1.542926e-08	1.543945e+01	1.010114e+03
1.010000e-06	2.264732e-06	1.636726e-08	1.625977e+01	1.072169e+03
1.020000e-06	2.377928e-06	1.723822e-08	1.707247e+01	1.129819e+03
1.030000e-06	2.490138e-06	1.804843e-08	1.787808e+01	1.183365e+03
1.040000e-06	2.601423e-06	1.880193e-08	1.867706e+01	1.233174e+03
1.050000e-06	2.711741e-06	1.950475e-08	1.946909e+01	1.279621e+03
1.060000e-06	2.821169e-06	2.016392e-08	2.025474e+01	1.323041e+03
1.070000e-06	2.929775e-06	2.078216e-08	2.103448e+01	1.363714e+03
1.080000e-06	3.037452e-06	2.135891e-08	2.180756e+01	1.401859e+03
1.090000e-06	3.143956e-06	2.189664e-08	2.257221e+01	1.437650e+03
1.100000e-06	3.249179e-06	2.240006e-08	2.332766e+01	1.471238e+03
1.110000e-06	3.353215e-06	2.287427e-08	2.407459e+01	1.502767e+03
1.120000e-06	3.456062e-06	2.332261e-08	2.481299e+01	1.532389e+03
1.130000e-06	3.557712e-06	2.374559e-08	2.554279e+01	1.560263e+03
1.140000e-06	3.658193e-06	2.414388e-08	2.626420e+01	1.586550e+03
1.150000e-06	3.757402e-06	2.452246e-08	2.697648e+01	1.611407e+03
1.160000e-06	3.855093e-06	2.488274e-08	2.767785e+01	1.634968e+03
1.170000e-06	3.951263e-06	2.522455e-08	2.836831e+01	1.657343e+03
1.180000e-06	4.045987e-06	2.554856e-08	2.904839e+01	1.678615e+03
1.190000e-06	4.139352e-06	2.585554e-08	2.971871e+01	1.698840e+03
1.200000e-06	4.231502e-06	2.614508e-08	3.038030e+01	1.718063e+03
1.210000e-06	4.322172e-06	2.641872e-08	3.103128e+01	1.736321e+03
1.220000e-06	4.411114e-06	2.667832e-08	3.166984e+01	1.753654e+03
1.230000e-06	4.498437e-06	2.692582e-08	3.229678e+01	1.770111e+03
1.240000e-06	4.584241e-06	2.716297e-08	3.291281e+01	1.785747e+03
1.250000e-06	4.668585e-06	2.739065e-08	3.351837e+01	1.800622e+03
1.260000e-06	4.751326e-06	2.760776e-08	3.411241e+01	1.814794e+03
1.270000e-06	4.832260e-06	2.781408e-08	3.469348e+01	1.828313e+03
1.280000e-06	4.911354e-06	2.800913e-08	3.526134e+01	1.841219e+03
1.290000e-06	4.988597e-06	2.819318e-08	3.581591e+01	1.853542e+03
1.300000e-06	5.063949e-06	2.836849e-08	3.635690e+01	1.865302e+03
1.310000e-06	5.137312e-06	2.853746e-08	3.688362e+01	1.876518e+03
1.320000e-06	5.208687e-06	2.869938e-08	3.739605e+01	1.887205e+03
1.330000e-06	5.278139e-06	2.885337e-08	3.789469e+01	1.897382e+03
1.340000e-06	5.345762e-06	2.900209e-08	3.838020e+01	1.907070e+03
1.350000e-06	5.411434e-06	2.914545e-08	3.885169e+01	1.916291e+03
1.360000e-06	5.475036e-06	2.928203e-08	3.930833e+01	1.925063e+03
1.370000e-06	5.536753e-06	2.941168e-08	3.975142e+01	1.933398e+03
1.380000e-06	5.596734e-06	2.953334e-08	4.018206e+01	1.941305e+03
1.390000e-06	5.654736e-06	2.964717e-08	4.059849e+01	1.948784e+03
1.400000e-06	5.710603e-06	2.975462e-08	4.099959e+01	1.955838e+03
1.410000e-06	5.764376e-06	2.985459e-08	4.138565e+01	1.962471e+03
1.420000e-06	5.815824e-06	2.994709e-08	4.175503e+01	1.968693e+03
1.430000e-06	5.864892e-06	3.003434e-08	4.210732e+01	1.974525e+03
1.440000e-06	5.911773e-06	3.011734e-08	4.244390e+01	1.979995e+03
1.450000e-06	5.956695e-06	3.019643e-08	4.276642e+01	1.985136e+03
1.460000e-06	5.999610e-06	3.027118e-08	4.307453e+01	1.989980e+03
1.470000e-06	6.040239e-06	3.034231e-08	4.336623e+01	1.994550e+03
1.480000e-06	6.078698e-06	3.041026e-08	4.364235e+01	1.998859e+03
1.490000e-06	6.115187e-06	3.047296e-08	4.390432e+01	2.002906e+03
1.500000e-06	6.149532e-06	3.052933e-08	4.415091e+01	2.006680e+03
1.510000e-06	6.181618e-06	3.058030e-08	4.438127e+01	2.010161e+03
1.520000e-06	6.211526e-06	3.062642e-08	4.459599e+01	2.013331e+03
1.530000e-06	6.239322e-06	3.066832e-08	4.479556e+01	2.016179e+03
1.540000e-06	6.264797e-06	3.070621e-08	4.497846e+01	2.018700e+03
1.550000e-06	6.287849e-06	3.074176e-08	4.514396e+01	2.020904e+03
1.560000e-06	6.308767e-06	3.077360e-08	4.529414e+01	2.022805e+03
1.570000e-06	6.327623e-06	3.079901e-08	4.542952e+01	2.024424e+03
1.580000e-06	6.344138e-06	3.081938e-08	4.554809e+01	2.025777e+03
1.590000e-06	6.358210e-06	3.083495e-08	4.564912e+01	2.026876e+03
1.600000e-06	6.369761e-06	3.084703e-08	4.573205e+01	2.027729e+03
1.610000e-06	6.378736e-06	3.085650e-08	4.579649e+01	2.028335e+03
1.620000e-06	6.385400e-06	3.086235e-08	4.584433e+01	2.028695e+03
1.630000e-06	6.389901e-06	3.086500e-08	4.587665e+01	2.028814e+03
1.640000e-06	6.392123e-06	3.086517e-08	4.589260e+01	2.028700e+03
1.650000e-06	6.392013e-06	3.086343e-08	4.589181e+01	2.028371e+03
1.660000e-06	6.389827e-06	3.085573e-08	4.587612e+01	2.027847e+03
1.670000e-06	6.385668e-06	3.084652e-08	4.584626e+01	2.027144e+03
1.680000e-06	6.379261e-06	3.083372e-08	4.580026e+01	2.026269e+03
1.690000e-06	6.370661e-06	3.081757e-08	4.573851e+01	2.025218e+03
1.700000e-06	6.360118e-06	3.079973e-08	4.566282e+01	2.023969e+03
1.710000e-06	6.347447e-06	3.077960e-08	4.557185e+01	2.022491e+03
1.720000e-06	6.332465e-06	3.076515e-08	4.546428e+01	2.020753e+03
1.730000e-06	6.315430e-06	3.071926e-08	4.534198e+01	2.018732e+03
1.740000e-06	6.296242e-06	3.065282e-08	4.520422e+01	2.016427e+03
1.750000e-06	6.274211e-06	3.063360e-08	4.504605e+01	2.013863e+03
1.760000e-06	6.249192e-06	3.060993e-08	4.486642e+01	2.011091e+03
1.770000e-06	6.221827e-06	3.056900e-08	4.466995e+01	2.008181e+03
1.780000e-06	6.192587e-06	3.058383e-08	4.446002e+01	2.005207e+03
1.790000e-06	6.161768e-06	3.049115e-08	4.423876e+01	2.002224e+03
1.800000e-06	6.129459e-06	3.040589e-08	4.400679e+01	1.999256e+03
1.810000e-06	6.095129e-06	3.043763e-08	4.376032e+01	1.996283e+03
1.820000e-06	6.058723e-06	3.030680e-08	4.349894e+01	1.993238e+03
1.830000e-06	6.020248e-06	3.032234e-08	4.322270e+01	1.990018e+03
1.840000e-06	5.979467e-06	3.038145e-08	4.292992e+01	1.986500e+03
1.850000e-06	5.936640e-06	3.025075e-08	4.262244e+01	1.982568e+03
1.860000e-06	5.891774e-06	3.023735e-08	4.230031e+01	1.978133e+03
1.870000e-06	5.844723e-06	3.012842e-08	4.196251e+01	1.973155e+03
1.880000e-06	5.795558e-06	3.002784e-08	4.160953e+01	1.967642e+03
1.890000e-06	5.743962e-06	3.000132e-08	4.123909e+01	1.961652e+03
1.900000e-06	5.689828e-06	2.984404e-08	4.085044e+01	1.955273e+03
1.910000e-06	5.633463e-06	2.976989e-08	4.044576e+01	1.948598e+03
1.920000e-06	5.575103e-06	2.967413e-08	4.002676e+01	1.941705e+03
1.930000e-06	5.514902e-06	2.956437e-08	3.959454e+01	1.934635e+03
1.940000e-06	5.452577e-06	2.947008e-08	3.914708e+01	1.927384e+03
1.950000e-06	5.388074e-06	2.930579e-08	3.868397e+01	1.919910e+03
1.960000e-06	5.321578e-06	2.923334e-08	3.820656e+01	1.912140e+03
1.970000e-06	5.253174e-06	2.909652e-08	3.771546e+01	1.903994e+03
1.980000e-06	5.182711e-06	2.895212e-08	3.720956e+01	1.895408e+03
1.990000e-06	5.110157e-06	2.883406e-08	3.668866e+01	1.886344e+03
2.000000e-06	5.035797e-06	2.868529e-08	3.615478e+01	1.876800e+03
2.010000e-06	4.959485e-06	2.855528e-08	3.560689e+01	1.866807e+03
2.020000e-06	4.881128e-06	2.836035e-08	3.504433e+01	1.856413e+03
2.030000e-06	4.800911e-06	2.820582e-08	3.446841e+01	1.845664e+03
2.040000e-06	4.719036e-06	2.805090e-08	3.388058e+01	1.834590e+03
2.050000e-06	4.635588e-06	2.787523e-08	3.328146e+01	1.823190e+03
2.060000e-06	4.550582e-06	2.770182e-08	3.267116e+01	1.811431e+03
2.070000e-06	4.463966e-06	2.750755e-08	3.204929e+01	1.799253e+03
2.080000e-06	4.375692e-06	2.731924e-08	3.141553e+01	1.786583e+03
2.090000e-06	4.285900e-06	2.709740e-08	3.077086e+01	1.773355e+03
2.100000e-06	4.194688e-06	2.688808e-08	3.011600e+01	1.759521e+03
2.110000e-06	4.102086e-06	2.667546e-08	2.945115e+01	1.745063e+03
2.120000e-06	4.008000e-06	2.645102e-08	2.877566e+01	1.729986e+03
2.130000e-06	3.912352e-06	2.621886e-08	2.808895e+01	1.714318e+03
2.140000e-06	3.815305e-06	2.597161e-08	2.739219e+01	1.698087e+03
2.150000e-06	3.716990e-06	2.572067e-08	2.668634e+01	1.681304e+03
2.160000e-06	3.617366e-06	2.545454e-08	2.597108e+01	1.663959e+03
2.170000e-06	3.516447e-06	2.518388e-08	2.524653e+01	1.646007e+03
2.180000e-06	3.414145e-06	2.489611e-08	2.451204e+01	1.627376e+03
2.190000e-06	3.310413e-06	2.459777e-08	2.376729e+01	1.607978e+03
2.200000e-06	3.205432e-06	2.428461e-08	2.301357e+01	1.587726e+03
2.210000e-06	3.099343e-06	2.395973e-08	2.225191e+01	1.566544e+03
2.220000e-06	2.992190e-06	2.362495e-08	2.148259e+01	1.544377e+03
2.230000e-06	2.883970e-06	2.327840e-08	2.070563e+01	1.521193e+03
2.240000e-06	2.774808e-06	2.291742e-08	1.992188e+01	1.496970e+03
2.250000e-06	2.664603e-06	2.253627e-08	1.913067e+01	1.471685e+03
2.260000e-06	2.553240e-06	2.213511e-08	1.833113e+01	1.445296e+03
2.270000e-06	2.440916e-06	2.171278e-08	1.752469e+01	1.417730e+03
2.280000e-06	2.327679e-06	2.127149e-08	1.671170e+01	1.388878e+03
2.290000e-06	2.213505e-06	2.080755e-08	1.589198e+01	1.358601e+03
2.300000e-06	2.098503e-06	2.032138e-08	1.506632e+01	1.326738e+03
2.310000e-06	1.982740e-06	1.980869e-08	1.423519e+01	1.293125e+03
2.320000e-06	1.866199e-06	1.926556e-08	1.339848e+01	1.257608e+03
2.330000e-06	1.748970e-06	1.869329e-08	1.255683e+01	1.220049e+03
2.340000e-06	1.631030e-06	1.808931e-08	1.171007e+01	1.180329e+03
2.350000e-06	1.512275e-06	1.744869e-08	1.085746e+01	1.138334e+03
2.360000e-06	1.392897e-06	1.677241e-08	1.000038e+01	1.093949e+03
2.370000e-06	1.273013e-06	1.605755e-08	9.139664e+00	1.047041e+03
2.380000e-06	1.152737e-06	1.529890e-08	8.276141e+00	9.974584e+02
2.390000e-06	1.032162e-06	1.449869e-08	7.410462e+00	9.450456e+02
2.400000e-06	9.112998e-07	1.365405e-08	6.542727e+00	8.896641e+02
2.410000e-06	7.902515e-07	1.276161e-08	5.673654e+00	8.312313e+02
2.420000e-06	6.689741e-07	1.182136e-08	4.802937e+00	7.697588e+02
2.430000e-06	5.474826e-07	1.083626e-08	3.930682e+00	7.053833e+02
2.440000e-06	4.258656e-07	9.814178e-09	3.057526e+00	6.383791e+02
2.450000e-06	3.040500e-07	8.758137e-09	2.182944e+00	5.691438e+02
2.460000e-06	1.820888e-07	7.673512e-09	1.307317e+00	4.981566e+02
2.470000e-06	6.004965e-08	6.569258e-09	4.311298e-01	4.259131e+02
2.480000e-06	-6.202190e-08	5.453095e-09	-4.452896e-01	3.528482e+02
2.490000e-06	-1.840248e-07	4.327103e-09	-1.321216e+00	2.792641e+02
2.500000e-06	-3.059936e-07	3.195129e-09	-2.196898e+00	2.052789e+02
2.510000e-06	-4.278914e-07	2.058171e-09	-3.072070e+00	1.308103e+02
2.520000e-06	-5.496361e-07	9.081596e-10	-3.946143e+00	5.560103e+01
2.530000e-06	-6.712304e-07	-2.601453e-10	-4.819136e+00	-2.071517e+01
2.540000e-06	-7.926650e-07	-1.450344e-09	-5.690982e+00	-9.851776e+01
2.550000e-06	-9.138818e-07	-2.663116e-09	-6.561265e+00	-1.780917e+02
2.560000e-06	-1.034777e-06	-3.901250e-09	-7.429237e+00	-2.595284e+02
2.570000e-06	-1.155314e-06	-5.166635e-09	-8.294643e+00	-3.426559e+02
2.580000e-06	-1.275505e-06	-6.454786e-09	-9.157561e+00	-4.270124e+02
2.590000e-06	-1.395262e-06	-7.756270e-09	-1.001736e+01	-5.118688e+02
2.600000e-06	-1.514511e-06	-9.054093e-09	-1.087351e+01	-5.962976e+02
2.610000e-06	-1.633129e-06	-1.032902e-08	-1.172514e+01	-6.792740e+02
2.620000e-06	-1.750992e-06	-1.156530e-08	-1.257134e+01	-7.597911e+02
2.630000e-06	-1.868038e-06	-1.274874e-08	-1.341169e+01	-8.369688e+02
2.640000e-06	-1.984198e-06	-1.386617e-08	-1.424566e+01	-9.101367e+02
2.650000e-06	-2.099516e-06	-1.491579e-08	-1.507359e+01	-9.788807e+02
2.660000e-06	-2.214059e-06	-1.589785e-08	-1.589596e+01	-1.043047e+03
2.670000e-06	-2.327647e-06	-1.681354e-08	-1.671147e+01	-1.102712e+03
2.680000e-06	-2.440064e-06	-1.766591e-08	-1.751858e+01	-1.158120e+03
2.690000e-06	-2.551402e-06	-1.845902e-08	-1.831793e+01	-1.209617e+03
2.700000e-06	-2.661808e-06	-1.919915e-08	-1.911060e+01	-1.257581e+03
2.710000e-06	-2.771266e-06	-1.989035e-08	-1.989646e+01	-1.302368e+03
2.720000e-06	-2.879822e-06	-2.053556e-08	-2.067584e+01	-1.344286e+03
2.730000e-06	-2.987497e-06	-2.113909e-08	-2.144890e+01	-1.383581e+03
2.740000e-06	-3.094183e-06	-2.170720e-08	-2.221486e+01	-1.420445e+03
2.750000e-06	-3.199822e-06	-2.223939e-08	-2.297330e+01	-1.455038e+03
2.760000e-06	-3.304382e-06	-2.273525e-08	-2.372399e+01	-1.487505e+03
2.770000e-06	-3.407738e-06	-2.320006e-08	-2.446604e+01	-1.517994e+03
2.780000e-06	-3.509745e-06	-2.363845e-08	-2.519841e+01	-1.546659e+03
2.790000e-06	-3.610414e-06	-2.405264e-08	-2.592117e+01	-1.573663e+03
2.800000e-06	-3.709855e-06	-2.444661e-08	-2.663511e+01	-1.599166e+03
2.810000e-06	-3.808109e-06	-2.482125e-08	-2.734053e+01	-1.623313e+03
2.820000e-06	-3.905116e-06	-2.517427e-08	-2.803699e+01	-1.646227e+03
2.830000e-06	-4.000825e-06	-2.550461e-08	-2.872414e+01	-1.668003e+03
2.840000e-06	-4.095077e-06	-2.581806e-08	-2.940083e+01	-1.688709e+03
2.850000e-06	-4.187830e-06	-2.611870e-08	-3.006676e+01	-1.708392e+03
2.860000e-06	-4.279108e-06	-2.640676e-08	-3.072210e+01	-1.727094e+03
2.870000e-06	-4.368750e-06	-2.668119e-08	-3.136568e+01	-1.744851e+03
2.880000e-06	-4.456813e-06	-2.693981e-08	-3.199793e+01	-1.761708e+03
2.890000e-06	-4.543243e-06	-2.718382e-08	-3.261847e+01	-1.777718e+03
2.900000e-06	-4.627985e-06	-2.741652e-08	-3.322687e+01	-1.792939e+03
2.910000e-06	-4.711162e-06	-2.764168e-08	-3.382405e+01	-1.807431e+03
2.920000e-06	-4.792738e-06	-2.785733e-08	-3.440973e+01	-1.821248e+03
2.930000e-06	-4.872659e-06	-2.806171e-08	-3.498352e+01	-1.834434e+03
2.940000e-06	-4.950618e-06	-2.825567e-08	-3.554324e+01	-1.847025e+03
