# Temperatura_=_88.7
# Concentracion g/m^3_=_28200.0
# C_Vs_to_Am_M_A/Vsm_=_65563218390.804596
# pendiente_HvsI_1/m_=_3716.3
# ordenada_HvsI_A/m_=_1297.0
# frecuencia_Hz_=_302136.40448640304

Tiempo_(s)	Campo_(V.s)	Magnetizacion_(V.s)	Campo_(kA/m)	Magnetizacion_(A/m)
0.000000e+00	-6.373601e-06	-3.025263e-08	-4.585197e+01	-1.982995e+03
1.000000e-08	-6.369851e-06	-3.024212e-08	-4.582499e+01	-1.982375e+03
2.000000e-08	-6.364087e-06	-3.022476e-08	-4.578352e+01	-1.981487e+03
3.000000e-08	-6.356501e-06	-3.020855e-08	-4.572895e+01	-1.980340e+03
4.000000e-08	-6.346812e-06	-3.018627e-08	-4.565924e+01	-1.978960e+03
5.000000e-08	-6.334735e-06	-3.016037e-08	-4.557236e+01	-1.977386e+03
6.000000e-08	-6.320314e-06	-3.012601e-08	-4.546862e+01	-1.975663e+03
7.000000e-08	-6.303620e-06	-3.008402e-08	-4.534852e+01	-1.973831e+03
8.000000e-08	-6.284919e-06	-3.010039e-08	-4.521399e+01	-1.971912e+03
9.000000e-08	-6.264019e-06	-3.017069e-08	-4.506363e+01	-1.969909e+03
1.000000e-07	-6.240659e-06	-3.007683e-08	-4.489557e+01	-1.967798e+03
1.100000e-07	-6.214745e-06	-2.995892e-08	-4.470915e+01	-1.965531e+03
1.200000e-07	-6.186489e-06	-2.992855e-08	-4.450588e+01	-1.963044e+03
1.300000e-07	-6.156372e-06	-2.979087e-08	-4.428921e+01	-1.960263e+03
1.400000e-07	-6.124796e-06	-2.963508e-08	-4.406205e+01	-1.957119e+03
1.500000e-07	-6.091454e-06	-2.986705e-08	-4.382219e+01	-1.953557e+03
1.600000e-07	-6.055973e-06	-2.975648e-08	-4.356693e+01	-1.949547e+03
1.700000e-07	-6.018627e-06	-2.954409e-08	-4.329827e+01	-1.945086e+03
1.800000e-07	-5.979242e-06	-2.971341e-08	-4.301493e+01	-1.940201e+03
1.900000e-07	-5.937430e-06	-2.945344e-08	-4.271413e+01	-1.934943e+03
2.000000e-07	-5.893451e-06	-2.937396e-08	-4.239774e+01	-1.929382e+03
2.100000e-07	-5.847461e-06	-2.941269e-08	-4.206689e+01	-1.923593e+03
2.200000e-07	-5.799158e-06	-2.921809e-08	-4.171940e+01	-1.917642e+03
2.300000e-07	-5.748349e-06	-2.917528e-08	-4.135387e+01	-1.911580e+03
2.400000e-07	-5.694994e-06	-2.906843e-08	-4.097004e+01	-1.905431e+03
2.500000e-07	-5.639486e-06	-2.895805e-08	-4.057071e+01	-1.899188e+03
2.600000e-07	-5.581897e-06	-2.889309e-08	-4.015641e+01	-1.892818e+03
2.700000e-07	-5.522148e-06	-2.876063e-08	-3.972658e+01	-1.886262e+03
2.800000e-07	-5.460469e-06	-2.866774e-08	-3.928286e+01	-1.879451e+03
2.900000e-07	-5.396900e-06	-2.852424e-08	-3.882554e+01	-1.872317e+03
3.000000e-07	-5.331273e-06	-2.845526e-08	-3.835341e+01	-1.864800e+03
3.100000e-07	-5.263544e-06	-2.833698e-08	-3.786617e+01	-1.856864e+03
3.200000e-07	-5.193798e-06	-2.819111e-08	-3.736441e+01	-1.848496e+03
3.300000e-07	-5.122241e-06	-2.806662e-08	-3.684963e+01	-1.839707e+03
3.400000e-07	-5.048867e-06	-2.788145e-08	-3.632177e+01	-1.830524e+03
3.500000e-07	-4.973400e-06	-2.776970e-08	-3.577886e+01	-1.820979e+03
3.600000e-07	-4.895839e-06	-2.761304e-08	-3.522088e+01	-1.811103e+03
3.700000e-07	-4.816256e-06	-2.746763e-08	-3.464836e+01	-1.800907e+03
3.800000e-07	-4.734825e-06	-2.732583e-08	-3.406254e+01	-1.790384e+03
3.900000e-07	-4.651829e-06	-2.713412e-08	-3.346546e+01	-1.779506e+03
4.000000e-07	-4.567459e-06	-2.694467e-08	-3.285850e+01	-1.768226e+03
4.100000e-07	-4.481731e-06	-2.675992e-08	-3.224177e+01	-1.756492e+03
4.200000e-07	-4.394609e-06	-2.659454e-08	-3.161501e+01	-1.744254e+03
4.300000e-07	-4.306028e-06	-2.639967e-08	-3.097775e+01	-1.731474e+03
4.400000e-07	-4.215789e-06	-2.619262e-08	-3.032857e+01	-1.718134e+03
4.500000e-07	-4.123914e-06	-2.598264e-08	-2.966762e+01	-1.704234e+03
4.600000e-07	-4.030601e-06	-2.575202e-08	-2.899632e+01	-1.689785e+03
4.700000e-07	-3.935958e-06	-2.552695e-08	-2.831546e+01	-1.674803e+03
4.800000e-07	-3.839947e-06	-2.529627e-08	-2.762475e+01	-1.659298e+03
4.900000e-07	-3.742445e-06	-2.505313e-08	-2.692331e+01	-1.643259e+03
5.000000e-07	-3.643409e-06	-2.479057e-08	-2.621085e+01	-1.626657e+03
5.100000e-07	-3.542992e-06	-2.452047e-08	-2.548844e+01	-1.609437e+03
5.200000e-07	-3.441395e-06	-2.424384e-08	-2.475754e+01	-1.591533e+03
5.300000e-07	-3.338672e-06	-2.395568e-08	-2.401855e+01	-1.572869e+03
5.400000e-07	-3.234746e-06	-2.366386e-08	-2.327090e+01	-1.553378e+03
5.500000e-07	-3.129586e-06	-2.335808e-08	-2.251438e+01	-1.533000e+03
5.600000e-07	-3.023125e-06	-2.303436e-08	-2.174849e+01	-1.511695e+03
5.700000e-07	-2.915419e-06	-2.268889e-08	-2.097366e+01	-1.489434e+03
5.800000e-07	-2.806626e-06	-2.232977e-08	-2.019099e+01	-1.466191e+03
5.900000e-07	-2.696863e-06	-2.195766e-08	-1.940135e+01	-1.441933e+03
6.000000e-07	-2.586220e-06	-2.156801e-08	-1.860538e+01	-1.416606e+03
6.100000e-07	-2.474682e-06	-2.116235e-08	-1.780297e+01	-1.390133e+03
6.200000e-07	-2.362221e-06	-2.073655e-08	-1.699392e+01	-1.362406e+03
6.300000e-07	-2.248778e-06	-2.029107e-08	-1.617781e+01	-1.333297e+03
6.400000e-07	-2.134331e-06	-1.981992e-08	-1.535447e+01	-1.302664e+03
6.500000e-07	-2.018892e-06	-1.932668e-08	-1.452400e+01	-1.270366e+03
6.600000e-07	-1.902626e-06	-1.880589e-08	-1.368758e+01	-1.236270e+03
6.700000e-07	-1.785723e-06	-1.825707e-08	-1.284657e+01	-1.200257e+03
6.800000e-07	-1.668249e-06	-1.768265e-08	-1.200145e+01	-1.162216e+03
6.900000e-07	-1.550238e-06	-1.707178e-08	-1.115248e+01	-1.122039e+03
7.000000e-07	-1.431697e-06	-1.642383e-08	-1.029969e+01	-1.079606e+03
7.100000e-07	-1.312708e-06	-1.573602e-08	-9.443677e+00	-1.034775e+03
7.200000e-07	-1.193347e-06	-1.501098e-08	-8.584993e+00	-9.873882e+02
7.300000e-07	-1.073470e-06	-1.424220e-08	-7.722588e+00	-9.372755e+02
7.400000e-07	-9.531624e-07	-1.343134e-08	-6.857092e+00	-8.842844e+02
7.500000e-07	-8.325771e-07	-1.258177e-08	-5.989596e+00	-8.283127e+02
7.600000e-07	-7.117077e-07	-1.168570e-08	-5.120057e+00	-7.693465e+02
7.700000e-07	-5.906583e-07	-1.074120e-08	-4.249222e+00	-7.074910e+02
7.800000e-07	-4.694654e-07	-9.755864e-09	-3.377355e+00	-6.429859e+02
7.900000e-07	-3.480927e-07	-8.739372e-09	-2.504194e+00	-5.761969e+02
8.000000e-07	-2.266402e-07	-7.692744e-09	-1.630460e+00	-5.075814e+02
8.100000e-07	-1.051316e-07	-6.627529e-09	-7.563211e-01	-4.376313e+02
8.200000e-07	1.644576e-08	-5.549913e-09	1.183115e-01	-3.668013e+02
8.300000e-07	1.380455e-07	-4.462914e-09	9.931055e-01	-2.954377e+02
8.400000e-07	2.596174e-07	-3.369507e-09	1.867699e+00	-2.237214e+02
8.500000e-07	3.811362e-07	-2.271142e-09	2.741910e+00	-1.516408e+02
8.600000e-07	5.025783e-07	-1.164636e-09	3.615570e+00	-7.900120e+01
8.700000e-07	6.238786e-07	-4.395733e-11	4.488210e+00	-5.474087e+00
8.800000e-07	7.450566e-07	1.097069e-09	5.359970e+00	6.932144e+01
8.900000e-07	8.660618e-07	2.263440e-09	6.230487e+00	1.457189e+02
9.000000e-07	9.867866e-07	3.454633e-09	7.098986e+00	2.239047e+02
9.100000e-07	1.107077e-06	4.672280e-09	7.964364e+00	3.038377e+02
9.200000e-07	1.226896e-06	5.910429e-09	8.826347e+00	3.852048e+02
9.300000e-07	1.346273e-06	7.162012e-09	9.685148e+00	4.674207e+02
9.400000e-07	1.465190e-06	8.415776e-09	1.054064e+01	5.496741e+02
9.500000e-07	1.583571e-06	9.658049e-09	1.139228e+01	6.310111e+02
9.600000e-07	1.701353e-06	1.087148e-08	1.223961e+01	7.104410e+02
9.700000e-07	1.818580e-06	1.203791e-08	1.308294e+01	7.870457e+02
9.800000e-07	1.935177e-06	1.314328e-08	1.392175e+01	8.600733e+02
9.900000e-07	2.050916e-06	1.418159e-08	1.475438e+01	9.290012e+02
1.000000e-06	2.165649e-06	1.515791e-08	1.557978e+01	9.935612e+02
1.010000e-06	2.279398e-06	1.606830e-08	1.639809e+01	1.053725e+03
1.020000e-06	2.392263e-06	1.691764e-08	1.721005e+01	1.109659e+03
1.030000e-06	2.504173e-06	1.770569e-08	1.801513e+01	1.161660e+03
1.040000e-06	2.615066e-06	1.843769e-08	1.881290e+01	1.210084e+03
1.050000e-06	2.725022e-06	1.912382e-08	1.960393e+01	1.255291e+03
1.060000e-06	2.834078e-06	1.976721e-08	2.038848e+01	1.297596e+03
1.070000e-06	2.942313e-06	2.037116e-08	2.116713e+01	1.337256e+03
1.080000e-06	3.049500e-06	2.093445e-08	2.193824e+01	1.374467e+03
1.090000e-06	3.155403e-06	2.146230e-08	2.270011e+01	1.409383e+03
1.100000e-06	3.260131e-06	2.195418e-08	2.345352e+01	1.442139e+03
1.110000e-06	3.363783e-06	2.241674e-08	2.419920e+01	1.472868e+03
1.120000e-06	3.466245e-06	2.285418e-08	2.493632e+01	1.501718e+03
1.130000e-06	3.567503e-06	2.326651e-08	2.566477e+01	1.528851e+03
1.140000e-06	3.667577e-06	2.365587e-08	2.638471e+01	1.554437e+03
1.150000e-06	3.766235e-06	2.402691e-08	2.709446e+01	1.578640e+03
1.160000e-06	3.863468e-06	2.438045e-08	2.779396e+01	1.601605e+03
1.170000e-06	3.959267e-06	2.471607e-08	2.848314e+01	1.623441e+03
1.180000e-06	4.053593e-06	2.503359e-08	2.916172e+01	1.644226e+03
1.190000e-06	4.146637e-06	2.533402e-08	2.983109e+01	1.664007e+03
1.200000e-06	4.238430e-06	2.561762e-08	3.049146e+01	1.682809e+03
1.210000e-06	4.328662e-06	2.588483e-08	3.114058e+01	1.700655e+03
1.220000e-06	4.417176e-06	2.613904e-08	3.177736e+01	1.717572e+03
1.230000e-06	4.504086e-06	2.638229e-08	3.240260e+01	1.733604e+03
1.240000e-06	4.589468e-06	2.661584e-08	3.301683e+01	1.748812e+03
1.250000e-06	4.673354e-06	2.683876e-08	3.362031e+01	1.763266e+03
1.260000e-06	4.755624e-06	2.705139e-08	3.421217e+01	1.777041e+03
1.270000e-06	4.836055e-06	2.725429e-08	3.479079e+01	1.790203e+03
1.280000e-06	4.914624e-06	2.744668e-08	3.535602e+01	1.802804e+03
1.290000e-06	4.991375e-06	2.762697e-08	3.590817e+01	1.814874e+03
1.300000e-06	5.066146e-06	2.779836e-08	3.644607e+01	1.826425e+03
1.310000e-06	5.138888e-06	2.796408e-08	3.696939e+01	1.837454e+03
1.320000e-06	5.209762e-06	2.812341e-08	3.747926e+01	1.847956e+03
1.330000e-06	5.278851e-06	2.827489e-08	3.797628e+01	1.857928e+03
1.340000e-06	5.346047e-06	2.842048e-08	3.845970e+01	1.867376e+03
1.350000e-06	5.411193e-06	2.856158e-08	3.892836e+01	1.876318e+03
1.360000e-06	5.474376e-06	2.869592e-08	3.938290e+01	1.884782e+03
1.370000e-06	5.535783e-06	2.882130e-08	3.982467e+01	1.892799e+03
1.380000e-06	5.595379e-06	2.893950e-08	4.025341e+01	1.900398e+03
1.390000e-06	5.652906e-06	2.905176e-08	4.066725e+01	1.907601e+03
1.400000e-06	5.708277e-06	2.915690e-08	4.106559e+01	1.914423e+03
1.410000e-06	5.761547e-06	2.925336e-08	4.144882e+01	1.920868e+03
1.420000e-06	5.812482e-06	2.934331e-08	4.181525e+01	1.926939e+03
1.430000e-06	5.860977e-06	2.942923e-08	4.216413e+01	1.932639e+03
1.440000e-06	5.907320e-06	2.951189e-08	4.249752e+01	1.937976e+03
1.450000e-06	5.951799e-06	2.959112e-08	4.281750e+01	1.942969e+03
1.460000e-06	5.994209e-06	2.966646e-08	4.312260e+01	1.947641e+03
1.470000e-06	6.034342e-06	2.973741e-08	4.341132e+01	1.952022e+03
1.480000e-06	6.072395e-06	2.980194e-08	4.368508e+01	1.956137e+03
1.490000e-06	6.108498e-06	2.986186e-08	4.394481e+01	1.960002e+03
1.500000e-06	6.142396e-06	2.991713e-08	4.418866e+01	1.963621e+03
1.510000e-06	6.174019e-06	2.996816e-08	4.441617e+01	1.966981e+03
1.520000e-06	6.203599e-06	3.001619e-08	4.462897e+01	1.970061e+03
1.530000e-06	6.231055e-06	3.005891e-08	4.482648e+01	1.972834e+03
1.540000e-06	6.256076e-06	3.009472e-08	4.500649e+01	1.975275e+03
1.550000e-06	6.278712e-06	3.012582e-08	4.516933e+01	1.977372e+03
1.560000e-06	6.299303e-06	3.015499e-08	4.531746e+01	1.979128e+03
1.570000e-06	6.317680e-06	3.018184e-08	4.544967e+01	1.980563e+03
1.580000e-06	6.333651e-06	3.020516e-08	4.556456e+01	1.981711e+03
1.590000e-06	6.347282e-06	3.022234e-08	4.566262e+01	1.982613e+03
1.600000e-06	6.358370e-06	3.023450e-08	4.574239e+01	1.983307e+03
1.610000e-06	6.366914e-06	3.024370e-08	4.580386e+01	1.983821e+03
1.620000e-06	6.373174e-06	3.025059e-08	4.584889e+01	1.984166e+03
1.630000e-06	6.377326e-06	3.025434e-08	4.587876e+01	1.984336e+03
1.640000e-06	6.379249e-06	3.025594e-08	4.589260e+01	1.984311e+03
1.650000e-06	6.378844e-06	3.025463e-08	4.588968e+01	1.984063e+03
1.660000e-06	6.376371e-06	3.023856e-08	4.587189e+01	1.983565e+03
1.670000e-06	6.371816e-06	3.022971e-08	4.583912e+01	1.982802e+03
1.680000e-06	6.365027e-06	3.021924e-08	4.579028e+01	1.981772e+03
1.690000e-06	6.356175e-06	3.020319e-08	4.572660e+01	1.980496e+03
1.700000e-06	6.345385e-06	3.018762e-08	4.564898e+01	1.979006e+03
1.710000e-06	6.332259e-06	3.017272e-08	4.555455e+01	1.977347e+03
1.720000e-06	6.316836e-06	3.017696e-08	4.544359e+01	1.975561e+03
1.730000e-06	6.299579e-06	3.007900e-08	4.531945e+01	1.973681e+03
1.740000e-06	6.280199e-06	2.994543e-08	4.518003e+01	1.971718e+03
1.750000e-06	6.257861e-06	2.999771e-08	4.501933e+01	1.969662e+03
1.760000e-06	6.232363e-06	3.000371e-08	4.483589e+01	1.967474e+03
1.770000e-06	6.204614e-06	2.993458e-08	4.463627e+01	1.965098e+03
1.780000e-06	6.175000e-06	3.009881e-08	4.442322e+01	1.962462e+03
1.790000e-06	6.143850e-06	2.994423e-08	4.419913e+01	1.959495e+03
1.800000e-06	6.111304e-06	2.976661e-08	4.396499e+01	1.956132e+03
1.810000e-06	6.076682e-06	3.000453e-08	4.371592e+01	1.952332e+03
1.820000e-06	6.040069e-06	2.969083e-08	4.345252e+01	1.948079e+03
1.830000e-06	6.001343e-06	2.961932e-08	4.317393e+01	1.943385e+03
1.840000e-06	5.960215e-06	2.970384e-08	4.287805e+01	1.938292e+03
1.850000e-06	5.917144e-06	2.932552e-08	4.256820e+01	1.932863e+03
1.860000e-06	5.872036e-06	2.943452e-08	4.224368e+01	1.927171e+03
1.870000e-06	5.824738e-06	2.930986e-08	4.190342e+01	1.921287e+03
1.880000e-06	5.775369e-06	2.917730e-08	4.154826e+01	1.915272e+03
1.890000e-06	5.723460e-06	2.923613e-08	4.117483e+01	1.909162e+03
1.900000e-06	5.669065e-06	2.891522e-08	4.078350e+01	1.902965e+03
1.910000e-06	5.612498e-06	2.896473e-08	4.037656e+01	1.896660e+03
1.920000e-06	5.554001e-06	2.885994e-08	3.995573e+01	1.890198e+03
1.930000e-06	5.493602e-06	2.869623e-08	3.952121e+01	1.883514e+03
1.940000e-06	5.431001e-06	2.868827e-08	3.907086e+01	1.876538e+03
1.950000e-06	5.366321e-06	2.845213e-08	3.860555e+01	1.869205e+03
1.960000e-06	5.299679e-06	2.845517e-08	3.812612e+01	1.861467e+03
1.970000e-06	5.231057e-06	2.823121e-08	3.763245e+01	1.853299e+03
1.980000e-06	5.160293e-06	2.810696e-08	3.712338e+01	1.844703e+03
1.990000e-06	5.087507e-06	2.805568e-08	3.659975e+01	1.835698e+03
2.000000e-06	5.013008e-06	2.785035e-08	3.606380e+01	1.826317e+03
2.010000e-06	4.936483e-06	2.777042e-08	3.551328e+01	1.816592e+03
2.020000e-06	4.857855e-06	2.750953e-08	3.494762e+01	1.806544e+03
2.030000e-06	4.777445e-06	2.741002e-08	3.436915e+01	1.796175e+03
2.040000e-06	4.695442e-06	2.726352e-08	3.377922e+01	1.785467e+03
2.050000e-06	4.611924e-06	2.708018e-08	3.317838e+01	1.774379e+03
2.060000e-06	4.526746e-06	2.692717e-08	3.256561e+01	1.762863e+03
2.070000e-06	4.439908e-06	2.670551e-08	3.194089e+01	1.750864e+03
2.080000e-06	4.351451e-06	2.654775e-08	3.130453e+01	1.738339e+03
2.090000e-06	4.261538e-06	2.630175e-08	3.065769e+01	1.725260e+03
2.100000e-06	4.170288e-06	2.612222e-08	3.000123e+01	1.711619e+03
2.110000e-06	4.077669e-06	2.591227e-08	2.933493e+01	1.697422e+03
2.120000e-06	3.983562e-06	2.569408e-08	2.865792e+01	1.682686e+03
2.130000e-06	3.887905e-06	2.546398e-08	2.796976e+01	1.667424e+03
2.140000e-06	3.790853e-06	2.521167e-08	2.727157e+01	1.651635e+03
2.150000e-06	3.692456e-06	2.497740e-08	2.656369e+01	1.635299e+03
2.160000e-06	3.592787e-06	2.470969e-08	2.584667e+01	1.618374e+03
2.170000e-06	3.491842e-06	2.445535e-08	2.512046e+01	1.600796e+03
2.180000e-06	3.389469e-06	2.416395e-08	2.438399e+01	1.582494e+03
2.190000e-06	3.285678e-06	2.387775e-08	2.363731e+01	1.563395e+03
2.200000e-06	3.180697e-06	2.356755e-08	2.288208e+01	1.543435e+03
2.210000e-06	3.074679e-06	2.325692e-08	2.211938e+01	1.522564e+03
2.220000e-06	2.967602e-06	2.292780e-08	2.134906e+01	1.500750e+03
2.230000e-06	2.859509e-06	2.258368e-08	2.057143e+01	1.477967e+03
2.240000e-06	2.750463e-06	2.222745e-08	1.978695e+01	1.454184e+03
2.250000e-06	2.640377e-06	2.184971e-08	1.899498e+01	1.429362e+03
2.260000e-06	2.529214e-06	2.145676e-08	1.819527e+01	1.403432e+03
2.270000e-06	2.417013e-06	2.103758e-08	1.738810e+01	1.376302e+03
2.280000e-06	2.303859e-06	2.060871e-08	1.657406e+01	1.347852e+03
2.290000e-06	2.189787e-06	2.015132e-08	1.575343e+01	1.317944e+03
2.300000e-06	2.074864e-06	1.967410e-08	1.492666e+01	1.286436e+03
2.310000e-06	1.959209e-06	1.916569e-08	1.409464e+01	1.253191e+03
2.320000e-06	1.842811e-06	1.863131e-08	1.325727e+01	1.218082e+03
2.330000e-06	1.725715e-06	1.806628e-08	1.241487e+01	1.180995e+03
2.340000e-06	1.607942e-06	1.746944e-08	1.156761e+01	1.141824e+03
2.350000e-06	1.489483e-06	1.684069e-08	1.071541e+01	1.100454e+03
2.360000e-06	1.370376e-06	1.617761e-08	9.858544e+00	1.056755e+03
2.370000e-06	1.250701e-06	1.547681e-08	8.997596e+00	1.010576e+03
2.380000e-06	1.130632e-06	1.472801e-08	8.133818e+00	9.617492e+02
2.390000e-06	1.010211e-06	1.393473e-08	7.267501e+00	9.101110e+02
2.400000e-06	8.894938e-07	1.309783e-08	6.399058e+00	8.555309e+02
2.410000e-06	7.685551e-07	1.222049e-08	5.529019e+00	7.979496e+02
2.420000e-06	6.474447e-07	1.129958e-08	4.657746e+00	7.374139e+02
2.430000e-06	5.261663e-07	1.033724e-08	3.785263e+00	6.741005e+02
2.440000e-06	4.047486e-07	9.336008e-09	2.911779e+00	6.083192e+02
2.450000e-06	2.832433e-07	8.299606e-09	2.037665e+00	5.404910e+02
2.460000e-06	1.615745e-07	7.237191e-09	1.162374e+00	4.710998e+02
2.470000e-06	3.978443e-08	6.157323e-09	2.862110e-01	4.006270e+02
2.480000e-06	-8.203416e-08	5.069812e-09	-5.901573e-01	3.294774e+02
2.490000e-06	-2.038318e-07	3.975137e-09	-1.466375e+00	2.579142e+02
2.500000e-06	-3.255183e-07	2.875563e-09	-2.341793e+00	1.860164e+02
2.510000e-06	-4.470960e-07	1.771125e-09	-3.216428e+00	1.136705e+02
2.520000e-06	-5.685978e-07	6.551090e-10	-4.090518e+00	4.060166e+01
2.530000e-06	-6.899272e-07	-4.763743e-10	-4.963366e+00	-3.355834e+01
2.540000e-06	-8.110537e-07	-1.631311e-09	-5.834756e+00	-1.091779e+02
2.550000e-06	-9.319851e-07	-2.808990e-09	-6.704742e+00	-1.865233e+02
2.560000e-06	-1.052635e-06	-4.011382e-09	-7.572703e+00	-2.656672e+02
2.570000e-06	-1.172959e-06	-5.241983e-09	-8.438322e+00	-3.464255e+02
2.580000e-06	-1.292921e-06	-6.492224e-09	-9.301333e+00	-4.283362e+02
2.590000e-06	-1.412278e-06	-7.752962e-09	-1.015999e+01	-5.106846e+02
2.600000e-06	-1.530932e-06	-9.011344e-09	-1.101360e+01	-5.925708e+02
2.610000e-06	-1.648910e-06	-1.024644e-08	-1.186233e+01	-6.730073e+02
2.620000e-06	-1.766193e-06	-1.144226e-08	-1.270607e+01	-7.510294e+02
2.630000e-06	-1.882791e-06	-1.258598e-08	-1.354488e+01	-8.257979e+02
2.640000e-06	-1.998634e-06	-1.366837e-08	-1.437826e+01	-8.966783e+02
2.650000e-06	-2.113688e-06	-1.468696e-08	-1.520597e+01	-9.632837e+02
2.660000e-06	-2.227820e-06	-1.563862e-08	-1.602703e+01	-1.025478e+03
2.670000e-06	-2.340835e-06	-1.652604e-08	-1.684007e+01	-1.083346e+03
2.680000e-06	-2.452852e-06	-1.735341e-08	-1.764593e+01	-1.137131e+03
2.690000e-06	-2.563907e-06	-1.812275e-08	-1.844486e+01	-1.187170e+03
2.700000e-06	-2.673888e-06	-1.884152e-08	-1.923606e+01	-1.233828e+03
2.710000e-06	-2.782906e-06	-1.951442e-08	-2.002035e+01	-1.277445e+03
2.720000e-06	-2.891097e-06	-2.014387e-08	-2.079868e+01	-1.318305e+03
2.730000e-06	-2.998404e-06	-2.073237e-08	-2.157065e+01	-1.356632e+03
2.740000e-06	-3.104732e-06	-2.128262e-08	-2.233558e+01	-1.392597e+03
2.750000e-06	-3.210033e-06	-2.179652e-08	-2.309312e+01	-1.426340e+03
2.760000e-06	-3.314207e-06	-2.227634e-08	-2.384255e+01	-1.457993e+03
2.770000e-06	-3.417101e-06	-2.272818e-08	-2.458278e+01	-1.487696e+03
2.780000e-06	-3.518711e-06	-2.315388e-08	-2.531376e+01	-1.515605e+03
2.790000e-06	-3.619097e-06	-2.355633e-08	-2.603595e+01	-1.541888e+03
2.800000e-06	-3.718202e-06	-2.394018e-08	-2.674891e+01	-1.566714e+03
2.810000e-06	-3.816040e-06	-2.430430e-08	-2.745276e+01	-1.590238e+03
2.820000e-06	-3.912675e-06	-2.464651e-08	-2.814796e+01	-1.612587e+03
2.830000e-06	-4.007979e-06	-2.496941e-08	-2.883358e+01	-1.633853e+03
2.840000e-06	-4.101793e-06	-2.527637e-08	-2.950848e+01	-1.654095e+03
2.850000e-06	-4.194151e-06	-2.556922e-08	-3.017290e+01	-1.673349e+03
2.860000e-06	-4.285045e-06	-2.584728e-08	-3.082680e+01	-1.691637e+03
2.870000e-06	-4.374422e-06	-2.611042e-08	-3.146979e+01	-1.708981e+03
2.880000e-06	-4.462177e-06	-2.635890e-08	-3.210110e+01	-1.725418e+03
2.890000e-06	-4.548168e-06	-2.659486e-08	-3.271972e+01	-1.741000e+03
2.900000e-06	-4.632498e-06	-2.682264e-08	-3.332639e+01	-1.755794e+03
2.910000e-06	-4.715286e-06	-2.704300e-08	-3.392198e+01	-1.769876e+03
2.920000e-06	-4.796515e-06	-2.725327e-08	-3.450634e+01	-1.783315e+03
2.930000e-06	-4.875931e-06	-2.745223e-08	-3.507766e+01	-1.796172e+03
2.940000e-06	-4.953284e-06	-2.764100e-08	-3.563415e+01	-1.808486e+03
