# Temperatura_=_52.54
# Concentracion g/m^3_=_28200.0
# C_Vs_to_Am_M_A/Vsm_=_65563218390.804596
# pendiente_HvsI_1/m_=_3716.3
# ordenada_HvsI_A/m_=_1297.0
# frecuencia_Hz_=_302133.13066178444

Tiempo_(s)	Campo_(V.s)	Magnetizacion_(V.s)	Campo_(kA/m)	Magnetizacion_(A/m)
0.000000e+00	-6.392436e-06	-2.290920e-08	-4.585211e+01	-1.498353e+03
1.000000e-08	-6.389484e-06	-2.290607e-08	-4.583093e+01	-1.497958e+03
2.000000e-08	-6.384458e-06	-2.289869e-08	-4.579488e+01	-1.497483e+03
3.000000e-08	-6.377516e-06	-2.289054e-08	-4.574509e+01	-1.496905e+03
4.000000e-08	-6.368492e-06	-2.287928e-08	-4.568036e+01	-1.496187e+03
5.000000e-08	-6.357094e-06	-2.286127e-08	-4.559860e+01	-1.495284e+03
6.000000e-08	-6.343291e-06	-2.283983e-08	-4.549960e+01	-1.494158e+03
7.000000e-08	-6.327189e-06	-2.281803e-08	-4.538410e+01	-1.492789e+03
8.000000e-08	-6.309016e-06	-2.280602e-08	-4.525375e+01	-1.491184e+03
9.000000e-08	-6.288808e-06	-2.283880e-08	-4.510880e+01	-1.489384e+03
1.000000e-07	-6.266262e-06	-2.279416e-08	-4.494708e+01	-1.487452e+03
1.100000e-07	-6.241087e-06	-2.271157e-08	-4.476650e+01	-1.485470e+03
1.200000e-07	-6.213445e-06	-2.267641e-08	-4.456823e+01	-1.483516e+03
1.300000e-07	-6.183843e-06	-2.262045e-08	-4.435590e+01	-1.481647e+03
1.400000e-07	-6.152630e-06	-2.252311e-08	-4.413201e+01	-1.479889e+03
1.500000e-07	-6.119703e-06	-2.261446e-08	-4.389583e+01	-1.478220e+03
1.600000e-07	-6.084750e-06	-2.260304e-08	-4.364512e+01	-1.476576e+03
1.700000e-07	-6.047862e-06	-2.241977e-08	-4.338053e+01	-1.474860e+03
1.800000e-07	-6.009008e-06	-2.247830e-08	-4.310183e+01	-1.472954e+03
1.900000e-07	-5.967843e-06	-2.239638e-08	-4.280655e+01	-1.470747e+03
2.000000e-07	-5.924461e-06	-2.230524e-08	-4.249538e+01	-1.468148e+03
2.100000e-07	-5.879034e-06	-2.234350e-08	-4.216954e+01	-1.465105e+03
2.200000e-07	-5.831425e-06	-2.226390e-08	-4.182805e+01	-1.461612e+03
2.300000e-07	-5.781316e-06	-2.220253e-08	-4.146862e+01	-1.457705e+03
2.400000e-07	-5.728599e-06	-2.212328e-08	-4.109049e+01	-1.453448e+03
2.500000e-07	-5.673621e-06	-2.204553e-08	-4.069614e+01	-1.448921e+03
2.600000e-07	-5.616573e-06	-2.200033e-08	-4.028694e+01	-1.444198e+03
2.700000e-07	-5.557411e-06	-2.191520e-08	-3.986258e+01	-1.439331e+03
2.800000e-07	-5.496243e-06	-2.185724e-08	-3.942383e+01	-1.434341e+03
2.900000e-07	-5.433083e-06	-2.176268e-08	-3.897079e+01	-1.429217e+03
3.000000e-07	-5.367884e-06	-2.168028e-08	-3.850313e+01	-1.423924e+03
3.100000e-07	-5.300594e-06	-2.159402e-08	-3.802047e+01	-1.418409e+03
3.200000e-07	-5.231263e-06	-2.149260e-08	-3.752317e+01	-1.412622e+03
3.300000e-07	-5.160064e-06	-2.142200e-08	-3.701246e+01	-1.406524e+03
3.400000e-07	-5.087103e-06	-2.131412e-08	-3.648913e+01	-1.400095e+03
3.500000e-07	-5.012180e-06	-2.121286e-08	-3.595171e+01	-1.393335e+03
3.600000e-07	-4.935020e-06	-2.109963e-08	-3.539826e+01	-1.386261e+03
3.700000e-07	-4.855836e-06	-2.098478e-08	-3.483028e+01	-1.378896e+03
3.800000e-07	-4.774787e-06	-2.088326e-08	-3.424892e+01	-1.371257e+03
3.900000e-07	-4.692080e-06	-2.076006e-08	-3.365568e+01	-1.363350e+03
4.000000e-07	-4.607985e-06	-2.063334e-08	-3.305247e+01	-1.355163e+03
4.100000e-07	-4.522459e-06	-2.049859e-08	-3.243901e+01	-1.346669e+03
4.200000e-07	-4.435489e-06	-2.036200e-08	-3.181519e+01	-1.337829e+03
4.300000e-07	-4.347077e-06	-2.021994e-08	-3.118102e+01	-1.328603e+03
4.400000e-07	-4.257091e-06	-2.006765e-08	-3.053555e+01	-1.318955e+03
4.500000e-07	-4.165471e-06	-1.991719e-08	-2.987838e+01	-1.308865e+03
4.600000e-07	-4.072272e-06	-1.975178e-08	-2.920988e+01	-1.298323e+03
4.700000e-07	-3.977718e-06	-1.958696e-08	-2.853165e+01	-1.287334e+03
4.800000e-07	-3.881870e-06	-1.941743e-08	-2.784415e+01	-1.275904e+03
4.900000e-07	-3.784596e-06	-1.923964e-08	-2.714641e+01	-1.264038e+03
5.000000e-07	-3.685776e-06	-1.905026e-08	-2.643759e+01	-1.251727e+03
5.100000e-07	-3.585550e-06	-1.884986e-08	-2.571868e+01	-1.238948e+03
5.200000e-07	-3.484066e-06	-1.864277e-08	-2.499075e+01	-1.225660e+03
5.300000e-07	-3.381405e-06	-1.842546e-08	-2.425438e+01	-1.211809e+03
5.400000e-07	-3.277527e-06	-1.820696e-08	-2.350927e+01	-1.197338e+03
5.500000e-07	-3.172446e-06	-1.797495e-08	-2.275554e+01	-1.182189e+03
5.600000e-07	-3.066130e-06	-1.773147e-08	-2.199295e+01	-1.166313e+03
5.700000e-07	-2.958472e-06	-1.747518e-08	-2.122073e+01	-1.149672e+03
5.800000e-07	-2.849697e-06	-1.720880e-08	-2.044050e+01	-1.132235e+03
5.900000e-07	-2.739988e-06	-1.693204e-08	-1.965357e+01	-1.113973e+03
6.000000e-07	-2.629500e-06	-1.664210e-08	-1.886106e+01	-1.094855e+03
6.100000e-07	-2.518054e-06	-1.633668e-08	-1.806167e+01	-1.074836e+03
6.200000e-07	-2.405514e-06	-1.601137e-08	-1.725444e+01	-1.053855e+03
6.300000e-07	-2.291995e-06	-1.567285e-08	-1.644018e+01	-1.031835e+03
6.400000e-07	-2.177467e-06	-1.531709e-08	-1.561868e+01	-1.008683e+03
6.500000e-07	-2.061936e-06	-1.494330e-08	-1.479000e+01	-9.842956e+02
6.600000e-07	-1.945624e-06	-1.454900e-08	-1.395571e+01	-9.585683e+02
6.700000e-07	-1.828651e-06	-1.413613e-08	-1.311667e+01	-9.313970e+02
6.800000e-07	-1.711030e-06	-1.370154e-08	-1.227299e+01	-9.026812e+02
6.900000e-07	-1.592868e-06	-1.323816e-08	-1.142543e+01	-8.723225e+02
7.000000e-07	-1.474237e-06	-1.274802e-08	-1.057451e+01	-8.402220e+02
7.100000e-07	-1.355126e-06	-1.223203e-08	-9.720140e+00	-8.062781e+02
7.200000e-07	-1.235638e-06	-1.168780e-08	-8.863072e+00	-7.703875e+02
7.300000e-07	-1.115699e-06	-1.110891e-08	-8.002760e+00	-7.324526e+02
7.400000e-07	-9.952772e-07	-1.049705e-08	-7.138993e+00	-6.923952e+02
7.500000e-07	-8.745036e-07	-9.853487e-09	-6.272700e+00	-6.501760e+02
7.600000e-07	-7.533894e-07	-9.179368e-09	-5.403964e+00	-6.058155e+02
7.700000e-07	-6.319987e-07	-8.472482e-09	-4.533244e+00	-5.594127e+02
7.800000e-07	-5.103954e-07	-7.739095e-09	-3.661000e+00	-5.111543e+02
7.900000e-07	-3.886358e-07	-6.984745e-09	-2.787634e+00	-4.613107e+02
8.000000e-07	-2.667437e-07	-6.205607e-09	-1.913318e+00	-4.102162e+02
8.100000e-07	-1.447702e-07	-5.410840e-09	-1.038418e+00	-3.582348e+02
8.200000e-07	-2.274281e-08	-4.609345e-09	-1.631312e-01	-3.057149e+02
8.300000e-07	9.934728e-08	-3.806918e-09	7.126050e-01	-2.529424e+02
8.400000e-07	2.214254e-07	-3.003687e-09	1.588255e+00	-2.000986e+02
8.500000e-07	3.434586e-07	-2.200805e-09	2.463584e+00	-1.472348e+02
8.600000e-07	4.654414e-07	-1.393973e-09	3.338550e+00	-9.426781e+01
8.700000e-07	5.872482e-07	-5.798243e-10	4.212255e+00	-4.099956e+01
8.800000e-07	7.088799e-07	2.413069e-10	5.084703e+00	1.283983e+01
8.900000e-07	8.303183e-07	1.073515e-09	5.955765e+00	6.753369e+01
9.000000e-07	9.515002e-07	1.919601e-09	6.824987e+00	1.233139e+02
9.100000e-07	1.072344e-06	2.783228e-09	7.691781e+00	1.803011e+02
9.200000e-07	1.192713e-06	3.664126e-09	8.555175e+00	2.384607e+02
9.300000e-07	1.312534e-06	4.561579e-09	9.414637e+00	2.975823e+02
9.400000e-07	1.431803e-06	5.469186e-09	1.027014e+01	3.572861e+02
9.500000e-07	1.550575e-06	6.381033e-09	1.112207e+01	4.170544e+02
9.600000e-07	1.668856e-06	7.284413e-09	1.197049e+01	4.762835e+02
9.700000e-07	1.786593e-06	8.167910e-09	1.281500e+01	5.343453e+02
9.800000e-07	1.903681e-06	9.023347e-09	1.365485e+01	5.906496e+02
9.900000e-07	2.020017e-06	9.842736e-09	1.448932e+01	6.446964e+02
1.000000e-06	2.135458e-06	1.062689e-08	1.531736e+01	6.961128e+02
1.010000e-06	2.249906e-06	1.136511e-08	1.613828e+01	7.446679e+02
1.020000e-06	2.363376e-06	1.205529e-08	1.695219e+01	7.902704e+02
1.030000e-06	2.475813e-06	1.269871e-08	1.775868e+01	8.329476e+02
1.040000e-06	2.587252e-06	1.329996e-08	1.855802e+01	8.728167e+02
1.050000e-06	2.697781e-06	1.386475e-08	1.935083e+01	9.100505e+02
1.060000e-06	2.807424e-06	1.439486e-08	2.013729e+01	9.448472e+02
1.070000e-06	2.916223e-06	1.489386e-08	2.091769e+01	9.774063e+02
1.080000e-06	3.024025e-06	1.535969e-08	2.169093e+01	1.007913e+03
1.090000e-06	3.130720e-06	1.579382e-08	2.245625e+01	1.036533e+03
1.100000e-06	3.236305e-06	1.619925e-08	2.321359e+01	1.063411e+03
1.110000e-06	3.340567e-06	1.658126e-08	2.396145e+01	1.088676e+03
1.120000e-06	3.443560e-06	1.693954e-08	2.470021e+01	1.112445e+03
1.130000e-06	3.545417e-06	1.727778e-08	2.543081e+01	1.134831e+03
1.140000e-06	3.646112e-06	1.759964e-08	2.615309e+01	1.155939e+03
1.150000e-06	3.745574e-06	1.790520e-08	2.686651e+01	1.175869e+03
1.160000e-06	3.843660e-06	1.819179e-08	2.757007e+01	1.194714e+03
1.170000e-06	3.940191e-06	1.846115e-08	2.826248e+01	1.212556e+03
1.180000e-06	4.035206e-06	1.871792e-08	2.894401e+01	1.229466e+03
1.190000e-06	4.128935e-06	1.896265e-08	2.961631e+01	1.245504e+03
1.200000e-06	4.221408e-06	1.919423e-08	3.027961e+01	1.260719e+03
1.210000e-06	4.312449e-06	1.941237e-08	3.093263e+01	1.275153e+03
1.220000e-06	4.401835e-06	1.961762e-08	3.157379e+01	1.288849e+03
1.230000e-06	4.489518e-06	1.980948e-08	3.220273e+01	1.301844e+03
1.240000e-06	4.575539e-06	1.999111e-08	3.281974e+01	1.314180e+03
1.250000e-06	4.660024e-06	2.016643e-08	3.342574e+01	1.325899e+03
1.260000e-06	4.743037e-06	2.033628e-08	3.402118e+01	1.337041e+03
1.270000e-06	4.824349e-06	2.049989e-08	3.460442e+01	1.347643e+03
1.280000e-06	4.903778e-06	2.065714e-08	3.517416e+01	1.357737e+03
1.290000e-06	4.981416e-06	2.080761e-08	3.573104e+01	1.367345e+03
1.300000e-06	5.057182e-06	2.094830e-08	3.627450e+01	1.376482e+03
1.310000e-06	5.130842e-06	2.107956e-08	3.680286e+01	1.385154e+03
1.320000e-06	5.202504e-06	2.120397e-08	3.731688e+01	1.393364e+03
1.330000e-06	5.272331e-06	2.132053e-08	3.781774e+01	1.401116e+03
1.340000e-06	5.340331e-06	2.142924e-08	3.830549e+01	1.408417e+03
1.350000e-06	5.406384e-06	2.153159e-08	3.877928e+01	1.415281e+03
1.360000e-06	5.470382e-06	2.162961e-08	3.923834e+01	1.421730e+03
1.370000e-06	5.532439e-06	2.172320e-08	3.968346e+01	1.427797e+03
1.380000e-06	5.592763e-06	2.181242e-08	4.011616e+01	1.433520e+03
1.390000e-06	5.651163e-06	2.189700e-08	4.053505e+01	1.438939e+03
1.400000e-06	5.707415e-06	2.197753e-08	4.093854e+01	1.444095e+03
1.410000e-06	5.761615e-06	2.205181e-08	4.132731e+01	1.449017e+03
1.420000e-06	5.813552e-06	2.212017e-08	4.169985e+01	1.453726e+03
1.430000e-06	5.863071e-06	2.218407e-08	4.205504e+01	1.458231e+03
1.440000e-06	5.910298e-06	2.224591e-08	4.239380e+01	1.462526e+03
1.450000e-06	5.955532e-06	2.230703e-08	4.271825e+01	1.466596e+03
1.460000e-06	5.998765e-06	2.236714e-08	4.302836e+01	1.470420e+03
1.470000e-06	6.039753e-06	2.242586e-08	4.332236e+01	1.473980e+03
1.480000e-06	6.078547e-06	2.247854e-08	4.360062e+01	1.477260e+03
1.490000e-06	6.115365e-06	2.252387e-08	4.386471e+01	1.480257e+03
1.500000e-06	6.150089e-06	2.256121e-08	4.411378e+01	1.482976e+03
1.510000e-06	6.182485e-06	2.259430e-08	4.434616e+01	1.485435e+03
1.520000e-06	6.212675e-06	2.262703e-08	4.456271e+01	1.487657e+03
1.530000e-06	6.240825e-06	2.265762e-08	4.476462e+01	1.489669e+03
1.540000e-06	6.266687e-06	2.268467e-08	4.495013e+01	1.491489e+03
1.550000e-06	6.290102e-06	2.270884e-08	4.511808e+01	1.493130e+03
1.560000e-06	6.311351e-06	2.273121e-08	4.527049e+01	1.494592e+03
1.570000e-06	6.330483e-06	2.275239e-08	4.540772e+01	1.495867e+03
1.580000e-06	6.347269e-06	2.277020e-08	4.552813e+01	1.496936e+03
1.590000e-06	6.361654e-06	2.278342e-08	4.563131e+01	1.497784e+03
1.600000e-06	6.373643e-06	2.279264e-08	4.571730e+01	1.498401e+03
1.610000e-06	6.383130e-06	2.279804e-08	4.578535e+01	1.498788e+03
1.620000e-06	6.390209e-06	2.280079e-08	4.583613e+01	1.498961e+03
1.630000e-06	6.395171e-06	2.280207e-08	4.587173e+01	1.498951e+03
1.640000e-06	6.397855e-06	2.280212e-08	4.589098e+01	1.498792e+03
1.650000e-06	6.398081e-06	2.280309e-08	4.589260e+01	1.498521e+03
1.660000e-06	6.396101e-06	2.279596e-08	4.587840e+01	1.498165e+03
1.670000e-06	6.392130e-06	2.278971e-08	4.584991e+01	1.497731e+03
1.680000e-06	6.386006e-06	2.278103e-08	4.580598e+01	1.497209e+03
1.690000e-06	6.377678e-06	2.276819e-08	4.574625e+01	1.496567e+03
1.700000e-06	6.367370e-06	2.275514e-08	4.567231e+01	1.495761e+03
1.710000e-06	6.354885e-06	2.274161e-08	4.558276e+01	1.494751e+03
1.720000e-06	6.340107e-06	2.273336e-08	4.547676e+01	1.493504e+03
1.730000e-06	6.323368e-06	2.269849e-08	4.535669e+01	1.492014e+03
1.740000e-06	6.304658e-06	2.260709e-08	4.522249e+01	1.490305e+03
1.750000e-06	6.283184e-06	2.260121e-08	4.506846e+01	1.488430e+03
1.760000e-06	6.258591e-06	2.261474e-08	4.489205e+01	1.486462e+03
1.770000e-06	6.231518e-06	2.257725e-08	4.469786e+01	1.484485e+03
1.780000e-06	6.202558e-06	2.264590e-08	4.449014e+01	1.482568e+03
1.790000e-06	6.171905e-06	2.261407e-08	4.427027e+01	1.480754e+03
1.800000e-06	6.139781e-06	2.242745e-08	4.403985e+01	1.479046e+03
1.810000e-06	6.105804e-06	2.247613e-08	4.379613e+01	1.477400e+03
1.820000e-06	6.069779e-06	2.246526e-08	4.353773e+01	1.475734e+03
1.830000e-06	6.031690e-06	2.249805e-08	4.326452e+01	1.473938e+03
1.840000e-06	5.991159e-06	2.262716e-08	4.297380e+01	1.471895e+03
1.850000e-06	5.948580e-06	2.243293e-08	4.266838e+01	1.469500e+03
1.860000e-06	5.904086e-06	2.238669e-08	4.234924e+01	1.466683e+03
1.870000e-06	5.857333e-06	2.235529e-08	4.201388e+01	1.463414e+03
1.880000e-06	5.808483e-06	2.224186e-08	4.166349e+01	1.459707e+03
1.890000e-06	5.757284e-06	2.227301e-08	4.129625e+01	1.455615e+03
1.900000e-06	5.703546e-06	2.214962e-08	4.091079e+01	1.451213e+03
1.910000e-06	5.647515e-06	2.211183e-08	4.050889e+01	1.446580e+03
1.920000e-06	5.589364e-06	2.206236e-08	4.009177e+01	1.441780e+03
1.930000e-06	5.529348e-06	2.190501e-08	3.966129e+01	1.436851e+03
1.940000e-06	5.467237e-06	2.189758e-08	3.921578e+01	1.431798e+03
1.950000e-06	5.402979e-06	2.178546e-08	3.875486e+01	1.426595e+03
1.960000e-06	5.336751e-06	2.173860e-08	3.827981e+01	1.421198e+03
1.970000e-06	5.268549e-06	2.163260e-08	3.779062e+01	1.415553e+03
1.980000e-06	5.198264e-06	2.150672e-08	3.728647e+01	1.409614e+03
1.990000e-06	5.125928e-06	2.146838e-08	3.676761e+01	1.403351e+03
2.000000e-06	5.051859e-06	2.133094e-08	3.623633e+01	1.396755e+03
2.010000e-06	4.975826e-06	2.124802e-08	3.569095e+01	1.389836e+03
2.020000e-06	4.897639e-06	2.111560e-08	3.513012e+01	1.382613e+03
2.030000e-06	4.817538e-06	2.101045e-08	3.455557e+01	1.375109e+03
2.040000e-06	4.735777e-06	2.090606e-08	3.396911e+01	1.367337e+03
2.050000e-06	4.652481e-06	2.076173e-08	3.337164e+01	1.359293e+03
2.060000e-06	4.567627e-06	2.065833e-08	3.276299e+01	1.350957e+03
2.070000e-06	4.481056e-06	2.051730e-08	3.214203e+01	1.342295e+03
2.080000e-06	4.392800e-06	2.038865e-08	3.150898e+01	1.333267e+03
2.090000e-06	4.303111e-06	2.022603e-08	3.086565e+01	1.323833e+03
2.100000e-06	4.212012e-06	2.007427e-08	3.021221e+01	1.313966e+03
2.110000e-06	4.119511e-06	1.992815e-08	2.954871e+01	1.303650e+03
2.120000e-06	4.025538e-06	1.976470e-08	2.887466e+01	1.292884e+03
2.130000e-06	3.929976e-06	1.959980e-08	2.818921e+01	1.281674e+03
2.140000e-06	3.833026e-06	1.941796e-08	2.749379e+01	1.270026e+03
2.150000e-06	3.734819e-06	1.923991e-08	2.678937e+01	1.257939e+03
2.160000e-06	3.635295e-06	1.904197e-08	2.607550e+01	1.245398e+03
2.170000e-06	3.534417e-06	1.884707e-08	2.535191e+01	1.232371e+03
2.180000e-06	3.432197e-06	1.864028e-08	2.461870e+01	1.218808e+03
2.190000e-06	3.328570e-06	1.842774e-08	2.387540e+01	1.204655e+03
2.200000e-06	3.223643e-06	1.819972e-08	2.312277e+01	1.189851e+03
2.210000e-06	3.117674e-06	1.796302e-08	2.236267e+01	1.174345e+03
2.220000e-06	3.010632e-06	1.772029e-08	2.159487e+01	1.158091e+03
2.230000e-06	2.902509e-06	1.746432e-08	2.081932e+01	1.141055e+03
2.240000e-06	2.793443e-06	1.719489e-08	2.003700e+01	1.123209e+03
2.250000e-06	2.683382e-06	1.690892e-08	1.924755e+01	1.104524e+03
2.260000e-06	2.572235e-06	1.661186e-08	1.845031e+01	1.084961e+03
2.270000e-06	2.460060e-06	1.629686e-08	1.764569e+01	1.064470e+03
2.280000e-06	2.346867e-06	1.597149e-08	1.683377e+01	1.042981e+03
2.290000e-06	2.232732e-06	1.562916e-08	1.601509e+01	1.020407e+03
2.300000e-06	2.117735e-06	1.526873e-08	1.519024e+01	9.966501e+02
2.310000e-06	2.001944e-06	1.488487e-08	1.435968e+01	9.716060e+02
2.320000e-06	1.885302e-06	1.448134e-08	1.352302e+01	9.451695e+02
2.330000e-06	1.767889e-06	1.405777e-08	1.268084e+01	9.172384e+02
2.340000e-06	1.649922e-06	1.361115e-08	1.183467e+01	8.877133e+02
2.350000e-06	1.531382e-06	1.313638e-08	1.098440e+01	8.564963e+02
2.360000e-06	1.412209e-06	1.262980e-08	1.012959e+01	8.234870e+02
2.370000e-06	1.292447e-06	1.209451e-08	9.270553e+00	7.885825e+02
2.380000e-06	1.172252e-06	1.152774e-08	8.408410e+00	7.516812e+02
2.390000e-06	1.051758e-06	1.093223e-08	7.544121e+00	7.126929e+02
2.400000e-06	9.309712e-07	1.030466e-08	6.677735e+00	6.715562e+02
2.410000e-06	8.098538e-07	9.643606e-09	5.808975e+00	6.282592e+02
2.420000e-06	6.884912e-07	8.949641e-09	4.938457e+00	5.828598e+02
2.430000e-06	5.669249e-07	8.225262e-09	4.066478e+00	5.355004e+02
2.440000e-06	4.451219e-07	7.475135e-09	3.192801e+00	4.864109e+02
2.450000e-06	3.231728e-07	6.703434e-09	2.318076e+00	4.358973e+02
2.460000e-06	2.011089e-07	5.915179e-09	1.442528e+00	3.843137e+02
2.470000e-06	7.895594e-08	5.115098e-09	5.663406e-01	3.320223e+02
2.480000e-06	-4.323386e-08	4.310255e-09	-3.101108e-01	2.793461e+02
2.490000e-06	-1.654257e-07	3.504225e-09	-1.186577e+00	2.265229e+02
2.500000e-06	-2.875923e-07	2.698437e-09	-2.062862e+00	1.736714e+02
2.510000e-06	-4.096942e-07	1.893462e-09	-2.938683e+00	1.207743e+02
2.520000e-06	-5.316665e-07	1.081903e-09	-3.813574e+00	6.768715e+01
2.530000e-06	-6.535077e-07	2.595075e-10	-4.687525e+00	1.416941e+01
2.540000e-06	-7.751660e-07	-5.743695e-10	-5.560164e+00	-4.006350e+01
2.550000e-06	-8.965605e-07	-1.419909e-09	-6.430911e+00	-9.527724e+01
2.560000e-06	-1.017667e-06	-2.280146e-09	-7.299594e+00	-1.516548e+02
2.570000e-06	-1.138448e-06	-3.159548e-09	-8.165936e+00	-2.092433e+02
2.580000e-06	-1.258785e-06	-4.055566e-09	-9.029101e+00	-2.679213e+02
2.590000e-06	-1.378688e-06	-4.964513e-09	-9.889149e+00	-3.273911e+02
2.600000e-06	-1.498062e-06	-5.881317e-09	-1.074541e+01	-3.871986e+02
2.610000e-06	-1.616696e-06	-6.795684e-09	-1.159635e+01	-4.467758e+02
2.620000e-06	-1.734669e-06	-7.694376e-09	-1.244256e+01	-5.054988e+02
2.630000e-06	-1.851993e-06	-8.569626e-09	-1.328410e+01	-5.627510e+02
2.640000e-06	-1.968466e-06	-9.416774e-09	-1.411955e+01	-6.179818e+02
2.650000e-06	-2.084022e-06	-1.022627e-08	-1.494842e+01	-6.707512e+02
2.660000e-06	-2.198720e-06	-1.098957e-08	-1.577113e+01	-7.207568e+02
2.670000e-06	-2.312439e-06	-1.170834e-08	-1.658682e+01	-7.678390e+02
2.680000e-06	-2.425088e-06	-1.238353e-08	-1.739484e+01	-8.119691e+02
2.690000e-06	-2.536780e-06	-1.301693e-08	-1.819599e+01	-8.532233e+02
2.700000e-06	-2.647429e-06	-1.360935e-08	-1.898966e+01	-8.917509e+02
2.710000e-06	-2.757051e-06	-1.416334e-08	-1.977597e+01	-9.277408e+02
2.720000e-06	-2.865843e-06	-1.468229e-08	-2.055632e+01	-9.613944e+02
2.730000e-06	-2.973754e-06	-1.516444e-08	-2.133035e+01	-9.929054e+02
2.740000e-06	-3.080739e-06	-1.561619e-08	-2.209774e+01	-1.022450e+03
2.750000e-06	-3.186689e-06	-1.603903e-08	-2.285770e+01	-1.050181e+03
2.760000e-06	-3.291555e-06	-1.643723e-08	-2.360990e+01	-1.076237e+03
2.770000e-06	-3.395219e-06	-1.681465e-08	-2.435346e+01	-1.100740e+03
2.780000e-06	-3.497534e-06	-1.716858e-08	-2.508735e+01	-1.123804e+03
2.790000e-06	-3.598488e-06	-1.749974e-08	-2.581148e+01	-1.145538e+03
2.800000e-06	-3.698152e-06	-1.781247e-08	-2.652636e+01	-1.166045e+03
2.810000e-06	-3.796627e-06	-1.811035e-08	-2.723271e+01	-1.185421e+03
2.820000e-06	-3.893864e-06	-1.839342e-08	-2.793018e+01	-1.203755e+03
2.830000e-06	-3.989775e-06	-1.866058e-08	-2.861813e+01	-1.221124e+03
2.840000e-06	-4.084268e-06	-1.891184e-08	-2.929592e+01	-1.237591e+03
2.850000e-06	-4.177269e-06	-1.915046e-08	-2.996301e+01	-1.253211e+03
2.860000e-06	-4.268789e-06	-1.937808e-08	-3.061947e+01	-1.268031e+03
2.870000e-06	-4.358837e-06	-1.959595e-08	-3.126537e+01	-1.282091e+03
2.880000e-06	-4.447352e-06	-1.980418e-08	-3.190027e+01	-1.295431e+03
2.890000e-06	-4.534201e-06	-2.000201e-08	-3.252323e+01	-1.308092e+03
2.900000e-06	-4.619262e-06	-2.018836e-08	-3.313336e+01	-1.320114e+03
2.910000e-06	-4.702690e-06	-2.036259e-08	-3.373178e+01	-1.331539e+03
2.920000e-06	-4.784569e-06	-2.052727e-08	-3.431909e+01	-1.342407e+03
2.930000e-06	-4.864815e-06	-2.068313e-08	-3.489468e+01	-1.352752e+03
2.940000e-06	-4.943165e-06	-2.083354e-08	-3.545668e+01	-1.362601e+03
