# Temperatura_=_65.12
# Concentracion g/m^3_=_28200.0
# C_Vs_to_Am_M_A/Vsm_=_65563218390.804596
# pendiente_HvsI_1/m_=_3716.3
# ordenada_HvsI_A/m_=_1297.0
# frecuencia_Hz_=_302134.2700251631

Tiempo_(s)	Campo_(V.s)	Magnetizacion_(V.s)	Campo_(kA/m)	Magnetizacion_(A/m)
0.000000e+00	-6.380841e-06	-2.454388e-08	-4.585293e+01	-1.609186e+03
1.000000e-08	-6.377472e-06	-2.453712e-08	-4.582872e+01	-1.608788e+03
2.000000e-08	-6.372047e-06	-2.452519e-08	-4.578974e+01	-1.608189e+03
3.000000e-08	-6.364653e-06	-2.451590e-08	-4.573660e+01	-1.607386e+03
4.000000e-08	-6.355142e-06	-2.450204e-08	-4.566826e+01	-1.606391e+03
5.000000e-08	-6.343288e-06	-2.448135e-08	-4.558307e+01	-1.605231e+03
6.000000e-08	-6.329062e-06	-2.445257e-08	-4.548084e+01	-1.603940e+03
7.000000e-08	-6.312579e-06	-2.441945e-08	-4.536240e+01	-1.602553e+03
8.000000e-08	-6.294110e-06	-2.442791e-08	-4.522968e+01	-1.601094e+03
9.000000e-08	-6.273518e-06	-2.449772e-08	-4.508171e+01	-1.599571e+03
1.000000e-07	-6.250502e-06	-2.442301e-08	-4.491631e+01	-1.597967e+03
1.100000e-07	-6.224937e-06	-2.432209e-08	-4.473260e+01	-1.596240e+03
1.200000e-07	-6.196979e-06	-2.430292e-08	-4.453170e+01	-1.594330e+03
1.300000e-07	-6.167052e-06	-2.419560e-08	-4.431664e+01	-1.592166e+03
1.400000e-07	-6.135622e-06	-2.403402e-08	-4.409078e+01	-1.589678e+03
1.500000e-07	-6.102473e-06	-2.425422e-08	-4.385257e+01	-1.586812e+03
1.600000e-07	-6.067221e-06	-2.419303e-08	-4.359925e+01	-1.583538e+03
1.700000e-07	-6.030063e-06	-2.396817e-08	-4.333223e+01	-1.579857e+03
1.800000e-07	-5.990900e-06	-2.414809e-08	-4.305080e+01	-1.575800e+03
1.900000e-07	-5.949359e-06	-2.393593e-08	-4.275229e+01	-1.571429e+03
2.000000e-07	-5.905611e-06	-2.385133e-08	-4.243791e+01	-1.566819e+03
2.100000e-07	-5.859785e-06	-2.391544e-08	-4.210861e+01	-1.562049e+03
2.200000e-07	-5.811706e-06	-2.374930e-08	-4.176311e+01	-1.557191e+03
2.300000e-07	-5.761226e-06	-2.372039e-08	-4.140036e+01	-1.552292e+03
2.400000e-07	-5.708222e-06	-2.363957e-08	-4.101947e+01	-1.547372e+03
2.500000e-07	-5.652999e-06	-2.354493e-08	-4.062264e+01	-1.542421e+03
2.600000e-07	-5.595613e-06	-2.350332e-08	-4.021026e+01	-1.537399e+03
2.700000e-07	-5.536041e-06	-2.339166e-08	-3.978217e+01	-1.532250e+03
2.800000e-07	-5.474553e-06	-2.331731e-08	-3.934032e+01	-1.526906e+03
2.900000e-07	-5.411127e-06	-2.319811e-08	-3.888454e+01	-1.521306e+03
3.000000e-07	-5.345661e-06	-2.315316e-08	-3.841409e+01	-1.515399e+03
3.100000e-07	-5.278127e-06	-2.306365e-08	-3.792879e+01	-1.509155e+03
3.200000e-07	-5.208608e-06	-2.294050e-08	-3.742923e+01	-1.502564e+03
3.300000e-07	-5.137318e-06	-2.285196e-08	-3.691693e+01	-1.495637e+03
3.400000e-07	-5.064185e-06	-2.270543e-08	-3.639140e+01	-1.488392e+03
3.500000e-07	-4.988963e-06	-2.261695e-08	-3.585085e+01	-1.480855e+03
3.600000e-07	-4.911581e-06	-2.248764e-08	-3.529478e+01	-1.473043e+03
3.700000e-07	-4.832152e-06	-2.236766e-08	-3.472400e+01	-1.464963e+03
3.800000e-07	-4.750875e-06	-2.225807e-08	-3.413995e+01	-1.456606e+03
3.900000e-07	-4.668032e-06	-2.210622e-08	-3.354463e+01	-1.447950e+03
4.000000e-07	-4.583803e-06	-2.195551e-08	-3.293936e+01	-1.438960e+03
4.100000e-07	-4.498065e-06	-2.180841e-08	-3.232324e+01	-1.429598e+03
4.200000e-07	-4.410916e-06	-2.167642e-08	-3.169699e+01	-1.419831e+03
4.300000e-07	-4.322340e-06	-2.151942e-08	-3.106048e+01	-1.409632e+03
4.400000e-07	-4.232177e-06	-2.135067e-08	-3.041257e+01	-1.398986e+03
4.500000e-07	-4.140456e-06	-2.118599e-08	-2.975345e+01	-1.387889e+03
4.600000e-07	-4.047200e-06	-2.100138e-08	-2.908331e+01	-1.376345e+03
4.700000e-07	-3.952613e-06	-2.082032e-08	-2.840360e+01	-1.364358e+03
4.800000e-07	-3.856649e-06	-2.063308e-08	-2.771401e+01	-1.351926e+03
4.900000e-07	-3.759182e-06	-2.043554e-08	-2.701360e+01	-1.339040e+03
5.000000e-07	-3.660240e-06	-2.022283e-08	-2.630260e+01	-1.325673e+03
5.100000e-07	-3.559955e-06	-2.000235e-08	-2.558195e+01	-1.311788e+03
5.200000e-07	-3.458464e-06	-1.977793e-08	-2.485264e+01	-1.297338e+03
5.300000e-07	-3.355766e-06	-1.954229e-08	-2.411464e+01	-1.282271e+03
5.400000e-07	-3.251784e-06	-1.930526e-08	-2.336743e+01	-1.266540e+03
5.500000e-07	-3.146570e-06	-1.905733e-08	-2.261135e+01	-1.250098e+03
5.600000e-07	-3.040198e-06	-1.879878e-08	-2.184696e+01	-1.232911e+03
5.700000e-07	-2.932528e-06	-1.852151e-08	-2.107325e+01	-1.214946e+03
5.800000e-07	-2.823724e-06	-1.823004e-08	-2.029138e+01	-1.196172e+03
5.900000e-07	-2.714018e-06	-1.792685e-08	-1.950302e+01	-1.176554e+03
6.000000e-07	-2.603472e-06	-1.760626e-08	-1.870863e+01	-1.156042e+03
6.100000e-07	-2.491982e-06	-1.727278e-08	-1.790747e+01	-1.134573e+03
6.200000e-07	-2.379375e-06	-1.692486e-08	-1.709827e+01	-1.112067e+03
6.300000e-07	-2.265822e-06	-1.656389e-08	-1.628227e+01	-1.088432e+03
6.400000e-07	-2.151404e-06	-1.618229e-08	-1.546006e+01	-1.063566e+03
6.500000e-07	-2.035988e-06	-1.578175e-08	-1.463068e+01	-1.037365e+03
6.600000e-07	-1.919699e-06	-1.535675e-08	-1.379502e+01	-1.009725e+03
6.700000e-07	-1.802766e-06	-1.490911e-08	-1.295474e+01	-9.805485e+02
6.800000e-07	-1.685189e-06	-1.444223e-08	-1.210983e+01	-9.497368e+02
6.900000e-07	-1.567032e-06	-1.394573e-08	-1.126074e+01	-9.171889e+02
7.000000e-07	-1.448498e-06	-1.341893e-08	-1.040895e+01	-8.827960e+02
7.100000e-07	-1.329568e-06	-1.285952e-08	-9.554317e+00	-8.464387e+02
7.200000e-07	-1.210224e-06	-1.227100e-08	-8.696707e+00	-8.079910e+02
7.300000e-07	-1.090432e-06	-1.164707e-08	-7.835878e+00	-7.673309e+02
7.400000e-07	-9.701299e-07	-1.099071e-08	-6.971385e+00	-7.243590e+02
7.500000e-07	-8.494054e-07	-1.030391e-08	-6.103855e+00	-6.790225e+02
7.600000e-07	-7.283796e-07	-9.581453e-09	-5.234160e+00	-6.313400e+02
7.700000e-07	-6.071969e-07	-8.818581e-09	-4.363337e+00	-5.814214e+02
7.800000e-07	-4.858990e-07	-8.021697e-09	-3.491686e+00	-5.294765e+02
7.900000e-07	-3.644791e-07	-7.202826e-09	-2.619159e+00	-4.758076e+02
8.000000e-07	-2.429428e-07	-6.362615e-09	-1.745795e+00	-4.207841e+02
8.100000e-07	-1.212433e-07	-5.511164e-09	-8.712581e-01	-3.648017e+02
8.200000e-07	5.965105e-10	-4.652992e-09	4.286544e-03	-3.082305e+02
8.300000e-07	1.224344e-07	-3.789508e-09	8.798178e-01	-2.513628e+02
8.400000e-07	2.442286e-07	-2.920975e-09	1.755034e+00	-1.943693e+02
8.500000e-07	3.659714e-07	-2.049257e-09	2.629883e+00	-1.372737e+02
8.600000e-07	4.875900e-07	-1.172095e-09	3.503838e+00	-7.995376e+01
8.700000e-07	6.091327e-07	-2.883208e-10	4.377247e+00	-2.216961e+01
8.800000e-07	7.305336e-07	6.028280e-10	5.249638e+00	3.638315e+01
8.900000e-07	8.517432e-07	1.508121e-09	6.120654e+00	9.600364e+01
9.000000e-07	9.726848e-07	2.432334e-09	6.989744e+00	1.569114e+02
9.100000e-07	1.093197e-06	3.380874e-09	7.855751e+00	2.191809e+02
9.200000e-07	1.213207e-06	4.349545e-09	8.718147e+00	2.826973e+02
9.300000e-07	1.332662e-06	5.332809e-09	9.576550e+00	3.471411e+02
9.400000e-07	1.451665e-06	6.321545e-09	1.043171e+01	4.120056e+02
9.500000e-07	1.570255e-06	7.306288e-09	1.128391e+01	4.766444e+02
9.600000e-07	1.688313e-06	8.276617e-09	1.213227e+01	5.403387e+02
9.700000e-07	1.805730e-06	9.220376e-09	1.297604e+01	6.023752e+02
9.800000e-07	1.922495e-06	1.012693e-08	1.381511e+01	6.621186e+02
9.900000e-07	2.038454e-06	1.098724e-08	1.464840e+01	7.190697e+02
1.000000e-06	2.153469e-06	1.180116e-08	1.547490e+01	7.728981e+02
1.010000e-06	2.267484e-06	1.256348e-08	1.629421e+01	8.234496e+02
1.020000e-06	2.380507e-06	1.327942e-08	1.710640e+01	8.707282e+02
1.030000e-06	2.492602e-06	1.395064e-08	1.791192e+01	9.148600e+02
1.040000e-06	2.603761e-06	1.457611e-08	1.871071e+01	9.560485e+02
1.050000e-06	2.714017e-06	1.516094e-08	1.950301e+01	9.945304e+02
1.060000e-06	2.823335e-06	1.570799e-08	2.028858e+01	1.030540e+03
1.070000e-06	2.931761e-06	1.622168e-08	2.106773e+01	1.064285e+03
1.080000e-06	3.039269e-06	1.669856e-08	2.184029e+01	1.095941e+03
1.090000e-06	3.145657e-06	1.714564e-08	2.260479e+01	1.125652e+03
1.100000e-06	3.250738e-06	1.756612e-08	2.335991e+01	1.153543e+03
1.110000e-06	3.354519e-06	1.796378e-08	2.410568e+01	1.179733e+03
1.120000e-06	3.457132e-06	1.833843e-08	2.484306e+01	1.204342e+03
1.130000e-06	3.558567e-06	1.869176e-08	2.557198e+01	1.227500e+03
1.140000e-06	3.658886e-06	1.902668e-08	2.629287e+01	1.249339e+03
1.150000e-06	3.757943e-06	1.934365e-08	2.700470e+01	1.269986e+03
1.160000e-06	3.855444e-06	1.964258e-08	2.770534e+01	1.289558e+03
1.170000e-06	3.951404e-06	1.992448e-08	2.839492e+01	1.308148e+03
1.180000e-06	4.045972e-06	2.019313e-08	2.907449e+01	1.325825e+03
1.190000e-06	4.139246e-06	2.044708e-08	2.974476e+01	1.342633e+03
1.200000e-06	4.231319e-06	2.068734e-08	3.040639e+01	1.358601e+03
1.210000e-06	4.321950e-06	2.091657e-08	3.105768e+01	1.373750e+03
1.220000e-06	4.410809e-06	2.113555e-08	3.169622e+01	1.388104e+03
1.230000e-06	4.498037e-06	2.134190e-08	3.232304e+01	1.401696e+03
1.240000e-06	4.583677e-06	2.153744e-08	3.293845e+01	1.414574e+03
1.250000e-06	4.667800e-06	2.172336e-08	3.354296e+01	1.426795e+03
1.260000e-06	4.750385e-06	2.190020e-08	3.413642e+01	1.438420e+03
1.270000e-06	4.831139e-06	2.206945e-08	3.471672e+01	1.449508e+03
1.280000e-06	4.910041e-06	2.223393e-08	3.528371e+01	1.460104e+03
1.290000e-06	4.987176e-06	2.239015e-08	3.583801e+01	1.470234e+03
1.300000e-06	5.062327e-06	2.253854e-08	3.637805e+01	1.479908e+03
1.310000e-06	5.135371e-06	2.267956e-08	3.690295e+01	1.489121e+03
1.320000e-06	5.206511e-06	2.281159e-08	3.741416e+01	1.497862e+03
1.330000e-06	5.275851e-06	2.293627e-08	3.791244e+01	1.506122e+03
1.340000e-06	5.343415e-06	2.305564e-08	3.839796e+01	1.513899e+03
1.350000e-06	5.408953e-06	2.317077e-08	3.886891e+01	1.521207e+03
1.360000e-06	5.472376e-06	2.327971e-08	3.932467e+01	1.528077e+03
1.370000e-06	5.533949e-06	2.338349e-08	3.976713e+01	1.534546e+03
1.380000e-06	5.593822e-06	2.348018e-08	4.019739e+01	1.540659e+03
1.390000e-06	5.651743e-06	2.356814e-08	4.061361e+01	1.546457e+03
1.400000e-06	5.707520e-06	2.364972e-08	4.101443e+01	1.551973e+03
1.410000e-06	5.761270e-06	2.372657e-08	4.140068e+01	1.557225e+03
1.420000e-06	5.812655e-06	2.380115e-08	4.176993e+01	1.562221e+03
1.430000e-06	5.861521e-06	2.387246e-08	4.212108e+01	1.566957e+03
1.440000e-06	5.908212e-06	2.394131e-08	4.245660e+01	1.571428e+03
1.450000e-06	5.953076e-06	2.400876e-08	4.277900e+01	1.575627e+03
1.460000e-06	5.995912e-06	2.407407e-08	4.308682e+01	1.579555e+03
1.470000e-06	6.036398e-06	2.413599e-08	4.337775e+01	1.583217e+03
1.480000e-06	6.074699e-06	2.419087e-08	4.365299e+01	1.586627e+03
1.490000e-06	6.111068e-06	2.423793e-08	4.391434e+01	1.589798e+03
1.500000e-06	6.145293e-06	2.428099e-08	4.416028e+01	1.592744e+03
1.510000e-06	6.177154e-06	2.432265e-08	4.438923e+01	1.595470e+03
1.520000e-06	6.206882e-06	2.436053e-08	4.460286e+01	1.597973e+03
1.530000e-06	6.234541e-06	2.439369e-08	4.480162e+01	1.600246e+03
1.540000e-06	6.259881e-06	2.442264e-08	4.498371e+01	1.602274e+03
1.550000e-06	6.282857e-06	2.444926e-08	4.514881e+01	1.604045e+03
1.560000e-06	6.303764e-06	2.447433e-08	4.529906e+01	1.605553e+03
1.570000e-06	6.322490e-06	2.449701e-08	4.543362e+01	1.606804e+03
1.580000e-06	6.338787e-06	2.451614e-08	4.555073e+01	1.607813e+03
1.590000e-06	6.352718e-06	2.453003e-08	4.565084e+01	1.608604e+03
1.600000e-06	6.364165e-06	2.453974e-08	4.573309e+01	1.609207e+03
1.610000e-06	6.373081e-06	2.454731e-08	4.579716e+01	1.609649e+03
1.620000e-06	6.379649e-06	2.455236e-08	4.584437e+01	1.609949e+03
1.630000e-06	6.384137e-06	2.455565e-08	4.587662e+01	1.610115e+03
1.640000e-06	6.386361e-06	2.455734e-08	4.589260e+01	1.610140e+03
1.650000e-06	6.386148e-06	2.455846e-08	4.589107e+01	1.610009e+03
1.660000e-06	6.383856e-06	2.454748e-08	4.587460e+01	1.609700e+03
1.670000e-06	6.379568e-06	2.454337e-08	4.584378e+01	1.609195e+03
1.680000e-06	6.373114e-06	2.453774e-08	4.579740e+01	1.608486e+03
1.690000e-06	6.364557e-06	2.452498e-08	4.573592e+01	1.607578e+03
1.700000e-06	6.354021e-06	2.451081e-08	4.566020e+01	1.606490e+03
1.710000e-06	6.341213e-06	2.449741e-08	4.556816e+01	1.605255e+03
1.720000e-06	6.326076e-06	2.450425e-08	4.545939e+01	1.603909e+03
1.730000e-06	6.309022e-06	2.444030e-08	4.533684e+01	1.602481e+03
1.740000e-06	6.289960e-06	2.432246e-08	4.519986e+01	1.600989e+03
1.750000e-06	6.267978e-06	2.436322e-08	4.504190e+01	1.599426e+03
1.760000e-06	6.242800e-06	2.437524e-08	4.486097e+01	1.597762e+03
1.770000e-06	6.215309e-06	2.429978e-08	4.466341e+01	1.595945e+03
1.780000e-06	6.185963e-06	2.446736e-08	4.445253e+01	1.593908e+03
1.790000e-06	6.154992e-06	2.438052e-08	4.422997e+01	1.591579e+03
1.800000e-06	6.122675e-06	2.415834e-08	4.399774e+01	1.588894e+03
1.810000e-06	6.088370e-06	2.436794e-08	4.375123e+01	1.585811e+03
1.820000e-06	6.051966e-06	2.413699e-08	4.348962e+01	1.582316e+03
1.830000e-06	6.013550e-06	2.404102e-08	4.321357e+01	1.578428e+03
1.840000e-06	5.972729e-06	2.414505e-08	4.292023e+01	1.574194e+03
1.850000e-06	5.929902e-06	2.378320e-08	4.261247e+01	1.569684e+03
1.860000e-06	5.885089e-06	2.385799e-08	4.229044e+01	1.564979e+03
1.870000e-06	5.838006e-06	2.379026e-08	4.195211e+01	1.560154e+03
1.880000e-06	5.788858e-06	2.365611e-08	4.159892e+01	1.555270e+03
1.890000e-06	5.737203e-06	2.373369e-08	4.122773e+01	1.550359e+03
1.900000e-06	5.683032e-06	2.346369e-08	4.083845e+01	1.545426e+03
1.910000e-06	5.626676e-06	2.349158e-08	4.043347e+01	1.540443e+03
1.920000e-06	5.568270e-06	2.342449e-08	4.001377e+01	1.535360e+03
1.930000e-06	5.507965e-06	2.326852e-08	3.958041e+01	1.530115e+03
1.940000e-06	5.445492e-06	2.328958e-08	3.913148e+01	1.524641e+03
1.950000e-06	5.380920e-06	2.309056e-08	3.866747e+01	1.518881e+03
1.960000e-06	5.314400e-06	2.310803e-08	3.818945e+01	1.512796e+03
1.970000e-06	5.245873e-06	2.293104e-08	3.769701e+01	1.506366e+03
1.980000e-06	5.175273e-06	2.280757e-08	3.718968e+01	1.499593e+03
1.990000e-06	5.102748e-06	2.279210e-08	3.666852e+01	1.492493e+03
2.000000e-06	5.028510e-06	2.262090e-08	3.613503e+01	1.485088e+03
2.010000e-06	4.952184e-06	2.256591e-08	3.558656e+01	1.477402e+03
2.020000e-06	4.873702e-06	2.235426e-08	3.502258e+01	1.469447e+03
2.030000e-06	4.793412e-06	2.226889e-08	3.444561e+01	1.461221e+03
2.040000e-06	4.711482e-06	2.216091e-08	3.385687e+01	1.452707e+03
2.050000e-06	4.628052e-06	2.200950e-08	3.325733e+01	1.443876e+03
2.060000e-06	4.543038e-06	2.189586e-08	3.264642e+01	1.434692e+03
2.070000e-06	4.456363e-06	2.171691e-08	3.202357e+01	1.425117e+03
2.080000e-06	4.368016e-06	2.159372e-08	3.138870e+01	1.415120e+03
2.090000e-06	4.278172e-06	2.139433e-08	3.074308e+01	1.404683e+03
2.100000e-06	4.186971e-06	2.124631e-08	3.008771e+01	1.393795e+03
2.110000e-06	4.094315e-06	2.108355e-08	2.942188e+01	1.382458e+03
2.120000e-06	4.000248e-06	2.090955e-08	2.874591e+01	1.370676e+03
2.130000e-06	3.904708e-06	2.072836e-08	2.805936e+01	1.358452e+03
2.140000e-06	3.807732e-06	2.052576e-08	2.736249e+01	1.345779e+03
2.150000e-06	3.709476e-06	2.034035e-08	2.665642e+01	1.332638e+03
2.160000e-06	3.609922e-06	2.012573e-08	2.594102e+01	1.318999e+03
2.170000e-06	3.508992e-06	1.992259e-08	2.521573e+01	1.304818e+03
2.180000e-06	3.406687e-06	1.968699e-08	2.448057e+01	1.290044e+03
2.190000e-06	3.302997e-06	1.945736e-08	2.373545e+01	1.274627e+03
2.200000e-06	3.198108e-06	1.920747e-08	2.298171e+01	1.258520e+03
2.210000e-06	3.092223e-06	1.895368e-08	2.222081e+01	1.241683e+03
2.220000e-06	2.985221e-06	1.868834e-08	2.145190e+01	1.224082e+03
2.230000e-06	2.877061e-06	1.841315e-08	2.067465e+01	1.205688e+03
2.240000e-06	2.767938e-06	1.812870e-08	1.989050e+01	1.186467e+03
2.250000e-06	2.657902e-06	1.782505e-08	1.909977e+01	1.166377e+03
2.260000e-06	2.546752e-06	1.750832e-08	1.830104e+01	1.145361e+03
2.270000e-06	2.434597e-06	1.716770e-08	1.749510e+01	1.123348e+03
2.280000e-06	2.321520e-06	1.681886e-08	1.668252e+01	1.100249e+03
2.290000e-06	2.207464e-06	1.644671e-08	1.586291e+01	1.075967e+03
2.300000e-06	2.092564e-06	1.606047e-08	1.503723e+01	1.050399e+03
2.310000e-06	1.976849e-06	1.565262e-08	1.420570e+01	1.023439e+03
2.320000e-06	1.860255e-06	1.522566e-08	1.336785e+01	9.949883e+02
2.330000e-06	1.742912e-06	1.477198e-08	1.252462e+01	9.649480e+02
2.340000e-06	1.625011e-06	1.428949e-08	1.167738e+01	9.332191e+02
2.350000e-06	1.506540e-06	1.377943e-08	1.082605e+01	8.996969e+02
2.360000e-06	1.387474e-06	1.323774e-08	9.970435e+00	8.642669e+02
2.370000e-06	1.267850e-06	1.266451e-08	9.110813e+00	8.268054e+02
2.380000e-06	1.147726e-06	1.205604e-08	8.247597e+00	7.871867e+02
2.390000e-06	1.027215e-06	1.141605e-08	7.381598e+00	7.452980e+02
2.400000e-06	9.064132e-07	1.074089e-08	6.513515e+00	7.010618e+02
2.410000e-06	7.853763e-07	1.003365e-08	5.643739e+00	6.544607e+02
2.420000e-06	6.641256e-07	9.291824e-09	4.772428e+00	6.055602e+02
2.430000e-06	5.426495e-07	8.515260e-09	3.899497e+00	5.545236e+02
2.440000e-06	4.210374e-07	7.708152e-09	3.025588e+00	5.016124e+02
2.450000e-06	2.993133e-07	6.873605e-09	2.150875e+00	4.471690e+02
2.460000e-06	1.774113e-07	6.021020e-09	1.274884e+00	3.915829e+02
2.470000e-06	5.540924e-08	5.157495e-09	3.981726e-01	3.352426e+02
2.480000e-06	-6.661653e-08	4.290313e-09	-4.787085e-01	2.784831e+02
2.490000e-06	-1.886516e-07	3.420381e-09	-1.355657e+00	2.215358e+02
2.500000e-06	-3.105948e-07	2.550954e-09	-2.231944e+00	1.644941e+02
2.510000e-06	-4.324003e-07	1.680455e-09	-3.107243e+00	1.073020e+02
2.520000e-06	-5.540693e-07	8.012056e-10	-3.981560e+00	4.976867e+01
2.530000e-06	-6.755075e-07	-8.769838e-11	-4.854219e+00	-8.388068e+00
2.540000e-06	-7.967546e-07	-9.913421e-10	-5.725505e+00	-6.747909e+01
2.550000e-06	-9.178794e-07	-1.910808e-09	-6.595912e+00	-1.277699e+02
2.560000e-06	-1.038722e-06	-2.849328e-09	-7.464287e+00	-1.894093e+02
2.570000e-06	-1.159169e-06	-3.808841e-09	-8.329829e+00	-2.523743e+02
2.580000e-06	-1.279254e-06	-4.786068e-09	-9.192764e+00	-3.164400e+02
2.590000e-06	-1.398850e-06	-5.778216e-09	-1.005218e+01	-3.811826e+02
2.600000e-06	-1.517851e-06	-6.776340e-09	-1.090733e+01	-4.460130e+02
2.610000e-06	-1.636224e-06	-7.763765e-09	-1.175796e+01	-5.102368e+02
2.620000e-06	-1.753862e-06	-8.725880e-09	-1.260331e+01	-5.731284e+02
2.630000e-06	-1.870711e-06	-9.655430e-09	-1.344299e+01	-6.340079e+02
2.640000e-06	-1.986734e-06	-1.054605e-08	-1.427674e+01	-6.923074e+02
2.650000e-06	-2.101921e-06	-1.139225e-08	-1.510447e+01	-7.476154e+02
2.660000e-06	-2.216288e-06	-1.219053e-08	-1.592632e+01	-7.996968e+02
2.670000e-06	-2.329665e-06	-1.294011e-08	-1.674105e+01	-8.484858e+02
2.680000e-06	-2.441906e-06	-1.364054e-08	-1.754761e+01	-8.940570e+02
2.690000e-06	-2.553142e-06	-1.429367e-08	-1.834697e+01	-9.365837e+02
2.700000e-06	-2.663349e-06	-1.490452e-08	-1.913891e+01	-9.762924e+02
2.710000e-06	-2.772546e-06	-1.547757e-08	-1.992361e+01	-1.013422e+03
2.720000e-06	-2.880934e-06	-1.601327e-08	-2.070249e+01	-1.048195e+03
2.730000e-06	-2.988442e-06	-1.651240e-08	-2.147504e+01	-1.080801e+03
2.740000e-06	-3.094984e-06	-1.698024e-08	-2.224066e+01	-1.111399e+03
2.750000e-06	-3.200531e-06	-1.741693e-08	-2.299912e+01	-1.140120e+03
2.760000e-06	-3.305055e-06	-1.782515e-08	-2.375023e+01	-1.167085e+03
2.770000e-06	-3.408408e-06	-1.821164e-08	-2.449293e+01	-1.192413e+03
2.780000e-06	-3.510356e-06	-1.857718e-08	-2.522553e+01	-1.216229e+03
2.790000e-06	-3.610896e-06	-1.892137e-08	-2.594802e+01	-1.238663e+03
2.800000e-06	-3.710180e-06	-1.924672e-08	-2.666147e+01	-1.259849e+03
2.810000e-06	-3.808231e-06	-1.955603e-08	-2.736607e+01	-1.279907e+03
2.820000e-06	-3.905080e-06	-1.984872e-08	-2.806203e+01	-1.298943e+03
2.830000e-06	-4.000673e-06	-2.012419e-08	-2.874897e+01	-1.317037e+03
2.840000e-06	-4.094717e-06	-2.038507e-08	-2.942477e+01	-1.334244e+03
2.850000e-06	-4.187243e-06	-2.063357e-08	-3.008967e+01	-1.350599e+03
2.860000e-06	-4.278414e-06	-2.086876e-08	-3.074482e+01	-1.366126e+03
2.870000e-06	-4.368042e-06	-2.109302e-08	-3.138889e+01	-1.380846e+03
2.880000e-06	-4.456068e-06	-2.130850e-08	-3.202145e+01	-1.394786e+03
2.890000e-06	-4.542418e-06	-2.151360e-08	-3.264196e+01	-1.407989e+03
2.900000e-06	-4.626991e-06	-2.170762e-08	-3.324971e+01	-1.420508e+03
2.910000e-06	-4.709992e-06	-2.189152e-08	-3.384616e+01	-1.432402e+03
2.920000e-06	-4.791450e-06	-2.206547e-08	-3.443152e+01	-1.443733e+03
2.930000e-06	-4.871280e-06	-2.223018e-08	-3.500518e+01	-1.454553e+03
2.940000e-06	-4.949137e-06	-2.238710e-08	-3.556466e+01	-1.464897e+03
