# Temperatura_=_26.68
# Concentracion g/m^3_=_28200.0
# C_Vs_to_Am_M_A/Vsm_=_65563218390.804596
# pendiente_HvsI_1/m_=_3716.3
# ordenada_HvsI_A/m_=_1297.0
# frecuencia_Hz_=_302128.8057569552

Tiempo_(s)	Campo_(V.s)	Magnetizacion_(V.s)	Campo_(kA/m)	Magnetizacion_(A/m)
0.000000e+00	-6.375241e-06	-1.830677e-08	-4.585109e+01	-1.196828e+03
1.000000e-08	-6.372112e-06	-1.830875e-08	-4.582858e+01	-1.196458e+03
2.000000e-08	-6.366896e-06	-1.830066e-08	-4.579107e+01	-1.196008e+03
3.000000e-08	-6.359707e-06	-1.829336e-08	-4.573937e+01	-1.195464e+03
4.000000e-08	-6.350430e-06	-1.828172e-08	-4.567265e+01	-1.194801e+03
5.000000e-08	-6.338778e-06	-1.826148e-08	-4.558884e+01	-1.193985e+03
6.000000e-08	-6.324829e-06	-1.824131e-08	-4.548852e+01	-1.192988e+03
7.000000e-08	-6.308590e-06	-1.821248e-08	-4.537173e+01	-1.191792e+03
8.000000e-08	-6.290171e-06	-1.817992e-08	-4.523926e+01	-1.190403e+03
9.000000e-08	-6.269691e-06	-1.827301e-08	-4.509196e+01	-1.188851e+03
1.000000e-07	-6.246914e-06	-1.823806e-08	-4.492815e+01	-1.187188e+03
1.100000e-07	-6.221436e-06	-1.812427e-08	-4.474492e+01	-1.185477e+03
1.200000e-07	-6.193513e-06	-1.811069e-08	-4.454409e+01	-1.183781e+03
1.300000e-07	-6.163777e-06	-1.809505e-08	-4.433023e+01	-1.182150e+03
1.400000e-07	-6.132490e-06	-1.792479e-08	-4.410521e+01	-1.180604e+03
1.500000e-07	-6.099539e-06	-1.801930e-08	-4.386822e+01	-1.179130e+03
1.600000e-07	-6.064552e-06	-1.813978e-08	-4.361660e+01	-1.177680e+03
1.700000e-07	-6.027672e-06	-1.782457e-08	-4.335135e+01	-1.176175e+03
1.800000e-07	-5.988878e-06	-1.797310e-08	-4.307235e+01	-1.174524e+03
1.900000e-07	-5.947672e-06	-1.793753e-08	-4.277599e+01	-1.172636e+03
2.000000e-07	-5.904173e-06	-1.773624e-08	-4.246314e+01	-1.170437e+03
2.100000e-07	-5.858557e-06	-1.786499e-08	-4.213507e+01	-1.167883e+03
2.200000e-07	-5.810756e-06	-1.771993e-08	-4.179128e+01	-1.164962e+03
2.300000e-07	-5.760501e-06	-1.765591e-08	-4.142984e+01	-1.161699e+03
2.400000e-07	-5.707618e-06	-1.764880e-08	-4.104951e+01	-1.158139e+03
2.500000e-07	-5.652593e-06	-1.754768e-08	-4.065377e+01	-1.154340e+03
2.600000e-07	-5.595414e-06	-1.753105e-08	-4.024253e+01	-1.150357e+03
2.700000e-07	-5.536076e-06	-1.745275e-08	-3.981577e+01	-1.146228e+03
2.800000e-07	-5.474829e-06	-1.740251e-08	-3.937528e+01	-1.141970e+03
2.900000e-07	-5.411637e-06	-1.730831e-08	-3.892079e+01	-1.137574e+03
3.000000e-07	-5.346380e-06	-1.723333e-08	-3.845146e+01	-1.133013e+03
3.100000e-07	-5.279035e-06	-1.719395e-08	-3.796711e+01	-1.128249e+03
3.200000e-07	-5.209640e-06	-1.708493e-08	-3.746802e+01	-1.123241e+03
3.300000e-07	-5.138409e-06	-1.704420e-08	-3.695572e+01	-1.117962e+03
3.400000e-07	-5.065475e-06	-1.691522e-08	-3.643118e+01	-1.112396e+03
3.500000e-07	-4.990460e-06	-1.681799e-08	-3.589167e+01	-1.106544e+03
3.600000e-07	-4.913294e-06	-1.675004e-08	-3.533669e+01	-1.100419e+03
3.700000e-07	-4.834105e-06	-1.663447e-08	-3.476715e+01	-1.094040e+03
3.800000e-07	-4.752977e-06	-1.656509e-08	-3.418367e+01	-1.087424e+03
3.900000e-07	-4.670228e-06	-1.644429e-08	-3.358854e+01	-1.080578e+03
4.000000e-07	-4.586109e-06	-1.632476e-08	-3.298355e+01	-1.073497e+03
4.100000e-07	-4.500627e-06	-1.620327e-08	-3.236876e+01	-1.066163e+03
4.200000e-07	-4.413686e-06	-1.609703e-08	-3.174348e+01	-1.058549e+03
4.300000e-07	-4.325379e-06	-1.598456e-08	-3.110837e+01	-1.050622e+03
4.400000e-07	-4.235555e-06	-1.584316e-08	-3.046234e+01	-1.042353e+03
4.500000e-07	-4.144003e-06	-1.572524e-08	-2.980390e+01	-1.033719e+03
4.600000e-07	-4.050849e-06	-1.557443e-08	-2.913393e+01	-1.024708e+03
4.700000e-07	-3.956382e-06	-1.543344e-08	-2.845452e+01	-1.015313e+03
4.800000e-07	-3.860626e-06	-1.528853e-08	-2.776583e+01	-1.005534e+03
4.900000e-07	-3.763443e-06	-1.513962e-08	-2.706689e+01	-9.953705e+02
5.000000e-07	-3.664759e-06	-1.497378e-08	-2.635715e+01	-9.848147e+02
5.100000e-07	-3.564640e-06	-1.479667e-08	-2.563709e+01	-9.738513e+02
5.200000e-07	-3.463250e-06	-1.462335e-08	-2.490789e+01	-9.624541e+02
5.300000e-07	-3.360721e-06	-1.443755e-08	-2.417049e+01	-9.505881e+02
5.400000e-07	-3.257055e-06	-1.425299e-08	-2.342492e+01	-9.382125e+02
5.500000e-07	-3.152188e-06	-1.405090e-08	-2.267071e+01	-9.252849e+02
5.600000e-07	-3.046024e-06	-1.384737e-08	-2.190718e+01	-9.117651e+02
5.700000e-07	-2.938481e-06	-1.362667e-08	-2.113372e+01	-8.976165e+02
5.800000e-07	-2.829819e-06	-1.339909e-08	-2.035222e+01	-8.828070e+02
5.900000e-07	-2.720186e-06	-1.316232e-08	-1.956373e+01	-8.673062e+02
6.000000e-07	-2.609686e-06	-1.291380e-08	-1.876900e+01	-8.510832e+02
6.100000e-07	-2.498338e-06	-1.265335e-08	-1.796819e+01	-8.341030e+02
6.200000e-07	-2.386046e-06	-1.238025e-08	-1.716058e+01	-8.163243e+02
6.300000e-07	-2.272803e-06	-1.209894e-08	-1.634613e+01	-7.976984e+02
6.400000e-07	-2.158580e-06	-1.179834e-08	-1.552463e+01	-7.781700e+02
6.500000e-07	-2.043333e-06	-1.148594e-08	-1.469577e+01	-7.576787e+02
6.600000e-07	-1.927190e-06	-1.115373e-08	-1.386046e+01	-7.361609e+02
6.700000e-07	-1.810374e-06	-1.080613e-08	-1.302031e+01	-7.135513e+02
6.800000e-07	-1.693009e-06	-1.044409e-08	-1.217622e+01	-6.897843e+02
6.900000e-07	-1.575088e-06	-1.006349e-08	-1.132812e+01	-6.647938e+02
7.000000e-07	-1.456600e-06	-9.663915e-09	-1.047595e+01	-6.385146e+02
7.100000e-07	-1.337684e-06	-9.243416e-09	-9.620697e+00	-6.108841e+02
7.200000e-07	-1.218373e-06	-8.802670e-09	-8.762606e+00	-5.818476e+02
7.300000e-07	-1.098605e-06	-8.336069e-09	-7.901228e+00	-5.513658e+02
7.400000e-07	-9.784153e-07	-7.848801e-09	-7.036817e+00	-5.194249e+02
7.500000e-07	-8.579302e-07	-7.341821e-09	-6.170282e+00	-4.860490e+02
7.600000e-07	-7.371750e-07	-6.815218e-09	-5.301803e+00	-4.513096e+02
7.700000e-07	-6.161741e-07	-6.265851e-09	-4.431558e+00	-4.153321e+02
7.800000e-07	-4.950091e-07	-5.701209e-09	-3.560133e+00	-3.782954e+02
7.900000e-07	-3.737049e-07	-5.126837e-09	-2.687706e+00	-3.404226e+02
8.000000e-07	-2.522673e-07	-4.544499e-09	-1.814321e+00	-3.019630e+02
8.100000e-07	-1.306683e-07	-3.959467e-09	-9.397738e-01	-2.631671e+02
8.200000e-07	-8.954665e-09	-3.373110e-09	-6.440245e-02	-2.242580e+02
8.300000e-07	1.127729e-07	-2.788630e-09	8.110688e-01	-1.854035e+02
8.400000e-07	2.344958e-07	-2.201565e-09	1.686507e+00	-1.466935e+02
8.500000e-07	3.561785e-07	-1.616652e-09	2.561656e+00	-1.081294e+02
8.600000e-07	4.776808e-07	-1.031965e-09	3.435507e+00	-6.962459e+01
8.700000e-07	5.990128e-07	-4.469985e-10	4.308133e+00	-3.102045e+01
8.800000e-07	7.202162e-07	1.437478e-10	5.179835e+00	7.886530e+00
8.900000e-07	8.412623e-07	7.440520e-10	6.050405e+00	4.730917e+01
9.000000e-07	9.620387e-07	1.353359e-09	6.919035e+00	8.743148e+01
9.100000e-07	1.082420e-06	1.975716e-09	7.784825e+00	1.283737e+02
9.200000e-07	1.202414e-06	2.609618e-09	8.647832e+00	1.701660e+02
9.300000e-07	1.321932e-06	3.255730e-09	9.507409e+00	2.127343e+02
9.400000e-07	1.440961e-06	3.910040e-09	1.036347e+01	2.559003e+02
9.500000e-07	1.559509e-06	4.571443e-09	1.121608e+01	2.993950e+02
9.600000e-07	1.677528e-06	5.234540e-09	1.206488e+01	3.428826e+02
9.700000e-07	1.794937e-06	5.889740e-09	1.290929e+01	3.859911e+02
9.800000e-07	1.911643e-06	6.531479e-09	1.374865e+01	4.283456e+02
9.900000e-07	2.027546e-06	7.159518e-09	1.458222e+01	4.695980e+02
1.000000e-06	2.142489e-06	7.771690e-09	1.540890e+01	5.094516e+02
1.010000e-06	2.256472e-06	8.353950e-09	1.622867e+01	5.476770e+02
1.020000e-06	2.369451e-06	8.908069e-09	1.704122e+01	5.841190e+02
1.030000e-06	2.481438e-06	9.429224e-09	1.784664e+01	6.186959e+02
1.040000e-06	2.592519e-06	9.921369e-09	1.864554e+01	6.513910e+02
1.050000e-06	2.702686e-06	1.038707e-08	1.943787e+01	6.822411e+02
1.060000e-06	2.811978e-06	1.083097e-08	2.022390e+01	7.113214e+02
1.070000e-06	2.920443e-06	1.125289e-08	2.100399e+01	7.387313e+02
1.080000e-06	3.027997e-06	1.164668e-08	2.177752e+01	7.645816e+02
1.090000e-06	3.134375e-06	1.201593e-08	2.254260e+01	7.889841e+02
1.100000e-06	3.239434e-06	1.236554e-08	2.329819e+01	8.120443e+02
1.110000e-06	3.343251e-06	1.269973e-08	2.404484e+01	8.338575e+02
1.120000e-06	3.445865e-06	1.301239e-08	2.478285e+01	8.545071e+02
1.130000e-06	3.547298e-06	1.330897e-08	2.551237e+01	8.740654e+02
1.140000e-06	3.647634e-06	1.358992e-08	2.623399e+01	8.925960e+02
1.150000e-06	3.746704e-06	1.385620e-08	2.694651e+01	9.101563e+02
1.160000e-06	3.844316e-06	1.410564e-08	2.764853e+01	9.268000e+02
1.170000e-06	3.940440e-06	1.434417e-08	2.833986e+01	9.425794e+02
1.180000e-06	4.035149e-06	1.457278e-08	2.902102e+01	9.575465e+02
1.190000e-06	4.128483e-06	1.479023e-08	2.969228e+01	9.717527e+02
1.200000e-06	4.220518e-06	1.499407e-08	3.035420e+01	9.852476e+02
1.210000e-06	4.311132e-06	1.518621e-08	3.100590e+01	9.980779e+02
1.220000e-06	4.400024e-06	1.536916e-08	3.164522e+01	1.010285e+03
1.230000e-06	4.487284e-06	1.554346e-08	3.227280e+01	1.021905e+03
1.240000e-06	4.572974e-06	1.570992e-08	3.288909e+01	1.032965e+03
1.250000e-06	4.657166e-06	1.586956e-08	3.349460e+01	1.043488e+03
1.260000e-06	4.739824e-06	1.602285e-08	3.408908e+01	1.053491e+03
1.270000e-06	4.820605e-06	1.616833e-08	3.467006e+01	1.062987e+03
1.280000e-06	4.899485e-06	1.630646e-08	3.523737e+01	1.071990e+03
1.290000e-06	4.976687e-06	1.643554e-08	3.579261e+01	1.080513e+03
1.300000e-06	5.052012e-06	1.655872e-08	3.633435e+01	1.088571e+03
1.310000e-06	5.125200e-06	1.667530e-08	3.686072e+01	1.096183e+03
1.320000e-06	5.196448e-06	1.678557e-08	3.737314e+01	1.103369e+03
1.330000e-06	5.265925e-06	1.688790e-08	3.787282e+01	1.110153e+03
1.340000e-06	5.333591e-06	1.698325e-08	3.835948e+01	1.116558e+03
1.350000e-06	5.399267e-06	1.707343e-08	3.883183e+01	1.122609e+03
1.360000e-06	5.462910e-06	1.715963e-08	3.928956e+01	1.128331e+03
1.370000e-06	5.524677e-06	1.724309e-08	3.973378e+01	1.133750e+03
1.380000e-06	5.584692e-06	1.732098e-08	4.016541e+01	1.138890e+03
1.390000e-06	5.642731e-06	1.739430e-08	4.058284e+01	1.143774e+03
1.400000e-06	5.698619e-06	1.746486e-08	4.098479e+01	1.148425e+03
1.410000e-06	5.752442e-06	1.753291e-08	4.137189e+01	1.152859e+03
1.420000e-06	5.803919e-06	1.759766e-08	4.174211e+01	1.157090e+03
1.430000e-06	5.852906e-06	1.765844e-08	4.209443e+01	1.161123e+03
1.440000e-06	5.899717e-06	1.771563e-08	4.243109e+01	1.164954e+03
1.450000e-06	5.944658e-06	1.776928e-08	4.275431e+01	1.168576e+03
1.460000e-06	5.987511e-06	1.782176e-08	4.306252e+01	1.171975e+03
1.470000e-06	6.028060e-06	1.787194e-08	4.335414e+01	1.175136e+03
1.480000e-06	6.066521e-06	1.791636e-08	4.363076e+01	1.178048e+03
1.490000e-06	6.103116e-06	1.795437e-08	4.389395e+01	1.180705e+03
1.500000e-06	6.137520e-06	1.798763e-08	4.414139e+01	1.183113e+03
1.510000e-06	6.169538e-06	1.801926e-08	4.437166e+01	1.185283e+03
1.520000e-06	6.199437e-06	1.804998e-08	4.458670e+01	1.187237e+03
1.530000e-06	6.227358e-06	1.807794e-08	4.478751e+01	1.188997e+03
1.540000e-06	6.252917e-06	1.810159e-08	4.497133e+01	1.190586e+03
1.550000e-06	6.275966e-06	1.812246e-08	4.513710e+01	1.192018e+03
1.560000e-06	6.296946e-06	1.814103e-08	4.528799e+01	1.193300e+03
1.570000e-06	6.315807e-06	1.815797e-08	4.542364e+01	1.194427e+03
1.580000e-06	6.332334e-06	1.817253e-08	4.554250e+01	1.195386e+03
1.590000e-06	6.346493e-06	1.818406e-08	4.564433e+01	1.196164e+03
1.600000e-06	6.358164e-06	1.819250e-08	4.572827e+01	1.196747e+03
1.610000e-06	6.367272e-06	1.819797e-08	4.579378e+01	1.197131e+03
1.620000e-06	6.374010e-06	1.820167e-08	4.584224e+01	1.197324e+03
1.630000e-06	6.378683e-06	1.820401e-08	4.587585e+01	1.197345e+03
1.640000e-06	6.381013e-06	1.820500e-08	4.589260e+01	1.197221e+03
1.650000e-06	6.380960e-06	1.820924e-08	4.589222e+01	1.196983e+03
1.660000e-06	6.378815e-06	1.819844e-08	4.587679e+01	1.196653e+03
1.670000e-06	6.374728e-06	1.819223e-08	4.584740e+01	1.196243e+03
1.680000e-06	6.368469e-06	1.818450e-08	4.580238e+01	1.195749e+03
1.690000e-06	6.359899e-06	1.817247e-08	4.574075e+01	1.195149e+03
1.700000e-06	6.349347e-06	1.816185e-08	4.566486e+01	1.194414e+03
1.710000e-06	6.336604e-06	1.815081e-08	4.557320e+01	1.193511e+03
1.720000e-06	6.321634e-06	1.816068e-08	4.546554e+01	1.192415e+03
1.730000e-06	6.304731e-06	1.814581e-08	4.534397e+01	1.191120e+03
1.740000e-06	6.285844e-06	1.798065e-08	4.520814e+01	1.189645e+03
1.750000e-06	6.264087e-06	1.799694e-08	4.505166e+01	1.188030e+03
1.760000e-06	6.239100e-06	1.805457e-08	4.487195e+01	1.186334e+03
1.770000e-06	6.211847e-06	1.798146e-08	4.467595e+01	1.184623e+03
1.780000e-06	6.182712e-06	1.809571e-08	4.446641e+01	1.182955e+03
1.790000e-06	6.151850e-06	1.811513e-08	4.424444e+01	1.181367e+03
1.800000e-06	6.119705e-06	1.777258e-08	4.401326e+01	1.179861e+03
1.810000e-06	6.085566e-06	1.794164e-08	4.376773e+01	1.178406e+03
1.820000e-06	6.049340e-06	1.792617e-08	4.350719e+01	1.176939e+03
1.830000e-06	6.011130e-06	1.777695e-08	4.323238e+01	1.175373e+03
1.840000e-06	5.970432e-06	1.811549e-08	4.293968e+01	1.173614e+03
1.850000e-06	5.927714e-06	1.783752e-08	4.263245e+01	1.171579e+03
1.860000e-06	5.883021e-06	1.782316e-08	4.231101e+01	1.169206e+03
1.870000e-06	5.836086e-06	1.791521e-08	4.197346e+01	1.166467e+03
1.880000e-06	5.787122e-06	1.765360e-08	4.162130e+01	1.163371e+03
1.890000e-06	5.735797e-06	1.779883e-08	4.125217e+01	1.159953e+03
1.900000e-06	5.681866e-06	1.763447e-08	4.086429e+01	1.156266e+03
1.910000e-06	5.625669e-06	1.755422e-08	4.046012e+01	1.152369e+03
1.920000e-06	5.567418e-06	1.762949e-08	4.004118e+01	1.148309e+03
1.930000e-06	5.507435e-06	1.741293e-08	3.960978e+01	1.144115e+03
1.940000e-06	5.445354e-06	1.749500e-08	3.916329e+01	1.139791e+03
1.950000e-06	5.381036e-06	1.730770e-08	3.870071e+01	1.135317e+03
1.960000e-06	5.314776e-06	1.728763e-08	3.822417e+01	1.130659e+03
1.970000e-06	5.246554e-06	1.722935e-08	3.773351e+01	1.125777e+03
1.980000e-06	5.176262e-06	1.705403e-08	3.722796e+01	1.120637e+03
1.990000e-06	5.103872e-06	1.711680e-08	3.670733e+01	1.115215e+03
2.000000e-06	5.029767e-06	1.693028e-08	3.617436e+01	1.109505e+03
2.010000e-06	4.953756e-06	1.689382e-08	3.562769e+01	1.103514e+03
2.020000e-06	4.875629e-06	1.675613e-08	3.506580e+01	1.097260e+03
2.030000e-06	4.795644e-06	1.664438e-08	3.449054e+01	1.090761e+03
2.040000e-06	4.713978e-06	1.661587e-08	3.390319e+01	1.084029e+03
2.050000e-06	4.630738e-06	1.645818e-08	3.330452e+01	1.077068e+03
2.060000e-06	4.545917e-06	1.639457e-08	3.269448e+01	1.069863e+03
2.070000e-06	4.459417e-06	1.623580e-08	3.207238e+01	1.062393e+03
2.080000e-06	4.371286e-06	1.614394e-08	3.143853e+01	1.054626e+03
2.090000e-06	4.281668e-06	1.600051e-08	3.079399e+01	1.046532e+03
2.100000e-06	4.190659e-06	1.586736e-08	3.013945e+01	1.038083e+03
2.110000e-06	4.098301e-06	1.576188e-08	2.947521e+01	1.029261e+03
2.120000e-06	4.004446e-06	1.560046e-08	2.880020e+01	1.020059e+03
2.130000e-06	3.909010e-06	1.546794e-08	2.811382e+01	1.010472e+03
2.140000e-06	3.812228e-06	1.529348e-08	2.741775e+01	1.000501e+03
2.150000e-06	3.714161e-06	1.515964e-08	2.671245e+01	9.901423e+02
2.160000e-06	3.614781e-06	1.498965e-08	2.599771e+01	9.793854e+02
2.170000e-06	3.514092e-06	1.482977e-08	2.527355e+01	9.682090e+02
2.180000e-06	3.412052e-06	1.464940e-08	2.453967e+01	9.565822e+02
2.190000e-06	3.308571e-06	1.446495e-08	2.379543e+01	9.444666e+02
2.200000e-06	3.203832e-06	1.427117e-08	2.304214e+01	9.318203e+02
2.210000e-06	3.098040e-06	1.406514e-08	2.228127e+01	9.186014e+02
2.220000e-06	2.991115e-06	1.386233e-08	2.151227e+01	9.047715e+02
2.230000e-06	2.883162e-06	1.363893e-08	2.073586e+01	8.902963e+02
2.240000e-06	2.774295e-06	1.341497e-08	1.995288e+01	8.751448e+02
2.250000e-06	2.664433e-06	1.317239e-08	1.916275e+01	8.592870e+02
2.260000e-06	2.553478e-06	1.292669e-08	1.836475e+01	8.426902e+02
2.270000e-06	2.441473e-06	1.265659e-08	1.755921e+01	8.253163e+02
2.280000e-06	2.328486e-06	1.238259e-08	1.674660e+01	8.071206e+02
2.290000e-06	2.214554e-06	1.209174e-08	1.592720e+01	7.880507e+02
2.300000e-06	2.099810e-06	1.178664e-08	1.510195e+01	7.680486e+02
2.310000e-06	1.984306e-06	1.146572e-08	1.427124e+01	7.470521e+02
2.320000e-06	1.868007e-06	1.113087e-08	1.343481e+01	7.249967e+02
2.330000e-06	1.750937e-06	1.078146e-08	1.259283e+01	7.018166e+02
2.340000e-06	1.633154e-06	1.040696e-08	1.174574e+01	6.774461e+02
2.350000e-06	1.514727e-06	1.001394e-08	1.089400e+01	6.518193e+02
2.360000e-06	1.395689e-06	9.602918e-09	1.003787e+01	6.248719e+02
2.370000e-06	1.276157e-06	9.176024e-09	9.178193e+00	5.965446e+02
2.380000e-06	1.156215e-06	8.721650e-09	8.315562e+00	5.667890e+02
2.390000e-06	1.035868e-06	8.246814e-09	7.450023e+00	5.355772e+02
2.400000e-06	9.152032e-07	7.745401e-09	6.582193e+00	5.029131e+02
2.410000e-06	7.942878e-07	7.221368e-09	5.712562e+00	4.688432e+02
2.420000e-06	6.731134e-07	6.678986e-09	4.841069e+00	4.334656e+02
2.430000e-06	5.518114e-07	6.119000e-09	3.968658e+00	3.969331e+02
2.440000e-06	4.303351e-07	5.546619e-09	3.094994e+00	3.594483e+02
2.450000e-06	3.086224e-07	4.961262e-09	2.219629e+00	3.212502e+02
2.460000e-06	1.868299e-07	4.367175e-09	1.343691e+00	2.825921e+02
2.470000e-06	6.499480e-08	3.767859e-09	4.674462e-01	2.437146e+02
2.480000e-06	-5.690016e-08	3.170102e-09	-4.092291e-01	2.048163e+02
2.490000e-06	-1.788119e-07	2.574160e-09	-1.286025e+00	1.660282e+02
2.500000e-06	-3.006679e-07	1.979378e-09	-2.162420e+00	1.273967e+02
2.510000e-06	-4.223994e-07	1.387858e-09	-3.037920e+00	8.887807e+01
2.520000e-06	-5.440357e-07	7.964383e-10	-3.912735e+00	5.034699e+01
2.530000e-06	-6.655365e-07	2.014251e-10	-4.786575e+00	1.161834e+01
2.540000e-06	-7.867891e-07	-4.010407e-10	-5.658631e+00	-2.752078e+01
2.550000e-06	-9.078000e-07	-1.011052e-09	-6.528948e+00	-6.727349e+01
2.560000e-06	-1.028564e-06	-1.628692e-09	-7.397491e+00	-1.077959e+02
2.570000e-06	-1.148971e-06	-2.258583e-09	-8.263464e+00	-1.491657e+02
2.580000e-06	-1.268984e-06	-2.901811e-09	-9.126607e+00	-1.913619e+02
2.590000e-06	-1.388561e-06	-3.558828e-09	-9.986606e+00	-2.342575e+02
2.600000e-06	-1.507548e-06	-4.226127e-09	-1.084237e+01	-2.776264e+02
2.610000e-06	-1.625872e-06	-4.895623e-09	-1.169336e+01	-3.211625e+02
2.620000e-06	-1.743496e-06	-5.560121e-09	-1.253932e+01	-3.645079e+02
2.630000e-06	-1.860333e-06	-6.212880e-09	-1.337962e+01	-4.072853e+02
2.640000e-06	-1.976350e-06	-6.849229e-09	-1.421402e+01	-4.491295e+02
2.650000e-06	-2.091548e-06	-7.468080e-09	-1.504253e+01	-4.897157e+02
2.660000e-06	-2.205830e-06	-8.067062e-09	-1.586445e+01	-5.287793e+02
2.670000e-06	-2.319107e-06	-8.640666e-09	-1.667915e+01	-5.661277e+02
2.680000e-06	-2.431312e-06	-9.186784e-09	-1.748613e+01	-6.016430e+02
2.690000e-06	-2.542534e-06	-9.701614e-09	-1.828604e+01	-6.352775e+02
2.700000e-06	-2.652782e-06	-1.018451e-08	-1.907896e+01	-6.670428e+02
2.710000e-06	-2.762016e-06	-1.064156e-08	-1.986457e+01	-6.969967e+02
2.720000e-06	-2.870411e-06	-1.107507e-08	-2.064415e+01	-7.252284e+02
2.730000e-06	-2.977956e-06	-1.148355e-08	-2.141762e+01	-7.518444e+02
2.740000e-06	-3.084525e-06	-1.187004e-08	-2.218407e+01	-7.769570e+02
2.750000e-06	-3.190073e-06	-1.223477e-08	-2.294319e+01	-8.006758e+02
2.760000e-06	-3.294531e-06	-1.257668e-08	-2.369445e+01	-8.231013e+02
2.770000e-06	-3.397714e-06	-1.289987e-08	-2.443655e+01	-8.443230e+02
2.780000e-06	-3.499520e-06	-1.320640e-08	-2.516874e+01	-8.644185e+02
2.790000e-06	-3.600079e-06	-1.349822e-08	-2.589197e+01	-8.834555e+02
2.800000e-06	-3.699449e-06	-1.377628e-08	-2.660664e+01	-9.014940e+02
2.810000e-06	-3.797604e-06	-1.403873e-08	-2.731258e+01	-9.185894e+02
2.820000e-06	-3.894510e-06	-1.428499e-08	-2.800953e+01	-9.347945e+02
2.830000e-06	-3.990149e-06	-1.451845e-08	-2.869737e+01	-9.501613e+02
2.840000e-06	-4.084282e-06	-1.474381e-08	-2.937438e+01	-9.647416e+02
2.850000e-06	-4.176839e-06	-1.496067e-08	-3.004006e+01	-9.785861e+02
2.860000e-06	-4.267995e-06	-1.516711e-08	-3.069566e+01	-9.917431e+02
2.870000e-06	-4.357586e-06	-1.536142e-08	-3.134000e+01	-1.004257e+03
2.880000e-06	-4.445616e-06	-1.554470e-08	-3.197312e+01	-1.016166e+03
2.890000e-06	-4.532043e-06	-1.571679e-08	-3.259471e+01	-1.027503e+03
2.900000e-06	-4.616718e-06	-1.587880e-08	-3.320369e+01	-1.038293e+03
2.910000e-06	-4.699784e-06	-1.603526e-08	-3.380111e+01	-1.048554e+03
2.920000e-06	-4.781260e-06	-1.618406e-08	-3.438709e+01	-1.058302e+03
2.930000e-06	-4.861060e-06	-1.632497e-08	-3.496102e+01	-1.067550e+03
2.940000e-06	-4.938902e-06	-1.645972e-08	-3.552086e+01	-1.076311e+03
