# Temperatura_=_39.3
# Concentracion g/m^3_=_28370.0
# C_Vs_to_Am_M_A/Vsm_=_65563218390.804596
# pendiente_HvsI_1/m_=_3716.3
# ordenada_HvsI_A/m_=_1297.0
# frecuencia_Hz_=_302378.15209660464

Tiempo_(s)	Campo_(V.s)	Magnetizacion_(V.s)	Campo_(kA/m)	Magnetizacion_(A/m)
0.000000e+00	-7.322925e-06	-2.999253e-08	-5.319260e+01	-1.962957e+03
1.000000e-08	-7.318908e-06	-2.998756e-08	-5.316342e+01	-1.962006e+03
2.000000e-08	-7.312547e-06	-2.997429e-08	-5.311721e+01	-1.960927e+03
3.000000e-08	-7.303818e-06	-2.995903e-08	-5.305380e+01	-1.959784e+03
4.000000e-08	-7.292523e-06	-2.994225e-08	-5.297176e+01	-1.958623e+03
5.000000e-08	-7.278489e-06	-2.992250e-08	-5.286982e+01	-1.957468e+03
6.000000e-08	-7.261808e-06	-2.989823e-08	-5.274865e+01	-1.956315e+03
7.000000e-08	-7.242944e-06	-2.986993e-08	-5.261163e+01	-1.955135e+03
8.000000e-08	-7.221972e-06	-2.985946e-08	-5.245929e+01	-1.953881e+03
9.000000e-08	-7.198324e-06	-2.987918e-08	-5.228752e+01	-1.952497e+03
1.000000e-07	-7.171726e-06	-2.983529e-08	-5.209431e+01	-1.950926e+03
1.100000e-07	-7.142357e-06	-2.976185e-08	-5.188098e+01	-1.949122e+03
1.200000e-07	-7.110467e-06	-2.972008e-08	-5.164933e+01	-1.947059e+03
1.300000e-07	-7.076099e-06	-2.967643e-08	-5.139969e+01	-1.944730e+03
1.400000e-07	-7.039558e-06	-2.959719e-08	-5.113427e+01	-1.942150e+03
1.500000e-07	-7.001221e-06	-2.955828e-08	-5.085579e+01	-1.939352e+03
1.600000e-07	-6.960687e-06	-2.960331e-08	-5.056136e+01	-1.936379e+03
1.700000e-07	-6.917606e-06	-2.949865e-08	-5.024842e+01	-1.933270e+03
1.800000e-07	-6.872171e-06	-2.943200e-08	-4.991839e+01	-1.930056e+03
1.900000e-07	-6.824251e-06	-2.941892e-08	-4.957031e+01	-1.926748e+03
2.000000e-07	-6.773464e-06	-2.931769e-08	-4.920139e+01	-1.923336e+03
2.100000e-07	-6.719941e-06	-2.926873e-08	-4.881261e+01	-1.919782e+03
2.200000e-07	-6.663921e-06	-2.919496e-08	-4.840569e+01	-1.916031e+03
2.300000e-07	-6.605404e-06	-2.913482e-08	-4.798063e+01	-1.912014e+03
2.400000e-07	-6.544468e-06	-2.906746e-08	-4.753800e+01	-1.907660e+03
2.500000e-07	-6.481141e-06	-2.897116e-08	-4.707801e+01	-1.902908e+03
2.600000e-07	-6.415272e-06	-2.891895e-08	-4.659955e+01	-1.897716e+03
2.700000e-07	-6.346906e-06	-2.883822e-08	-4.610295e+01	-1.892069e+03
2.800000e-07	-6.276198e-06	-2.872917e-08	-4.558933e+01	-1.885980e+03
2.900000e-07	-6.203078e-06	-2.862995e-08	-4.505820e+01	-1.879490e+03
3.000000e-07	-6.127453e-06	-2.854296e-08	-4.450887e+01	-1.872661e+03
3.100000e-07	-6.049305e-06	-2.843995e-08	-4.394122e+01	-1.865562e+03
3.200000e-07	-5.968720e-06	-2.831697e-08	-4.335586e+01	-1.858258e+03
3.300000e-07	-5.885981e-06	-2.823406e-08	-4.275486e+01	-1.850799e+03
3.400000e-07	-5.801317e-06	-2.811157e-08	-4.213987e+01	-1.843207e+03
3.500000e-07	-5.714743e-06	-2.797551e-08	-4.151101e+01	-1.835468e+03
3.600000e-07	-5.626172e-06	-2.785498e-08	-4.086764e+01	-1.827537e+03
3.700000e-07	-5.535527e-06	-2.771993e-08	-4.020921e+01	-1.819336e+03
3.800000e-07	-5.442874e-06	-2.757906e-08	-3.953620e+01	-1.810769e+03
3.900000e-07	-5.348315e-06	-2.742963e-08	-3.884934e+01	-1.801733e+03
4.000000e-07	-5.251847e-06	-2.728587e-08	-3.814861e+01	-1.792134e+03
4.100000e-07	-5.153492e-06	-2.711874e-08	-3.743417e+01	-1.781900e+03
4.200000e-07	-5.053283e-06	-2.695130e-08	-3.670627e+01	-1.770990e+03
4.300000e-07	-4.951295e-06	-2.678204e-08	-3.596544e+01	-1.759402e+03
4.400000e-07	-4.847552e-06	-2.660366e-08	-3.521187e+01	-1.747170e+03
4.500000e-07	-4.742126e-06	-2.641338e-08	-3.444607e+01	-1.734356e+03
4.600000e-07	-4.635040e-06	-2.621629e-08	-3.366821e+01	-1.721034e+03
4.700000e-07	-4.526281e-06	-2.601596e-08	-3.287821e+01	-1.707277e+03
4.800000e-07	-4.415981e-06	-2.579907e-08	-3.207701e+01	-1.693139e+03
4.900000e-07	-4.304001e-06	-2.557773e-08	-3.126360e+01	-1.678638e+03
5.000000e-07	-4.190258e-06	-2.534697e-08	-3.043738e+01	-1.663749e+03
5.100000e-07	-4.074802e-06	-2.510448e-08	-2.959873e+01	-1.648398e+03
5.200000e-07	-3.957746e-06	-2.484436e-08	-2.874846e+01	-1.632469e+03
5.300000e-07	-3.839241e-06	-2.457576e-08	-2.788765e+01	-1.615814e+03
5.400000e-07	-3.719270e-06	-2.429802e-08	-2.701621e+01	-1.598272e+03
5.500000e-07	-3.597929e-06	-2.400531e-08	-2.613480e+01	-1.579686e+03
5.600000e-07	-3.475298e-06	-2.370106e-08	-2.524403e+01	-1.559926e+03
5.700000e-07	-3.351285e-06	-2.338254e-08	-2.434322e+01	-1.538900e+03
5.800000e-07	-3.226010e-06	-2.304832e-08	-2.343324e+01	-1.516564e+03
5.900000e-07	-3.099579e-06	-2.269508e-08	-2.251486e+01	-1.492921e+03
6.000000e-07	-2.971951e-06	-2.232616e-08	-2.158780e+01	-1.468010e+03
6.100000e-07	-2.843173e-06	-2.193778e-08	-2.065237e+01	-1.441885e+03
6.200000e-07	-2.713381e-06	-2.152915e-08	-1.970958e+01	-1.414590e+03
6.300000e-07	-2.582711e-06	-2.109659e-08	-1.876041e+01	-1.386132e+03
6.400000e-07	-2.451039e-06	-2.064015e-08	-1.780397e+01	-1.356457e+03
6.500000e-07	-2.318347e-06	-2.015763e-08	-1.684012e+01	-1.325426e+03
6.600000e-07	-2.184893e-06	-1.964497e-08	-1.587072e+01	-1.292812e+03
6.700000e-07	-2.050826e-06	-1.910168e-08	-1.489688e+01	-1.258304e+03
6.800000e-07	-1.916035e-06	-1.852300e-08	-1.391778e+01	-1.221520e+03
6.900000e-07	-1.780458e-06	-1.790757e-08	-1.293297e+01	-1.182046e+03
7.000000e-07	-1.644211e-06	-1.725125e-08	-1.194329e+01	-1.139469e+03
7.100000e-07	-1.507340e-06	-1.655036e-08	-1.094909e+01	-1.093427e+03
7.200000e-07	-1.369911e-06	-1.579932e-08	-9.950825e+00	-1.043644e+03
7.300000e-07	-1.232058e-06	-1.499582e-08	-8.949477e+00	-9.899761e+02
7.400000e-07	-1.093845e-06	-1.413876e-08	-7.945525e+00	-9.324240e+02
7.500000e-07	-9.553027e-07	-1.322731e-08	-6.939171e+00	-8.711455e+02
7.600000e-07	-8.164561e-07	-1.226185e-08	-5.930611e+00	-8.064420e+02
7.700000e-07	-6.772846e-07	-1.124160e-08	-4.919690e+00	-7.387292e+02
7.800000e-07	-5.378587e-07	-1.016810e-08	-3.906922e+00	-6.684952e+02
7.900000e-07	-3.982136e-07	-9.046709e-09	-2.892562e+00	-5.962479e+02
8.000000e-07	-2.583316e-07	-7.891572e-09	-1.876481e+00	-5.224620e+02
8.100000e-07	-1.182508e-07	-6.716074e-09	-8.589556e-01	-4.475304e+02
8.200000e-07	2.191107e-08	-5.533250e-09	1.591587e-01	-3.717276e+02
8.300000e-07	1.620707e-07	-4.353192e-09	1.177256e+00	-2.951905e+02
8.400000e-07	3.021734e-07	-3.178279e-09	2.194941e+00	-2.179196e+02
8.500000e-07	4.421480e-07	-2.006663e-09	3.211695e+00	-1.398009e+02
8.600000e-07	5.819848e-07	-8.310895e-10	4.227448e+00	-6.064616e+01
8.700000e-07	7.215769e-07	3.589165e-10	5.241423e+00	1.975286e+01
8.800000e-07	8.608978e-07	1.572916e-09	6.253429e+00	1.015646e+02
8.900000e-07	9.999421e-07	2.816948e-09	7.263425e+00	1.848584e+02
9.000000e-07	1.138651e-06	4.096843e-09	8.270984e+00	2.695555e+02
9.100000e-07	1.276966e-06	5.411563e-09	9.275685e+00	3.553956e+02
9.200000e-07	1.414851e-06	6.753735e-09	1.027726e+01	4.419255e+02
9.300000e-07	1.552241e-06	8.107253e-09	1.127524e+01	5.285105e+02
9.400000e-07	1.689073e-06	9.449471e-09	1.226917e+01	6.143694e+02
9.500000e-07	1.825236e-06	1.075853e-08	1.325823e+01	6.986274e+02
9.600000e-07	1.960563e-06	1.201412e-08	1.424123e+01	7.803833e+02
9.700000e-07	2.095056e-06	1.320049e-08	1.521816e+01	8.587808e+02
9.800000e-07	2.228806e-06	1.430601e-08	1.618970e+01	9.330772e+02
9.900000e-07	2.361790e-06	1.533029e-08	1.715568e+01	1.002701e+03
1.000000e-06	2.493878e-06	1.627833e-08	1.811515e+01	1.067290e+03
1.010000e-06	2.624984e-06	1.715435e-08	1.906748e+01	1.126713e+03
1.020000e-06	2.755097e-06	1.796401e-08	2.001260e+01	1.181062e+03
1.030000e-06	2.884244e-06	1.871264e-08	2.095070e+01	1.230625e+03
1.040000e-06	3.012326e-06	1.940676e-08	2.188107e+01	1.275843e+03
1.050000e-06	3.139177e-06	2.005191e-08	2.280250e+01	1.317255e+03
1.060000e-06	3.264899e-06	2.065166e-08	2.371572e+01	1.355435e+03
1.070000e-06	3.389560e-06	2.120966e-08	2.462124e+01	1.390938e+03
1.080000e-06	3.512984e-06	2.172998e-08	2.551777e+01	1.424251e+03
1.090000e-06	3.635146e-06	2.221477e-08	2.640514e+01	1.455759e+03
1.100000e-06	3.756119e-06	2.266947e-08	2.728387e+01	1.485729e+03
1.110000e-06	3.875749e-06	2.309825e-08	2.815285e+01	1.514313e+03
1.120000e-06	3.993923e-06	2.350175e-08	2.901124e+01	1.541562e+03
1.130000e-06	4.110624e-06	2.388227e-08	2.985894e+01	1.567457e+03
1.140000e-06	4.225758e-06	2.424049e-08	3.069525e+01	1.591937e+03
1.150000e-06	4.339299e-06	2.457802e-08	3.152000e+01	1.614942e+03
1.160000e-06	4.451172e-06	2.489698e-08	3.233262e+01	1.636434e+03
1.170000e-06	4.561367e-06	2.519800e-08	3.313307e+01	1.656426e+03
1.180000e-06	4.670037e-06	2.548101e-08	3.392243e+01	1.674986e+03
1.190000e-06	4.777083e-06	2.574815e-08	3.470000e+01	1.692238e+03
1.200000e-06	4.882411e-06	2.600197e-08	3.546508e+01	1.708351e+03
1.210000e-06	4.985986e-06	2.624508e-08	3.621743e+01	1.723517e+03
1.220000e-06	5.087747e-06	2.647628e-08	3.695661e+01	1.737927e+03
1.230000e-06	5.187723e-06	2.669542e-08	3.768282e+01	1.751750e+03
1.240000e-06	5.285778e-06	2.690257e-08	3.839507e+01	1.765116e+03
1.250000e-06	5.381782e-06	2.709648e-08	3.909243e+01	1.778096e+03
1.260000e-06	5.475853e-06	2.727996e-08	3.977575e+01	1.790708e+03
1.270000e-06	5.568062e-06	2.745470e-08	4.044554e+01	1.802919e+03
1.280000e-06	5.658236e-06	2.762279e-08	4.110055e+01	1.814656e+03
1.290000e-06	5.746272e-06	2.778329e-08	4.174004e+01	1.825830e+03
1.300000e-06	5.832240e-06	2.793557e-08	4.236449e+01	1.836351e+03
1.310000e-06	5.916222e-06	2.808191e-08	4.297453e+01	1.846151e+03
1.320000e-06	5.998111e-06	2.822316e-08	4.356935e+01	1.855197e+03
1.330000e-06	6.077738e-06	2.835605e-08	4.414775e+01	1.863500e+03
1.340000e-06	6.155090e-06	2.847816e-08	4.470962e+01	1.871113e+03
1.350000e-06	6.230075e-06	2.859139e-08	4.525430e+01	1.878128e+03
1.360000e-06	6.302647e-06	2.869796e-08	4.578145e+01	1.884657e+03
1.370000e-06	6.372984e-06	2.879913e-08	4.629237e+01	1.890824e+03
1.380000e-06	6.441134e-06	2.889434e-08	4.678741e+01	1.896741e+03
1.390000e-06	6.506952e-06	2.898502e-08	4.726549e+01	1.902493e+03
1.400000e-06	6.570400e-06	2.907149e-08	4.772637e+01	1.908134e+03
1.410000e-06	6.631631e-06	2.915110e-08	4.817114e+01	1.913673e+03
1.420000e-06	6.690578e-06	2.922706e-08	4.859932e+01	1.919083e+03
1.430000e-06	6.747118e-06	2.930119e-08	4.901003e+01	1.924308e+03
1.440000e-06	6.801240e-06	2.936971e-08	4.940316e+01	1.929272e+03
1.450000e-06	6.852685e-06	2.943235e-08	4.977685e+01	1.933898e+03
1.460000e-06	6.901321e-06	2.949136e-08	5.013013e+01	1.938120e+03
1.470000e-06	6.947406e-06	2.954858e-08	5.046488e+01	1.941897e+03
1.480000e-06	6.991097e-06	2.960332e-08	5.078225e+01	1.945219e+03
1.490000e-06	7.032270e-06	2.965375e-08	5.108132e+01	1.948108e+03
1.500000e-06	7.070931e-06	2.969889e-08	5.136215e+01	1.950618e+03
1.510000e-06	7.107202e-06	2.973862e-08	5.162562e+01	1.952821e+03
1.520000e-06	7.140948e-06	2.977437e-08	5.187075e+01	1.954798e+03
1.530000e-06	7.172069e-06	2.980647e-08	5.209680e+01	1.956625e+03
1.540000e-06	7.200701e-06	2.983446e-08	5.230478e+01	1.958364e+03
1.550000e-06	7.226718e-06	2.985868e-08	5.249376e+01	1.960046e+03
1.560000e-06	7.250008e-06	2.988078e-08	5.266294e+01	1.961675e+03
1.570000e-06	7.270835e-06	2.990030e-08	5.281422e+01	1.963226e+03
1.580000e-06	7.289172e-06	2.991632e-08	5.294742e+01	1.964648e+03
1.590000e-06	7.304749e-06	2.992871e-08	5.306057e+01	1.965879e+03
1.600000e-06	7.317525e-06	2.993864e-08	5.315337e+01	1.966854e+03
1.610000e-06	7.327428e-06	2.994742e-08	5.322531e+01	1.967516e+03
1.620000e-06	7.334540e-06	2.995329e-08	5.327696e+01	1.967832e+03
1.630000e-06	7.339148e-06	2.995548e-08	5.331044e+01	1.967794e+03
1.640000e-06	7.341180e-06	2.995553e-08	5.332520e+01	1.967420e+03
1.650000e-06	7.340544e-06	2.995198e-08	5.332058e+01	1.966757e+03
1.660000e-06	7.337481e-06	2.994074e-08	5.329833e+01	1.965869e+03
1.670000e-06	7.332036e-06	2.993046e-08	5.325878e+01	1.964826e+03
1.680000e-06	7.324100e-06	2.991958e-08	5.320113e+01	1.963698e+03
1.690000e-06	7.313717e-06	2.990642e-08	5.312571e+01	1.962538e+03
1.700000e-06	7.300771e-06	2.989213e-08	5.303168e+01	1.961379e+03
1.710000e-06	7.285272e-06	2.987868e-08	5.291909e+01	1.960225e+03
1.720000e-06	7.267566e-06	2.986618e-08	5.279048e+01	1.959058e+03
1.730000e-06	7.247744e-06	2.980658e-08	5.264650e+01	1.957836e+03
1.740000e-06	7.225242e-06	2.973236e-08	5.248304e+01	1.956503e+03
1.750000e-06	7.199392e-06	2.974118e-08	5.229527e+01	1.955004e+03
1.760000e-06	7.170210e-06	2.973802e-08	5.208330e+01	1.953286e+03
1.770000e-06	7.138352e-06	2.969129e-08	5.185189e+01	1.951316e+03
1.780000e-06	7.104411e-06	2.970190e-08	5.160534e+01	1.949080e+03
1.790000e-06	7.068756e-06	2.971412e-08	5.134635e+01	1.946585e+03
1.800000e-06	7.031437e-06	2.959103e-08	5.107528e+01	1.943859e+03
1.810000e-06	6.991765e-06	2.959462e-08	5.078710e+01	1.940942e+03
1.820000e-06	6.949477e-06	2.959520e-08	5.047993e+01	1.937876e+03
1.830000e-06	6.904899e-06	2.950811e-08	5.015612e+01	1.934696e+03
1.840000e-06	6.857800e-06	2.953233e-08	4.981400e+01	1.931420e+03
1.850000e-06	6.808103e-06	2.942051e-08	4.945301e+01	1.928047e+03
1.860000e-06	6.755733e-06	2.937870e-08	4.907260e+01	1.924548e+03
1.870000e-06	6.700602e-06	2.931870e-08	4.867214e+01	1.920874e+03
1.880000e-06	6.643074e-06	2.919481e-08	4.825426e+01	1.916958e+03
1.890000e-06	6.583055e-06	2.919522e-08	4.781830e+01	1.912731e+03
1.900000e-06	6.520426e-06	2.907132e-08	4.736337e+01	1.908126e+03
1.910000e-06	6.455347e-06	2.899989e-08	4.689064e+01	1.903093e+03
1.920000e-06	6.387881e-06	2.894486e-08	4.640058e+01	1.897606e+03
1.930000e-06	6.318021e-06	2.883969e-08	4.589313e+01	1.891670e+03
1.940000e-06	6.245659e-06	2.877910e-08	4.536751e+01	1.885317e+03
1.950000e-06	6.170867e-06	2.865696e-08	4.482423e+01	1.878600e+03
1.960000e-06	6.093540e-06	2.858660e-08	4.426254e+01	1.871587e+03
1.970000e-06	6.013758e-06	2.844629e-08	4.368301e+01	1.864349e+03
1.980000e-06	5.931851e-06	2.833554e-08	4.308805e+01	1.856940e+03
1.990000e-06	5.847869e-06	2.825157e-08	4.247802e+01	1.849393e+03
2.000000e-06	5.761814e-06	2.811701e-08	4.185293e+01	1.841709e+03
2.010000e-06	5.673618e-06	2.801218e-08	4.121229e+01	1.833852e+03
2.020000e-06	5.583391e-06	2.786623e-08	4.055689e+01	1.825757e+03
2.030000e-06	5.491228e-06	2.774296e-08	3.988743e+01	1.817331e+03
2.040000e-06	5.397119e-06	2.758637e-08	3.920384e+01	1.808473e+03
2.050000e-06	5.301069e-06	2.744072e-08	3.850615e+01	1.799083e+03
2.060000e-06	5.203212e-06	2.729851e-08	3.779533e+01	1.789081e+03
2.070000e-06	5.103653e-06	2.713264e-08	3.707215e+01	1.778413e+03
2.080000e-06	5.002294e-06	2.696759e-08	3.633589e+01	1.767064e+03
2.090000e-06	4.899023e-06	2.678583e-08	3.558574e+01	1.755055e+03
2.100000e-06	4.793949e-06	2.661003e-08	3.482251e+01	1.742439e+03
2.110000e-06	4.687367e-06	2.641524e-08	3.404831e+01	1.729288e+03
2.120000e-06	4.579230e-06	2.622222e-08	3.326282e+01	1.715677e+03
2.130000e-06	4.469442e-06	2.601407e-08	3.246533e+01	1.701670e+03
2.140000e-06	4.357931e-06	2.579430e-08	3.165534e+01	1.687298e+03
2.150000e-06	4.244699e-06	2.556229e-08	3.083284e+01	1.672552e+03
2.160000e-06	4.129809e-06	2.532669e-08	2.999830e+01	1.657376e+03
2.170000e-06	4.013220e-06	2.508219e-08	2.915141e+01	1.641667e+03
2.180000e-06	3.895044e-06	2.482364e-08	2.829300e+01	1.625289e+03
2.190000e-06	3.775303e-06	2.455753e-08	2.742322e+01	1.608081e+03
2.200000e-06	3.654078e-06	2.427585e-08	2.654266e+01	1.589883e+03
2.210000e-06	3.531595e-06	2.398083e-08	2.565296e+01	1.570554e+03
2.220000e-06	3.407843e-06	2.366761e-08	2.475404e+01	1.549986e+03
2.230000e-06	3.282748e-06	2.334501e-08	2.384537e+01	1.528118e+03
2.240000e-06	3.156431e-06	2.300253e-08	2.292783e+01	1.504938e+03
2.250000e-06	3.029017e-06	2.264252e-08	2.200231e+01	1.480473e+03
2.260000e-06	2.900461e-06	2.226252e-08	2.106850e+01	1.454774e+03
2.270000e-06	2.770811e-06	2.186461e-08	2.012674e+01	1.427891e+03
2.280000e-06	2.640163e-06	2.144634e-08	1.917773e+01	1.399850e+03
2.290000e-06	2.508562e-06	2.100523e-08	1.822181e+01	1.370620e+03
2.300000e-06	2.376107e-06	2.053702e-08	1.725968e+01	1.340093e+03
2.310000e-06	2.242819e-06	2.003857e-08	1.629149e+01	1.308075e+03
2.320000e-06	2.108785e-06	1.950851e-08	1.531789e+01	1.274283e+03
2.330000e-06	1.974135e-06	1.894123e-08	1.433981e+01	1.238357e+03
2.340000e-06	1.838825e-06	1.833760e-08	1.335694e+01	1.199890e+03
2.350000e-06	1.702773e-06	1.769480e-08	1.236868e+01	1.158466e+03
2.360000e-06	1.566042e-06	1.701305e-08	1.137549e+01	1.113696e+03
2.370000e-06	1.428798e-06	1.628568e-08	1.037857e+01	1.065272e+03
2.380000e-06	1.291141e-06	1.550514e-08	9.378646e+00	1.012998e+03
2.390000e-06	1.153126e-06	1.466871e-08	8.376132e+00	9.568218e+02
2.400000e-06	1.014732e-06	1.377642e-08	7.370858e+00	8.968453e+02
2.410000e-06	8.759755e-07	1.282667e-08	6.362951e+00	8.333210e+02
2.420000e-06	7.368743e-07	1.181926e-08	5.352541e+00	7.666283e+02
2.430000e-06	5.974171e-07	1.076137e-08	4.339545e+00	6.972350e+02
2.440000e-06	4.576887e-07	9.660227e-09	3.324580e+00	6.256479e+02
2.450000e-06	3.176980e-07	8.517590e-09	2.307709e+00	5.523599e+02
2.460000e-06	1.775051e-07	7.343464e-09	1.289370e+00	4.777979e+02
2.470000e-06	3.726845e-08	6.154789e-09	2.707123e-01	4.022818e+02
2.480000e-06	-1.029538e-07	4.966122e-09	-7.478402e-01	3.259987e+02
2.490000e-06	-2.431935e-07	3.783938e-09	-1.766520e+00	2.489963e+02
2.500000e-06	-3.833707e-07	2.605684e-09	-2.784746e+00	1.711978e+02
2.510000e-06	-5.233511e-07	1.427126e-09	-3.801541e+00	9.243583e+01
2.520000e-06	-6.631705e-07	2.373958e-10	-4.817168e+00	1.250255e+01
2.530000e-06	-8.027599e-07	-9.727188e-10	-5.831124e+00	-6.879171e+01
2.540000e-06	-9.419495e-07	-2.210631e-09	-6.842176e+00	-1.515580e+02
2.550000e-06	-1.080736e-06	-3.481818e-09	-7.850298e+00	-2.357753e+02
2.560000e-06	-1.219071e-06	-4.788508e-09	-8.855143e+00	-3.212506e+02
2.570000e-06	-1.356935e-06	-6.126734e-09	-9.856569e+00	-4.075994e+02
2.580000e-06	-1.494440e-06	-7.482436e-09	-1.085538e+01	-4.942492e+02
2.590000e-06	-1.631511e-06	-8.838704e-09	-1.185104e+01	-5.804657e+02
2.600000e-06	-1.767865e-06	-1.017101e-08	-1.284150e+01	-6.654004e+02
2.610000e-06	-1.903412e-06	-1.145721e-08	-1.382609e+01	-7.481534e+02
2.620000e-06	-2.038219e-06	-1.267919e-08	-1.480531e+01	-8.278443e+02
2.630000e-06	-2.172293e-06	-1.382460e-08	-1.577920e+01	-9.036823e+02
2.640000e-06	-2.305677e-06	-1.489138e-08	-1.674808e+01	-9.750290e+02
2.650000e-06	-2.438226e-06	-1.588086e-08	-1.771090e+01	-1.041445e+03
2.660000e-06	-2.569673e-06	-1.679599e-08	-1.866571e+01	-1.102715e+03
2.670000e-06	-2.700075e-06	-1.764053e-08	-1.961293e+01	-1.158854e+03
2.680000e-06	-2.829611e-06	-1.842055e-08	-2.055386e+01	-1.210084e+03
2.690000e-06	-2.958189e-06	-1.914189e-08	-2.148783e+01	-1.256797e+03
2.700000e-06	-3.085685e-06	-1.980982e-08	-2.241394e+01	-1.299504e+03
2.710000e-06	-3.212089e-06	-2.043073e-08	-2.333212e+01	-1.338774e+03
2.720000e-06	-3.337373e-06	-2.101121e-08	-2.424216e+01	-1.375174e+03
2.730000e-06	-3.461379e-06	-2.155426e-08	-2.514292e+01	-1.409221e+03
2.740000e-06	-3.584038e-06	-2.205996e-08	-2.603390e+01	-1.441338e+03
2.750000e-06	-3.705508e-06	-2.253211e-08	-2.691624e+01	-1.471835e+03
2.760000e-06	-3.825650e-06	-2.297252e-08	-2.778893e+01	-1.500905e+03
2.770000e-06	-3.944263e-06	-2.338414e-08	-2.865052e+01	-1.528632e+03
2.780000e-06	-4.061405e-06	-2.377330e-08	-2.950142e+01	-1.555017e+03
2.790000e-06	-4.176938e-06	-2.414220e-08	-3.034064e+01	-1.580011e+03
2.800000e-06	-4.290720e-06	-2.449021e-08	-3.116713e+01	-1.603550e+03
2.810000e-06	-4.402822e-06	-2.481771e-08	-3.198142e+01	-1.625585e+03
2.820000e-06	-4.513269e-06	-2.512607e-08	-3.278369e+01	-1.646110e+03
2.830000e-06	-4.622126e-06	-2.541909e-08	-3.357441e+01	-1.665171e+03
2.840000e-06	-4.729453e-06	-2.569819e-08	-3.435402e+01	-1.682874e+03
2.850000e-06	-4.835261e-06	-2.596073e-08	-3.512259e+01	-1.699374e+03
2.860000e-06	-4.939365e-06	-2.620866e-08	-3.587879e+01	-1.714857e+03
2.870000e-06	-5.041521e-06	-2.644358e-08	-3.662083e+01	-1.729517e+03
2.880000e-06	-5.141780e-06	-2.666726e-08	-3.734910e+01	-1.743534e+03
2.890000e-06	-5.240247e-06	-2.688127e-08	-3.806435e+01	-1.757053e+03
2.900000e-06	-5.336899e-06	-2.708605e-08	-3.876641e+01	-1.770168e+03
2.910000e-06	-5.431622e-06	-2.727952e-08	-3.945446e+01	-1.782914e+03
2.920000e-06	-5.524341e-06	-2.746176e-08	-4.012796e+01	-1.795277e+03
2.930000e-06	-5.615086e-06	-2.763541e-08	-4.078712e+01	-1.807194e+03
2.940000e-06	-5.703833e-06	-2.779959e-08	-4.143176e+01	-1.818581e+03
