# Temperatura_=_58.31
# Concentracion g/m^3_=_28370.0
# C_Vs_to_Am_M_A/Vsm_=_65563218390.804596
# pendiente_HvsI_1/m_=_3716.3
# ordenada_HvsI_A/m_=_1297.0
# frecuencia_Hz_=_302376.6162056005

Tiempo_(s)	Campo_(V.s)	Magnetizacion_(V.s)	Campo_(kA/m)	Magnetizacion_(A/m)
0.000000e+00	-7.316430e-06	-3.026455e-08	-5.318636e+01	-1.981220e+03
1.000000e-08	-7.312468e-06	-3.026016e-08	-5.315755e+01	-1.980274e+03
2.000000e-08	-7.306207e-06	-3.024682e-08	-5.311204e+01	-1.979220e+03
3.000000e-08	-7.297612e-06	-3.023257e-08	-5.304956e+01	-1.978116e+03
4.000000e-08	-7.286400e-06	-3.021604e-08	-5.296805e+01	-1.976997e+03
5.000000e-08	-7.272371e-06	-3.019497e-08	-5.286607e+01	-1.975873e+03
6.000000e-08	-7.255650e-06	-3.016803e-08	-5.274452e+01	-1.974727e+03
7.000000e-08	-7.236771e-06	-3.013615e-08	-5.260727e+01	-1.973519e+03
8.000000e-08	-7.215852e-06	-3.012392e-08	-5.245521e+01	-1.972197e+03
9.000000e-08	-7.192306e-06	-3.017488e-08	-5.228404e+01	-1.970700e+03
1.000000e-07	-7.165738e-06	-3.012376e-08	-5.209090e+01	-1.968976e+03
1.100000e-07	-7.136362e-06	-3.002096e-08	-5.187736e+01	-1.966986e+03
1.200000e-07	-7.104480e-06	-2.997998e-08	-5.164560e+01	-1.964712e+03
1.300000e-07	-7.070130e-06	-2.994492e-08	-5.139589e+01	-1.962161e+03
1.400000e-07	-7.033620e-06	-2.985247e-08	-5.113048e+01	-1.959361e+03
1.500000e-07	-6.995323e-06	-2.978251e-08	-5.085208e+01	-1.956352e+03
1.600000e-07	-6.954927e-06	-2.988970e-08	-5.055843e+01	-1.953183e+03
1.700000e-07	-6.912082e-06	-2.976117e-08	-5.024697e+01	-1.949896e+03
1.800000e-07	-6.866890e-06	-2.966339e-08	-4.991845e+01	-1.946520e+03
1.900000e-07	-6.819109e-06	-2.970253e-08	-4.957111e+01	-1.943061e+03
2.000000e-07	-6.768398e-06	-2.955785e-08	-4.920247e+01	-1.939498e+03
2.100000e-07	-6.715035e-06	-2.952040e-08	-4.881455e+01	-1.935788e+03
2.200000e-07	-6.659169e-06	-2.943399e-08	-4.840843e+01	-1.931864e+03
2.300000e-07	-6.600735e-06	-2.932917e-08	-4.798365e+01	-1.927655e+03
2.400000e-07	-6.539900e-06	-2.930915e-08	-4.754142e+01	-1.923087e+03
2.500000e-07	-6.476719e-06	-2.921585e-08	-4.708212e+01	-1.918100e+03
2.600000e-07	-6.411012e-06	-2.913873e-08	-4.660447e+01	-1.912657e+03
2.700000e-07	-6.342830e-06	-2.905412e-08	-4.610882e+01	-1.906750e+03
2.800000e-07	-6.272322e-06	-2.897290e-08	-4.559627e+01	-1.900402e+03
2.900000e-07	-6.199401e-06	-2.885726e-08	-4.506617e+01	-1.893661e+03
3.000000e-07	-6.123935e-06	-2.874187e-08	-4.451758e+01	-1.886594e+03
3.100000e-07	-6.045852e-06	-2.867461e-08	-4.394997e+01	-1.879273e+03
3.200000e-07	-5.965322e-06	-2.854276e-08	-4.336456e+01	-1.871764e+03
3.300000e-07	-5.882651e-06	-2.843768e-08	-4.276358e+01	-1.864110e+03
3.400000e-07	-5.798024e-06	-2.829903e-08	-4.214839e+01	-1.856327e+03
3.500000e-07	-5.711552e-06	-2.817110e-08	-4.151979e+01	-1.848394e+03
3.600000e-07	-5.623125e-06	-2.805865e-08	-4.087697e+01	-1.840255e+03
3.700000e-07	-5.532542e-06	-2.791048e-08	-4.021849e+01	-1.831829e+03
3.800000e-07	-5.439946e-06	-2.776956e-08	-3.954536e+01	-1.823015e+03
3.900000e-07	-5.345456e-06	-2.761201e-08	-3.885847e+01	-1.813709e+03
4.000000e-07	-5.249069e-06	-2.745971e-08	-3.815780e+01	-1.803824e+03
4.100000e-07	-5.150820e-06	-2.728654e-08	-3.744358e+01	-1.793294e+03
4.200000e-07	-5.050716e-06	-2.713021e-08	-3.671588e+01	-1.782089e+03
4.300000e-07	-4.948868e-06	-2.695598e-08	-3.597550e+01	-1.770219e+03
4.400000e-07	-4.845304e-06	-2.676664e-08	-3.522265e+01	-1.757725e+03
4.500000e-07	-4.740078e-06	-2.657726e-08	-3.445771e+01	-1.744675e+03
4.600000e-07	-4.633150e-06	-2.637893e-08	-3.368041e+01	-1.731147e+03
4.700000e-07	-4.524510e-06	-2.617213e-08	-3.289065e+01	-1.717211e+03
4.800000e-07	-4.414264e-06	-2.595426e-08	-3.208923e+01	-1.702912e+03
4.900000e-07	-4.302372e-06	-2.573494e-08	-3.127584e+01	-1.688260e+03
5.000000e-07	-4.188852e-06	-2.549169e-08	-3.045061e+01	-1.673215e+03
5.100000e-07	-4.073648e-06	-2.523937e-08	-2.961314e+01	-1.657693e+03
5.200000e-07	-3.956772e-06	-2.497940e-08	-2.876352e+01	-1.641568e+03
5.300000e-07	-3.838383e-06	-2.471516e-08	-2.790290e+01	-1.624686e+03
5.400000e-07	-3.718549e-06	-2.443374e-08	-2.703177e+01	-1.606887e+03
5.500000e-07	-3.597348e-06	-2.413757e-08	-2.615071e+01	-1.588019e+03
5.600000e-07	-3.474826e-06	-2.383163e-08	-2.526004e+01	-1.567964e+03
5.700000e-07	-3.350920e-06	-2.350929e-08	-2.435931e+01	-1.546644e+03
5.800000e-07	-3.225771e-06	-2.316883e-08	-2.344955e+01	-1.524032e+03
5.900000e-07	-3.099483e-06	-2.281030e-08	-2.253151e+01	-1.500148e+03
6.000000e-07	-2.971955e-06	-2.243898e-08	-2.160445e+01	-1.475042e+03
6.100000e-07	-2.843322e-06	-2.204642e-08	-2.066936e+01	-1.448777e+03
6.200000e-07	-2.713762e-06	-2.163606e-08	-1.972753e+01	-1.421399e+03
6.300000e-07	-2.583206e-06	-2.120293e-08	-1.877846e+01	-1.392912e+03
6.400000e-07	-2.451545e-06	-2.074898e-08	-1.782136e+01	-1.363253e+03
6.500000e-07	-2.318959e-06	-2.026785e-08	-1.685753e+01	-1.332272e+03
6.600000e-07	-2.185716e-06	-1.975610e-08	-1.588893e+01	-1.299729e+03
6.700000e-07	-2.051807e-06	-1.921542e-08	-1.491549e+01	-1.265300e+03
6.800000e-07	-1.917095e-06	-1.864067e-08	-1.393621e+01	-1.228595e+03
6.900000e-07	-1.781597e-06	-1.802916e-08	-1.295121e+01	-1.189193e+03
7.000000e-07	-1.645463e-06	-1.737268e-08	-1.196160e+01	-1.146681e+03
7.100000e-07	-1.508791e-06	-1.667052e-08	-1.096807e+01	-1.100694e+03
7.200000e-07	-1.371662e-06	-1.591983e-08	-9.971214e+00	-1.050958e+03
7.300000e-07	-1.234139e-06	-1.511857e-08	-8.971498e+00	-9.973220e+02
7.400000e-07	-1.096159e-06	-1.426228e-08	-7.968464e+00	-9.397754e+02
7.500000e-07	-9.577695e-07	-1.335082e-08	-6.962449e+00	-8.784522e+02
7.600000e-07	-8.190426e-07	-1.238448e-08	-5.953981e+00	-8.136171e+02
7.700000e-07	-6.799545e-07	-1.135922e-08	-4.942889e+00	-7.456359e+02
7.800000e-07	-5.405467e-07	-1.027589e-08	-3.929472e+00	-6.749347e+02
7.900000e-07	-4.008911e-07	-9.141811e-09	-2.914254e+00	-6.019519e+02
8.000000e-07	-2.610259e-07	-7.968986e-09	-1.897512e+00	-5.270908e+02
8.100000e-07	-1.209809e-07	-6.768170e-09	-8.794633e-01	-4.506786e+02
8.200000e-07	1.913820e-08	-5.553362e-09	1.391240e-01	-3.729387e+02
8.300000e-07	1.592517e-07	-4.335859e-09	1.157670e+00	-2.939792e+02
8.400000e-07	2.993588e-07	-3.120685e-09	2.176171e+00	-2.138018e+02
8.500000e-07	4.393557e-07	-1.904687e-09	3.193870e+00	-1.323278e+02
8.600000e-07	5.791557e-07	-6.790144e-10	4.210138e+00	-4.944120e+01
8.700000e-07	7.187574e-07	5.668348e-10	5.224964e+00	3.496029e+01
8.800000e-07	8.581039e-07	1.842907e-09	6.237935e+00	1.209096e+02
8.900000e-07	9.971000e-07	3.151794e-09	7.248359e+00	2.083206e+02
9.000000e-07	1.135666e-06	4.495454e-09	8.255656e+00	2.969498e+02
9.100000e-07	1.273808e-06	5.871048e-09	9.259871e+00	3.863761e+02
9.200000e-07	1.411473e-06	7.267849e-09	1.026062e+01	4.760022e+02
9.300000e-07	1.548637e-06	8.664019e-09	1.125772e+01	5.650778e+02
9.400000e-07	1.685292e-06	1.003512e-08	1.225113e+01	6.527435e+02
9.500000e-07	1.821274e-06	1.135936e-08	1.323964e+01	7.380903e+02
9.600000e-07	1.956460e-06	1.261365e-08	1.422237e+01	8.202279e+02
9.700000e-07	2.090822e-06	1.378371e-08	1.519910e+01	8.983535e+02
9.800000e-07	2.224381e-06	1.486716e-08	1.617000e+01	9.718146e+02
9.900000e-07	2.357222e-06	1.586913e-08	1.713569e+01	1.040156e+03
1.000000e-06	2.489321e-06	1.679609e-08	1.809597e+01	1.103150e+03
1.010000e-06	2.620453e-06	1.765202e-08	1.904923e+01	1.160798e+03
1.020000e-06	2.750492e-06	1.843981e-08	1.999454e+01	1.213320e+03
1.030000e-06	2.879528e-06	1.916353e-08	2.093256e+01	1.261111e+03
1.040000e-06	3.007519e-06	1.983285e-08	2.186298e+01	1.304696e+03
1.050000e-06	3.134336e-06	2.045681e-08	2.278487e+01	1.344666e+03
1.060000e-06	3.260045e-06	2.103868e-08	2.369871e+01	1.381619e+03
1.070000e-06	3.384673e-06	2.158302e-08	2.460468e+01	1.416107e+03
1.080000e-06	3.508071e-06	2.209134e-08	2.550171e+01	1.448592e+03
1.090000e-06	3.630149e-06	2.256574e-08	2.638915e+01	1.479421e+03
1.100000e-06	3.750955e-06	2.301073e-08	2.726735e+01	1.508817e+03
1.110000e-06	3.870422e-06	2.342869e-08	2.813581e+01	1.536890e+03
1.120000e-06	3.988508e-06	2.382174e-08	2.899422e+01	1.563655e+03
1.130000e-06	4.105161e-06	2.419350e-08	2.984222e+01	1.589066e+03
1.140000e-06	4.220162e-06	2.454442e-08	3.067822e+01	1.613055e+03
1.150000e-06	4.333548e-06	2.487712e-08	3.150247e+01	1.635560e+03
1.160000e-06	4.445326e-06	2.519103e-08	3.231504e+01	1.656557e+03
1.170000e-06	4.555489e-06	2.548753e-08	3.311586e+01	1.676075e+03
1.180000e-06	4.664199e-06	2.576655e-08	3.390612e+01	1.694204e+03
1.190000e-06	4.771280e-06	2.602957e-08	3.468453e+01	1.711085e+03
1.200000e-06	4.876573e-06	2.627989e-08	3.544996e+01	1.726899e+03
1.210000e-06	4.980058e-06	2.651833e-08	3.620224e+01	1.741842e+03
1.220000e-06	5.081768e-06	2.674642e-08	3.694161e+01	1.756104e+03
1.230000e-06	5.181698e-06	2.696300e-08	3.766804e+01	1.769840e+03
1.240000e-06	5.279669e-06	2.716799e-08	3.838024e+01	1.783163e+03
1.250000e-06	5.375583e-06	2.736060e-08	3.907748e+01	1.796125e+03
1.260000e-06	5.469554e-06	2.754218e-08	3.976060e+01	1.808725e+03
1.270000e-06	5.561682e-06	2.771509e-08	4.043032e+01	1.820912e+03
1.280000e-06	5.651760e-06	2.788299e-08	4.108513e+01	1.832606e+03
1.290000e-06	5.739667e-06	2.804389e-08	4.172417e+01	1.843712e+03
1.300000e-06	5.825524e-06	2.819654e-08	4.234830e+01	1.854145e+03
1.310000e-06	5.909440e-06	2.834179e-08	4.295832e+01	1.863846e+03
1.320000e-06	5.991320e-06	2.848142e-08	4.355354e+01	1.872796e+03
1.330000e-06	6.070968e-06	2.861491e-08	4.413254e+01	1.881017e+03
1.340000e-06	6.148327e-06	2.873917e-08	4.469490e+01	1.888576e+03
1.350000e-06	6.223314e-06	2.885356e-08	4.524001e+01	1.895572e+03
1.360000e-06	6.295901e-06	2.895931e-08	4.576767e+01	1.902122e+03
1.370000e-06	6.366219e-06	2.905950e-08	4.627885e+01	1.908346e+03
1.380000e-06	6.434327e-06	2.915512e-08	4.677396e+01	1.914348e+03
1.390000e-06	6.500155e-06	2.924674e-08	4.725249e+01	1.920202e+03
1.400000e-06	6.563645e-06	2.933371e-08	4.771403e+01	1.925947e+03
1.410000e-06	6.624922e-06	2.941529e-08	4.815948e+01	1.931580e+03
1.420000e-06	6.683978e-06	2.949261e-08	4.858878e+01	1.937063e+03
1.430000e-06	6.740608e-06	2.956553e-08	4.900045e+01	1.942334e+03
1.440000e-06	6.794791e-06	2.963288e-08	4.939433e+01	1.947315e+03
1.450000e-06	6.846305e-06	2.969635e-08	4.976881e+01	1.951934e+03
1.460000e-06	6.894942e-06	2.975727e-08	5.012237e+01	1.956134e+03
1.470000e-06	6.940994e-06	2.981569e-08	5.045714e+01	1.959884e+03
1.480000e-06	6.984712e-06	2.987087e-08	5.077495e+01	1.963186e+03
1.490000e-06	7.025922e-06	2.992180e-08	5.107453e+01	1.966075e+03
1.500000e-06	7.064579e-06	2.996882e-08	5.135554e+01	1.968609e+03
1.510000e-06	7.100899e-06	3.001129e-08	5.161956e+01	1.970864e+03
1.520000e-06	7.134675e-06	3.004860e-08	5.186510e+01	1.972919e+03
1.530000e-06	7.165796e-06	3.008071e-08	5.209133e+01	1.974844e+03
1.540000e-06	7.194508e-06	3.010943e-08	5.230005e+01	1.976688e+03
1.550000e-06	7.220621e-06	3.013465e-08	5.248988e+01	1.978471e+03
1.560000e-06	7.244004e-06	3.015698e-08	5.265985e+01	1.980186e+03
1.570000e-06	7.264901e-06	3.017614e-08	5.281177e+01	1.981797e+03
1.580000e-06	7.283319e-06	3.019218e-08	5.294566e+01	1.983247e+03
1.590000e-06	7.298993e-06	3.020490e-08	5.305960e+01	1.984474e+03
1.600000e-06	7.311825e-06	3.021370e-08	5.315288e+01	1.985415e+03
1.610000e-06	7.321755e-06	3.022053e-08	5.322507e+01	1.986023e+03
1.620000e-06	7.328891e-06	3.022634e-08	5.327694e+01	1.986275e+03
1.630000e-06	7.333518e-06	3.023040e-08	5.331057e+01	1.986174e+03
1.640000e-06	7.335530e-06	3.023223e-08	5.332520e+01	1.985750e+03
1.650000e-06	7.334896e-06	3.023178e-08	5.332059e+01	1.985059e+03
1.660000e-06	7.331866e-06	3.021769e-08	5.329856e+01	1.984166e+03
1.670000e-06	7.326425e-06	3.020636e-08	5.325901e+01	1.983142e+03
1.680000e-06	7.318482e-06	3.019672e-08	5.320127e+01	1.982049e+03
1.690000e-06	7.308122e-06	3.018321e-08	5.312596e+01	1.980932e+03
1.700000e-06	7.295160e-06	3.016695e-08	5.303173e+01	1.979808e+03
1.710000e-06	7.279654e-06	3.015375e-08	5.291901e+01	1.978672e+03
1.720000e-06	7.261943e-06	3.014938e-08	5.279026e+01	1.977491e+03
1.730000e-06	7.242121e-06	3.008610e-08	5.264617e+01	1.976215e+03
1.740000e-06	7.219684e-06	2.997453e-08	5.248306e+01	1.974786e+03
1.750000e-06	7.193876e-06	3.000156e-08	5.229545e+01	1.973147e+03
1.760000e-06	7.164687e-06	3.001574e-08	5.208326e+01	1.971253e+03
1.770000e-06	7.132807e-06	2.995065e-08	5.185151e+01	1.969080e+03
1.780000e-06	7.098880e-06	2.996433e-08	5.160488e+01	1.966625e+03
1.790000e-06	7.063297e-06	3.001709e-08	5.134622e+01	1.963907e+03
1.800000e-06	7.026095e-06	2.982575e-08	5.107578e+01	1.960966e+03
1.810000e-06	6.986509e-06	2.983178e-08	5.078801e+01	1.957848e+03
1.820000e-06	6.944293e-06	2.988817e-08	5.048113e+01	1.954597e+03
1.830000e-06	6.899874e-06	2.972051e-08	5.015823e+01	1.951250e+03
1.840000e-06	6.852925e-06	2.982328e-08	4.981693e+01	1.947820e+03
1.850000e-06	6.803329e-06	2.967174e-08	4.945640e+01	1.944297e+03
1.860000e-06	6.751063e-06	2.961495e-08	4.907645e+01	1.940644e+03
1.870000e-06	6.695981e-06	2.964224e-08	4.867603e+01	1.936804e+03
1.880000e-06	6.638504e-06	2.943606e-08	4.825821e+01	1.932704e+03
1.890000e-06	6.578566e-06	2.944860e-08	4.782249e+01	1.928270e+03
1.900000e-06	6.516025e-06	2.932225e-08	4.736786e+01	1.923436e+03
1.910000e-06	6.451002e-06	2.924421e-08	4.689518e+01	1.918158e+03
1.920000e-06	6.383526e-06	2.918766e-08	4.640466e+01	1.912414e+03
1.930000e-06	6.313660e-06	2.906556e-08	4.589678e+01	1.906218e+03
1.940000e-06	6.241361e-06	2.905277e-08	4.537120e+01	1.899609e+03
1.950000e-06	6.166665e-06	2.886156e-08	4.482820e+01	1.892649e+03
1.960000e-06	6.089434e-06	2.878888e-08	4.426678e+01	1.885409e+03
1.970000e-06	6.009753e-06	2.867007e-08	4.368754e+01	1.877959e+03
1.980000e-06	5.927975e-06	2.855407e-08	4.309306e+01	1.870352e+03
1.990000e-06	5.844134e-06	2.848068e-08	4.248358e+01	1.862614e+03
2.000000e-06	5.758177e-06	2.831886e-08	4.185872e+01	1.854738e+03
2.010000e-06	5.670072e-06	2.822849e-08	4.121825e+01	1.846680e+03
2.020000e-06	5.579977e-06	2.805833e-08	4.056331e+01	1.838366e+03
2.030000e-06	5.487980e-06	2.793268e-08	3.989455e+01	1.829700e+03
2.040000e-06	5.393996e-06	2.778805e-08	3.921133e+01	1.820580e+03
2.050000e-06	5.298019e-06	2.764330e-08	3.851364e+01	1.810910e+03
2.060000e-06	5.200265e-06	2.748688e-08	3.780302e+01	1.800614e+03
2.070000e-06	5.100771e-06	2.730453e-08	3.707975e+01	1.789649e+03
2.080000e-06	4.999461e-06	2.714902e-08	3.634329e+01	1.778012e+03
2.090000e-06	4.896314e-06	2.696052e-08	3.559346e+01	1.765733e+03
2.100000e-06	4.791322e-06	2.678775e-08	3.483023e+01	1.752871e+03
2.110000e-06	4.684726e-06	2.658757e-08	3.405534e+01	1.739504e+03
2.120000e-06	4.576634e-06	2.638657e-08	3.326957e+01	1.725705e+03
2.130000e-06	4.467015e-06	2.616493e-08	3.247270e+01	1.711532e+03
2.140000e-06	4.355676e-06	2.594614e-08	3.166333e+01	1.697006e+03
2.150000e-06	4.242630e-06	2.571944e-08	3.084154e+01	1.682108e+03
2.160000e-06	4.127891e-06	2.548013e-08	3.000746e+01	1.666767e+03
2.170000e-06	4.011449e-06	2.523129e-08	2.916099e+01	1.650873e+03
2.180000e-06	3.893472e-06	2.496540e-08	2.830336e+01	1.634278e+03
2.190000e-06	3.773880e-06	2.469507e-08	2.743400e+01	1.616823e+03
2.200000e-06	3.652853e-06	2.440849e-08	2.655420e+01	1.598351e+03
2.210000e-06	3.530527e-06	2.411502e-08	2.566496e+01	1.578730e+03
2.220000e-06	3.406848e-06	2.380135e-08	2.476588e+01	1.557866e+03
2.230000e-06	3.281945e-06	2.347558e-08	2.385790e+01	1.535714e+03
2.240000e-06	3.155912e-06	2.312739e-08	2.294172e+01	1.512279e+03
2.250000e-06	3.028641e-06	2.276622e-08	2.201652e+01	1.487601e+03
2.260000e-06	2.900142e-06	2.238423e-08	2.108241e+01	1.461741e+03
2.270000e-06	2.770636e-06	2.198302e-08	2.014097e+01	1.434756e+03
2.280000e-06	2.640109e-06	2.156073e-08	1.919212e+01	1.406667e+03
2.290000e-06	2.508530e-06	2.111594e-08	1.823561e+01	1.377438e+03
2.300000e-06	2.376066e-06	2.064670e-08	1.727267e+01	1.346950e+03
2.310000e-06	2.242949e-06	2.014866e-08	1.630499e+01	1.314997e+03
2.320000e-06	2.109212e-06	1.961915e-08	1.533279e+01	1.281282e+03
2.330000e-06	1.974757e-06	1.905062e-08	1.435538e+01	1.245436e+03
2.340000e-06	1.839485e-06	1.844770e-08	1.337203e+01	1.207045e+03
2.350000e-06	1.703450e-06	1.780810e-08	1.238313e+01	1.165687e+03
2.360000e-06	1.566843e-06	1.713067e-08	1.139007e+01	1.120976e+03
2.370000e-06	1.429763e-06	1.640567e-08	1.039358e+01	1.072602e+03
2.380000e-06	1.292249e-06	1.562777e-08	9.393925e+00	1.020367e+03
2.390000e-06	1.154320e-06	1.479377e-08	8.391261e+00	9.642074e+02
2.400000e-06	1.015971e-06	1.390148e-08	7.385543e+00	9.042076e+02
2.410000e-06	8.772148e-07	1.295102e-08	6.376861e+00	8.405877e+02
2.420000e-06	7.381278e-07	1.194230e-08	5.365776e+00	7.736820e+02
2.430000e-06	5.987293e-07	1.087919e-08	4.352427e+00	7.039001e+02
2.440000e-06	4.590886e-07	9.764750e-09	3.337317e+00	6.316816e+02
2.450000e-06	3.192788e-07	8.603018e-09	2.320978e+00	5.574477e+02
2.460000e-06	1.793346e-07	7.404932e-09	1.303662e+00	4.815566e+02
2.470000e-06	3.931911e-08	6.187245e-09	2.858279e-01	4.042711e+02
2.480000e-06	-1.007371e-07	4.965973e-09	-7.323021e-01	3.257404e+02
2.490000e-06	-2.407769e-07	3.743271e-09	-1.750313e+00	2.460022e+02
2.500000e-06	-3.807528e-07	2.516843e-09	-2.767860e+00	1.650023e+02
2.510000e-06	-5.206218e-07	1.286450e-09	-3.784630e+00	8.263244e+01
2.520000e-06	-6.603176e-07	4.305885e-11	-4.800140e+00	-1.220910e+00
2.530000e-06	-7.997437e-07	-1.224138e-09	-5.813689e+00	-8.662159e+01
2.540000e-06	-9.388471e-07	-2.524217e-09	-6.824893e+00	-1.735311e+02
2.550000e-06	-1.077624e-06	-3.858240e-09	-7.833726e+00	-2.617655e+02
2.560000e-06	-1.215979e-06	-5.227123e-09	-8.839485e+00	-3.509683e+02
2.570000e-06	-1.353796e-06	-6.627090e-09	-9.841337e+00	-4.406034e+02
2.580000e-06	-1.491137e-06	-8.036100e-09	-1.083973e+01	-5.299711e+02
2.590000e-06	-1.628040e-06	-9.426900e-09	-1.183494e+01	-6.182449e+02
2.600000e-06	-1.764346e-06	-1.077584e-08	-1.282581e+01	-7.045259e+02
2.610000e-06	-1.899943e-06	-1.206677e-08	-1.381152e+01	-7.879092e+02
2.620000e-06	-2.034676e-06	-1.328241e-08	-1.479095e+01	-8.675530e+02
2.630000e-06	-2.168509e-06	-1.441297e-08	-1.576385e+01	-9.427447e+02
2.640000e-06	-2.301618e-06	-1.545899e-08	-1.673147e+01	-1.012954e+03
2.650000e-06	-2.433970e-06	-1.642441e-08	-1.769360e+01	-1.077871e+03
2.660000e-06	-2.565343e-06	-1.731416e-08	-1.864861e+01	-1.137415e+03
2.670000e-06	-2.695677e-06	-1.813399e-08	-1.959606e+01	-1.191732e+03
2.680000e-06	-2.825113e-06	-1.889040e-08	-2.053699e+01	-1.241159e+03
2.690000e-06	-2.953633e-06	-1.958970e-08	-2.147126e+01	-1.286182e+03
2.700000e-06	-3.080982e-06	-2.023925e-08	-2.239702e+01	-1.327375e+03
2.710000e-06	-3.207106e-06	-2.084495e-08	-2.331386e+01	-1.365340e+03
2.720000e-06	-3.332187e-06	-2.141195e-08	-2.422314e+01	-1.400651e+03
2.730000e-06	-3.456084e-06	-2.193921e-08	-2.512379e+01	-1.433807e+03
2.740000e-06	-3.578616e-06	-2.242925e-08	-2.601453e+01	-1.465197e+03
2.750000e-06	-3.699936e-06	-2.288756e-08	-2.689646e+01	-1.495088e+03
2.760000e-06	-3.819943e-06	-2.331501e-08	-2.776885e+01	-1.523629e+03
2.770000e-06	-3.938445e-06	-2.371664e-08	-2.863029e+01	-1.550865e+03
2.780000e-06	-4.055540e-06	-2.409870e-08	-2.948151e+01	-1.576769e+03
2.790000e-06	-4.171061e-06	-2.446149e-08	-3.032128e+01	-1.601275e+03
2.800000e-06	-4.284767e-06	-2.480255e-08	-3.114786e+01	-1.624317e+03
2.810000e-06	-4.396762e-06	-2.512340e-08	-3.196200e+01	-1.645853e+03
2.820000e-06	-4.507097e-06	-2.542669e-08	-3.276408e+01	-1.665894e+03
2.830000e-06	-4.615866e-06	-2.571440e-08	-3.355477e+01	-1.684507e+03
2.840000e-06	-4.723189e-06	-2.598753e-08	-3.433494e+01	-1.701815e+03
2.850000e-06	-4.828961e-06	-2.624450e-08	-3.510385e+01	-1.717990e+03
2.860000e-06	-4.932983e-06	-2.648655e-08	-3.586003e+01	-1.733223e+03
2.870000e-06	-5.035113e-06	-2.671762e-08	-3.660245e+01	-1.747709e+03
2.880000e-06	-5.135353e-06	-2.694113e-08	-3.733114e+01	-1.761619e+03
2.890000e-06	-5.233774e-06	-2.715594e-08	-3.804661e+01	-1.775082e+03
2.900000e-06	-5.330376e-06	-2.735883e-08	-3.874885e+01	-1.788171e+03
2.910000e-06	-5.425025e-06	-2.755036e-08	-3.943690e+01	-1.800905e+03
2.920000e-06	-5.517675e-06	-2.773165e-08	-4.011041e+01	-1.813250e+03
2.930000e-06	-5.608391e-06	-2.790221e-08	-4.076987e+01	-1.825132e+03
2.940000e-06	-5.697143e-06	-2.806284e-08	-4.141504e+01	-1.836460e+03
