# Temperatura_=_54.05
# Concentracion g/m^3_=_28370.0
# C_Vs_to_Am_M_A/Vsm_=_65563218390.804596
# pendiente_HvsI_1/m_=_3716.3
# ordenada_HvsI_A/m_=_1297.0
# frecuencia_Hz_=_302374.86247685365

Tiempo_(s)	Campo_(V.s)	Magnetizacion_(V.s)	Campo_(kA/m)	Magnetizacion_(A/m)
0.000000e+00	-7.322386e-06	-3.019024e-08	-5.318493e+01	-1.976567e+03
1.000000e-08	-7.318222e-06	-3.018451e-08	-5.315468e+01	-1.975625e+03
2.000000e-08	-7.311716e-06	-3.017033e-08	-5.310743e+01	-1.974581e+03
3.000000e-08	-7.302818e-06	-3.015528e-08	-5.304280e+01	-1.973488e+03
4.000000e-08	-7.291304e-06	-3.013862e-08	-5.295916e+01	-1.972381e+03
5.000000e-08	-7.277002e-06	-3.011867e-08	-5.285529e+01	-1.971264e+03
6.000000e-08	-7.260065e-06	-3.009221e-08	-5.273227e+01	-1.970121e+03
7.000000e-08	-7.240982e-06	-3.005989e-08	-5.259366e+01	-1.968910e+03
8.000000e-08	-7.219853e-06	-3.005046e-08	-5.244020e+01	-1.967578e+03
9.000000e-08	-7.196117e-06	-3.008118e-08	-5.226779e+01	-1.966068e+03
1.000000e-07	-7.169323e-06	-3.002652e-08	-5.207318e+01	-1.964327e+03
1.100000e-07	-7.139676e-06	-2.994124e-08	-5.185785e+01	-1.962321e+03
1.200000e-07	-7.107551e-06	-2.990228e-08	-5.162451e+01	-1.960036e+03
1.300000e-07	-7.072945e-06	-2.986264e-08	-5.137315e+01	-1.957482e+03
1.400000e-07	-7.036246e-06	-2.978064e-08	-5.110659e+01	-1.954687e+03
1.500000e-07	-6.997808e-06	-2.973549e-08	-5.082741e+01	-1.951697e+03
1.600000e-07	-6.957132e-06	-2.978796e-08	-5.053196e+01	-1.948560e+03
1.700000e-07	-6.913957e-06	-2.966371e-08	-5.021837e+01	-1.945317e+03
1.800000e-07	-6.868447e-06	-2.960064e-08	-4.988782e+01	-1.941994e+03
1.900000e-07	-6.820303e-06	-2.959943e-08	-4.953813e+01	-1.938596e+03
2.000000e-07	-6.769245e-06	-2.948865e-08	-4.916728e+01	-1.935097e+03
2.100000e-07	-6.715545e-06	-2.946533e-08	-4.877724e+01	-1.931450e+03
2.200000e-07	-6.659381e-06	-2.936996e-08	-4.836930e+01	-1.927587e+03
2.300000e-07	-6.600665e-06	-2.927943e-08	-4.794283e+01	-1.923432e+03
2.400000e-07	-6.539503e-06	-2.923933e-08	-4.749859e+01	-1.918910e+03
2.500000e-07	-6.476012e-06	-2.914271e-08	-4.703743e+01	-1.913961e+03
2.600000e-07	-6.410026e-06	-2.906737e-08	-4.655815e+01	-1.908549e+03
2.700000e-07	-6.341588e-06	-2.898797e-08	-4.606106e+01	-1.902668e+03
2.800000e-07	-6.270883e-06	-2.889795e-08	-4.554751e+01	-1.896342e+03
2.900000e-07	-6.197786e-06	-2.878043e-08	-4.501658e+01	-1.889624e+03
3.000000e-07	-6.122105e-06	-2.867934e-08	-4.446688e+01	-1.882581e+03
3.100000e-07	-6.043791e-06	-2.859867e-08	-4.389807e+01	-1.875288e+03
3.200000e-07	-5.963032e-06	-2.847081e-08	-4.331148e+01	-1.867813e+03
3.300000e-07	-5.880200e-06	-2.836946e-08	-4.270985e+01	-1.860200e+03
3.400000e-07	-5.795422e-06	-2.823697e-08	-4.209408e+01	-1.852462e+03
3.500000e-07	-5.708748e-06	-2.811236e-08	-4.146454e+01	-1.844577e+03
3.600000e-07	-5.620083e-06	-2.799582e-08	-4.082053e+01	-1.836489e+03
3.700000e-07	-5.529249e-06	-2.785340e-08	-4.016077e+01	-1.828112e+03
3.800000e-07	-5.436392e-06	-2.771600e-08	-3.948632e+01	-1.819344e+03
3.900000e-07	-5.341668e-06	-2.756225e-08	-3.879832e+01	-1.810080e+03
4.000000e-07	-5.245077e-06	-2.740757e-08	-3.809674e+01	-1.800230e+03
4.100000e-07	-5.146607e-06	-2.723818e-08	-3.738152e+01	-1.789728e+03
4.200000e-07	-5.046284e-06	-2.708070e-08	-3.665284e+01	-1.778547e+03
4.300000e-07	-4.944192e-06	-2.690333e-08	-3.591131e+01	-1.766695e+03
4.400000e-07	-4.840390e-06	-2.671327e-08	-3.515736e+01	-1.754217e+03
4.500000e-07	-4.734863e-06	-2.652416e-08	-3.439088e+01	-1.741183e+03
4.600000e-07	-4.627549e-06	-2.632731e-08	-3.361143e+01	-1.727670e+03
4.700000e-07	-4.518595e-06	-2.612344e-08	-3.282006e+01	-1.713750e+03
4.800000e-07	-4.408171e-06	-2.590788e-08	-3.201801e+01	-1.699470e+03
4.900000e-07	-4.296133e-06	-2.568705e-08	-3.120424e+01	-1.684837e+03
5.000000e-07	-4.182381e-06	-2.544557e-08	-3.037803e+01	-1.669814e+03
5.100000e-07	-4.066856e-06	-2.519440e-08	-2.953893e+01	-1.654312e+03
5.200000e-07	-3.949665e-06	-2.493378e-08	-2.868773e+01	-1.638204e+03
5.300000e-07	-3.831084e-06	-2.466726e-08	-2.782644e+01	-1.621337e+03
5.400000e-07	-3.711110e-06	-2.438635e-08	-2.695503e+01	-1.603546e+03
5.500000e-07	-3.589757e-06	-2.409011e-08	-2.607360e+01	-1.584682e+03
5.600000e-07	-3.467037e-06	-2.378302e-08	-2.518225e+01	-1.564623e+03
5.700000e-07	-3.342906e-06	-2.346015e-08	-2.428064e+01	-1.543294e+03
5.800000e-07	-3.217523e-06	-2.312168e-08	-2.336994e+01	-1.520666e+03
5.900000e-07	-3.091030e-06	-2.276554e-08	-2.245118e+01	-1.496759e+03
6.000000e-07	-2.963423e-06	-2.239386e-08	-2.152433e+01	-1.471624e+03
6.100000e-07	-2.834649e-06	-2.200184e-08	-2.058900e+01	-1.445322e+03
6.200000e-07	-2.704847e-06	-2.159246e-08	-1.964621e+01	-1.417896e+03
6.300000e-07	-2.574071e-06	-2.115941e-08	-1.869633e+01	-1.389350e+03
6.400000e-07	-2.442194e-06	-2.070207e-08	-1.773847e+01	-1.359613e+03
6.500000e-07	-2.309393e-06	-2.021753e-08	-1.677389e+01	-1.328534e+03
6.600000e-07	-2.175976e-06	-1.970202e-08	-1.580484e+01	-1.295867e+03
6.700000e-07	-2.041931e-06	-1.915615e-08	-1.483123e+01	-1.261285e+03
6.800000e-07	-1.907177e-06	-1.857645e-08	-1.385246e+01	-1.224397e+03
6.900000e-07	-1.771720e-06	-1.796094e-08	-1.286859e+01	-1.184780e+03
7.000000e-07	-1.635534e-06	-1.730282e-08	-1.187943e+01	-1.142025e+03
7.100000e-07	-1.498671e-06	-1.659931e-08	-1.088535e+01	-1.095771e+03
7.200000e-07	-1.361302e-06	-1.584597e-08	-9.887589e+00	-1.045753e+03
7.300000e-07	-1.223515e-06	-1.504079e-08	-8.886795e+00	-9.918307e+02
7.400000e-07	-1.085315e-06	-1.418073e-08	-7.883007e+00	-9.340052e+02
7.500000e-07	-9.467635e-07	-1.326533e-08	-6.876659e+00	-8.724246e+02
7.600000e-07	-8.079105e-07	-1.229389e-08	-5.868123e+00	-8.073673e+02
7.700000e-07	-6.686957e-07	-1.126304e-08	-4.856959e+00	-7.392123e+02
7.800000e-07	-5.290996e-07	-1.017566e-08	-3.843026e+00	-6.683963e+02
7.900000e-07	-3.892550e-07	-9.039059e-09	-2.827289e+00	-5.953662e+02
8.000000e-07	-2.492204e-07	-7.865631e-09	-1.810170e+00	-5.205300e+02
8.100000e-07	-1.090371e-07	-6.667638e-09	-7.919724e-01	-4.442161e+02
8.200000e-07	3.119900e-08	-5.458284e-09	2.266087e-01	-3.666454e+02
8.300000e-07	1.714800e-07	-4.245815e-09	1.245516e+00	-2.879203e+02
8.400000e-07	3.117590e-07	-3.034564e-09	2.264410e+00	-2.080340e+02
8.500000e-07	4.518793e-07	-1.822644e-09	3.282150e+00	-1.268979e+02
8.600000e-07	5.918448e-07	-6.014574e-10	4.298766e+00	-4.438460e+01
8.700000e-07	7.316122e-07	6.381598e-10	5.313943e+00	3.961913e+01
8.800000e-07	8.710723e-07	1.907744e-09	6.326888e+00	1.251566e+02
8.900000e-07	1.010179e-06	3.211868e-09	7.337264e+00	2.121507e+02
9.000000e-07	1.148815e-06	4.550635e-09	8.344224e+00	3.003651e+02
9.100000e-07	1.286984e-06	5.921527e-09	9.347791e+00	3.893842e+02
9.200000e-07	1.424760e-06	7.313138e-09	1.034851e+01	4.786144e+02
9.300000e-07	1.562080e-06	8.702699e-09	1.134590e+01	5.673076e+02
9.400000e-07	1.698777e-06	1.006699e-08	1.233878e+01	6.546060e+02
9.500000e-07	1.834745e-06	1.138533e-08	1.332637e+01	7.396012e+02
9.600000e-07	1.969993e-06	1.263486e-08	1.430871e+01	8.214034e+02
9.700000e-07	2.104454e-06	1.380124e-08	1.528535e+01	8.992109e+02
9.800000e-07	2.238092e-06	1.488117e-08	1.625601e+01	9.723721e+02
9.900000e-07	2.371009e-06	1.587855e-08	1.722142e+01	1.040434e+03
1.000000e-06	2.503119e-06	1.679948e-08	1.818099e+01	1.103168e+03
1.010000e-06	2.634277e-06	1.764921e-08	1.913363e+01	1.160580e+03
1.020000e-06	2.764354e-06	1.843480e-08	2.007843e+01	1.212890e+03
1.030000e-06	2.893312e-06	1.915988e-08	2.101509e+01	1.260493e+03
1.040000e-06	3.021198e-06	1.982974e-08	2.194397e+01	1.303913e+03
1.050000e-06	3.147974e-06	2.045167e-08	2.286479e+01	1.343741e+03
1.060000e-06	3.273652e-06	2.103036e-08	2.377762e+01	1.380572e+03
1.070000e-06	3.398286e-06	2.157060e-08	2.468288e+01	1.414953e+03
1.080000e-06	3.521731e-06	2.207378e-08	2.557950e+01	1.447344e+03
1.090000e-06	3.643862e-06	2.254380e-08	2.646658e+01	1.478087e+03
1.100000e-06	3.764687e-06	2.298682e-08	2.734417e+01	1.507401e+03
1.110000e-06	3.884135e-06	2.340399e-08	2.821177e+01	1.535391e+03
1.120000e-06	4.002177e-06	2.379595e-08	2.906915e+01	1.562070e+03
1.130000e-06	4.118769e-06	2.416728e-08	2.991599e+01	1.587392e+03
1.140000e-06	4.233777e-06	2.451885e-08	3.075133e+01	1.611287e+03
1.150000e-06	4.347159e-06	2.485079e-08	3.157486e+01	1.633693e+03
1.160000e-06	4.458925e-06	2.516230e-08	3.238666e+01	1.654588e+03
1.170000e-06	4.569079e-06	2.545473e-08	3.318674e+01	1.674004e+03
1.180000e-06	4.677733e-06	2.573146e-08	3.397593e+01	1.692030e+03
1.190000e-06	4.784759e-06	2.599407e-08	3.475329e+01	1.708811e+03
1.200000e-06	4.889957e-06	2.624293e-08	3.551738e+01	1.724529e+03
1.210000e-06	4.993337e-06	2.647932e-08	3.626827e+01	1.739382e+03
1.220000e-06	5.094944e-06	2.670549e-08	3.700627e+01	1.753558e+03
1.230000e-06	5.194745e-06	2.692170e-08	3.773116e+01	1.767213e+03
1.240000e-06	5.292611e-06	2.712558e-08	3.844200e+01	1.780459e+03
1.250000e-06	5.388464e-06	2.731682e-08	3.913821e+01	1.793346e+03
1.260000e-06	5.482390e-06	2.749826e-08	3.982042e+01	1.805873e+03
1.270000e-06	5.574471e-06	2.767012e-08	4.048924e+01	1.817987e+03
1.280000e-06	5.664509e-06	2.783429e-08	4.114322e+01	1.829607e+03
1.290000e-06	5.752353e-06	2.799242e-08	4.178125e+01	1.840638e+03
1.300000e-06	5.838161e-06	2.814562e-08	4.240451e+01	1.850996e+03
1.310000e-06	5.922004e-06	2.829350e-08	4.301348e+01	1.860622e+03
1.320000e-06	6.003732e-06	2.843383e-08	4.360710e+01	1.869497e+03
1.330000e-06	6.083238e-06	2.856492e-08	4.418459e+01	1.877645e+03
1.340000e-06	6.160497e-06	2.868617e-08	4.474574e+01	1.885134e+03
1.350000e-06	6.235349e-06	2.879959e-08	4.528942e+01	1.892064e+03
1.360000e-06	6.307779e-06	2.890482e-08	4.581550e+01	1.898553e+03
1.370000e-06	6.378000e-06	2.900410e-08	4.632553e+01	1.904721e+03
1.380000e-06	6.446043e-06	2.910090e-08	4.681976e+01	1.910671e+03
1.390000e-06	6.511711e-06	2.919267e-08	4.729672e+01	1.916479e+03
1.400000e-06	6.574982e-06	2.928035e-08	4.775628e+01	1.922181e+03
1.410000e-06	6.636056e-06	2.936139e-08	4.819988e+01	1.927775e+03
1.420000e-06	6.694868e-06	2.943678e-08	4.862705e+01	1.933223e+03
1.430000e-06	6.751302e-06	2.950965e-08	4.903696e+01	1.938461e+03
1.440000e-06	6.805305e-06	2.957697e-08	4.942919e+01	1.943411e+03
1.450000e-06	6.856565e-06	2.964010e-08	4.980151e+01	1.948001e+03
1.460000e-06	6.904968e-06	2.969950e-08	5.015308e+01	1.952174e+03
1.470000e-06	6.950855e-06	2.975706e-08	5.048638e+01	1.955898e+03
1.480000e-06	6.994392e-06	2.981263e-08	5.080259e+01	1.959174e+03
1.490000e-06	7.035393e-06	2.986375e-08	5.110040e+01	1.962037e+03
1.500000e-06	7.073863e-06	2.991039e-08	5.137982e+01	1.964543e+03
1.510000e-06	7.109936e-06	2.995188e-08	5.164183e+01	1.966768e+03
1.520000e-06	7.143453e-06	2.998837e-08	5.188528e+01	1.968791e+03
1.530000e-06	7.174368e-06	3.001994e-08	5.210982e+01	1.970678e+03
1.540000e-06	7.202915e-06	3.004804e-08	5.231717e+01	1.972480e+03
1.550000e-06	7.228882e-06	3.007376e-08	5.250578e+01	1.974216e+03
1.560000e-06	7.252063e-06	3.009628e-08	5.267415e+01	1.975879e+03
1.570000e-06	7.272766e-06	3.011455e-08	5.282452e+01	1.977435e+03
1.580000e-06	7.290959e-06	3.012963e-08	5.295666e+01	1.978830e+03
1.590000e-06	7.306382e-06	3.014028e-08	5.306869e+01	1.980001e+03
1.600000e-06	7.318960e-06	3.014772e-08	5.316005e+01	1.980890e+03
1.610000e-06	7.328640e-06	3.015461e-08	5.323035e+01	1.981453e+03
1.620000e-06	7.335547e-06	3.016007e-08	5.328052e+01	1.981668e+03
1.630000e-06	7.339922e-06	3.016332e-08	5.331230e+01	1.981539e+03
1.640000e-06	7.341699e-06	3.016514e-08	5.332520e+01	1.981098e+03
1.650000e-06	7.340863e-06	3.016364e-08	5.331913e+01	1.980399e+03
1.660000e-06	7.337620e-06	3.015193e-08	5.329557e+01	1.979507e+03
1.670000e-06	7.331921e-06	3.014087e-08	5.325418e+01	1.978491e+03
1.680000e-06	7.323707e-06	3.012901e-08	5.319452e+01	1.977410e+03
1.690000e-06	7.313110e-06	3.011549e-08	5.311755e+01	1.976304e+03
1.700000e-06	7.299958e-06	3.010069e-08	5.302203e+01	1.975190e+03
1.710000e-06	7.284234e-06	3.008822e-08	5.290782e+01	1.974058e+03
1.720000e-06	7.266289e-06	3.007907e-08	5.277748e+01	1.972876e+03
1.730000e-06	7.246230e-06	3.001312e-08	5.263178e+01	1.971593e+03
1.740000e-06	7.223504e-06	2.992606e-08	5.246671e+01	1.970151e+03
1.750000e-06	7.197408e-06	2.994527e-08	5.227717e+01	1.968496e+03
1.760000e-06	7.167959e-06	2.994346e-08	5.206327e+01	1.966586e+03
1.770000e-06	7.135861e-06	2.988804e-08	5.183013e+01	1.964400e+03
1.780000e-06	7.101756e-06	2.990029e-08	5.158242e+01	1.961937e+03
1.790000e-06	7.066033e-06	2.991598e-08	5.132295e+01	1.959223e+03
1.800000e-06	7.028600e-06	2.977442e-08	5.105106e+01	1.956296e+03
1.810000e-06	6.988672e-06	2.979131e-08	5.076105e+01	1.953204e+03
1.820000e-06	6.946191e-06	2.979620e-08	5.045250e+01	1.949993e+03
1.830000e-06	6.901541e-06	2.968404e-08	5.012819e+01	1.946696e+03
1.840000e-06	6.854372e-06	2.973383e-08	4.978558e+01	1.943325e+03
1.850000e-06	6.804539e-06	2.957868e-08	4.942363e+01	1.939865e+03
1.860000e-06	6.751970e-06	2.954380e-08	4.904181e+01	1.936276e+03
1.870000e-06	6.696654e-06	2.953401e-08	4.864003e+01	1.932498e+03
1.880000e-06	6.638978e-06	2.937955e-08	4.822111e+01	1.928454e+03
1.890000e-06	6.578741e-06	2.938012e-08	4.778358e+01	1.924070e+03
1.900000e-06	6.515872e-06	2.925348e-08	4.732695e+01	1.919278e+03
1.910000e-06	6.450613e-06	2.918086e-08	4.685295e+01	1.914032e+03
1.920000e-06	6.382973e-06	2.911066e-08	4.636166e+01	1.908316e+03
1.930000e-06	6.312921e-06	2.900973e-08	4.585285e+01	1.902143e+03
1.940000e-06	6.240417e-06	2.897257e-08	4.532623e+01	1.895556e+03
1.950000e-06	6.165450e-06	2.880607e-08	4.478171e+01	1.888619e+03
1.960000e-06	6.087882e-06	2.873130e-08	4.421831e+01	1.881406e+03
1.970000e-06	6.007882e-06	2.859989e-08	4.363725e+01	1.873988e+03
1.980000e-06	5.925801e-06	2.849424e-08	4.304106e+01	1.866419e+03
1.990000e-06	5.841715e-06	2.840907e-08	4.243032e+01	1.858724e+03
2.000000e-06	5.755530e-06	2.826254e-08	4.180433e+01	1.850896e+03
2.010000e-06	5.667163e-06	2.816220e-08	4.116249e+01	1.842888e+03
2.020000e-06	5.576789e-06	2.799267e-08	4.050608e+01	1.834623e+03
2.030000e-06	5.484485e-06	2.786630e-08	3.983564e+01	1.826006e+03
2.040000e-06	5.390178e-06	2.771994e-08	3.915066e+01	1.816929e+03
2.050000e-06	5.293974e-06	2.757767e-08	3.845189e+01	1.807296e+03
2.060000e-06	5.196056e-06	2.741791e-08	3.774068e+01	1.797031e+03
2.070000e-06	5.096438e-06	2.724336e-08	3.701712e+01	1.786092e+03
2.080000e-06	4.994954e-06	2.708463e-08	3.628001e+01	1.774475e+03
2.090000e-06	4.891495e-06	2.689781e-08	3.552855e+01	1.762212e+03
2.100000e-06	4.786294e-06	2.672347e-08	3.476445e+01	1.749366e+03
2.110000e-06	4.679646e-06	2.652548e-08	3.398983e+01	1.736013e+03
2.120000e-06	4.571414e-06	2.632599e-08	3.320370e+01	1.722230e+03
2.130000e-06	4.461495e-06	2.610404e-08	3.240532e+01	1.708074e+03
2.140000e-06	4.349856e-06	2.588507e-08	3.159445e+01	1.693568e+03
2.150000e-06	4.236503e-06	2.565857e-08	3.077113e+01	1.678691e+03
2.160000e-06	4.121527e-06	2.542334e-08	2.993602e+01	1.663371e+03
2.170000e-06	4.004851e-06	2.517516e-08	2.908856e+01	1.647495e+03
2.180000e-06	3.886530e-06	2.491138e-08	2.822916e+01	1.630916e+03
2.190000e-06	3.766601e-06	2.464089e-08	2.735808e+01	1.613472e+03
2.200000e-06	3.645230e-06	2.435380e-08	2.647652e+01	1.595006e+03
2.210000e-06	3.522588e-06	2.405816e-08	2.558573e+01	1.575383e+03
2.220000e-06	3.398621e-06	2.374221e-08	2.468532e+01	1.554512e+03
2.230000e-06	3.273420e-06	2.341331e-08	2.377594e+01	1.532347e+03
2.240000e-06	3.147066e-06	2.306437e-08	2.285819e+01	1.508891e+03
2.250000e-06	3.019429e-06	2.270456e-08	2.193112e+01	1.484186e+03
2.260000e-06	2.890576e-06	2.232568e-08	2.099522e+01	1.458292e+03
2.270000e-06	2.760800e-06	2.192795e-08	2.005261e+01	1.431264e+03
2.280000e-06	2.630198e-06	2.150596e-08	1.910400e+01	1.403120e+03
2.290000e-06	2.498638e-06	2.105874e-08	1.814844e+01	1.373820e+03
2.300000e-06	2.366053e-06	2.058486e-08	1.718543e+01	1.343242e+03
2.310000e-06	2.232625e-06	2.008171e-08	1.621630e+01	1.311175e+03
2.320000e-06	2.098549e-06	1.954898e-08	1.524246e+01	1.277317e+03
2.330000e-06	1.963799e-06	1.898165e-08	1.426372e+01	1.241299e+03
2.340000e-06	1.828272e-06	1.837892e-08	1.327935e+01	1.202704e+03
2.350000e-06	1.692003e-06	1.773622e-08	1.228958e+01	1.161113e+03
2.360000e-06	1.555142e-06	1.705457e-08	1.129551e+01	1.116143e+03
2.370000e-06	1.417854e-06	1.632653e-08	1.029835e+01	1.067492e+03
2.380000e-06	1.280216e-06	1.554490e-08	9.298638e+00	1.014970e+03
2.390000e-06	1.142209e-06	1.470549e-08	8.296245e+00	9.585271e+02
2.400000e-06	1.003767e-06	1.380783e-08	7.290695e+00	8.982605e+02
2.410000e-06	8.649617e-07	1.285194e-08	6.282505e+00	8.344044e+02
2.420000e-06	7.258576e-07	1.183813e-08	5.272145e+00	7.673062e+02
2.430000e-06	5.863772e-07	1.077226e-08	4.259053e+00	6.973873e+02
2.440000e-06	4.466299e-07	9.658486e-09	3.244022e+00	6.250967e+02
2.450000e-06	3.067813e-07	8.498810e-09	2.228255e+00	5.508616e+02
2.460000e-06	1.667955e-07	7.302689e-09	1.211491e+00	4.750427e+02
2.470000e-06	2.669823e-08	6.088481e-09	1.939181e-01	3.979015e+02
2.480000e-06	-1.134270e-07	4.870860e-09	-8.238582e-01	3.195828e+02
2.490000e-06	-2.535366e-07	3.652895e-09	-1.841521e+00	2.401165e+02
2.500000e-06	-3.935352e-07	2.432073e-09	-2.858377e+00	1.594390e+02
2.510000e-06	-5.333753e-07	1.205949e-09	-3.874082e+00	7.743109e+01
2.520000e-06	-6.730593e-07	-3.257977e-11	-4.888654e+00	-6.031992e+00
2.530000e-06	-8.125559e-07	-1.293142e-09	-5.901864e+00	-9.102476e+01
2.540000e-06	-9.517265e-07	-2.584784e-09	-6.912706e+00	-1.775183e+02
2.550000e-06	-1.090472e-06	-3.913220e-09	-7.920465e+00	-2.653364e+02
2.560000e-06	-1.228821e-06	-5.277137e-09	-8.925337e+00	-3.541287e+02
2.570000e-06	-1.366730e-06	-6.669516e-09	-9.927014e+00	-4.433635e+02
2.580000e-06	-1.504203e-06	-8.072035e-09	-1.092553e+01	-5.323439e+02
2.590000e-06	-1.641165e-06	-9.458975e-09	-1.192033e+01	-6.202449e+02
2.600000e-06	-1.777451e-06	-1.080604e-08	-1.291022e+01	-7.061686e+02
2.610000e-06	-1.913001e-06	-1.209156e-08	-1.389476e+01	-7.892107e+02
2.620000e-06	-2.047734e-06	-1.329876e-08	-1.487338e+01	-8.685301e+02
2.630000e-06	-2.181704e-06	-1.442149e-08	-1.584644e+01	-9.434152e+02
2.640000e-06	-2.314893e-06	-1.546103e-08	-1.681384e+01	-1.013338e+03
2.650000e-06	-2.447188e-06	-1.642181e-08	-1.777474e+01	-1.077987e+03
2.660000e-06	-2.578554e-06	-1.730871e-08	-1.872889e+01	-1.137287e+03
2.670000e-06	-2.708942e-06	-1.812772e-08	-1.967595e+01	-1.191383e+03
2.680000e-06	-2.838411e-06	-1.888278e-08	-2.061632e+01	-1.240614e+03
2.690000e-06	-2.966941e-06	-1.957864e-08	-2.154988e+01	-1.285464e+03
2.700000e-06	-3.094299e-06	-2.022556e-08	-2.247492e+01	-1.326507e+03
2.710000e-06	-3.220472e-06	-2.082848e-08	-2.339136e+01	-1.364343e+03
2.720000e-06	-3.345554e-06	-2.139307e-08	-2.429988e+01	-1.399542e+03
2.730000e-06	-3.469430e-06	-2.192030e-08	-2.519963e+01	-1.432600e+03
2.740000e-06	-3.592035e-06	-2.241050e-08	-2.609014e+01	-1.463901e+03
2.750000e-06	-3.713381e-06	-2.286802e-08	-2.697152e+01	-1.493709e+03
2.760000e-06	-3.833398e-06	-2.329211e-08	-2.784324e+01	-1.522168e+03
2.770000e-06	-3.951924e-06	-2.369221e-08	-2.870414e+01	-1.549320e+03
2.780000e-06	-4.068917e-06	-2.407276e-08	-2.955390e+01	-1.575135e+03
2.790000e-06	-4.184369e-06	-2.443326e-08	-3.039247e+01	-1.599549e+03
2.800000e-06	-4.298096e-06	-2.477218e-08	-3.121850e+01	-1.622494e+03
2.810000e-06	-4.410051e-06	-2.509076e-08	-3.203167e+01	-1.643930e+03
2.820000e-06	-4.520382e-06	-2.539247e-08	-3.283304e+01	-1.663867e+03
2.830000e-06	-4.629176e-06	-2.567914e-08	-3.362325e+01	-1.682377e+03
2.840000e-06	-4.736463e-06	-2.595278e-08	-3.440251e+01	-1.699585e+03
2.850000e-06	-4.842136e-06	-2.620995e-08	-3.517004e+01	-1.715662e+03
2.860000e-06	-4.946033e-06	-2.645300e-08	-3.592468e+01	-1.730803e+03
2.870000e-06	-5.048078e-06	-2.668268e-08	-3.666587e+01	-1.745201e+03
2.880000e-06	-5.148273e-06	-2.690292e-08	-3.739362e+01	-1.759029e+03
2.890000e-06	-5.246612e-06	-2.711410e-08	-3.810789e+01	-1.772413e+03
2.900000e-06	-5.343077e-06	-2.731509e-08	-3.880854e+01	-1.785427e+03
2.910000e-06	-5.437605e-06	-2.750542e-08	-3.949514e+01	-1.798088e+03
2.920000e-06	-5.530178e-06	-2.768519e-08	-4.016753e+01	-1.810359e+03
2.930000e-06	-5.620820e-06	-2.785628e-08	-4.082589e+01	-1.822167e+03
2.940000e-06	-5.709440e-06	-2.801704e-08	-4.146956e+01	-1.833421e+03
