# Temperatura_=_43.49
# Concentracion g/m^3_=_28370.0
# C_Vs_to_Am_M_A/Vsm_=_65563218390.804596
# pendiente_HvsI_1/m_=_3716.3
# ordenada_HvsI_A/m_=_1297.0
# frecuencia_Hz_=_302375.32228389086

Tiempo_(s)	Campo_(V.s)	Magnetizacion_(V.s)	Campo_(kA/m)	Magnetizacion_(A/m)
0.000000e+00	-7.324229e-06	-3.001508e-08	-5.319020e+01	-1.964078e+03
1.000000e-08	-7.320333e-06	-3.001011e-08	-5.316191e+01	-1.963150e+03
2.000000e-08	-7.314019e-06	-2.999495e-08	-5.311606e+01	-1.962100e+03
3.000000e-08	-7.305341e-06	-2.997930e-08	-5.305303e+01	-1.960989e+03
4.000000e-08	-7.294137e-06	-2.996376e-08	-5.297167e+01	-1.959863e+03
5.000000e-08	-7.280137e-06	-2.994521e-08	-5.286999e+01	-1.958741e+03
6.000000e-08	-7.263442e-06	-2.992038e-08	-5.274875e+01	-1.957618e+03
7.000000e-08	-7.244594e-06	-2.989142e-08	-5.261187e+01	-1.956465e+03
8.000000e-08	-7.223675e-06	-2.987644e-08	-5.245996e+01	-1.955232e+03
9.000000e-08	-7.200123e-06	-2.991354e-08	-5.228892e+01	-1.953864e+03
1.000000e-07	-7.173590e-06	-2.987283e-08	-5.209623e+01	-1.952305e+03
1.100000e-07	-7.144261e-06	-2.978248e-08	-5.188323e+01	-1.950513e+03
1.200000e-07	-7.112428e-06	-2.974082e-08	-5.165205e+01	-1.948461e+03
1.300000e-07	-7.078150e-06	-2.970221e-08	-5.140312e+01	-1.946145e+03
1.400000e-07	-7.041692e-06	-2.960766e-08	-5.113835e+01	-1.943583e+03
1.500000e-07	-7.003434e-06	-2.953419e-08	-5.086051e+01	-1.940807e+03
1.600000e-07	-6.963073e-06	-2.962690e-08	-5.056741e+01	-1.937860e+03
1.700000e-07	-6.920190e-06	-2.954861e-08	-5.025598e+01	-1.934779e+03
1.800000e-07	-6.874916e-06	-2.944921e-08	-4.992719e+01	-1.931595e+03
1.900000e-07	-6.827099e-06	-2.946258e-08	-4.957993e+01	-1.928313e+03
2.000000e-07	-6.776406e-06	-2.933141e-08	-4.921179e+01	-1.924921e+03
2.100000e-07	-6.723027e-06	-2.928093e-08	-4.882414e+01	-1.921377e+03
2.200000e-07	-6.667089e-06	-2.923991e-08	-4.841790e+01	-1.917624e+03
2.300000e-07	-6.608639e-06	-2.917048e-08	-4.799343e+01	-1.913591e+03
2.400000e-07	-6.547809e-06	-2.910932e-08	-4.755166e+01	-1.909208e+03
2.500000e-07	-6.484570e-06	-2.898397e-08	-4.709241e+01	-1.904414e+03
2.600000e-07	-6.418784e-06	-2.893536e-08	-4.661465e+01	-1.899170e+03
2.700000e-07	-6.350503e-06	-2.885743e-08	-4.611878e+01	-1.893465e+03
2.800000e-07	-6.279926e-06	-2.874652e-08	-4.560624e+01	-1.887317e+03
2.900000e-07	-6.206961e-06	-2.866292e-08	-4.507635e+01	-1.880771e+03
3.000000e-07	-6.131452e-06	-2.857421e-08	-4.452798e+01	-1.873894e+03
3.100000e-07	-6.053356e-06	-2.845525e-08	-4.396083e+01	-1.866756e+03
3.200000e-07	-5.972793e-06	-2.831080e-08	-4.337577e+01	-1.859428e+03
3.300000e-07	-5.890099e-06	-2.825748e-08	-4.277522e+01	-1.851958e+03
3.400000e-07	-5.805475e-06	-2.814763e-08	-4.216066e+01	-1.844367e+03
3.500000e-07	-5.718949e-06	-2.799316e-08	-4.153229e+01	-1.836641e+03
3.600000e-07	-5.630472e-06	-2.787535e-08	-4.088975e+01	-1.828731e+03
3.700000e-07	-5.539909e-06	-2.774375e-08	-4.023207e+01	-1.820557e+03
3.800000e-07	-5.447269e-06	-2.760039e-08	-3.955930e+01	-1.812020e+03
3.900000e-07	-5.352715e-06	-2.745561e-08	-3.887263e+01	-1.803013e+03
4.000000e-07	-5.256299e-06	-2.732522e-08	-3.817242e+01	-1.793440e+03
4.100000e-07	-5.158008e-06	-2.715133e-08	-3.745862e+01	-1.783229e+03
4.200000e-07	-5.057909e-06	-2.696974e-08	-3.673167e+01	-1.772339e+03
4.300000e-07	-4.956045e-06	-2.679942e-08	-3.599191e+01	-1.760770e+03
4.400000e-07	-4.852418e-06	-2.662816e-08	-3.523935e+01	-1.748556e+03
4.500000e-07	-4.747056e-06	-2.644162e-08	-3.447419e+01	-1.735761e+03
4.600000e-07	-4.639950e-06	-2.624624e-08	-3.369636e+01	-1.722462e+03
4.700000e-07	-4.531178e-06	-2.604552e-08	-3.290644e+01	-1.708733e+03
4.800000e-07	-4.420876e-06	-2.582060e-08	-3.210540e+01	-1.694627e+03
4.900000e-07	-4.308961e-06	-2.559311e-08	-3.129265e+01	-1.680163e+03
5.000000e-07	-4.195321e-06	-2.537206e-08	-3.046737e+01	-1.665316e+03
5.100000e-07	-4.079926e-06	-2.514263e-08	-2.962934e+01	-1.650009e+03
5.200000e-07	-3.962906e-06	-2.488257e-08	-2.877952e+01	-1.634125e+03
5.300000e-07	-3.844506e-06	-2.461178e-08	-2.791967e+01	-1.617514e+03
5.400000e-07	-3.724678e-06	-2.433485e-08	-2.704945e+01	-1.600014e+03
5.500000e-07	-3.603373e-06	-2.404461e-08	-2.616851e+01	-1.581468e+03
5.600000e-07	-3.480650e-06	-2.373957e-08	-2.527727e+01	-1.561746e+03
5.700000e-07	-3.356593e-06	-2.342056e-08	-2.437633e+01	-1.540756e+03
5.800000e-07	-3.231335e-06	-2.308503e-08	-2.346668e+01	-1.518458e+03
5.900000e-07	-3.104939e-06	-2.273030e-08	-2.254876e+01	-1.494857e+03
6.000000e-07	-2.977390e-06	-2.236206e-08	-2.162248e+01	-1.469994e+03
6.100000e-07	-2.848718e-06	-2.197670e-08	-2.068803e+01	-1.443926e+03
6.200000e-07	-2.719035e-06	-2.157351e-08	-1.974624e+01	-1.416700e+03
6.300000e-07	-2.588347e-06	-2.114354e-08	-1.879716e+01	-1.388326e+03
6.400000e-07	-2.456626e-06	-2.068627e-08	-1.784057e+01	-1.358750e+03
6.500000e-07	-2.323973e-06	-2.020108e-08	-1.687721e+01	-1.327835e+03
6.600000e-07	-2.190580e-06	-1.969076e-08	-1.590849e+01	-1.295354e+03
6.700000e-07	-2.056537e-06	-1.915188e-08	-1.493503e+01	-1.260992e+03
6.800000e-07	-1.921790e-06	-1.857639e-08	-1.395647e+01	-1.224369e+03
6.900000e-07	-1.786263e-06	-1.796083e-08	-1.297224e+01	-1.185068e+03
7.000000e-07	-1.650075e-06	-1.730391e-08	-1.198321e+01	-1.142671e+03
7.100000e-07	-1.513361e-06	-1.660568e-08	-1.099037e+01	-1.096813e+03
7.200000e-07	-1.376138e-06	-1.585878e-08	-9.993823e+00	-1.047213e+03
7.300000e-07	-1.238390e-06	-1.506139e-08	-8.993469e+00	-9.937190e+02
7.400000e-07	-1.100151e-06	-1.420936e-08	-7.989547e+00	-9.363234e+02
7.500000e-07	-9.615068e-07	-1.329875e-08	-6.982679e+00	-8.751731e+02
7.600000e-07	-8.225416e-07	-1.233046e-08	-5.973482e+00	-8.105563e+02
7.700000e-07	-6.833177e-07	-1.130927e-08	-4.962407e+00	-7.428744e+02
7.800000e-07	-5.437832e-07	-1.023553e-08	-3.949076e+00	-6.725995e+02
7.900000e-07	-4.039732e-07	-9.113028e-09	-2.933744e+00	-6.002237e+02
8.000000e-07	-2.639629e-07	-7.954636e-09	-1.916958e+00	-5.262069e+02
8.100000e-07	-1.237983e-07	-6.773712e-09	-8.990510e-01	-4.509292e+02
8.200000e-07	1.647647e-08	-5.582893e-09	1.196558e-01	-3.746567e+02
8.300000e-07	1.567796e-07	-4.390721e-09	1.138568e+00	-2.975229e+02
8.400000e-07	2.970561e-07	-3.206210e-09	2.157288e+00	-2.195315e+02
8.500000e-07	4.371863e-07	-2.024303e-09	3.174945e+00	-1.405790e+02
8.600000e-07	5.770897e-07	-8.341685e-10	4.190955e+00	-6.049535e+01
8.700000e-07	7.167629e-07	3.695806e-10	5.205293e+00	2.090277e+01
8.800000e-07	8.561837e-07	1.597301e-09	6.217799e+00	1.037526e+02
8.900000e-07	9.953664e-07	2.856935e-09	7.228575e+00	1.880880e+02
9.000000e-07	1.134172e-06	4.154731e-09	8.236609e+00	2.737927e+02
9.100000e-07	1.272522e-06	5.486002e-09	9.241342e+00	3.605692e+02
9.200000e-07	1.410359e-06	6.842404e-09	1.024234e+01	4.479298e+02
9.300000e-07	1.547628e-06	8.208524e-09	1.123922e+01	5.352113e+02
9.400000e-07	1.684371e-06	9.559716e-09	1.223228e+01	6.216106e+02
9.500000e-07	1.820472e-06	1.087371e-08	1.322068e+01	7.062407e+02
9.600000e-07	1.955817e-06	1.213047e-08	1.420358e+01	7.881973e+02
9.700000e-07	2.090318e-06	1.331477e-08	1.518036e+01	8.666305e+02
9.800000e-07	2.224003e-06	1.441605e-08	1.615121e+01	9.408128e+02
9.900000e-07	2.356996e-06	1.543514e-08	1.711704e+01	1.010195e+03
1.000000e-06	2.489234e-06	1.637996e-08	1.807738e+01	1.074442e+03
1.010000e-06	2.620521e-06	1.725285e-08	1.903082e+01	1.133452e+03
1.020000e-06	2.750713e-06	1.805640e-08	1.997630e+01	1.187346e+03
1.030000e-06	2.879880e-06	1.879684e-08	2.091434e+01	1.236440e+03
1.040000e-06	3.007989e-06	1.948381e-08	2.184470e+01	1.281200e+03
1.050000e-06	3.134936e-06	2.012322e-08	2.276661e+01	1.322180e+03
1.060000e-06	3.260787e-06	2.071806e-08	2.368057e+01	1.359970e+03
1.070000e-06	3.385591e-06	2.127189e-08	2.458692e+01	1.395128e+03
1.080000e-06	3.509281e-06	2.178675e-08	2.548519e+01	1.428143e+03
1.090000e-06	3.631651e-06	2.226745e-08	2.637387e+01	1.459396e+03
1.100000e-06	3.752673e-06	2.271995e-08	2.725276e+01	1.489148e+03
1.110000e-06	3.872340e-06	2.314537e-08	2.812181e+01	1.517542e+03
1.120000e-06	3.990558e-06	2.354467e-08	2.898033e+01	1.544621e+03
1.130000e-06	4.107345e-06	2.392216e-08	2.982847e+01	1.570358e+03
1.140000e-06	4.222561e-06	2.427736e-08	3.066519e+01	1.594688e+03
1.150000e-06	4.336072e-06	2.461205e-08	3.148953e+01	1.617545e+03
1.160000e-06	4.447933e-06	2.492771e-08	3.230189e+01	1.638893e+03
1.170000e-06	4.558226e-06	2.522713e-08	3.310286e+01	1.658744e+03
1.180000e-06	4.667033e-06	2.551063e-08	3.389304e+01	1.677169e+03
1.190000e-06	4.774310e-06	2.577865e-08	3.467211e+01	1.694296e+03
1.200000e-06	4.879801e-06	2.603280e-08	3.543821e+01	1.710295e+03
1.210000e-06	4.983411e-06	2.627471e-08	3.619066e+01	1.725361e+03
1.220000e-06	5.085240e-06	2.650347e-08	3.693016e+01	1.739688e+03
1.230000e-06	5.185328e-06	2.671938e-08	3.765702e+01	1.753446e+03
1.240000e-06	5.283500e-06	2.692384e-08	3.836997e+01	1.766761e+03
1.250000e-06	5.379553e-06	2.711711e-08	3.906753e+01	1.779704e+03
1.260000e-06	5.473623e-06	2.730104e-08	3.975068e+01	1.792290e+03
1.270000e-06	5.565891e-06	2.747555e-08	4.042076e+01	1.804482e+03
1.280000e-06	5.656179e-06	2.764427e-08	4.107645e+01	1.816204e+03
1.290000e-06	5.744295e-06	2.780559e-08	4.171636e+01	1.827365e+03
1.300000e-06	5.830352e-06	2.795870e-08	4.234133e+01	1.837874e+03
1.310000e-06	5.914445e-06	2.810508e-08	4.295203e+01	1.847660e+03
1.320000e-06	5.996436e-06	2.824509e-08	4.354747e+01	1.856691e+03
1.330000e-06	6.076147e-06	2.837641e-08	4.412635e+01	1.864977e+03
1.340000e-06	6.153618e-06	2.849746e-08	4.468896e+01	1.872573e+03
1.350000e-06	6.228750e-06	2.861031e-08	4.523459e+01	1.879569e+03
1.360000e-06	6.301422e-06	2.871670e-08	4.576234e+01	1.886082e+03
1.370000e-06	6.371837e-06	2.881787e-08	4.627372e+01	1.892233e+03
1.380000e-06	6.440108e-06	2.891282e-08	4.676952e+01	1.898135e+03
1.390000e-06	6.506067e-06	2.900302e-08	4.724852e+01	1.903873e+03
1.400000e-06	6.569641e-06	2.908936e-08	4.771021e+01	1.909500e+03
1.410000e-06	6.630977e-06	2.916904e-08	4.815565e+01	1.915025e+03
1.420000e-06	6.690040e-06	2.924327e-08	4.858458e+01	1.920421e+03
1.430000e-06	6.746685e-06	2.931521e-08	4.899595e+01	1.925630e+03
1.440000e-06	6.800895e-06	2.938309e-08	4.938963e+01	1.930578e+03
1.450000e-06	6.852441e-06	2.944636e-08	4.976397e+01	1.935187e+03
1.460000e-06	6.901158e-06	2.950569e-08	5.011776e+01	1.939393e+03
1.470000e-06	6.947321e-06	2.956286e-08	5.045301e+01	1.943155e+03
1.480000e-06	6.991128e-06	2.961839e-08	5.077114e+01	1.946463e+03
1.490000e-06	7.032432e-06	2.966891e-08	5.107111e+01	1.949342e+03
1.500000e-06	7.071139e-06	2.971286e-08	5.135220e+01	1.951843e+03
1.510000e-06	7.107490e-06	2.975095e-08	5.161619e+01	1.954039e+03
1.520000e-06	7.141389e-06	2.978498e-08	5.186238e+01	1.956011e+03
1.530000e-06	7.172606e-06	2.981574e-08	5.208908e+01	1.957834e+03
1.540000e-06	7.201362e-06	2.984364e-08	5.229791e+01	1.959566e+03
1.550000e-06	7.227575e-06	2.986918e-08	5.248827e+01	1.961241e+03
1.560000e-06	7.251007e-06	2.989166e-08	5.265844e+01	1.962860e+03
1.570000e-06	7.271882e-06	2.991049e-08	5.281005e+01	1.964398e+03
1.580000e-06	7.290309e-06	2.992640e-08	5.294387e+01	1.965806e+03
1.590000e-06	7.306035e-06	2.993914e-08	5.305807e+01	1.967020e+03
1.600000e-06	7.318944e-06	2.994867e-08	5.315182e+01	1.967979e+03
1.610000e-06	7.328915e-06	2.995568e-08	5.322423e+01	1.968628e+03
1.620000e-06	7.336060e-06	2.996023e-08	5.327612e+01	1.968934e+03
1.630000e-06	7.340715e-06	2.996299e-08	5.330992e+01	1.968892e+03
1.640000e-06	7.342818e-06	2.996450e-08	5.332520e+01	1.968523e+03
1.650000e-06	7.342281e-06	2.996381e-08	5.332130e+01	1.967872e+03
1.660000e-06	7.339328e-06	2.995178e-08	5.329985e+01	1.967003e+03
1.670000e-06	7.333934e-06	2.994173e-08	5.326068e+01	1.965988e+03
1.680000e-06	7.326009e-06	2.993219e-08	5.320313e+01	1.964891e+03
1.690000e-06	7.315672e-06	2.991800e-08	5.312806e+01	1.963765e+03
1.700000e-06	7.302796e-06	2.990217e-08	5.303455e+01	1.962640e+03
1.710000e-06	7.287392e-06	2.989240e-08	5.292268e+01	1.961518e+03
1.720000e-06	7.269770e-06	2.988881e-08	5.279471e+01	1.960379e+03
1.730000e-06	7.250049e-06	2.983467e-08	5.265149e+01	1.959179e+03
1.740000e-06	7.227653e-06	2.973462e-08	5.248885e+01	1.957865e+03
1.750000e-06	7.201931e-06	2.975199e-08	5.230204e+01	1.956379e+03
1.760000e-06	7.172841e-06	2.975905e-08	5.209079e+01	1.954673e+03
1.770000e-06	7.140966e-06	2.969509e-08	5.185930e+01	1.952714e+03
1.780000e-06	7.107017e-06	2.970331e-08	5.161275e+01	1.950490e+03
1.790000e-06	7.071392e-06	2.977093e-08	5.135404e+01	1.948011e+03
1.800000e-06	7.034159e-06	2.963292e-08	5.108364e+01	1.945306e+03
1.810000e-06	6.994554e-06	2.960440e-08	5.079602e+01	1.942413e+03
1.820000e-06	6.952287e-06	2.964767e-08	5.048907e+01	1.939375e+03
1.830000e-06	6.907823e-06	2.949626e-08	5.016617e+01	1.936224e+03
1.840000e-06	6.860888e-06	2.956708e-08	4.982531e+01	1.932977e+03
1.850000e-06	6.811337e-06	2.947426e-08	4.946546e+01	1.929626e+03
1.860000e-06	6.759092e-06	2.940371e-08	4.908605e+01	1.926141e+03
1.870000e-06	6.704017e-06	2.937478e-08	4.868608e+01	1.922469e+03
1.880000e-06	6.646516e-06	2.918456e-08	4.826850e+01	1.918543e+03
1.890000e-06	6.586525e-06	2.922164e-08	4.783283e+01	1.914291e+03
1.900000e-06	6.523962e-06	2.911874e-08	4.737848e+01	1.909648e+03
1.910000e-06	6.458934e-06	2.903358e-08	4.690624e+01	1.904567e+03
1.920000e-06	6.391487e-06	2.899743e-08	4.641642e+01	1.899024e+03
1.930000e-06	6.321652e-06	2.884899e-08	4.590926e+01	1.893029e+03
1.940000e-06	6.249344e-06	2.879686e-08	4.538414e+01	1.886618e+03
1.950000e-06	6.174634e-06	2.867273e-08	4.484158e+01	1.879849e+03
1.960000e-06	6.097385e-06	2.863149e-08	4.428058e+01	1.872794e+03
1.970000e-06	6.017653e-06	2.849403e-08	4.370155e+01	1.865526e+03
1.980000e-06	5.935810e-06	2.835296e-08	4.310719e+01	1.858101e+03
1.990000e-06	5.851912e-06	2.828264e-08	4.249790e+01	1.850552e+03
2.000000e-06	5.765810e-06	2.812381e-08	4.187261e+01	1.842877e+03
2.010000e-06	5.677579e-06	2.803651e-08	4.123186e+01	1.835039e+03
2.020000e-06	5.587462e-06	2.789914e-08	4.057741e+01	1.826969e+03
2.030000e-06	5.495429e-06	2.777030e-08	3.990904e+01	1.818572e+03
2.040000e-06	5.401389e-06	2.759412e-08	3.922610e+01	1.809743e+03
2.050000e-06	5.305382e-06	2.744079e-08	3.852888e+01	1.800381e+03
2.060000e-06	5.207565e-06	2.732440e-08	3.781851e+01	1.790403e+03
2.070000e-06	5.108057e-06	2.716379e-08	3.709586e+01	1.779756e+03
2.080000e-06	5.006713e-06	2.700186e-08	3.635988e+01	1.768426e+03
2.090000e-06	4.903460e-06	2.680907e-08	3.561003e+01	1.756435e+03
2.100000e-06	4.798452e-06	2.663169e-08	3.484744e+01	1.743838e+03
2.110000e-06	4.691892e-06	2.643287e-08	3.407358e+01	1.730708e+03
2.120000e-06	4.583802e-06	2.625086e-08	3.328860e+01	1.717124e+03
2.130000e-06	4.474104e-06	2.605764e-08	3.249195e+01	1.703147e+03
2.140000e-06	4.362720e-06	2.583426e-08	3.168305e+01	1.688810e+03
2.150000e-06	4.249573e-06	2.558862e-08	3.086136e+01	1.674105e+03
2.160000e-06	4.134673e-06	2.534532e-08	3.002693e+01	1.658972e+03
2.170000e-06	4.018044e-06	2.510597e-08	2.917994e+01	1.643308e+03
2.180000e-06	3.899832e-06	2.485032e-08	2.832146e+01	1.626974e+03
2.190000e-06	3.780064e-06	2.458900e-08	2.745167e+01	1.609809e+03
2.200000e-06	3.658805e-06	2.430728e-08	2.657107e+01	1.591653e+03
2.210000e-06	3.536322e-06	2.400867e-08	2.568157e+01	1.572362e+03
2.220000e-06	3.412585e-06	2.369238e-08	2.478296e+01	1.551830e+03
2.230000e-06	3.287536e-06	2.337553e-08	2.387482e+01	1.530000e+03
2.240000e-06	3.161287e-06	2.304010e-08	2.295798e+01	1.506860e+03
2.250000e-06	3.033789e-06	2.268293e-08	2.203206e+01	1.482440e+03
2.260000e-06	2.905089e-06	2.230010e-08	2.109741e+01	1.456794e+03
2.270000e-06	2.775401e-06	2.189980e-08	2.015559e+01	1.429977e+03
2.280000e-06	2.644861e-06	2.148097e-08	1.920758e+01	1.402014e+03
2.290000e-06	2.513367e-06	2.104128e-08	1.825264e+01	1.372877e+03
2.300000e-06	2.380856e-06	2.057740e-08	1.729031e+01	1.342460e+03
2.310000e-06	2.247523e-06	2.008264e-08	1.632202e+01	1.310569e+03
2.320000e-06	2.113523e-06	1.955421e-08	1.534888e+01	1.276918e+03
2.330000e-06	1.978770e-06	1.898795e-08	1.437028e+01	1.241149e+03
2.340000e-06	1.843253e-06	1.838957e-08	1.338612e+01	1.202851e+03
2.350000e-06	1.707137e-06	1.775183e-08	1.239761e+01	1.161604e+03
2.360000e-06	1.570453e-06	1.707254e-08	1.140499e+01	1.117018e+03
2.370000e-06	1.433264e-06	1.634405e-08	1.040869e+01	1.068778e+03
2.380000e-06	1.295632e-06	1.556249e-08	9.409175e+00	1.016682e+03
2.390000e-06	1.157576e-06	1.473079e-08	8.406578e+00	9.606697e+02
2.400000e-06	1.019168e-06	1.384583e-08	7.401430e+00	9.008329e+02
2.410000e-06	8.804285e-07	1.290131e-08	6.393870e+00	8.374118e+02
2.420000e-06	7.413691e-07	1.189424e-08	5.383990e+00	7.707717e+02
2.430000e-06	6.019538e-07	1.083399e-08	4.371524e+00	7.013649e+02
2.440000e-06	4.622114e-07	9.728558e-09	3.356684e+00	6.296825e+02
2.450000e-06	3.222682e-07	8.580470e-09	2.340384e+00	5.562018e+02
2.460000e-06	1.821477e-07	7.402939e-09	1.322798e+00	4.813360e+02
2.470000e-06	4.188749e-08	6.210783e-09	3.041964e-01	4.053951e+02
2.480000e-06	-9.841503e-08	5.013536e-09	-7.147121e-01	3.285606e+02
2.490000e-06	-2.386809e-07	3.818237e-09	-1.733354e+00	2.508812e+02
2.500000e-06	-3.788971e-07	2.627955e-09	-2.751636e+00	1.722877e+02
2.510000e-06	-5.189568e-07	1.437839e-09	-3.768781e+00	9.262830e+01
2.520000e-06	-6.587468e-07	2.347353e-10	-4.783968e+00	1.171771e+01
2.530000e-06	-7.982369e-07	-9.911032e-10	-5.796976e+00	-7.060457e+01
2.540000e-06	-9.373501e-07	-2.243546e-09	-6.807248e+00	-1.544155e+02
2.550000e-06	-1.076068e-06	-3.530446e-09	-7.814650e+00	-2.396568e+02
2.560000e-06	-1.214405e-06	-4.854190e-09	-8.819280e+00	-3.260980e+02
2.570000e-06	-1.352354e-06	-6.207516e-09	-9.821100e+00	-4.133190e+02
2.580000e-06	-1.489901e-06	-7.575764e-09	-1.082000e+01	-5.007160e+02
2.590000e-06	-1.626953e-06	-8.942104e-09	-1.181530e+01	-5.875305e+02
2.600000e-06	-1.763393e-06	-1.028229e-08	-1.280615e+01	-6.728983e+02
2.610000e-06	-1.899127e-06	-1.157215e-08	-1.379189e+01	-7.559129e+02
2.620000e-06	-2.034020e-06	-1.279424e-08	-1.477151e+01	-8.356970e+02
2.630000e-06	-2.168065e-06	-1.393652e-08	-1.574498e+01	-9.114722e+02
2.640000e-06	-2.301370e-06	-1.499782e-08	-1.671306e+01	-9.826199e+02
2.650000e-06	-2.433871e-06	-1.598207e-08	-1.767532e+01	-1.048726e+03
2.660000e-06	-2.565383e-06	-1.689347e-08	-1.863039e+01	-1.109605e+03
2.670000e-06	-2.695859e-06	-1.773282e-08	-1.957793e+01	-1.165301e+03
2.680000e-06	-2.825396e-06	-1.850449e-08	-2.051866e+01	-1.216064e+03
2.690000e-06	-2.954042e-06	-1.921698e-08	-2.145292e+01	-1.262312e+03
2.700000e-06	-3.081663e-06	-1.987818e-08	-2.237973e+01	-1.304577e+03
2.710000e-06	-3.208101e-06	-2.049454e-08	-2.329795e+01	-1.343440e+03
2.720000e-06	-3.333378e-06	-2.107146e-08	-2.420775e+01	-1.379479e+03
2.730000e-06	-3.457431e-06	-2.161036e-08	-2.510864e+01	-1.413211e+03
2.740000e-06	-3.580135e-06	-2.211127e-08	-2.599974e+01	-1.445059e+03
2.750000e-06	-3.701562e-06	-2.257829e-08	-2.688158e+01	-1.475326e+03
2.760000e-06	-3.821749e-06	-2.301447e-08	-2.775440e+01	-1.504196e+03
2.770000e-06	-3.940475e-06	-2.342304e-08	-2.861662e+01	-1.531747e+03
2.780000e-06	-4.057649e-06	-2.380920e-08	-2.946756e+01	-1.557971e+03
2.790000e-06	-4.173278e-06	-2.417465e-08	-3.030729e+01	-1.582812e+03
2.800000e-06	-4.287211e-06	-2.452097e-08	-3.113470e+01	-1.606203e+03
2.810000e-06	-4.399318e-06	-2.484825e-08	-3.194884e+01	-1.628093e+03
2.820000e-06	-4.509696e-06	-2.515620e-08	-3.275043e+01	-1.648475e+03
2.830000e-06	-4.618599e-06	-2.544662e-08	-3.354131e+01	-1.667399e+03
2.840000e-06	-4.726080e-06	-2.572171e-08	-3.432185e+01	-1.684973e+03
2.850000e-06	-4.832011e-06	-2.598135e-08	-3.509115e+01	-1.701354e+03
2.860000e-06	-4.936175e-06	-2.622699e-08	-3.584762e+01	-1.716732e+03
2.870000e-06	-5.038333e-06	-2.646179e-08	-3.658951e+01	-1.731303e+03
2.880000e-06	-5.138562e-06	-2.668649e-08	-3.731740e+01	-1.745249e+03
2.890000e-06	-5.237057e-06	-2.690149e-08	-3.803269e+01	-1.758712e+03
2.900000e-06	-5.333800e-06	-2.710474e-08	-3.873526e+01	-1.771784e+03
2.910000e-06	-5.428568e-06	-2.729581e-08	-3.942348e+01	-1.784501e+03
2.920000e-06	-5.521300e-06	-2.747690e-08	-4.009693e+01	-1.796842e+03
2.930000e-06	-5.612132e-06	-2.764938e-08	-4.075657e+01	-1.808744e+03
2.940000e-06	-5.701014e-06	-2.781308e-08	-4.140205e+01	-1.820118e+03
