# Temperatura_=_47.88
# Concentracion g/m^3_=_28370.0
# C_Vs_to_Am_M_A/Vsm_=_65563218390.804596
# pendiente_HvsI_1/m_=_3716.3
# ordenada_HvsI_A/m_=_1297.0
# frecuencia_Hz_=_302372.84525941755

Tiempo_(s)	Campo_(V.s)	Magnetizacion_(V.s)	Campo_(kA/m)	Magnetizacion_(A/m)
0.000000e+00	-7.316422e-06	-3.009509e-08	-5.319209e+01	-1.969479e+03
1.000000e-08	-7.312334e-06	-3.008963e-08	-5.316237e+01	-1.968542e+03
2.000000e-08	-7.305930e-06	-3.007339e-08	-5.311581e+01	-1.967493e+03
3.000000e-08	-7.297109e-06	-3.005762e-08	-5.305168e+01	-1.966393e+03
4.000000e-08	-7.285727e-06	-3.004136e-08	-5.296893e+01	-1.965278e+03
5.000000e-08	-7.271694e-06	-3.002093e-08	-5.286691e+01	-1.964161e+03
6.000000e-08	-7.254978e-06	-2.999440e-08	-5.274538e+01	-1.963031e+03
7.000000e-08	-7.236022e-06	-2.996542e-08	-5.260756e+01	-1.961849e+03
8.000000e-08	-7.215023e-06	-2.994368e-08	-5.245489e+01	-1.960564e+03
9.000000e-08	-7.191406e-06	-2.998991e-08	-5.228319e+01	-1.959117e+03
1.000000e-07	-7.164769e-06	-2.994875e-08	-5.208954e+01	-1.957454e+03
1.100000e-07	-7.135350e-06	-2.984577e-08	-5.187565e+01	-1.955537e+03
1.200000e-07	-7.103452e-06	-2.980104e-08	-5.164375e+01	-1.953344e+03
1.300000e-07	-7.069065e-06	-2.977018e-08	-5.139375e+01	-1.950882e+03
1.400000e-07	-7.032501e-06	-2.969401e-08	-5.112792e+01	-1.948174e+03
1.500000e-07	-6.994159e-06	-2.961222e-08	-5.084916e+01	-1.945263e+03
1.600000e-07	-6.953677e-06	-2.970650e-08	-5.055485e+01	-1.942194e+03
1.700000e-07	-6.910682e-06	-2.961057e-08	-5.024226e+01	-1.939013e+03
1.800000e-07	-6.865371e-06	-2.948508e-08	-4.991284e+01	-1.935747e+03
1.900000e-07	-6.817490e-06	-2.952303e-08	-4.956474e+01	-1.932403e+03
2.000000e-07	-6.766647e-06	-2.939184e-08	-4.919510e+01	-1.928964e+03
2.100000e-07	-6.713148e-06	-2.934314e-08	-4.880615e+01	-1.925385e+03
2.200000e-07	-6.657179e-06	-2.928919e-08	-4.839924e+01	-1.921602e+03
2.300000e-07	-6.598687e-06	-2.918243e-08	-4.797399e+01	-1.917540e+03
2.400000e-07	-6.537777e-06	-2.915454e-08	-4.753116e+01	-1.913124e+03
2.500000e-07	-6.474512e-06	-2.904917e-08	-4.707121e+01	-1.908291e+03
2.600000e-07	-6.408746e-06	-2.898883e-08	-4.659307e+01	-1.903003e+03
2.700000e-07	-6.340514e-06	-2.890620e-08	-4.609701e+01	-1.897247e+03
2.800000e-07	-6.269971e-06	-2.880768e-08	-4.558415e+01	-1.891043e+03
2.900000e-07	-6.197040e-06	-2.871060e-08	-4.505392e+01	-1.884439e+03
3.000000e-07	-6.121595e-06	-2.859804e-08	-4.450542e+01	-1.877502e+03
3.100000e-07	-6.043573e-06	-2.851245e-08	-4.393818e+01	-1.870304e+03
3.200000e-07	-5.963021e-06	-2.837631e-08	-4.335255e+01	-1.862915e+03
3.300000e-07	-5.880280e-06	-2.829742e-08	-4.275100e+01	-1.855381e+03
3.400000e-07	-5.795654e-06	-2.816899e-08	-4.213575e+01	-1.847723e+03
3.500000e-07	-5.709161e-06	-2.802919e-08	-4.150693e+01	-1.839923e+03
3.600000e-07	-5.620704e-06	-2.792130e-08	-4.086383e+01	-1.831930e+03
3.700000e-07	-5.530095e-06	-2.777958e-08	-4.020508e+01	-1.823661e+03
3.800000e-07	-5.437466e-06	-2.763482e-08	-3.953164e+01	-1.815018e+03
3.900000e-07	-5.343015e-06	-2.748210e-08	-3.884496e+01	-1.805895e+03
4.000000e-07	-5.246664e-06	-2.734169e-08	-3.814447e+01	-1.796198e+03
4.100000e-07	-5.148330e-06	-2.716902e-08	-3.742956e+01	-1.785860e+03
4.200000e-07	-5.048183e-06	-2.700587e-08	-3.670147e+01	-1.774845e+03
4.300000e-07	-4.946322e-06	-2.683623e-08	-3.596091e+01	-1.763156e+03
4.400000e-07	-4.842745e-06	-2.665221e-08	-3.520789e+01	-1.750832e+03
4.500000e-07	-4.737473e-06	-2.645965e-08	-3.444253e+01	-1.737940e+03
4.600000e-07	-4.630444e-06	-2.626704e-08	-3.366440e+01	-1.724555e+03
4.700000e-07	-4.521715e-06	-2.606902e-08	-3.287392e+01	-1.710750e+03
4.800000e-07	-4.411450e-06	-2.585094e-08	-3.207227e+01	-1.696576e+03
4.900000e-07	-4.299618e-06	-2.562886e-08	-3.125922e+01	-1.682045e+03
5.000000e-07	-4.186030e-06	-2.539334e-08	-3.043341e+01	-1.667125e+03
5.100000e-07	-4.070674e-06	-2.514743e-08	-2.959475e+01	-1.651736e+03
5.200000e-07	-3.953694e-06	-2.488480e-08	-2.874428e+01	-1.635757e+03
5.300000e-07	-3.835244e-06	-2.462003e-08	-2.788312e+01	-1.619036e+03
5.400000e-07	-3.715417e-06	-2.434132e-08	-2.701194e+01	-1.601412e+03
5.500000e-07	-3.594266e-06	-2.404677e-08	-2.613115e+01	-1.582732e+03
5.600000e-07	-3.471679e-06	-2.374097e-08	-2.523992e+01	-1.562871e+03
5.700000e-07	-3.347711e-06	-2.342300e-08	-2.433863e+01	-1.541746e+03
5.800000e-07	-3.222526e-06	-2.308670e-08	-2.342851e+01	-1.519324e+03
5.900000e-07	-3.096178e-06	-2.273135e-08	-2.250993e+01	-1.495616e+03
6.000000e-07	-2.968719e-06	-2.236301e-08	-2.158328e+01	-1.470667e+03
6.100000e-07	-2.840138e-06	-2.197343e-08	-2.064846e+01	-1.444537e+03
6.200000e-07	-2.710495e-06	-2.156519e-08	-1.970593e+01	-1.417270e+03
6.300000e-07	-2.579818e-06	-2.113371e-08	-1.875588e+01	-1.388870e+03
6.400000e-07	-2.448110e-06	-2.068141e-08	-1.779833e+01	-1.359276e+03
6.500000e-07	-2.315538e-06	-2.019998e-08	-1.683450e+01	-1.328342e+03
6.600000e-07	-2.182259e-06	-1.968980e-08	-1.586553e+01	-1.295834e+03
6.700000e-07	-2.048286e-06	-1.914970e-08	-1.489151e+01	-1.261431e+03
6.800000e-07	-1.913620e-06	-1.857297e-08	-1.391247e+01	-1.224747e+03
6.900000e-07	-1.778241e-06	-1.795793e-08	-1.292823e+01	-1.185366e+03
7.000000e-07	-1.642196e-06	-1.730059e-08	-1.193915e+01	-1.142874e+03
7.100000e-07	-1.505540e-06	-1.660094e-08	-1.094562e+01	-1.096910e+03
7.200000e-07	-1.368386e-06	-1.585199e-08	-9.948483e+00	-1.047202e+03
7.300000e-07	-1.230771e-06	-1.505306e-08	-8.947994e+00	-9.936007e+02
7.400000e-07	-1.092645e-06	-1.419918e-08	-7.943781e+00	-9.361027e+02
7.500000e-07	-9.541535e-07	-1.328958e-08	-6.936918e+00	-8.748509e+02
7.600000e-07	-8.153184e-07	-1.232253e-08	-5.927554e+00	-8.101227e+02
7.700000e-07	-6.761426e-07	-1.129764e-08	-4.915714e+00	-7.423011e+02
7.800000e-07	-5.366882e-07	-1.021719e-08	-3.901848e+00	-6.718319e+02
7.900000e-07	-3.970409e-07	-9.087635e-09	-2.886580e+00	-5.991754e+02
8.000000e-07	-2.572436e-07	-7.921798e-09	-1.870220e+00	-5.247561e+02
8.100000e-07	-1.173077e-07	-6.730833e-09	-8.528545e-01	-4.489203e+02
8.200000e-07	2.273915e-08	-5.528888e-09	1.653189e-01	-3.719048e+02
8.300000e-07	1.628690e-07	-4.324330e-09	1.184095e+00	-2.938240e+02
8.400000e-07	3.029886e-07	-3.122989e-09	2.202798e+00	-2.146758e+02
8.500000e-07	4.430129e-07	-1.921638e-09	3.220807e+00	-1.343673e+02
8.600000e-07	5.828404e-07	-7.128352e-10	4.237385e+00	-5.275671e+01
8.700000e-07	7.224063e-07	5.126053e-10	5.252062e+00	3.029349e+01
8.800000e-07	8.617044e-07	1.766382e-09	6.264791e+00	1.148600e+02
8.900000e-07	1.000648e-06	3.054845e-09	7.274945e+00	2.009056e+02
9.000000e-07	1.139175e-06	4.379501e-09	8.282064e+00	2.882371e+02
9.100000e-07	1.277273e-06	5.734775e-09	9.286073e+00	3.764814e+02
9.200000e-07	1.414895e-06	7.113204e-09	1.028662e+01	4.650829e+02
9.300000e-07	1.552030e-06	8.494269e-09	1.128362e+01	5.533234e+02
9.400000e-07	1.688605e-06	9.853892e-09	1.227655e+01	6.403634e+02
9.500000e-07	1.824482e-06	1.117130e-08	1.326441e+01	7.253000e+02
9.600000e-07	1.959621e-06	1.242457e-08	1.424690e+01	8.072357e+02
9.700000e-07	2.094018e-06	1.359918e-08	1.522400e+01	8.853479e+02
9.800000e-07	2.227604e-06	1.468903e-08	1.619520e+01	9.589539e+02
9.900000e-07	2.360428e-06	1.569600e-08	1.716086e+01	1.027562e+03
1.000000e-06	2.492492e-06	1.662752e-08	1.812100e+01	1.090903e+03
1.010000e-06	2.623650e-06	1.748630e-08	1.907454e+01	1.148939e+03
1.020000e-06	2.753700e-06	1.827543e-08	2.002004e+01	1.201853e+03
1.030000e-06	2.882652e-06	1.900242e-08	2.095755e+01	1.250012e+03
1.040000e-06	3.010550e-06	1.967606e-08	2.188740e+01	1.293918e+03
1.050000e-06	3.137304e-06	2.030439e-08	2.280893e+01	1.334149e+03
1.060000e-06	3.262946e-06	2.089039e-08	2.372238e+01	1.371300e+03
1.070000e-06	3.387494e-06	2.143636e-08	2.462787e+01	1.405928e+03
1.080000e-06	3.510922e-06	2.194506e-08	2.552522e+01	1.438504e+03
1.090000e-06	3.633087e-06	2.242081e-08	2.641339e+01	1.469387e+03
1.100000e-06	3.753880e-06	2.286725e-08	2.729158e+01	1.498815e+03
1.110000e-06	3.873264e-06	2.328498e-08	2.815953e+01	1.526910e+03
1.120000e-06	3.991262e-06	2.367706e-08	2.901740e+01	1.553697e+03
1.130000e-06	4.107836e-06	2.404785e-08	2.986492e+01	1.579137e+03
1.140000e-06	4.222819e-06	2.439768e-08	3.070087e+01	1.603164e+03
1.150000e-06	4.336137e-06	2.472936e-08	3.152472e+01	1.625713e+03
1.160000e-06	4.447824e-06	2.504350e-08	3.233672e+01	1.646755e+03
1.170000e-06	4.557990e-06	2.534211e-08	3.313764e+01	1.666315e+03
1.180000e-06	4.666688e-06	2.562379e-08	3.392791e+01	1.684474e+03
1.190000e-06	4.773779e-06	2.588840e-08	3.470648e+01	1.701368e+03
1.200000e-06	4.879046e-06	2.613846e-08	3.547180e+01	1.717176e+03
1.210000e-06	4.982462e-06	2.637595e-08	3.622366e+01	1.732090e+03
1.220000e-06	5.084088e-06	2.660110e-08	3.696250e+01	1.746303e+03
1.230000e-06	5.183964e-06	2.681514e-08	3.768862e+01	1.759974e+03
1.240000e-06	5.281983e-06	2.701934e-08	3.840125e+01	1.773219e+03
1.250000e-06	5.377946e-06	2.721256e-08	3.909892e+01	1.786098e+03
1.260000e-06	5.471871e-06	2.739611e-08	3.978177e+01	1.798615e+03
1.270000e-06	5.563953e-06	2.757056e-08	4.045123e+01	1.810724e+03
1.280000e-06	5.654044e-06	2.773759e-08	4.110621e+01	1.822347e+03
1.290000e-06	5.741935e-06	2.789597e-08	4.174520e+01	1.833391e+03
1.300000e-06	5.827762e-06	2.804658e-08	4.236919e+01	1.843769e+03
1.310000e-06	5.911628e-06	2.819129e-08	4.297891e+01	1.853420e+03
1.320000e-06	5.993385e-06	2.833109e-08	4.357330e+01	1.862322e+03
1.330000e-06	6.072853e-06	2.846247e-08	4.415105e+01	1.870494e+03
1.340000e-06	6.150074e-06	2.858458e-08	4.471247e+01	1.878001e+03
1.350000e-06	6.224964e-06	2.869815e-08	4.525694e+01	1.884939e+03
1.360000e-06	6.297440e-06	2.880448e-08	4.578386e+01	1.891427e+03
1.370000e-06	6.367668e-06	2.890534e-08	4.629443e+01	1.897584e+03
1.380000e-06	6.435724e-06	2.900021e-08	4.678921e+01	1.903517e+03
1.390000e-06	6.501488e-06	2.909066e-08	4.726733e+01	1.909304e+03
1.400000e-06	6.564899e-06	2.917609e-08	4.772835e+01	1.914986e+03
1.410000e-06	6.626112e-06	2.925623e-08	4.817338e+01	1.920563e+03
1.420000e-06	6.685092e-06	2.933272e-08	4.860217e+01	1.925999e+03
1.430000e-06	6.741599e-06	2.940599e-08	4.901299e+01	1.931232e+03
1.440000e-06	6.795586e-06	2.947400e-08	4.940549e+01	1.936182e+03
1.450000e-06	6.846928e-06	2.953686e-08	4.977876e+01	1.940775e+03
1.460000e-06	6.895518e-06	2.959686e-08	5.013202e+01	1.944950e+03
1.470000e-06	6.941529e-06	2.965495e-08	5.046653e+01	1.948673e+03
1.480000e-06	6.985180e-06	2.970983e-08	5.078388e+01	1.951942e+03
1.490000e-06	7.026354e-06	2.976012e-08	5.108323e+01	1.954788e+03
1.500000e-06	7.064959e-06	2.980431e-08	5.136390e+01	1.957270e+03
1.510000e-06	7.101180e-06	2.984336e-08	5.162723e+01	1.959463e+03
1.520000e-06	7.134846e-06	2.987923e-08	5.187199e+01	1.961449e+03
1.530000e-06	7.165852e-06	2.991221e-08	5.209741e+01	1.963300e+03
1.540000e-06	7.194454e-06	2.994199e-08	5.230535e+01	1.965071e+03
1.550000e-06	7.220537e-06	2.996763e-08	5.249498e+01	1.966787e+03
1.560000e-06	7.243902e-06	2.999003e-08	5.266485e+01	1.968443e+03
1.570000e-06	7.264732e-06	3.000833e-08	5.281629e+01	1.970008e+03
1.580000e-06	7.282974e-06	3.002306e-08	5.294892e+01	1.971427e+03
1.590000e-06	7.298438e-06	3.003513e-08	5.306134e+01	1.972637e+03
1.600000e-06	7.311166e-06	3.004395e-08	5.315388e+01	1.973575e+03
1.610000e-06	7.321049e-06	3.005042e-08	5.322573e+01	1.974191e+03
1.620000e-06	7.328155e-06	3.005526e-08	5.327739e+01	1.974457e+03
1.630000e-06	7.332752e-06	3.005850e-08	5.331081e+01	1.974374e+03
1.640000e-06	7.334731e-06	3.006024e-08	5.332520e+01	1.973968e+03
1.650000e-06	7.334101e-06	3.006057e-08	5.332062e+01	1.973291e+03
1.660000e-06	7.331112e-06	3.004724e-08	5.329889e+01	1.972409e+03
1.670000e-06	7.325667e-06	3.003741e-08	5.325930e+01	1.971392e+03
1.680000e-06	7.317663e-06	3.002805e-08	5.320111e+01	1.970303e+03
1.690000e-06	7.307230e-06	3.001405e-08	5.312526e+01	1.969188e+03
1.700000e-06	7.294268e-06	2.999835e-08	5.303103e+01	1.968071e+03
1.710000e-06	7.278738e-06	2.998641e-08	5.291811e+01	1.966948e+03
1.720000e-06	7.260956e-06	2.997991e-08	5.278884e+01	1.965788e+03
1.730000e-06	7.241128e-06	2.993306e-08	5.264469e+01	1.964545e+03
1.740000e-06	7.218682e-06	2.981741e-08	5.248150e+01	1.963161e+03
1.750000e-06	7.192874e-06	2.983528e-08	5.229386e+01	1.961580e+03
1.760000e-06	7.163694e-06	2.985397e-08	5.208172e+01	1.959755e+03
1.770000e-06	7.131774e-06	2.979339e-08	5.184966e+01	1.957660e+03
1.780000e-06	7.097786e-06	2.978374e-08	5.160255e+01	1.955291e+03
1.790000e-06	7.062181e-06	2.984357e-08	5.134370e+01	1.952665e+03
1.800000e-06	7.024940e-06	2.968256e-08	5.107295e+01	1.949820e+03
1.810000e-06	6.985309e-06	2.963745e-08	5.078482e+01	1.946801e+03
1.820000e-06	6.943005e-06	2.972496e-08	5.047726e+01	1.943654e+03
1.830000e-06	6.898443e-06	2.955094e-08	5.015329e+01	1.940415e+03
1.840000e-06	6.851396e-06	2.964231e-08	4.981124e+01	1.937099e+03
1.850000e-06	6.801727e-06	2.953497e-08	4.945014e+01	1.933696e+03
1.860000e-06	6.749411e-06	2.942852e-08	4.906979e+01	1.930172e+03
1.870000e-06	6.694284e-06	2.946564e-08	4.866900e+01	1.926468e+03
1.880000e-06	6.636744e-06	2.926417e-08	4.825067e+01	1.922513e+03
1.890000e-06	6.576744e-06	2.928630e-08	4.781446e+01	1.918230e+03
1.900000e-06	6.514111e-06	2.918152e-08	4.735910e+01	1.913551e+03
1.910000e-06	6.449026e-06	2.908128e-08	4.688592e+01	1.908427e+03
1.920000e-06	6.381596e-06	2.905150e-08	4.639569e+01	1.902836e+03
1.930000e-06	6.311800e-06	2.890129e-08	4.588825e+01	1.896787e+03
1.940000e-06	6.239510e-06	2.888711e-08	4.536269e+01	1.890318e+03
1.950000e-06	6.164780e-06	2.873084e-08	4.481939e+01	1.883489e+03
1.960000e-06	6.087460e-06	2.865757e-08	4.425725e+01	1.876375e+03
1.970000e-06	6.007649e-06	2.853756e-08	4.367700e+01	1.869046e+03
1.980000e-06	5.925794e-06	2.839893e-08	4.308190e+01	1.861559e+03
1.990000e-06	5.841944e-06	2.834187e-08	4.247229e+01	1.853944e+03
2.000000e-06	5.755931e-06	2.817450e-08	4.184696e+01	1.846197e+03
2.010000e-06	5.667682e-06	2.808933e-08	4.120537e+01	1.838280e+03
2.020000e-06	5.577468e-06	2.793867e-08	4.054949e+01	1.830119e+03
2.030000e-06	5.485394e-06	2.781119e-08	3.988009e+01	1.821620e+03
2.040000e-06	5.391310e-06	2.765683e-08	3.919608e+01	1.812678e+03
2.050000e-06	5.295274e-06	2.750319e-08	3.849787e+01	1.803195e+03
2.060000e-06	5.197486e-06	2.736663e-08	3.778693e+01	1.793090e+03
2.070000e-06	5.098026e-06	2.718465e-08	3.706383e+01	1.782317e+03
2.080000e-06	4.996720e-06	2.703018e-08	3.632732e+01	1.770865e+03
2.090000e-06	4.893464e-06	2.684239e-08	3.557662e+01	1.758760e+03
2.100000e-06	4.788401e-06	2.667174e-08	3.481279e+01	1.746061e+03
2.110000e-06	4.681825e-06	2.647318e-08	3.403796e+01	1.732841e+03
2.120000e-06	4.573745e-06	2.628094e-08	3.325219e+01	1.719178e+03
2.130000e-06	4.464062e-06	2.607031e-08	3.245477e+01	1.705130e+03
2.140000e-06	4.352686e-06	2.584674e-08	3.164504e+01	1.690726e+03
2.150000e-06	4.239567e-06	2.561620e-08	3.082264e+01	1.675951e+03
2.160000e-06	4.124795e-06	2.537813e-08	2.998822e+01	1.660740e+03
2.170000e-06	4.008325e-06	2.513511e-08	2.914145e+01	1.644987e+03
2.180000e-06	3.890216e-06	2.487159e-08	2.828278e+01	1.628548e+03
2.190000e-06	3.770537e-06	2.460608e-08	2.741268e+01	1.611263e+03
2.200000e-06	3.649388e-06	2.432163e-08	2.653190e+01	1.592975e+03
2.210000e-06	3.526923e-06	2.402973e-08	2.564155e+01	1.573546e+03
2.220000e-06	3.403186e-06	2.371700e-08	2.474195e+01	1.552878e+03
2.230000e-06	3.278191e-06	2.339475e-08	2.383321e+01	1.530919e+03
2.240000e-06	3.151993e-06	2.304916e-08	2.291572e+01	1.507665e+03
2.250000e-06	3.024561e-06	2.268841e-08	2.198927e+01	1.483151e+03
2.260000e-06	2.895947e-06	2.230821e-08	2.105421e+01	1.457435e+03
2.270000e-06	2.766351e-06	2.190929e-08	2.011202e+01	1.430569e+03
2.280000e-06	2.635871e-06	2.148917e-08	1.916340e+01	1.402576e+03
2.290000e-06	2.504444e-06	2.104615e-08	1.820789e+01	1.373419e+03
2.300000e-06	2.372088e-06	2.057833e-08	1.724563e+01	1.342985e+03
2.310000e-06	2.238936e-06	2.007825e-08	1.627758e+01	1.311070e+03
2.320000e-06	2.105039e-06	1.955011e-08	1.530413e+01	1.277384e+03
2.330000e-06	1.970434e-06	1.898496e-08	1.432552e+01	1.241560e+03
2.340000e-06	1.835089e-06	1.838493e-08	1.334152e+01	1.203190e+03
2.350000e-06	1.699070e-06	1.774500e-08	1.235264e+01	1.161852e+03
2.360000e-06	1.562483e-06	1.706304e-08	1.135962e+01	1.117164e+03
2.370000e-06	1.425421e-06	1.633444e-08	1.036314e+01	1.068815e+03
2.380000e-06	1.287963e-06	1.555287e-08	9.363790e+00	1.016611e+03
2.390000e-06	1.150052e-06	1.471955e-08	8.361144e+00	9.604948e+02
2.400000e-06	1.011713e-06	1.383202e-08	7.355387e+00	9.005569e+02
2.410000e-06	8.730603e-07	1.288614e-08	6.347351e+00	8.370297e+02
2.420000e-06	7.341029e-07	1.188183e-08	5.337099e+00	7.702626e+02
2.430000e-06	5.948352e-07	1.082080e-08	4.324590e+00	7.006844e+02
2.440000e-06	4.552997e-07	9.709777e-09	3.310134e+00	6.287560e+02
2.450000e-06	3.156080e-07	8.552681e-09	2.294544e+00	5.549203e+02
2.460000e-06	1.757950e-07	7.362125e-09	1.278071e+00	4.795557e+02
2.470000e-06	3.589025e-08	6.156040e-09	2.609305e-01	4.029406e+02
2.480000e-06	-1.040479e-07	4.946447e-09	-7.564522e-01	3.252334e+02
2.490000e-06	-2.440167e-07	3.738620e-09	-1.774058e+00	2.464717e+02
2.500000e-06	-3.839156e-07	2.531311e-09	-2.791156e+00	1.665910e+02
2.510000e-06	-5.236810e-07	1.321286e-09	-3.807283e+00	8.546130e+01
2.520000e-06	-6.632451e-07	9.786931e-11	-4.821946e+00	2.937063e+00
2.530000e-06	-8.025531e-07	-1.149589e-09	-5.834748e+00	-8.108664e+01
2.540000e-06	-9.415604e-07	-2.428470e-09	-6.845363e+00	-1.666187e+02
2.550000e-06	-1.080195e-06	-3.744733e-09	-7.853268e+00	-2.535255e+02
2.560000e-06	-1.218422e-06	-5.096993e-09	-8.858211e+00	-3.414997e+02
2.570000e-06	-1.356222e-06	-6.477797e-09	-9.860052e+00	-4.300498e+02
2.580000e-06	-1.493635e-06	-7.869331e-09	-1.085907e+01	-5.185117e+02
2.590000e-06	-1.630506e-06	-9.248217e-09	-1.185416e+01	-6.060835e+02
2.600000e-06	-1.766660e-06	-1.059082e-08	-1.284403e+01	-6.918776e+02
2.610000e-06	-1.902151e-06	-1.187791e-08	-1.382908e+01	-7.749862e+02
2.620000e-06	-2.036952e-06	-1.309342e-08	-1.480912e+01	-8.545522e+02
2.630000e-06	-2.170926e-06	-1.422625e-08	-1.578313e+01	-9.298362e+02
2.640000e-06	-2.304043e-06	-1.527592e-08	-1.675092e+01	-1.000274e+03
2.650000e-06	-2.436323e-06	-1.624673e-08	-1.771264e+01	-1.065513e+03
2.660000e-06	-2.567671e-06	-1.714399e-08	-1.866757e+01	-1.125435e+03
2.670000e-06	-2.697995e-06	-1.796998e-08	-1.961505e+01	-1.180147e+03
2.680000e-06	-2.827356e-06	-1.873113e-08	-2.055554e+01	-1.229954e+03
2.690000e-06	-2.955804e-06	-1.943430e-08	-2.148938e+01	-1.275316e+03
2.700000e-06	-3.083234e-06	-2.008609e-08	-2.241583e+01	-1.316792e+03
2.710000e-06	-3.209503e-06	-2.069421e-08	-2.333383e+01	-1.354978e+03
2.720000e-06	-3.334575e-06	-2.126264e-08	-2.424313e+01	-1.390449e+03
2.730000e-06	-3.458443e-06	-2.179243e-08	-2.514369e+01	-1.423711e+03
2.740000e-06	-3.581015e-06	-2.228442e-08	-2.603481e+01	-1.455166e+03
2.750000e-06	-3.702293e-06	-2.274384e-08	-2.691653e+01	-1.485096e+03
2.760000e-06	-3.822326e-06	-2.317409e-08	-2.778920e+01	-1.513661e+03
2.770000e-06	-3.940906e-06	-2.357815e-08	-2.865130e+01	-1.540919e+03
2.780000e-06	-4.057907e-06	-2.396113e-08	-2.950193e+01	-1.566848e+03
2.790000e-06	-4.173339e-06	-2.432307e-08	-3.034114e+01	-1.591389e+03
2.800000e-06	-4.287112e-06	-2.466295e-08	-3.116830e+01	-1.614473e+03
2.810000e-06	-4.399154e-06	-2.498253e-08	-3.198287e+01	-1.636055e+03
2.820000e-06	-4.509447e-06	-2.528559e-08	-3.278473e+01	-1.656139e+03
2.830000e-06	-4.618175e-06	-2.557477e-08	-3.357520e+01	-1.674787e+03
2.840000e-06	-4.725430e-06	-2.584927e-08	-3.435497e+01	-1.692116e+03
2.850000e-06	-4.831089e-06	-2.610677e-08	-3.512314e+01	-1.708291e+03
2.860000e-06	-4.935045e-06	-2.634901e-08	-3.587893e+01	-1.723503e+03
2.870000e-06	-5.037173e-06	-2.658079e-08	-3.662142e+01	-1.737947e+03
2.880000e-06	-5.137348e-06	-2.680295e-08	-3.734971e+01	-1.751797e+03
2.890000e-06	-5.235672e-06	-2.701588e-08	-3.806455e+01	-1.765186e+03
2.900000e-06	-5.332209e-06	-2.721684e-08	-3.876640e+01	-1.778194e+03
2.910000e-06	-5.426837e-06	-2.740605e-08	-3.945437e+01	-1.790845e+03
2.920000e-06	-5.519503e-06	-2.758682e-08	-4.012807e+01	-1.803109e+03
2.930000e-06	-5.610197e-06	-2.775731e-08	-4.078744e+01	-1.814917e+03
2.940000e-06	-5.698906e-06	-2.791834e-08	-4.143237e+01	-1.826179e+03
