# Temperatura_=_83.02
# Concentracion g/m^3_=_28370.0
# C_Vs_to_Am_M_A/Vsm_=_65563218390.804596
# pendiente_HvsI_1/m_=_3716.3
# ordenada_HvsI_A/m_=_1297.0
# frecuencia_Hz_=_302374.80231810675

Tiempo_(s)	Campo_(V.s)	Magnetizacion_(V.s)	Campo_(kA/m)	Magnetizacion_(A/m)
0.000000e+00	-7.328586e-06	-3.024506e-08	-5.318894e+01	-1.980986e+03
1.000000e-08	-7.324720e-06	-3.024105e-08	-5.316088e+01	-1.980005e+03
2.000000e-08	-7.318517e-06	-3.022652e-08	-5.311587e+01	-1.978925e+03
3.000000e-08	-7.309942e-06	-3.021122e-08	-5.305363e+01	-1.977795e+03
4.000000e-08	-7.298771e-06	-3.019542e-08	-5.297256e+01	-1.976643e+03
5.000000e-08	-7.284885e-06	-3.017528e-08	-5.287177e+01	-1.975471e+03
6.000000e-08	-7.268348e-06	-3.014664e-08	-5.275175e+01	-1.974257e+03
7.000000e-08	-7.249520e-06	-3.011171e-08	-5.261511e+01	-1.972956e+03
8.000000e-08	-7.228608e-06	-3.009320e-08	-5.246333e+01	-1.971515e+03
9.000000e-08	-7.205162e-06	-3.014352e-08	-5.229317e+01	-1.969878e+03
1.000000e-07	-7.178746e-06	-3.010090e-08	-5.210145e+01	-1.967996e+03
1.100000e-07	-7.149526e-06	-2.999534e-08	-5.188938e+01	-1.965840e+03
1.200000e-07	-7.117802e-06	-2.994902e-08	-5.165913e+01	-1.963399e+03
1.300000e-07	-7.083563e-06	-2.991830e-08	-5.141063e+01	-1.960688e+03
1.400000e-07	-7.047115e-06	-2.983082e-08	-5.114610e+01	-1.957738e+03
1.500000e-07	-7.008886e-06	-2.974311e-08	-5.086865e+01	-1.954593e+03
1.600000e-07	-6.968524e-06	-2.983457e-08	-5.057571e+01	-1.951300e+03
1.700000e-07	-6.925642e-06	-2.972212e-08	-5.026448e+01	-1.947897e+03
1.800000e-07	-6.880382e-06	-2.960326e-08	-4.993600e+01	-1.944404e+03
1.900000e-07	-6.832564e-06	-2.964098e-08	-4.958895e+01	-1.940817e+03
2.000000e-07	-6.781921e-06	-2.951036e-08	-4.922139e+01	-1.937108e+03
2.100000e-07	-6.728651e-06	-2.947282e-08	-4.883477e+01	-1.933224e+03
2.200000e-07	-6.672827e-06	-2.939538e-08	-4.842962e+01	-1.929095e+03
2.300000e-07	-6.614398e-06	-2.927281e-08	-4.800555e+01	-1.924645e+03
2.400000e-07	-6.553489e-06	-2.925006e-08	-4.756349e+01	-1.919802e+03
2.500000e-07	-6.490208e-06	-2.915077e-08	-4.710422e+01	-1.914512e+03
2.600000e-07	-6.424446e-06	-2.906414e-08	-4.662693e+01	-1.908743e+03
2.700000e-07	-6.356251e-06	-2.897641e-08	-4.613199e+01	-1.902497e+03
2.800000e-07	-6.285762e-06	-2.888725e-08	-4.562040e+01	-1.895804e+03
2.900000e-07	-6.212835e-06	-2.876375e-08	-4.509112e+01	-1.888719e+03
3.000000e-07	-6.137300e-06	-2.863964e-08	-4.454291e+01	-1.881313e+03
3.100000e-07	-6.059156e-06	-2.856949e-08	-4.397576e+01	-1.873661e+03
3.200000e-07	-5.978575e-06	-2.843579e-08	-4.339092e+01	-1.865826e+03
3.300000e-07	-5.895873e-06	-2.833082e-08	-4.279069e+01	-1.857849e+03
3.400000e-07	-5.811258e-06	-2.819360e-08	-4.217658e+01	-1.849740e+03
3.500000e-07	-5.724778e-06	-2.805556e-08	-4.154893e+01	-1.841471e+03
3.600000e-07	-5.636314e-06	-2.793630e-08	-4.090688e+01	-1.832984e+03
3.700000e-07	-5.545756e-06	-2.778349e-08	-4.024964e+01	-1.824191e+03
3.800000e-07	-5.453189e-06	-2.763777e-08	-3.957781e+01	-1.814992e+03
3.900000e-07	-5.358687e-06	-2.748032e-08	-3.889194e+01	-1.805288e+03
4.000000e-07	-5.262240e-06	-2.732446e-08	-3.819195e+01	-1.794993e+03
4.100000e-07	-5.163938e-06	-2.714626e-08	-3.747850e+01	-1.784049e+03
4.200000e-07	-5.063890e-06	-2.698238e-08	-3.675238e+01	-1.772435e+03
4.300000e-07	-4.962057e-06	-2.680270e-08	-3.601330e+01	-1.760165e+03
4.400000e-07	-4.858459e-06	-2.660650e-08	-3.526142e+01	-1.747287e+03
4.500000e-07	-4.753097e-06	-2.641089e-08	-3.449672e+01	-1.733872e+03
4.600000e-07	-4.646032e-06	-2.620888e-08	-3.371967e+01	-1.719996e+03
4.700000e-07	-4.537308e-06	-2.599799e-08	-3.293059e+01	-1.705727e+03
4.800000e-07	-4.427011e-06	-2.577567e-08	-3.213008e+01	-1.691106e+03
4.900000e-07	-4.315135e-06	-2.555113e-08	-3.131811e+01	-1.676136e+03
5.000000e-07	-4.201456e-06	-2.530692e-08	-3.049306e+01	-1.660773e+03
5.100000e-07	-4.085994e-06	-2.505224e-08	-2.965506e+01	-1.644927e+03
5.200000e-07	-3.968912e-06	-2.478746e-08	-2.880531e+01	-1.628472e+03
5.300000e-07	-3.850414e-06	-2.451804e-08	-2.794529e+01	-1.611257e+03
5.400000e-07	-3.730534e-06	-2.423241e-08	-2.707523e+01	-1.593125e+03
5.500000e-07	-3.609225e-06	-2.393139e-08	-2.619481e+01	-1.573936e+03
5.600000e-07	-3.486519e-06	-2.361922e-08	-2.530423e+01	-1.553577e+03
5.700000e-07	-3.362480e-06	-2.329270e-08	-2.440399e+01	-1.531982e+03
5.800000e-07	-3.237231e-06	-2.295117e-08	-2.349497e+01	-1.509131e+03
5.900000e-07	-3.110865e-06	-2.259401e-08	-2.257784e+01	-1.485048e+03
6.000000e-07	-2.983337e-06	-2.222302e-08	-2.165227e+01	-1.459786e+03
6.100000e-07	-2.854574e-06	-2.182969e-08	-2.071775e+01	-1.433404e+03
6.200000e-07	-2.724723e-06	-2.141694e-08	-1.977532e+01	-1.405944e+03
6.300000e-07	-2.593899e-06	-2.098032e-08	-1.882584e+01	-1.377403e+03
6.400000e-07	-2.462067e-06	-2.052217e-08	-1.786904e+01	-1.347710e+03
6.500000e-07	-2.329316e-06	-2.003869e-08	-1.690556e+01	-1.316712e+03
6.600000e-07	-2.195865e-06	-1.952739e-08	-1.593701e+01	-1.284168e+03
6.700000e-07	-2.061776e-06	-1.898581e-08	-1.496383e+01	-1.249760e+03
6.800000e-07	-1.926973e-06	-1.840986e-08	-1.398546e+01	-1.213110e+03
6.900000e-07	-1.791406e-06	-1.779944e-08	-1.300155e+01	-1.173815e+03
7.000000e-07	-1.655133e-06	-1.714907e-08	-1.201252e+01	-1.131480e+03
7.100000e-07	-1.518232e-06	-1.645566e-08	-1.101893e+01	-1.085761e+03
7.200000e-07	-1.380817e-06	-1.571345e-08	-1.002160e+01	-1.036400e+03
7.300000e-07	-1.242932e-06	-1.491959e-08	-9.020875e+00	-9.832530e+02
7.400000e-07	-1.104560e-06	-1.407024e-08	-8.016606e+00	-9.263050e+02
7.500000e-07	-9.657903e-07	-1.316674e-08	-7.009451e+00	-8.656709e+02
7.600000e-07	-8.267038e-07	-1.220903e-08	-5.999998e+00	-8.015803e+02
7.700000e-07	-6.873076e-07	-1.119450e-08	-4.988297e+00	-7.343492e+02
7.800000e-07	-5.475808e-07	-1.012081e-08	-3.974197e+00	-6.643414e+02
7.900000e-07	-4.076010e-07	-8.993844e-09	-2.958260e+00	-5.919262e+02
8.000000e-07	-2.674732e-07	-7.824891e-09	-1.941250e+00	-5.174370e+02
8.100000e-07	-1.272179e-07	-6.624922e-09	-9.233140e-01	-4.411382e+02
8.200000e-07	1.315334e-08	-5.406978e-09	9.546351e-02	-3.632052e+02
8.300000e-07	1.535525e-07	-4.180198e-09	1.114444e+00	-2.837194e+02
8.400000e-07	2.939515e-07	-2.951684e-09	2.133422e+00	-2.026827e+02
8.500000e-07	4.342677e-07	-1.718844e-09	3.151801e+00	-1.200459e+02
8.600000e-07	5.743814e-07	-4.746697e-10	4.168709e+00	-3.575134e+01
8.700000e-07	7.143001e-07	7.919794e-10	5.184202e+00	5.021852e+01
8.800000e-07	8.539356e-07	2.090874e-09	6.197640e+00	1.377925e+02
8.900000e-07	9.932112e-07	3.424918e-09	7.208465e+00	2.267689e+02
9.000000e-07	1.132060e-06	4.795244e-09	8.216189e+00	3.167875e+02
9.100000e-07	1.270501e-06	6.194966e-09	9.220965e+00	4.073192e+02
9.200000e-07	1.408471e-06	7.609283e-09	1.022231e+01	4.976776e+02
9.300000e-07	1.545853e-06	9.012107e-09	1.121939e+01	5.870496e+02
9.400000e-07	1.682621e-06	1.037932e-08	1.221202e+01	6.745449e+02
9.500000e-07	1.818747e-06	1.168903e-08	1.319999e+01	7.592577e+02
9.600000e-07	1.954176e-06	1.291955e-08	1.418289e+01	8.403333e+02
9.700000e-07	2.088783e-06	1.406149e-08	1.515984e+01	9.170334e+02
9.800000e-07	2.222596e-06	1.511604e-08	1.613101e+01	9.887908e+02
9.900000e-07	2.355725e-06	1.608976e-08	1.709723e+01	1.055249e+03
1.000000e-06	2.488069e-06	1.698930e-08	1.805775e+01	1.116281e+03
1.010000e-06	2.619404e-06	1.781825e-08	1.901094e+01	1.171986e+03
1.020000e-06	2.749710e-06	1.858157e-08	1.995667e+01	1.222664e+03
1.030000e-06	2.878971e-06	1.928440e-08	2.089481e+01	1.268773e+03
1.040000e-06	3.007095e-06	1.993525e-08	2.182470e+01	1.310876e+03
1.050000e-06	3.134137e-06	2.054111e-08	2.274674e+01	1.349583e+03
1.060000e-06	3.260091e-06	2.110596e-08	2.366088e+01	1.385486e+03
1.070000e-06	3.384931e-06	2.163343e-08	2.456694e+01	1.419114e+03
1.080000e-06	3.508620e-06	2.212529e-08	2.546464e+01	1.450896e+03
1.090000e-06	3.631061e-06	2.258707e-08	2.635329e+01	1.481141e+03
1.100000e-06	3.752181e-06	2.302443e-08	2.723234e+01	1.510034e+03
1.110000e-06	3.871918e-06	2.343747e-08	2.810136e+01	1.537650e+03
1.120000e-06	3.990209e-06	2.382483e-08	2.895988e+01	1.563981e+03
1.130000e-06	4.107097e-06	2.418870e-08	2.980823e+01	1.588969e+03
1.140000e-06	4.222457e-06	2.453136e-08	3.064548e+01	1.612539e+03
1.150000e-06	4.336044e-06	2.485747e-08	3.146987e+01	1.634638e+03
1.160000e-06	4.447962e-06	2.516685e-08	3.228214e+01	1.655251e+03
1.170000e-06	4.558344e-06	2.545988e-08	3.308326e+01	1.674422e+03
1.180000e-06	4.667245e-06	2.573652e-08	3.387363e+01	1.692254e+03
1.190000e-06	4.774558e-06	2.599881e-08	3.465249e+01	1.708896e+03
1.200000e-06	4.880095e-06	2.624886e-08	3.541844e+01	1.724536e+03
1.210000e-06	4.983827e-06	2.648582e-08	3.617130e+01	1.739366e+03
1.220000e-06	5.085788e-06	2.671134e-08	3.691131e+01	1.753568e+03
1.230000e-06	5.185999e-06	2.692661e-08	3.763861e+01	1.767286e+03
1.240000e-06	5.284237e-06	2.712929e-08	3.835160e+01	1.780619e+03
1.250000e-06	5.380371e-06	2.731908e-08	3.904931e+01	1.793604e+03
1.260000e-06	5.474610e-06	2.749992e-08	3.973328e+01	1.806229e+03
1.270000e-06	5.567029e-06	2.767450e-08	4.040403e+01	1.818436e+03
1.280000e-06	5.657406e-06	2.784413e-08	4.105996e+01	1.830141e+03
1.290000e-06	5.745610e-06	2.800773e-08	4.170012e+01	1.841251e+03
1.300000e-06	5.831729e-06	2.816479e-08	4.232515e+01	1.851689e+03
1.310000e-06	5.915876e-06	2.831313e-08	4.293587e+01	1.861403e+03
1.320000e-06	5.997912e-06	2.845273e-08	4.353126e+01	1.870383e+03
1.330000e-06	6.077688e-06	2.858339e-08	4.411026e+01	1.878661e+03
1.340000e-06	6.155276e-06	2.870652e-08	4.467337e+01	1.886307e+03
1.350000e-06	6.230520e-06	2.882299e-08	4.521947e+01	1.893423e+03
1.360000e-06	6.303335e-06	2.893391e-08	4.574794e+01	1.900122e+03
1.370000e-06	6.373879e-06	2.904101e-08	4.625993e+01	1.906517e+03
1.380000e-06	6.442217e-06	2.914168e-08	4.675591e+01	1.912701e+03
1.390000e-06	6.508181e-06	2.923616e-08	4.723466e+01	1.918737e+03
1.400000e-06	6.571766e-06	2.932601e-08	4.769615e+01	1.924653e+03
1.410000e-06	6.633204e-06	2.941002e-08	4.814205e+01	1.930438e+03
1.420000e-06	6.692429e-06	2.948723e-08	4.857189e+01	1.936048e+03
1.430000e-06	6.749236e-06	2.955984e-08	4.898418e+01	1.941419e+03
1.440000e-06	6.803584e-06	2.962906e-08	4.937862e+01	1.946478e+03
1.450000e-06	6.855218e-06	2.969514e-08	4.975337e+01	1.951157e+03
1.460000e-06	6.903993e-06	2.975814e-08	5.010736e+01	1.955409e+03
1.470000e-06	6.950258e-06	2.981824e-08	5.044314e+01	1.959212e+03
1.480000e-06	6.994187e-06	2.987656e-08	5.076196e+01	1.962575e+03
1.490000e-06	7.035578e-06	2.993165e-08	5.106237e+01	1.965540e+03
1.500000e-06	7.074344e-06	2.998070e-08	5.134372e+01	1.968166e+03
1.510000e-06	7.110737e-06	3.002347e-08	5.160785e+01	1.970529e+03
1.520000e-06	7.144684e-06	3.006094e-08	5.185423e+01	1.972701e+03
1.530000e-06	7.176008e-06	3.009423e-08	5.208158e+01	1.974744e+03
1.540000e-06	7.204892e-06	3.012394e-08	5.229120e+01	1.976697e+03
1.550000e-06	7.231208e-06	3.015021e-08	5.248220e+01	1.978571e+03
1.560000e-06	7.254755e-06	3.017505e-08	5.265310e+01	1.980351e+03
1.570000e-06	7.275742e-06	3.019700e-08	5.280542e+01	1.981996e+03
1.580000e-06	7.294236e-06	3.021508e-08	5.293964e+01	1.983448e+03
1.590000e-06	7.310054e-06	3.022716e-08	5.305445e+01	1.984646e+03
1.600000e-06	7.323114e-06	3.023414e-08	5.314923e+01	1.985534e+03
1.610000e-06	7.333240e-06	3.024096e-08	5.322272e+01	1.986074e+03
1.620000e-06	7.340516e-06	3.024651e-08	5.327553e+01	1.986251e+03
1.630000e-06	7.345263e-06	3.024963e-08	5.330998e+01	1.986077e+03
1.640000e-06	7.347360e-06	3.024981e-08	5.332520e+01	1.985589e+03
1.650000e-06	7.346803e-06	3.024854e-08	5.332116e+01	1.984846e+03
1.660000e-06	7.343896e-06	3.023404e-08	5.330006e+01	1.983914e+03
1.670000e-06	7.338637e-06	3.022124e-08	5.326189e+01	1.982862e+03
1.680000e-06	7.330903e-06	3.021044e-08	5.320576e+01	1.981744e+03
1.690000e-06	7.320726e-06	3.019644e-08	5.313190e+01	1.980597e+03
1.700000e-06	7.307916e-06	3.017956e-08	5.303893e+01	1.979432e+03
1.710000e-06	7.292490e-06	3.016429e-08	5.292697e+01	1.978235e+03
1.720000e-06	7.274854e-06	3.015635e-08	5.279897e+01	1.976969e+03
1.730000e-06	7.255144e-06	3.009390e-08	5.265592e+01	1.975584e+03
1.740000e-06	7.232833e-06	2.997163e-08	5.249399e+01	1.974021e+03
1.750000e-06	7.207217e-06	2.998921e-08	5.230808e+01	1.972230e+03
1.760000e-06	7.178174e-06	3.000930e-08	5.209729e+01	1.970172e+03
1.770000e-06	7.146308e-06	2.994504e-08	5.186602e+01	1.967831e+03
1.780000e-06	7.112358e-06	2.994196e-08	5.161962e+01	1.965212e+03
1.790000e-06	7.076744e-06	2.999845e-08	5.136114e+01	1.962341e+03
1.800000e-06	7.039546e-06	2.982313e-08	5.109117e+01	1.959259e+03
1.810000e-06	6.999954e-06	2.980547e-08	5.080382e+01	1.956013e+03
1.820000e-06	6.957665e-06	2.988335e-08	5.049690e+01	1.952644e+03
1.830000e-06	6.913239e-06	2.970945e-08	5.017447e+01	1.949181e+03
1.840000e-06	6.866324e-06	2.978364e-08	4.983397e+01	1.945628e+03
1.850000e-06	6.816747e-06	2.963348e-08	4.947415e+01	1.941966e+03
1.860000e-06	6.764545e-06	2.954526e-08	4.909529e+01	1.938151e+03
1.870000e-06	6.709525e-06	2.958892e-08	4.869596e+01	1.934116e+03
1.880000e-06	6.652069e-06	2.938593e-08	4.827896e+01	1.929788e+03
1.890000e-06	6.592121e-06	2.939620e-08	4.784388e+01	1.925091e+03
1.900000e-06	6.529560e-06	2.928192e-08	4.738983e+01	1.919964e+03
1.910000e-06	6.464593e-06	2.917844e-08	4.691831e+01	1.914367e+03
1.920000e-06	6.397221e-06	2.912360e-08	4.642935e+01	1.908288e+03
1.930000e-06	6.327427e-06	2.898995e-08	4.592280e+01	1.901747e+03
1.940000e-06	6.255153e-06	2.898015e-08	4.539825e+01	1.894793e+03
1.950000e-06	6.180435e-06	2.880177e-08	4.485597e+01	1.887492e+03
1.960000e-06	6.103143e-06	2.871246e-08	4.429500e+01	1.879918e+03
1.970000e-06	6.023385e-06	2.858698e-08	4.371614e+01	1.872141e+03
1.980000e-06	5.941598e-06	2.845280e-08	4.312256e+01	1.864210e+03
1.990000e-06	5.857815e-06	2.837811e-08	4.251448e+01	1.856148e+03
2.000000e-06	5.771836e-06	2.821045e-08	4.189046e+01	1.847940e+03
2.010000e-06	5.683625e-06	2.811718e-08	4.125025e+01	1.839538e+03
2.020000e-06	5.593474e-06	2.794526e-08	4.059596e+01	1.830863e+03
2.030000e-06	5.501406e-06	2.780294e-08	3.992776e+01	1.821820e+03
2.040000e-06	5.407269e-06	2.764922e-08	3.924453e+01	1.812306e+03
2.050000e-06	5.311182e-06	2.749752e-08	3.854716e+01	1.802229e+03
2.060000e-06	5.213388e-06	2.734198e-08	3.783739e+01	1.791520e+03
2.070000e-06	5.113945e-06	2.715399e-08	3.711567e+01	1.780144e+03
2.080000e-06	5.012600e-06	2.699257e-08	3.638013e+01	1.768102e+03
2.090000e-06	4.909264e-06	2.679583e-08	3.563014e+01	1.755433e+03
2.100000e-06	4.804153e-06	2.661504e-08	3.486728e+01	1.742199e+03
2.110000e-06	4.697567e-06	2.640982e-08	3.409370e+01	1.728478e+03
2.120000e-06	4.589439e-06	2.620589e-08	3.330894e+01	1.714341e+03
2.130000e-06	4.479597e-06	2.597877e-08	3.251173e+01	1.699842e+03
2.140000e-06	4.368087e-06	2.574990e-08	3.170243e+01	1.684998e+03
2.150000e-06	4.254902e-06	2.551613e-08	3.088096e+01	1.669781e+03
2.160000e-06	4.140061e-06	2.527169e-08	3.004747e+01	1.654119e+03
2.170000e-06	4.023498e-06	2.501877e-08	2.920149e+01	1.637897e+03
2.180000e-06	3.905235e-06	2.474791e-08	2.834316e+01	1.620970e+03
2.190000e-06	3.785394e-06	2.447359e-08	2.747339e+01	1.603182e+03
2.200000e-06	3.664145e-06	2.418210e-08	2.659340e+01	1.584383e+03
2.210000e-06	3.541687e-06	2.388432e-08	2.570463e+01	1.564450e+03
2.220000e-06	3.417945e-06	2.356522e-08	2.480654e+01	1.543300e+03
2.230000e-06	3.292823e-06	2.323380e-08	2.389844e+01	1.520895e+03
2.240000e-06	3.166387e-06	2.287983e-08	2.298080e+01	1.497246e+03
2.250000e-06	3.038793e-06	2.251551e-08	2.205476e+01	1.472397e+03
2.260000e-06	2.910108e-06	2.213319e-08	2.112080e+01	1.446407e+03
2.270000e-06	2.780401e-06	2.173287e-08	2.017942e+01	1.419328e+03
2.280000e-06	2.649815e-06	2.131034e-08	1.923166e+01	1.391176e+03
2.290000e-06	2.518245e-06	2.086270e-08	1.827676e+01	1.361906e+03
2.300000e-06	2.385687e-06	2.039010e-08	1.731469e+01	1.331396e+03
2.310000e-06	2.252333e-06	1.988960e-08	1.634684e+01	1.299435e+03
2.320000e-06	2.118232e-06	1.936100e-08	1.537357e+01	1.265732e+03
2.330000e-06	1.983389e-06	1.879619e-08	1.439492e+01	1.229927e+03
2.340000e-06	1.847854e-06	1.819824e-08	1.341124e+01	1.191622e+03
2.350000e-06	1.711660e-06	1.756109e-08	1.242277e+01	1.150414e+03
2.360000e-06	1.574851e-06	1.688486e-08	1.142985e+01	1.105937e+03
2.370000e-06	1.437550e-06	1.616435e-08	1.043336e+01	1.057898e+03
2.380000e-06	1.299839e-06	1.539455e-08	9.433889e+00	1.006110e+03
2.390000e-06	1.161731e-06	1.457065e-08	8.431538e+00	9.505118e+02
2.400000e-06	1.023237e-06	1.368839e-08	7.426381e+00	8.911718e+02
2.410000e-06	8.843865e-07	1.274723e-08	6.418644e+00	8.282817e+02
2.420000e-06	7.452123e-07	1.174643e-08	5.408554e+00	7.621305e+02
2.430000e-06	6.057279e-07	1.068876e-08	4.396213e+00	6.930699e+02
2.440000e-06	4.659797e-07	9.581118e-09	3.381958e+00	6.214721e+02
2.450000e-06	3.259702e-07	8.427041e-09	2.365806e+00	5.476875e+02
2.460000e-06	1.857542e-07	7.236106e-09	1.348155e+00	4.720086e+02
2.470000e-06	4.546845e-08	6.021107e-09	3.299981e-01	3.946436e+02
2.480000e-06	-9.482314e-08	4.795075e-09	-6.882014e-01	3.157071e+02
2.490000e-06	-2.350935e-07	3.564019e-09	-1.706247e+00	2.352265e+02
2.500000e-06	-3.753094e-07	2.325172e-09	-2.723897e+00	1.531669e+02
2.510000e-06	-5.153838e-07	1.076664e-09	-3.740520e+00	6.946808e+01
2.520000e-06	-6.552176e-07	-1.887862e-10	-4.755397e+00	-1.590750e+01
2.530000e-06	-7.947628e-07	-1.480180e-09	-5.768179e+00	-1.029257e+02
2.540000e-06	-9.340436e-07	-2.805470e-09	-6.779042e+00	-1.914354e+02
2.550000e-06	-1.073065e-06	-4.166364e-09	-7.788021e+00	-2.811352e+02
2.560000e-06	-1.211646e-06	-5.558730e-09	-8.793805e+00	-3.715563e+02
2.570000e-06	-1.349687e-06	-6.971987e-09	-9.795670e+00	-4.620657e+02
2.580000e-06	-1.487232e-06	-8.387371e-09	-1.079394e+01	-5.518909e+02
2.590000e-06	-1.624303e-06	-9.780119e-09	-1.178876e+01	-6.401625e+02
2.600000e-06	-1.760833e-06	-1.112333e-08	-1.277966e+01	-7.259728e+02
2.610000e-06	-1.896649e-06	-1.239748e-08	-1.376538e+01	-8.084410e+02
2.620000e-06	-2.031643e-06	-1.358776e-08	-1.474513e+01	-8.867802e+02
2.630000e-06	-2.165871e-06	-1.468840e-08	-1.571932e+01	-9.603568e+02
2.640000e-06	-2.299317e-06	-1.570388e-08	-1.668783e+01	-1.028736e+03
2.650000e-06	-2.431859e-06	-1.664037e-08	-1.764979e+01	-1.091708e+03
2.660000e-06	-2.563452e-06	-1.750430e-08	-1.860486e+01	-1.149292e+03
2.670000e-06	-2.694053e-06	-1.829908e-08	-1.955272e+01	-1.201721e+03
2.680000e-06	-2.823718e-06	-1.902995e-08	-2.049380e+01	-1.249402e+03
2.690000e-06	-2.952490e-06	-1.970434e-08	-2.142839e+01	-1.292869e+03
2.700000e-06	-3.080223e-06	-2.033085e-08	-2.235545e+01	-1.332720e+03
2.710000e-06	-3.206744e-06	-2.091843e-08	-2.327371e+01	-1.369561e+03
2.720000e-06	-3.332049e-06	-2.147113e-08	-2.418313e+01	-1.403948e+03
2.730000e-06	-3.456174e-06	-2.198823e-08	-2.508400e+01	-1.436349e+03
2.740000e-06	-3.579070e-06	-2.246931e-08	-2.597595e+01	-1.467117e+03
2.750000e-06	-3.700695e-06	-2.291788e-08	-2.685867e+01	-1.496480e+03
2.760000e-06	-3.821009e-06	-2.333672e-08	-2.773188e+01	-1.524551e+03
2.770000e-06	-3.939872e-06	-2.373049e-08	-2.859455e+01	-1.551347e+03
2.780000e-06	-4.057146e-06	-2.410362e-08	-2.944570e+01	-1.576825e+03
2.790000e-06	-4.172865e-06	-2.445647e-08	-3.028555e+01	-1.600911e+03
2.800000e-06	-4.286888e-06	-2.478997e-08	-3.111311e+01	-1.623541e+03
2.810000e-06	-4.399092e-06	-2.510659e-08	-3.192745e+01	-1.644684e+03
2.820000e-06	-4.509633e-06	-2.540743e-08	-3.272972e+01	-1.664363e+03
2.830000e-06	-4.618641e-06	-2.569303e-08	-3.352088e+01	-1.682659e+03
2.840000e-06	-4.726181e-06	-2.596380e-08	-3.430137e+01	-1.699708e+03
2.850000e-06	-4.832169e-06	-2.621855e-08	-3.507061e+01	-1.715685e+03
2.860000e-06	-4.936406e-06	-2.645864e-08	-3.582713e+01	-1.730784e+03
2.870000e-06	-5.038705e-06	-2.668727e-08	-3.656959e+01	-1.745192e+03
2.880000e-06	-5.139100e-06	-2.690644e-08	-3.729823e+01	-1.759071e+03
2.890000e-06	-5.237729e-06	-2.711785e-08	-3.801406e+01	-1.772535e+03
2.900000e-06	-5.334653e-06	-2.731981e-08	-3.871750e+01	-1.785645e+03
2.910000e-06	-5.429668e-06	-2.751125e-08	-3.940710e+01	-1.798405e+03
2.920000e-06	-5.522608e-06	-2.769256e-08	-4.008163e+01	-1.810771e+03
2.930000e-06	-5.613550e-06	-2.786403e-08	-4.074166e+01	-1.822667e+03
2.940000e-06	-5.702508e-06	-2.802748e-08	-4.138730e+01	-1.834002e+03
