# Temperatura_=_46.23
# Concentracion g/m^3_=_28370.0
# C_Vs_to_Am_M_A/Vsm_=_65563218390.804596
# pendiente_HvsI_1/m_=_3716.3
# ordenada_HvsI_A/m_=_1297.0
# frecuencia_Hz_=_302375.60455145047

Tiempo_(s)	Campo_(V.s)	Magnetizacion_(V.s)	Campo_(kA/m)	Magnetizacion_(A/m)
0.000000e+00	-7.324803e-06	-2.999694e-08	-5.318909e+01	-1.963217e+03
1.000000e-08	-7.320715e-06	-2.999249e-08	-5.315941e+01	-1.962291e+03
2.000000e-08	-7.314303e-06	-2.997877e-08	-5.311285e+01	-1.961253e+03
3.000000e-08	-7.305550e-06	-2.996346e-08	-5.304929e+01	-1.960161e+03
4.000000e-08	-7.294189e-06	-2.994667e-08	-5.296679e+01	-1.959058e+03
5.000000e-08	-7.280034e-06	-2.992629e-08	-5.286400e+01	-1.957960e+03
6.000000e-08	-7.263226e-06	-2.989995e-08	-5.274195e+01	-1.956855e+03
7.000000e-08	-7.244236e-06	-2.987197e-08	-5.260405e+01	-1.955711e+03
8.000000e-08	-7.223175e-06	-2.986228e-08	-5.245112e+01	-1.954477e+03
9.000000e-08	-7.199456e-06	-2.989639e-08	-5.227889e+01	-1.953097e+03
1.000000e-07	-7.172717e-06	-2.984686e-08	-5.208472e+01	-1.951515e+03
1.100000e-07	-7.143208e-06	-2.975871e-08	-5.187043e+01	-1.949690e+03
1.200000e-07	-7.111210e-06	-2.971879e-08	-5.163809e+01	-1.947600e+03
1.300000e-07	-7.076717e-06	-2.967206e-08	-5.138761e+01	-1.945242e+03
1.400000e-07	-7.040039e-06	-2.958100e-08	-5.112128e+01	-1.942637e+03
1.500000e-07	-7.001572e-06	-2.952990e-08	-5.084195e+01	-1.939821e+03
1.600000e-07	-6.960959e-06	-2.960870e-08	-5.054704e+01	-1.936834e+03
1.700000e-07	-6.917839e-06	-2.952078e-08	-5.023392e+01	-1.933715e+03
1.800000e-07	-6.872283e-06	-2.944092e-08	-4.990311e+01	-1.930491e+03
1.900000e-07	-6.824074e-06	-2.944038e-08	-4.955305e+01	-1.927168e+03
2.000000e-07	-6.773032e-06	-2.930072e-08	-4.918240e+01	-1.923729e+03
2.100000e-07	-6.719391e-06	-2.924641e-08	-4.879289e+01	-1.920134e+03
2.200000e-07	-6.663279e-06	-2.919263e-08	-4.838543e+01	-1.916322e+03
2.300000e-07	-6.604680e-06	-2.911921e-08	-4.795991e+01	-1.912227e+03
2.400000e-07	-6.543609e-06	-2.906847e-08	-4.751645e+01	-1.907779e+03
2.500000e-07	-6.480131e-06	-2.897014e-08	-4.705550e+01	-1.902923e+03
2.600000e-07	-6.414200e-06	-2.892101e-08	-4.657674e+01	-1.897626e+03
2.700000e-07	-6.345798e-06	-2.883050e-08	-4.608004e+01	-1.891880e+03
2.800000e-07	-6.275047e-06	-2.872552e-08	-4.556628e+01	-1.885708e+03
2.900000e-07	-6.201955e-06	-2.863813e-08	-4.503553e+01	-1.879157e+03
3.000000e-07	-6.126327e-06	-2.854297e-08	-4.448636e+01	-1.872293e+03
3.100000e-07	-6.048023e-06	-2.843582e-08	-4.391775e+01	-1.865185e+03
3.200000e-07	-5.967271e-06	-2.830341e-08	-4.333137e+01	-1.857897e+03
3.300000e-07	-5.884462e-06	-2.823426e-08	-4.273004e+01	-1.850472e+03
3.400000e-07	-5.799722e-06	-2.811211e-08	-4.211471e+01	-1.842922e+03
3.500000e-07	-5.713089e-06	-2.796707e-08	-4.148562e+01	-1.835227e+03
3.600000e-07	-5.624485e-06	-2.785043e-08	-4.084222e+01	-1.827330e+03
3.700000e-07	-5.533751e-06	-2.771874e-08	-4.018336e+01	-1.819146e+03
3.800000e-07	-5.440973e-06	-2.757962e-08	-3.950965e+01	-1.810576e+03
3.900000e-07	-5.346352e-06	-2.743432e-08	-3.882256e+01	-1.801515e+03
4.000000e-07	-5.249877e-06	-2.729630e-08	-3.812201e+01	-1.791872e+03
4.100000e-07	-5.151461e-06	-2.712051e-08	-3.740736e+01	-1.781579e+03
4.200000e-07	-5.051216e-06	-2.694503e-08	-3.667943e+01	-1.770606e+03
4.300000e-07	-4.949193e-06	-2.677618e-08	-3.593859e+01	-1.758958e+03
4.400000e-07	-4.845433e-06	-2.660311e-08	-3.518513e+01	-1.746678e+03
4.500000e-07	-4.739942e-06	-2.641685e-08	-3.441911e+01	-1.733833e+03
4.600000e-07	-4.632731e-06	-2.622171e-08	-3.364060e+01	-1.720500e+03
4.700000e-07	-4.523904e-06	-2.601763e-08	-3.285035e+01	-1.706752e+03
4.800000e-07	-4.413533e-06	-2.579170e-08	-3.204889e+01	-1.692638e+03
4.900000e-07	-4.301571e-06	-2.556499e-08	-3.123587e+01	-1.678171e+03
5.000000e-07	-4.187807e-06	-2.534058e-08	-3.040978e+01	-1.663315e+03
5.100000e-07	-4.072196e-06	-2.510659e-08	-2.957027e+01	-1.647988e+03
5.200000e-07	-3.955015e-06	-2.484725e-08	-2.871936e+01	-1.632068e+03
5.300000e-07	-3.836452e-06	-2.457822e-08	-2.785842e+01	-1.615403e+03
5.400000e-07	-3.716518e-06	-2.430045e-08	-2.698751e+01	-1.597831e+03
5.500000e-07	-3.595153e-06	-2.401016e-08	-2.610622e+01	-1.579200e+03
5.600000e-07	-3.472364e-06	-2.370695e-08	-2.521459e+01	-1.559385e+03
5.700000e-07	-3.348207e-06	-2.338913e-08	-2.431302e+01	-1.538305e+03
5.800000e-07	-3.222850e-06	-2.305145e-08	-2.340274e+01	-1.515928e+03
5.900000e-07	-3.096418e-06	-2.269288e-08	-2.248466e+01	-1.492266e+03
6.000000e-07	-2.968849e-06	-2.232196e-08	-2.155831e+01	-1.467364e+03
6.100000e-07	-2.840119e-06	-2.193510e-08	-2.062354e+01	-1.441281e+03
6.200000e-07	-2.710280e-06	-2.153088e-08	-1.968071e+01	-1.414059e+03
6.300000e-07	-2.579409e-06	-2.110244e-08	-1.873039e+01	-1.385702e+03
6.400000e-07	-2.447576e-06	-2.064821e-08	-1.777309e+01	-1.356144e+03
6.500000e-07	-2.314907e-06	-2.016468e-08	-1.680971e+01	-1.325236e+03
6.600000e-07	-2.181489e-06	-1.965372e-08	-1.584089e+01	-1.292739e+03
6.700000e-07	-2.047379e-06	-1.911259e-08	-1.486705e+01	-1.258331e+03
6.800000e-07	-1.912527e-06	-1.853420e-08	-1.388782e+01	-1.221623e+03
6.900000e-07	-1.776924e-06	-1.791736e-08	-1.290314e+01	-1.182198e+03
7.000000e-07	-1.640721e-06	-1.725959e-08	-1.191411e+01	-1.139645e+03
7.100000e-07	-1.503998e-06	-1.655906e-08	-1.092129e+01	-1.093603e+03
7.200000e-07	-1.366736e-06	-1.580989e-08	-9.924559e+00	-1.043806e+03
7.300000e-07	-1.228887e-06	-1.500995e-08	-8.923568e+00	-9.901106e+02
7.400000e-07	-1.090481e-06	-1.415480e-08	-7.918534e+00	-9.325202e+02
7.500000e-07	-9.516990e-07	-1.324229e-08	-6.910766e+00	-8.711860e+02
7.600000e-07	-8.126420e-07	-1.227194e-08	-5.901003e+00	-8.063941e+02
7.700000e-07	-6.732637e-07	-1.124660e-08	-4.888907e+00	-7.385353e+02
7.800000e-07	-5.336224e-07	-1.016697e-08	-3.874902e+00	-6.680631e+02
7.900000e-07	-3.937436e-07	-9.035884e-09	-2.859171e+00	-5.954440e+02
8.000000e-07	-2.536442e-07	-7.867901e-09	-1.841838e+00	-5.211072e+02
8.100000e-07	-1.133922e-07	-6.678766e-09	-8.233978e-01	-4.454016e+02
8.200000e-07	2.698053e-08	-5.480635e-09	1.959192e-01	-3.685649e+02
8.300000e-07	1.673734e-07	-4.281398e-09	1.215383e+00	-2.907101e+02
8.400000e-07	3.076661e-07	-3.086093e-09	2.234119e+00	-2.118315e+02
8.500000e-07	4.478186e-07	-1.889276e-09	3.251837e+00	-1.318314e+02
8.600000e-07	5.877749e-07	-6.811553e-10	4.268130e+00	-5.056151e+01
8.700000e-07	7.275435e-07	5.437796e-10	5.283061e+00	3.212355e+01
8.800000e-07	8.671319e-07	1.792473e-09	6.296682e+00	1.163088e+02
8.900000e-07	1.006391e-06	3.073584e-09	7.307914e+00	2.019654e+02
9.000000e-07	1.145260e-06	4.391172e-09	8.316308e+00	2.889087e+02
9.100000e-07	1.283651e-06	5.739997e-09	9.321237e+00	3.767737e+02
9.200000e-07	1.421490e-06	7.110623e-09	1.032216e+01	4.650116e+02
9.300000e-07	1.558800e-06	8.486038e-09	1.131924e+01	5.529101e+02
9.400000e-07	1.695506e-06	9.841313e-09	1.231192e+01	6.396343e+02
9.500000e-07	1.831573e-06	1.115346e-08	1.329997e+01	7.242846e+02
9.600000e-07	1.966904e-06	1.240322e-08	1.428268e+01	8.059647e+02
9.700000e-07	2.101379e-06	1.357726e-08	1.525917e+01	8.838525e+02
9.800000e-07	2.235088e-06	1.466719e-08	1.623010e+01	9.572640e+02
9.900000e-07	2.368080e-06	1.567222e-08	1.719582e+01	1.025705e+03
1.000000e-06	2.500313e-06	1.660076e-08	1.815603e+01	1.088904e+03
1.010000e-06	2.631583e-06	1.745720e-08	1.910925e+01	1.146819e+03
1.020000e-06	2.761660e-06	1.824614e-08	2.005380e+01	1.199628e+03
1.030000e-06	2.890647e-06	1.897375e-08	2.099045e+01	1.247695e+03
1.040000e-06	3.018629e-06	1.964682e-08	2.191979e+01	1.291517e+03
1.050000e-06	3.145475e-06	2.027301e-08	2.284088e+01	1.331670e+03
1.060000e-06	3.271204e-06	2.085658e-08	2.375386e+01	1.368746e+03
1.070000e-06	3.395900e-06	2.140129e-08	2.465934e+01	1.403299e+03
1.080000e-06	3.519389e-06	2.190859e-08	2.555606e+01	1.435797e+03
1.090000e-06	3.641501e-06	2.238251e-08	2.644278e+01	1.466600e+03
1.100000e-06	3.762343e-06	2.282689e-08	2.732027e+01	1.495944e+03
1.110000e-06	3.881904e-06	2.324265e-08	2.818847e+01	1.523952e+03
1.120000e-06	4.000057e-06	2.363286e-08	2.904643e+01	1.550648e+03
1.130000e-06	4.116799e-06	2.400322e-08	2.989415e+01	1.575994e+03
1.140000e-06	4.231956e-06	2.435405e-08	3.073037e+01	1.599923e+03
1.150000e-06	4.345435e-06	2.468533e-08	3.155440e+01	1.622374e+03
1.160000e-06	4.457233e-06	2.499744e-08	3.236622e+01	1.643317e+03
1.170000e-06	4.567418e-06	2.529165e-08	3.316633e+01	1.662776e+03
1.180000e-06	4.676139e-06	2.556833e-08	3.395580e+01	1.680835e+03
1.190000e-06	4.783221e-06	2.582935e-08	3.473338e+01	1.697632e+03
1.200000e-06	4.888526e-06	2.607818e-08	3.549805e+01	1.713343e+03
1.210000e-06	4.992029e-06	2.631591e-08	3.624964e+01	1.728166e+03
1.220000e-06	5.093754e-06	2.654163e-08	3.698832e+01	1.742289e+03
1.230000e-06	5.193629e-06	2.675538e-08	3.771356e+01	1.755876e+03
1.240000e-06	5.291522e-06	2.695865e-08	3.842441e+01	1.769042e+03
1.250000e-06	5.387423e-06	2.715008e-08	3.912080e+01	1.781847e+03
1.260000e-06	5.481395e-06	2.733070e-08	3.980318e+01	1.794293e+03
1.270000e-06	5.573516e-06	2.750231e-08	4.047211e+01	1.806335e+03
1.280000e-06	5.663685e-06	2.766693e-08	4.112688e+01	1.817893e+03
1.290000e-06	5.751724e-06	2.782477e-08	4.176617e+01	1.828872e+03
1.300000e-06	5.837661e-06	2.797603e-08	4.239020e+01	1.839185e+03
1.310000e-06	5.921557e-06	2.812100e-08	4.299941e+01	1.848769e+03
1.320000e-06	6.003311e-06	2.825873e-08	4.359307e+01	1.857600e+03
1.330000e-06	6.082867e-06	2.838714e-08	4.417076e+01	1.865698e+03
1.340000e-06	6.160185e-06	2.850740e-08	4.473221e+01	1.873125e+03
1.350000e-06	6.235134e-06	2.861948e-08	4.527645e+01	1.879979e+03
1.360000e-06	6.307666e-06	2.872434e-08	4.580315e+01	1.886379e+03
1.370000e-06	6.377904e-06	2.882394e-08	4.631318e+01	1.892446e+03
1.380000e-06	6.445919e-06	2.891667e-08	4.680707e+01	1.898288e+03
1.390000e-06	6.511596e-06	2.900487e-08	4.728399e+01	1.903984e+03
1.400000e-06	6.574937e-06	2.909050e-08	4.774394e+01	1.909578e+03
1.410000e-06	6.636113e-06	2.917045e-08	4.818816e+01	1.915072e+03
1.420000e-06	6.695022e-06	2.924477e-08	4.861593e+01	1.920430e+03
1.430000e-06	6.751500e-06	2.931558e-08	4.902605e+01	1.925590e+03
1.440000e-06	6.805539e-06	2.938087e-08	4.941845e+01	1.930474e+03
1.450000e-06	6.856910e-06	2.944226e-08	4.979148e+01	1.935005e+03
1.460000e-06	6.905507e-06	2.950150e-08	5.014437e+01	1.939123e+03
1.470000e-06	6.951540e-06	2.955824e-08	5.047864e+01	1.942792e+03
1.480000e-06	6.995141e-06	2.961306e-08	5.079525e+01	1.946008e+03
1.490000e-06	7.036185e-06	2.966248e-08	5.109329e+01	1.948803e+03
1.500000e-06	7.074668e-06	2.970482e-08	5.137274e+01	1.951233e+03
1.510000e-06	7.110775e-06	2.974226e-08	5.163493e+01	1.953376e+03
1.520000e-06	7.144387e-06	2.977732e-08	5.187900e+01	1.955312e+03
1.530000e-06	7.175423e-06	2.981048e-08	5.210437e+01	1.957115e+03
1.540000e-06	7.204005e-06	2.984034e-08	5.231191e+01	1.958842e+03
1.550000e-06	7.230009e-06	2.986495e-08	5.250074e+01	1.960518e+03
1.560000e-06	7.253259e-06	2.988429e-08	5.266957e+01	1.962142e+03
1.570000e-06	7.273988e-06	2.990080e-08	5.282010e+01	1.963683e+03
1.580000e-06	7.292211e-06	2.991601e-08	5.295242e+01	1.965087e+03
1.590000e-06	7.307701e-06	2.992982e-08	5.306491e+01	1.966291e+03
1.600000e-06	7.320388e-06	2.994027e-08	5.315703e+01	1.967230e+03
1.610000e-06	7.330144e-06	2.994784e-08	5.322787e+01	1.967854e+03
1.620000e-06	7.337138e-06	2.995290e-08	5.327866e+01	1.968134e+03
1.630000e-06	7.341622e-06	2.995598e-08	5.331123e+01	1.968065e+03
1.640000e-06	7.343547e-06	2.995754e-08	5.332520e+01	1.967675e+03
1.650000e-06	7.342821e-06	2.995597e-08	5.331993e+01	1.967012e+03
1.660000e-06	7.339638e-06	2.994316e-08	5.329682e+01	1.966142e+03
1.670000e-06	7.334051e-06	2.993183e-08	5.325625e+01	1.965135e+03
1.680000e-06	7.325984e-06	2.992117e-08	5.319767e+01	1.964055e+03
1.690000e-06	7.315487e-06	2.990825e-08	5.312145e+01	1.962952e+03
1.700000e-06	7.302479e-06	2.989509e-08	5.302698e+01	1.961850e+03
1.710000e-06	7.286985e-06	2.988497e-08	5.291448e+01	1.960749e+03
1.720000e-06	7.269209e-06	2.987732e-08	5.278540e+01	1.959623e+03
1.730000e-06	7.249272e-06	2.981939e-08	5.264062e+01	1.958426e+03
1.740000e-06	7.226647e-06	2.972606e-08	5.247633e+01	1.957103e+03
1.750000e-06	7.200640e-06	2.974492e-08	5.228748e+01	1.955598e+03
1.760000e-06	7.171269e-06	2.974597e-08	5.207421e+01	1.953862e+03
1.770000e-06	7.139258e-06	2.968984e-08	5.184176e+01	1.951866e+03
1.780000e-06	7.105255e-06	2.970465e-08	5.159484e+01	1.949601e+03
1.790000e-06	7.069565e-06	2.974860e-08	5.133568e+01	1.947080e+03
1.800000e-06	7.032200e-06	2.961409e-08	5.106436e+01	1.944333e+03
1.810000e-06	6.992403e-06	2.959412e-08	5.077537e+01	1.941401e+03
1.820000e-06	6.949917e-06	2.961326e-08	5.046686e+01	1.938324e+03
1.830000e-06	6.905187e-06	2.947464e-08	5.014204e+01	1.935134e+03
1.840000e-06	6.857961e-06	2.954908e-08	4.979912e+01	1.931846e+03
1.850000e-06	6.808206e-06	2.946033e-08	4.943782e+01	1.928451e+03
1.860000e-06	6.755840e-06	2.939859e-08	4.905757e+01	1.924916e+03
1.870000e-06	6.700677e-06	2.936260e-08	4.865700e+01	1.921188e+03
1.880000e-06	6.643109e-06	2.918180e-08	4.823897e+01	1.917200e+03
1.890000e-06	6.582985e-06	2.918949e-08	4.780238e+01	1.912884e+03
1.900000e-06	6.520196e-06	2.907827e-08	4.734643e+01	1.908178e+03
1.910000e-06	6.454972e-06	2.901466e-08	4.687281e+01	1.903040e+03
1.920000e-06	6.387352e-06	2.896578e-08	4.638179e+01	1.897452e+03
1.930000e-06	6.317263e-06	2.882722e-08	4.587283e+01	1.891426e+03
1.940000e-06	6.244736e-06	2.878037e-08	4.534618e+01	1.885002e+03
1.950000e-06	6.169854e-06	2.864278e-08	4.480242e+01	1.878240e+03
1.960000e-06	6.092397e-06	2.858857e-08	4.423997e+01	1.871210e+03
1.970000e-06	6.012497e-06	2.845335e-08	4.365978e+01	1.863979e+03
1.980000e-06	5.930541e-06	2.832536e-08	4.306465e+01	1.856598e+03
1.990000e-06	5.846530e-06	2.825021e-08	4.245460e+01	1.849092e+03
2.000000e-06	5.760350e-06	2.809879e-08	4.182881e+01	1.841452e+03
2.010000e-06	5.672027e-06	2.801300e-08	4.118745e+01	1.833634e+03
2.020000e-06	5.581734e-06	2.787017e-08	4.053179e+01	1.825563e+03
2.030000e-06	5.489513e-06	2.774069e-08	3.986213e+01	1.817142e+03
2.040000e-06	5.395291e-06	2.756728e-08	3.917793e+01	1.808266e+03
2.050000e-06	5.299112e-06	2.741978e-08	3.847953e+01	1.798838e+03
2.060000e-06	5.201161e-06	2.729429e-08	3.776825e+01	1.788782e+03
2.070000e-06	5.101516e-06	2.713164e-08	3.704468e+01	1.778051e+03
2.080000e-06	4.999974e-06	2.696957e-08	3.630733e+01	1.766640e+03
2.090000e-06	4.896455e-06	2.677460e-08	3.555563e+01	1.754578e+03
2.100000e-06	4.791241e-06	2.659643e-08	3.479162e+01	1.741924e+03
2.110000e-06	4.684560e-06	2.639824e-08	3.401695e+01	1.728755e+03
2.120000e-06	4.576352e-06	2.621781e-08	3.323120e+01	1.715147e+03
2.130000e-06	4.466514e-06	2.602150e-08	3.243362e+01	1.701159e+03
2.140000e-06	4.354900e-06	2.579907e-08	3.162313e+01	1.686818e+03
2.150000e-06	4.241565e-06	2.555402e-08	3.080015e+01	1.672106e+03
2.160000e-06	4.126641e-06	2.530858e-08	2.996562e+01	1.656959e+03
2.170000e-06	4.010051e-06	2.506679e-08	2.911900e+01	1.641266e+03
2.180000e-06	3.891769e-06	2.481280e-08	2.826010e+01	1.624884e+03
2.190000e-06	3.771854e-06	2.455246e-08	2.738934e+01	1.607653e+03
2.200000e-06	3.650488e-06	2.426922e-08	2.650804e+01	1.589414e+03
2.210000e-06	3.527857e-06	2.396847e-08	2.561755e+01	1.570032e+03
2.220000e-06	3.403988e-06	2.364997e-08	2.471807e+01	1.549410e+03
2.230000e-06	3.278831e-06	2.333167e-08	2.380925e+01	1.527495e+03
2.240000e-06	3.152368e-06	2.299481e-08	2.289093e+01	1.504287e+03
2.250000e-06	3.024710e-06	2.263884e-08	2.196394e+01	1.479820e+03
2.260000e-06	2.896004e-06	2.225784e-08	2.102935e+01	1.454151e+03
2.270000e-06	2.766292e-06	2.185741e-08	2.008744e+01	1.427331e+03
2.280000e-06	2.635570e-06	2.143778e-08	1.913821e+01	1.399382e+03
2.290000e-06	2.503879e-06	2.099699e-08	1.818193e+01	1.370264e+03
2.300000e-06	2.371370e-06	2.053160e-08	1.721971e+01	1.339859e+03
2.310000e-06	2.238080e-06	2.003401e-08	1.625183e+01	1.307962e+03
2.320000e-06	2.103982e-06	1.950288e-08	1.527807e+01	1.274276e+03
2.330000e-06	1.969108e-06	1.893508e-08	1.429869e+01	1.238436e+03
2.340000e-06	1.833547e-06	1.833265e-08	1.331431e+01	1.200029e+03
2.350000e-06	1.697365e-06	1.769289e-08	1.232543e+01	1.158636e+03
2.360000e-06	1.560592e-06	1.701383e-08	1.133225e+01	1.113875e+03
2.370000e-06	1.423340e-06	1.628593e-08	1.033559e+01	1.065441e+03
2.380000e-06	1.285685e-06	1.550456e-08	9.336008e+00	1.013144e+03
2.390000e-06	1.147645e-06	1.467071e-08	8.333627e+00	9.569336e+02
2.400000e-06	1.009150e-06	1.378186e-08	7.327949e+00	8.969088e+02
2.410000e-06	8.702368e-07	1.283162e-08	6.319228e+00	8.333102e+02
2.420000e-06	7.310082e-07	1.182194e-08	5.308220e+00	7.664955e+02
2.430000e-06	5.914648e-07	1.076032e-08	4.294924e+00	6.969014e+02
2.440000e-06	4.516563e-07	9.651699e-09	3.279704e+00	6.249954e+02
2.450000e-06	3.116854e-07	8.497831e-09	2.263305e+00	5.512256e+02
2.460000e-06	1.715983e-07	7.311335e-09	1.246062e+00	4.759741e+02
2.470000e-06	3.146885e-08	6.110514e-09	2.285112e-01	3.995205e+02
2.480000e-06	-1.086847e-07	4.906201e-09	-7.892141e-01	3.220227e+02
2.490000e-06	-2.488828e-07	3.703784e-09	-1.807264e+00	2.435156e+02
2.500000e-06	-3.889997e-07	2.503010e-09	-2.824723e+00	1.639302e+02
2.510000e-06	-5.289746e-07	1.298641e-09	-3.841151e+00	8.313047e+01
2.520000e-06	-6.688195e-07	7.956995e-11	-4.856636e+00	9.635576e-01
2.530000e-06	-8.084544e-07	-1.163859e-09	-5.870595e+00	-8.268358e+01
2.540000e-06	-9.476914e-07	-2.439701e-09	-6.881665e+00	-1.678284e+02
2.550000e-06	-1.086491e-06	-3.751822e-09	-7.889558e+00	-2.543458e+02
2.560000e-06	-1.224889e-06	-5.096709e-09	-8.894535e+00	-3.419367e+02
2.570000e-06	-1.362814e-06	-6.467582e-09	-9.896077e+00	-4.301167e+02
2.580000e-06	-1.500289e-06	-7.850572e-09	-1.089435e+01	-5.182284e+02
2.590000e-06	-1.637296e-06	-9.224563e-09	-1.188923e+01	-6.054746e+02
2.600000e-06	-1.773714e-06	-1.056350e-08	-1.287983e+01	-6.909715e+02
2.610000e-06	-1.909401e-06	-1.184735e-08	-1.386513e+01	-7.738135e+02
2.620000e-06	-2.044259e-06	-1.306019e-08	-1.484439e+01	-8.531439e+02
2.630000e-06	-2.178263e-06	-1.419048e-08	-1.581746e+01	-9.282229e+02
2.640000e-06	-2.311445e-06	-1.523570e-08	-1.678457e+01	-9.984838e+02
2.650000e-06	-2.443887e-06	-1.620160e-08	-1.774630e+01	-1.063573e+03
2.660000e-06	-2.575457e-06	-1.709592e-08	-1.870169e+01	-1.123366e+03
2.670000e-06	-2.705953e-06	-1.792042e-08	-1.964929e+01	-1.177968e+03
2.680000e-06	-2.835499e-06	-1.867934e-08	-2.058999e+01	-1.227678e+03
2.690000e-06	-2.964141e-06	-1.938086e-08	-2.152412e+01	-1.272954e+03
2.700000e-06	-3.091654e-06	-2.003259e-08	-2.245006e+01	-1.314351e+03
2.710000e-06	-3.217948e-06	-2.064065e-08	-2.336714e+01	-1.352461e+03
2.720000e-06	-3.343116e-06	-2.120914e-08	-2.427605e+01	-1.387857e+03
2.730000e-06	-3.467111e-06	-2.173720e-08	-2.517645e+01	-1.421042e+03
2.740000e-06	-3.589751e-06	-2.222654e-08	-2.606700e+01	-1.452419e+03
2.750000e-06	-3.711166e-06	-2.268418e-08	-2.694865e+01	-1.482266e+03
2.760000e-06	-3.831356e-06	-2.311284e-08	-2.782141e+01	-1.510745e+03
2.770000e-06	-3.949977e-06	-2.351591e-08	-2.868278e+01	-1.537912e+03
2.780000e-06	-4.067032e-06	-2.389763e-08	-2.953278e+01	-1.563749e+03
2.790000e-06	-4.182599e-06	-2.425904e-08	-3.037196e+01	-1.588194e+03
2.800000e-06	-4.296462e-06	-2.459951e-08	-3.119878e+01	-1.611179e+03
2.810000e-06	-4.408526e-06	-2.491983e-08	-3.201254e+01	-1.632662e+03
2.820000e-06	-4.518881e-06	-2.522255e-08	-3.281388e+01	-1.652646e+03
2.830000e-06	-4.627664e-06	-2.550909e-08	-3.360380e+01	-1.671194e+03
2.840000e-06	-4.734979e-06	-2.578028e-08	-3.438307e+01	-1.688424e+03
2.850000e-06	-4.840773e-06	-2.603512e-08	-3.515129e+01	-1.704502e+03
2.860000e-06	-4.944776e-06	-2.627702e-08	-3.590651e+01	-1.719621e+03
2.870000e-06	-5.046872e-06	-2.650800e-08	-3.664788e+01	-1.733975e+03
2.880000e-06	-5.147119e-06	-2.672833e-08	-3.737583e+01	-1.747739e+03
2.890000e-06	-5.245535e-06	-2.693904e-08	-3.809048e+01	-1.761047e+03
2.900000e-06	-5.342119e-06	-2.713900e-08	-3.879182e+01	-1.773979e+03
2.910000e-06	-5.436734e-06	-2.732857e-08	-3.947887e+01	-1.786557e+03
2.920000e-06	-5.529369e-06	-2.750871e-08	-4.015154e+01	-1.798753e+03
2.930000e-06	-5.620055e-06	-2.767943e-08	-4.081006e+01	-1.810495e+03
2.940000e-06	-5.708764e-06	-2.784002e-08	-4.145422e+01	-1.821693e+03
