# Temperatura_=_86.55
# Concentracion g/m^3_=_28370.0
# C_Vs_to_Am_M_A/Vsm_=_65563218390.804596
# pendiente_HvsI_1/m_=_3716.3
# ordenada_HvsI_A/m_=_1297.0
# frecuencia_Hz_=_302373.07616141276

Tiempo_(s)	Campo_(V.s)	Magnetizacion_(V.s)	Campo_(kA/m)	Magnetizacion_(A/m)
0.000000e+00	-7.297771e-06	-3.046577e-08	-5.318613e+01	-1.994997e+03
1.000000e-08	-7.293683e-06	-3.045994e-08	-5.315633e+01	-1.994017e+03
2.000000e-08	-7.287258e-06	-3.044495e-08	-5.310951e+01	-1.992936e+03
3.000000e-08	-7.278489e-06	-3.042695e-08	-5.304560e+01	-1.991801e+03
4.000000e-08	-7.267101e-06	-3.040850e-08	-5.296261e+01	-1.990633e+03
5.000000e-08	-7.252966e-06	-3.038693e-08	-5.285958e+01	-1.989431e+03
6.000000e-08	-7.236213e-06	-3.036118e-08	-5.273750e+01	-1.988171e+03
7.000000e-08	-7.217280e-06	-3.033385e-08	-5.259951e+01	-1.986808e+03
8.000000e-08	-7.196264e-06	-3.031159e-08	-5.244634e+01	-1.985291e+03
9.000000e-08	-7.172683e-06	-3.032065e-08	-5.227449e+01	-1.983566e+03
1.000000e-07	-7.146127e-06	-3.029066e-08	-5.208095e+01	-1.981591e+03
1.100000e-07	-7.116715e-06	-3.021627e-08	-5.186659e+01	-1.979339e+03
1.200000e-07	-7.084814e-06	-3.015915e-08	-5.163410e+01	-1.976806e+03
1.300000e-07	-7.050506e-06	-3.011360e-08	-5.138406e+01	-1.974008e+03
1.400000e-07	-7.014006e-06	-3.004520e-08	-5.111805e+01	-1.970977e+03
1.500000e-07	-6.975646e-06	-2.997214e-08	-5.083848e+01	-1.967757e+03
1.600000e-07	-6.935201e-06	-2.998989e-08	-5.054372e+01	-1.964391e+03
1.700000e-07	-6.892263e-06	-2.992358e-08	-5.023078e+01	-1.960912e+03
1.800000e-07	-6.846925e-06	-2.983039e-08	-4.990036e+01	-1.957334e+03
1.900000e-07	-6.799033e-06	-2.981677e-08	-4.955132e+01	-1.953649e+03
2.000000e-07	-6.748336e-06	-2.971566e-08	-4.918185e+01	-1.949824e+03
2.100000e-07	-6.695028e-06	-2.965355e-08	-4.879334e+01	-1.945804e+03
2.200000e-07	-6.639159e-06	-2.957323e-08	-4.838616e+01	-1.941518e+03
2.300000e-07	-6.580706e-06	-2.945328e-08	-4.796016e+01	-1.936895e+03
2.400000e-07	-6.519815e-06	-2.940849e-08	-4.751639e+01	-1.931866e+03
2.500000e-07	-6.456557e-06	-2.932120e-08	-4.705536e+01	-1.926384e+03
2.600000e-07	-6.390850e-06	-2.923163e-08	-4.657649e+01	-1.920424e+03
2.700000e-07	-6.322698e-06	-2.916005e-08	-4.607980e+01	-1.913994e+03
2.800000e-07	-6.252196e-06	-2.906857e-08	-4.556598e+01	-1.907128e+03
2.900000e-07	-6.179340e-06	-2.894395e-08	-4.503501e+01	-1.899886e+03
3.000000e-07	-6.103967e-06	-2.882736e-08	-4.448569e+01	-1.892337e+03
3.100000e-07	-6.026091e-06	-2.873650e-08	-4.391813e+01	-1.884554e+03
3.200000e-07	-5.945768e-06	-2.860032e-08	-4.333274e+01	-1.876595e+03
3.300000e-07	-5.863200e-06	-2.848284e-08	-4.273098e+01	-1.868494e+03
3.400000e-07	-5.778720e-06	-2.835912e-08	-4.211529e+01	-1.860253e+03
3.500000e-07	-5.692394e-06	-2.821617e-08	-4.148614e+01	-1.851841e+03
3.600000e-07	-5.604083e-06	-2.808578e-08	-4.084253e+01	-1.843193e+03
3.700000e-07	-5.513667e-06	-2.793926e-08	-4.018358e+01	-1.834219e+03
3.800000e-07	-5.421215e-06	-2.778552e-08	-3.950980e+01	-1.824821e+03
3.900000e-07	-5.326879e-06	-2.762444e-08	-3.882227e+01	-1.814902e+03
4.000000e-07	-5.230668e-06	-2.746141e-08	-3.812109e+01	-1.804381e+03
4.100000e-07	-5.132619e-06	-2.728829e-08	-3.740651e+01	-1.793208e+03
4.200000e-07	-5.032728e-06	-2.711628e-08	-3.667850e+01	-1.781366e+03
4.300000e-07	-4.931011e-06	-2.693481e-08	-3.593719e+01	-1.768876e+03
4.400000e-07	-4.827544e-06	-2.674037e-08	-3.518312e+01	-1.755788e+03
4.500000e-07	-4.722381e-06	-2.654345e-08	-3.441670e+01	-1.742174e+03
4.600000e-07	-4.615544e-06	-2.633651e-08	-3.363807e+01	-1.728107e+03
4.700000e-07	-4.507036e-06	-2.611720e-08	-3.284726e+01	-1.713649e+03
4.800000e-07	-4.397004e-06	-2.588954e-08	-3.204535e+01	-1.698834e+03
4.900000e-07	-4.285385e-06	-2.565616e-08	-3.123187e+01	-1.683658e+03
5.000000e-07	-4.172064e-06	-2.541085e-08	-3.040599e+01	-1.668069e+03
5.100000e-07	-4.057061e-06	-2.515440e-08	-2.956784e+01	-1.651972e+03
5.200000e-07	-3.940384e-06	-2.488911e-08	-2.871751e+01	-1.635240e+03
5.300000e-07	-3.822211e-06	-2.461535e-08	-2.785626e+01	-1.617722e+03
5.400000e-07	-3.702645e-06	-2.432563e-08	-2.698486e+01	-1.599267e+03
5.500000e-07	-3.581672e-06	-2.401868e-08	-2.610321e+01	-1.579739e+03
5.600000e-07	-3.459366e-06	-2.370094e-08	-2.521184e+01	-1.559038e+03
5.700000e-07	-3.335706e-06	-2.337231e-08	-2.431061e+01	-1.537106e+03
5.800000e-07	-3.210767e-06	-2.302612e-08	-2.340006e+01	-1.513930e+03
5.900000e-07	-3.084693e-06	-2.266236e-08	-2.248123e+01	-1.489541e+03
6.000000e-07	-2.957446e-06	-2.228253e-08	-2.155385e+01	-1.463991e+03
6.100000e-07	-2.829132e-06	-2.188309e-08	-2.061871e+01	-1.437336e+03
6.200000e-07	-2.699852e-06	-2.146458e-08	-1.967651e+01	-1.409610e+03
6.300000e-07	-2.569576e-06	-2.102557e-08	-1.872706e+01	-1.380798e+03
6.400000e-07	-2.438299e-06	-2.056543e-08	-1.777031e+01	-1.350816e+03
6.500000e-07	-2.306061e-06	-2.007806e-08	-1.680656e+01	-1.319496e+03
6.600000e-07	-2.173015e-06	-1.956055e-08	-1.583693e+01	-1.286586e+03
6.700000e-07	-2.039334e-06	-1.901237e-08	-1.486266e+01	-1.251759e+03
6.800000e-07	-1.905000e-06	-1.843092e-08	-1.388363e+01	-1.214634e+03
6.900000e-07	-1.769890e-06	-1.781355e-08	-1.289895e+01	-1.174810e+03
7.000000e-07	-1.634079e-06	-1.715518e-08	-1.190916e+01	-1.131901e+03
7.100000e-07	-1.497730e-06	-1.645207e-08	-1.091545e+01	-1.085576e+03
7.200000e-07	-1.360928e-06	-1.570076e-08	-9.918441e+00	-1.035594e+03
7.300000e-07	-1.223651e-06	-1.489827e-08	-8.917961e+00	-9.818288e+02
7.400000e-07	-1.085937e-06	-1.404133e-08	-7.914305e+00	-9.242822e+02
7.500000e-07	-9.478454e-07	-1.312986e-08	-6.907894e+00	-8.630818e+02
7.600000e-07	-8.094277e-07	-1.216213e-08	-5.899106e+00	-7.984646e+02
7.700000e-07	-6.707567e-07	-1.113631e-08	-4.888472e+00	-7.307471e+02
7.800000e-07	-5.318392e-07	-1.005391e-08	-3.876042e+00	-6.602870e+02
7.900000e-07	-3.927003e-07	-8.920551e-09	-2.861998e+00	-5.874411e+02
8.000000e-07	-2.533802e-07	-7.746291e-09	-1.846634e+00	-5.125265e+02
8.100000e-07	-1.139073e-07	-6.541475e-09	-8.301562e-01	-4.357891e+02
8.200000e-07	2.570386e-08	-5.319111e-09	1.873296e-01	-3.573866e+02
8.300000e-07	1.653149e-07	-4.089809e-09	1.204814e+00	-2.773868e+02
8.400000e-07	3.048561e-07	-2.856508e-09	2.221790e+00	-1.957837e+02
8.500000e-07	4.443292e-07	-1.614739e-09	3.238270e+00	-1.125282e+02
8.600000e-07	5.836818e-07	-3.575740e-10	4.253871e+00	-2.757129e+01
8.700000e-07	7.227962e-07	9.238596e-10	5.267736e+00	5.908814e+01
8.800000e-07	8.615946e-07	2.235905e-09	6.279298e+00	1.473558e+02
8.900000e-07	1.000095e-06	3.581548e-09	7.288691e+00	2.370030e+02
9.000000e-07	1.138242e-06	4.961407e-09	8.295502e+00	3.276409e+02
9.100000e-07	1.275963e-06	6.368754e-09	9.299214e+00	4.187146e+02
9.200000e-07	1.413212e-06	7.788186e-09	1.029949e+01	5.095163e+02
9.300000e-07	1.550019e-06	9.194396e-09	1.129653e+01	5.992193e+02
9.400000e-07	1.686321e-06	1.056188e-08	1.228990e+01	6.869288e+02
9.500000e-07	1.821865e-06	1.187032e-08	1.327775e+01	7.717434e+02
9.600000e-07	1.956553e-06	1.310266e-08	1.425935e+01	8.528219e+02
9.700000e-07	2.090530e-06	1.424768e-08	1.523577e+01	9.294461e+02
9.800000e-07	2.223882e-06	1.530424e-08	1.620765e+01	1.001074e+03
9.900000e-07	2.356489e-06	1.627535e-08	1.717408e+01	1.067375e+03
1.000000e-06	2.488155e-06	1.717024e-08	1.813366e+01	1.128246e+03
1.010000e-06	2.618775e-06	1.799480e-08	1.908562e+01	1.183809e+03
1.020000e-06	2.748429e-06	1.875378e-08	2.003054e+01	1.234377e+03
1.030000e-06	2.877110e-06	1.945489e-08	2.096837e+01	1.280419e+03
1.040000e-06	3.004613e-06	2.010593e-08	2.189761e+01	1.322497e+03
1.050000e-06	3.130960e-06	2.071361e-08	2.281843e+01	1.361216e+03
1.060000e-06	3.256311e-06	2.128012e-08	2.373198e+01	1.397157e+03
1.070000e-06	3.380668e-06	2.180928e-08	2.463830e+01	1.430839e+03
1.080000e-06	3.503815e-06	2.230317e-08	2.553579e+01	1.462677e+03
1.090000e-06	3.625643e-06	2.276651e-08	2.642367e+01	1.492970e+03
1.100000e-06	3.746156e-06	2.320492e-08	2.730197e+01	1.521893e+03
1.110000e-06	3.865268e-06	2.361619e-08	2.817006e+01	1.549519e+03
1.120000e-06	3.982984e-06	2.400224e-08	2.902797e+01	1.575841e+03
1.130000e-06	4.099253e-06	2.436549e-08	2.987534e+01	1.600806e+03
1.140000e-06	4.213842e-06	2.470728e-08	3.071046e+01	1.624347e+03
1.150000e-06	4.326761e-06	2.503167e-08	3.153342e+01	1.646420e+03
1.160000e-06	4.438108e-06	2.534072e-08	3.234492e+01	1.667018e+03
1.170000e-06	4.547933e-06	2.563592e-08	3.314532e+01	1.686193e+03
1.180000e-06	4.656313e-06	2.591526e-08	3.393519e+01	1.704051e+03
1.190000e-06	4.763056e-06	2.618105e-08	3.471313e+01	1.720744e+03
1.200000e-06	4.867990e-06	2.643490e-08	3.547789e+01	1.736454e+03
1.210000e-06	4.971127e-06	2.667462e-08	3.622955e+01	1.751370e+03
1.220000e-06	5.072570e-06	2.689918e-08	3.696887e+01	1.765664e+03
1.230000e-06	5.172231e-06	2.711075e-08	3.769520e+01	1.779474e+03
1.240000e-06	5.269860e-06	2.731147e-08	3.840672e+01	1.792889e+03
1.250000e-06	5.365409e-06	2.750261e-08	3.910308e+01	1.805944e+03
1.260000e-06	5.459069e-06	2.768514e-08	3.978568e+01	1.818622e+03
1.270000e-06	5.550967e-06	2.786212e-08	4.045543e+01	1.830867e+03
1.280000e-06	5.640881e-06	2.803518e-08	4.111072e+01	1.842597e+03
1.290000e-06	5.728647e-06	2.820045e-08	4.175036e+01	1.853726e+03
1.300000e-06	5.814352e-06	2.835566e-08	4.237498e+01	1.864183e+03
1.310000e-06	5.898011e-06	2.850235e-08	4.298468e+01	1.873924e+03
1.320000e-06	5.979508e-06	2.864242e-08	4.357863e+01	1.882944e+03
1.330000e-06	6.058825e-06	2.877467e-08	4.415670e+01	1.891279e+03
1.340000e-06	6.135895e-06	2.889983e-08	4.471838e+01	1.898999e+03
1.350000e-06	6.210575e-06	2.901856e-08	4.526264e+01	1.906204e+03
1.360000e-06	6.282885e-06	2.913089e-08	4.578964e+01	1.913003e+03
1.370000e-06	6.352956e-06	2.923824e-08	4.630032e+01	1.919502e+03
1.380000e-06	6.420847e-06	2.933965e-08	4.679511e+01	1.925786e+03
1.390000e-06	6.486379e-06	2.943560e-08	4.727270e+01	1.931914e+03
1.400000e-06	6.549573e-06	2.952506e-08	4.773326e+01	1.937906e+03
1.410000e-06	6.610625e-06	2.960774e-08	4.817821e+01	1.943750e+03
1.420000e-06	6.669407e-06	2.968596e-08	4.860661e+01	1.949401e+03
1.430000e-06	6.725749e-06	2.976011e-08	4.901723e+01	1.954797e+03
1.440000e-06	6.779605e-06	2.982962e-08	4.940974e+01	1.959871e+03
1.450000e-06	6.830765e-06	2.989510e-08	4.978259e+01	1.964562e+03
1.460000e-06	6.879127e-06	2.995844e-08	5.013505e+01	1.968828e+03
1.470000e-06	6.924965e-06	3.001958e-08	5.046912e+01	1.972654e+03
1.480000e-06	6.968476e-06	3.007892e-08	5.078623e+01	1.976056e+03
1.490000e-06	7.009467e-06	3.013489e-08	5.108497e+01	1.979074e+03
1.500000e-06	7.047919e-06	3.018503e-08	5.136520e+01	1.981769e+03
1.510000e-06	7.084024e-06	3.022947e-08	5.162834e+01	1.984212e+03
1.520000e-06	7.117621e-06	3.026907e-08	5.187319e+01	1.986471e+03
1.530000e-06	7.148621e-06	3.030448e-08	5.209912e+01	1.988601e+03
1.540000e-06	7.177209e-06	3.033550e-08	5.230747e+01	1.990635e+03
1.550000e-06	7.203215e-06	3.036335e-08	5.249701e+01	1.992579e+03
1.560000e-06	7.226441e-06	3.038902e-08	5.266628e+01	1.994411e+03
1.570000e-06	7.247237e-06	3.041030e-08	5.281784e+01	1.996090e+03
1.580000e-06	7.265590e-06	3.042679e-08	5.295159e+01	1.997558e+03
1.590000e-06	7.281110e-06	3.043931e-08	5.306470e+01	1.998756e+03
1.600000e-06	7.293732e-06	3.044926e-08	5.315669e+01	1.999634e+03
1.610000e-06	7.303469e-06	3.045822e-08	5.322765e+01	2.000157e+03
1.620000e-06	7.310477e-06	3.046452e-08	5.327873e+01	2.000316e+03
1.630000e-06	7.314978e-06	3.046687e-08	5.331153e+01	2.000126e+03
1.640000e-06	7.316854e-06	3.046587e-08	5.332520e+01	1.999629e+03
1.650000e-06	7.316083e-06	3.046125e-08	5.331958e+01	1.998882e+03
1.660000e-06	7.312929e-06	3.044809e-08	5.329660e+01	1.997950e+03
1.670000e-06	7.307384e-06	3.043594e-08	5.325619e+01	1.996898e+03
1.680000e-06	7.299365e-06	3.042458e-08	5.319775e+01	1.995777e+03
1.690000e-06	7.288923e-06	3.040997e-08	5.312164e+01	1.994618e+03
1.700000e-06	7.275947e-06	3.039337e-08	5.302707e+01	1.993428e+03
1.710000e-06	7.260427e-06	3.037549e-08	5.291396e+01	1.992192e+03
1.720000e-06	7.242684e-06	3.035740e-08	5.278465e+01	1.990870e+03
1.730000e-06	7.222793e-06	3.031216e-08	5.263969e+01	1.989412e+03
1.740000e-06	7.200204e-06	3.022611e-08	5.247506e+01	1.987766e+03
1.750000e-06	7.174336e-06	3.020570e-08	5.228653e+01	1.985882e+03
1.760000e-06	7.145196e-06	3.020382e-08	5.207416e+01	1.983730e+03
1.770000e-06	7.113375e-06	3.016680e-08	5.184225e+01	1.981295e+03
1.780000e-06	7.079522e-06	3.014986e-08	5.159553e+01	1.978587e+03
1.790000e-06	7.043967e-06	3.016312e-08	5.133640e+01	1.975633e+03
1.800000e-06	7.006680e-06	3.007019e-08	5.106465e+01	1.972474e+03
1.810000e-06	6.967057e-06	3.002954e-08	5.077588e+01	1.969155e+03
1.820000e-06	6.924839e-06	3.005516e-08	5.046820e+01	1.965711e+03
1.830000e-06	6.880315e-06	2.994316e-08	5.014371e+01	1.962167e+03
1.840000e-06	6.833290e-06	2.994257e-08	4.980099e+01	1.958521e+03
1.850000e-06	6.783659e-06	2.984927e-08	4.943928e+01	1.954750e+03
1.860000e-06	6.731392e-06	2.976024e-08	4.905836e+01	1.950805e+03
1.870000e-06	6.676410e-06	2.977129e-08	4.865765e+01	1.946622e+03
1.880000e-06	6.619025e-06	2.962714e-08	4.823943e+01	1.942126e+03
1.890000e-06	6.559144e-06	2.957339e-08	4.780301e+01	1.937247e+03
1.900000e-06	6.496638e-06	2.949035e-08	4.734747e+01	1.931929e+03
1.910000e-06	6.431690e-06	2.935870e-08	4.687413e+01	1.926139e+03
1.920000e-06	6.364309e-06	2.928194e-08	4.638306e+01	1.919873e+03
1.930000e-06	6.294537e-06	2.918214e-08	4.587456e+01	1.913156e+03
1.940000e-06	6.222352e-06	2.912350e-08	4.534848e+01	1.906039e+03
1.950000e-06	6.147740e-06	2.898297e-08	4.480470e+01	1.898589e+03
1.960000e-06	6.070626e-06	2.887858e-08	4.424270e+01	1.890881e+03
1.970000e-06	5.991061e-06	2.876838e-08	4.366283e+01	1.882977e+03
1.980000e-06	5.909327e-06	2.862142e-08	4.306715e+01	1.874924e+03
1.990000e-06	5.825514e-06	2.852503e-08	4.245633e+01	1.866734e+03
2.000000e-06	5.739639e-06	2.837943e-08	4.183047e+01	1.858387e+03
2.010000e-06	5.651657e-06	2.825871e-08	4.118925e+01	1.849831e+03
2.020000e-06	5.561682e-06	2.810656e-08	4.053351e+01	1.840983e+03
2.030000e-06	5.469767e-06	2.795505e-08	3.986364e+01	1.831747e+03
2.040000e-06	5.375934e-06	2.780973e-08	3.917979e+01	1.822022e+03
2.050000e-06	5.280218e-06	2.764737e-08	3.848221e+01	1.811722e+03
2.060000e-06	5.182650e-06	2.748678e-08	3.777113e+01	1.800784e+03
2.070000e-06	5.083334e-06	2.730207e-08	3.704732e+01	1.789179e+03
2.080000e-06	4.982191e-06	2.712751e-08	3.631019e+01	1.776915e+03
2.090000e-06	4.879198e-06	2.693336e-08	3.555958e+01	1.764032e+03
2.100000e-06	4.774450e-06	2.674308e-08	3.479617e+01	1.750595e+03
2.110000e-06	4.668117e-06	2.654193e-08	3.402122e+01	1.736680e+03
2.120000e-06	4.560216e-06	2.632806e-08	3.323483e+01	1.722355e+03
2.130000e-06	4.450721e-06	2.610552e-08	3.243684e+01	1.707665e+03
2.140000e-06	4.339590e-06	2.587245e-08	3.162692e+01	1.692619e+03
2.150000e-06	4.226809e-06	2.563502e-08	3.080497e+01	1.677185e+03
2.160000e-06	4.112369e-06	2.538550e-08	2.997093e+01	1.661282e+03
2.170000e-06	3.996230e-06	2.512633e-08	2.912451e+01	1.644791e+03
2.180000e-06	3.878470e-06	2.485016e-08	2.826627e+01	1.627570e+03
2.190000e-06	3.759122e-06	2.457022e-08	2.739646e+01	1.609465e+03
2.200000e-06	3.638309e-06	2.427782e-08	2.651598e+01	1.590332e+03
2.210000e-06	3.516202e-06	2.397244e-08	2.562607e+01	1.570058e+03
2.220000e-06	3.392774e-06	2.364966e-08	2.472652e+01	1.548568e+03
2.230000e-06	3.268063e-06	2.331080e-08	2.381763e+01	1.525833e+03
2.240000e-06	3.142143e-06	2.295482e-08	2.289993e+01	1.501871e+03
2.250000e-06	3.015028e-06	2.258636e-08	2.197351e+01	1.476727e+03
2.260000e-06	2.886771e-06	2.220198e-08	2.103878e+01	1.450459e+03
2.270000e-06	2.757517e-06	2.179525e-08	2.009677e+01	1.423113e+03
2.280000e-06	2.627262e-06	2.136492e-08	1.914747e+01	1.394694e+03
2.290000e-06	2.495974e-06	2.090928e-08	1.819065e+01	1.365143e+03
2.300000e-06	2.363853e-06	2.043206e-08	1.722775e+01	1.334324e+03
2.310000e-06	2.230995e-06	1.992825e-08	1.625948e+01	1.302014e+03
2.320000e-06	2.097430e-06	1.939403e-08	1.528606e+01	1.267912e+03
2.330000e-06	1.963185e-06	1.882430e-08	1.430768e+01	1.231651e+03
2.340000e-06	1.828206e-06	1.821813e-08	1.332396e+01	1.192836e+03
2.350000e-06	1.692575e-06	1.757303e-08	1.233548e+01	1.151068e+03
2.360000e-06	1.556354e-06	1.688910e-08	1.134271e+01	1.105995e+03
2.370000e-06	1.419568e-06	1.616075e-08	1.034581e+01	1.057339e+03
2.380000e-06	1.282324e-06	1.538027e-08	9.345569e+00	1.004930e+03
2.390000e-06	1.144713e-06	1.454485e-08	8.342663e+00	9.487239e+02
2.400000e-06	1.006760e-06	1.365340e-08	7.337261e+00	8.888049e+02
2.410000e-06	8.684634e-07	1.270420e-08	6.329358e+00	8.253736e+02
2.420000e-06	7.298354e-07	1.169606e-08	5.319038e+00	7.587220e+02
2.430000e-06	5.908786e-07	1.063175e-08	4.306321e+00	6.891980e+02
2.440000e-06	4.516402e-07	9.516888e-09	3.291552e+00	6.171635e+02
2.450000e-06	3.121562e-07	8.355540e-09	2.274994e+00	5.429538e+02
2.460000e-06	1.725063e-07	7.156669e-09	1.257225e+00	4.668430e+02
2.470000e-06	3.275854e-08	5.936291e-09	2.387441e-01	3.890214e+02
2.480000e-06	-1.070202e-07	4.705300e-09	-7.799630e-01	3.095880e+02
2.490000e-06	-2.467400e-07	3.466684e-09	-1.798240e+00	2.285602e+02
2.500000e-06	-3.863732e-07	2.217995e-09	-2.815886e+00	1.459000e+02
2.510000e-06	-5.258735e-07	9.585893e-10	-3.832564e+00	6.155294e+01
2.520000e-06	-6.651659e-07	-3.158630e-10	-4.847727e+00	-2.450486e+01
2.530000e-06	-8.042339e-07	-1.615845e-09	-5.861254e+00	-1.122182e+02
2.540000e-06	-9.429701e-07	-2.950448e-09	-6.872362e+00	-2.014101e+02
2.550000e-06	-1.081252e-06	-4.322628e-09	-7.880160e+00	-2.917509e+02
2.560000e-06	-1.219079e-06	-5.727288e-09	-8.884645e+00	-3.827443e+02
2.570000e-06	-1.356519e-06	-7.152613e-09	-9.886304e+00	-4.737342e+02
2.580000e-06	-1.493573e-06	-8.575587e-09	-1.088515e+01	-5.639316e+02
2.590000e-06	-1.630128e-06	-9.970462e-09	-1.188036e+01	-6.524591e+02
2.600000e-06	-1.766009e-06	-1.131258e-08	-1.287067e+01	-7.384101e+02
2.610000e-06	-1.901155e-06	-1.258413e-08	-1.385561e+01	-8.209145e+02
2.620000e-06	-2.035516e-06	-1.377256e-08	-1.483483e+01	-8.992034e+02
2.630000e-06	-2.169046e-06	-1.487078e-08	-1.580800e+01	-9.726664e+02
2.640000e-06	-2.301858e-06	-1.588233e-08	-1.677593e+01	-1.040895e+03
2.650000e-06	-2.433857e-06	-1.681541e-08	-1.773794e+01	-1.103705e+03
2.660000e-06	-2.564842e-06	-1.767833e-08	-1.869256e+01	-1.161138e+03
2.670000e-06	-2.694828e-06	-1.847426e-08	-1.963990e+01	-1.213445e+03
2.680000e-06	-2.823960e-06	-1.920800e-08	-2.058101e+01	-1.261043e+03
2.690000e-06	-2.952170e-06	-1.988620e-08	-2.151540e+01	-1.304470e+03
2.700000e-06	-3.079211e-06	-2.051598e-08	-2.244128e+01	-1.344321e+03
2.710000e-06	-3.205074e-06	-2.110440e-08	-2.335857e+01	-1.381192e+03
2.720000e-06	-3.329821e-06	-2.165569e-08	-2.426772e+01	-1.415629e+03
2.730000e-06	-3.453294e-06	-2.216969e-08	-2.516760e+01	-1.448087e+03
2.740000e-06	-3.575471e-06	-2.264887e-08	-2.605802e+01	-1.478906e+03
2.750000e-06	-3.696521e-06	-2.309638e-08	-2.694023e+01	-1.508306e+03
2.760000e-06	-3.816245e-06	-2.351475e-08	-2.781278e+01	-1.536395e+03
2.770000e-06	-3.934410e-06	-2.390907e-08	-2.867396e+01	-1.563188e+03
2.780000e-06	-4.051052e-06	-2.428281e-08	-2.952405e+01	-1.588647e+03
2.790000e-06	-4.166056e-06	-2.463758e-08	-3.036220e+01	-1.612705e+03
2.800000e-06	-4.279344e-06	-2.497277e-08	-3.118784e+01	-1.635307e+03
2.810000e-06	-4.390923e-06	-2.528927e-08	-3.200103e+01	-1.656430e+03
2.820000e-06	-4.500783e-06	-2.558960e-08	-3.280169e+01	-1.676106e+03
2.830000e-06	-4.609141e-06	-2.587402e-08	-3.359140e+01	-1.694420e+03
2.840000e-06	-4.716141e-06	-2.614451e-08	-3.437122e+01	-1.711511e+03
2.850000e-06	-4.821586e-06	-2.640143e-08	-3.513970e+01	-1.727552e+03
2.860000e-06	-4.925275e-06	-2.664464e-08	-3.589539e+01	-1.742731e+03
2.870000e-06	-5.027030e-06	-2.687637e-08	-3.663698e+01	-1.757231e+03
2.880000e-06	-5.126880e-06	-2.709706e-08	-3.736468e+01	-1.771202e+03
2.890000e-06	-5.224968e-06	-2.730834e-08	-3.807954e+01	-1.784753e+03
2.900000e-06	-5.321274e-06	-2.750950e-08	-3.878142e+01	-1.797938e+03
2.910000e-06	-5.415619e-06	-2.770007e-08	-3.946901e+01	-1.810757e+03
2.920000e-06	-5.507934e-06	-2.788119e-08	-4.014180e+01	-1.823166e+03
2.930000e-06	-5.598326e-06	-2.805320e-08	-4.080058e+01	-1.835091e+03
2.940000e-06	-5.686795e-06	-2.821687e-08	-4.144534e+01	-1.846446e+03
