# Temperatura_=_62.99
# Concentracion g/m^3_=_28370.0
# C_Vs_to_Am_M_A/Vsm_=_65563218390.804596
# pendiente_HvsI_1/m_=_3716.3
# ordenada_HvsI_A/m_=_1297.0
# frecuencia_Hz_=_302373.2361581212

Tiempo_(s)	Campo_(V.s)	Magnetizacion_(V.s)	Campo_(kA/m)	Magnetizacion_(A/m)
0.000000e+00	-7.292630e-06	-3.033868e-08	-5.318646e+01	-1.985988e+03
1.000000e-08	-7.288651e-06	-3.033521e-08	-5.315744e+01	-1.985058e+03
2.000000e-08	-7.282370e-06	-3.032205e-08	-5.311164e+01	-1.984019e+03
3.000000e-08	-7.273767e-06	-3.030537e-08	-5.304889e+01	-1.982929e+03
4.000000e-08	-7.262612e-06	-3.028588e-08	-5.296753e+01	-1.981822e+03
5.000000e-08	-7.248676e-06	-3.026371e-08	-5.286590e+01	-1.980711e+03
6.000000e-08	-7.232009e-06	-3.023799e-08	-5.274434e+01	-1.979577e+03
7.000000e-08	-7.213143e-06	-3.020842e-08	-5.260675e+01	-1.978383e+03
8.000000e-08	-7.192277e-06	-3.019291e-08	-5.245457e+01	-1.977075e+03
9.000000e-08	-7.168823e-06	-3.022203e-08	-5.228352e+01	-1.975594e+03
1.000000e-07	-7.142325e-06	-3.018385e-08	-5.209026e+01	-1.973887e+03
1.100000e-07	-7.113007e-06	-3.009773e-08	-5.187644e+01	-1.971915e+03
1.200000e-07	-7.081261e-06	-3.004715e-08	-5.164491e+01	-1.969659e+03
1.300000e-07	-7.047091e-06	-2.999971e-08	-5.139571e+01	-1.967124e+03
1.400000e-07	-7.010726e-06	-2.992455e-08	-5.113049e+01	-1.964337e+03
1.500000e-07	-6.972553e-06	-2.988306e-08	-5.085209e+01	-1.961338e+03
1.600000e-07	-6.932225e-06	-2.993071e-08	-5.055797e+01	-1.958174e+03
1.700000e-07	-6.889414e-06	-2.983690e-08	-5.024573e+01	-1.954886e+03
1.800000e-07	-6.844269e-06	-2.975655e-08	-4.991649e+01	-1.951502e+03
1.900000e-07	-6.796597e-06	-2.974377e-08	-4.956881e+01	-1.948027e+03
2.000000e-07	-6.746058e-06	-2.961997e-08	-4.920021e+01	-1.944442e+03
2.100000e-07	-6.692825e-06	-2.955806e-08	-4.881198e+01	-1.940702e+03
2.200000e-07	-6.637130e-06	-2.948620e-08	-4.840578e+01	-1.936743e+03
2.300000e-07	-6.578910e-06	-2.941108e-08	-4.798117e+01	-1.932494e+03
2.400000e-07	-6.518219e-06	-2.937775e-08	-4.753855e+01	-1.927881e+03
2.500000e-07	-6.455156e-06	-2.928014e-08	-4.707862e+01	-1.922845e+03
2.600000e-07	-6.389626e-06	-2.919784e-08	-4.660069e+01	-1.917351e+03
2.700000e-07	-6.321637e-06	-2.911752e-08	-4.610484e+01	-1.911390e+03
2.800000e-07	-6.251304e-06	-2.902619e-08	-4.559188e+01	-1.904984e+03
2.900000e-07	-6.178570e-06	-2.891831e-08	-4.506143e+01	-1.898181e+03
3.000000e-07	-6.103371e-06	-2.882097e-08	-4.451299e+01	-1.891049e+03
3.100000e-07	-6.025665e-06	-2.873516e-08	-4.394626e+01	-1.883658e+03
3.200000e-07	-5.945370e-06	-2.858871e-08	-4.336066e+01	-1.876074e+03
3.300000e-07	-5.862881e-06	-2.846858e-08	-4.275905e+01	-1.868343e+03
3.400000e-07	-5.778545e-06	-2.834697e-08	-4.214397e+01	-1.860478e+03
3.500000e-07	-5.692363e-06	-2.822574e-08	-4.151543e+01	-1.852461e+03
3.600000e-07	-5.604269e-06	-2.810454e-08	-4.087294e+01	-1.844238e+03
3.700000e-07	-5.514072e-06	-2.795912e-08	-4.021512e+01	-1.835727e+03
3.800000e-07	-5.421813e-06	-2.781418e-08	-3.954226e+01	-1.826830e+03
3.900000e-07	-5.327643e-06	-2.765384e-08	-3.885546e+01	-1.817445e+03
4.000000e-07	-5.231602e-06	-2.750029e-08	-3.815501e+01	-1.807482e+03
4.100000e-07	-5.133676e-06	-2.734034e-08	-3.744082e+01	-1.796876e+03
4.200000e-07	-5.033950e-06	-2.718113e-08	-3.671350e+01	-1.785597e+03
4.300000e-07	-4.932497e-06	-2.700367e-08	-3.597359e+01	-1.773651e+03
4.400000e-07	-4.829308e-06	-2.681461e-08	-3.522101e+01	-1.761078e+03
4.500000e-07	-4.724434e-06	-2.662351e-08	-3.445615e+01	-1.747944e+03
4.600000e-07	-4.617799e-06	-2.642118e-08	-3.367844e+01	-1.734323e+03
4.700000e-07	-4.509466e-06	-2.621482e-08	-3.288835e+01	-1.720284e+03
4.800000e-07	-4.399634e-06	-2.599915e-08	-3.208732e+01	-1.705872e+03
4.900000e-07	-4.288275e-06	-2.577254e-08	-3.127517e+01	-1.691096e+03
5.000000e-07	-4.175208e-06	-2.552882e-08	-3.045055e+01	-1.675919e+03
5.100000e-07	-4.060339e-06	-2.527856e-08	-2.961278e+01	-1.660258e+03
5.200000e-07	-3.943800e-06	-2.501795e-08	-2.876284e+01	-1.643991e+03
5.300000e-07	-3.825777e-06	-2.474524e-08	-2.790208e+01	-1.626970e+03
5.400000e-07	-3.706367e-06	-2.446073e-08	-2.703121e+01	-1.609036e+03
5.500000e-07	-3.585605e-06	-2.416651e-08	-2.615046e+01	-1.590042e+03
5.600000e-07	-3.463431e-06	-2.385983e-08	-2.525943e+01	-1.569871e+03
5.700000e-07	-3.339875e-06	-2.353361e-08	-2.435831e+01	-1.548448e+03
5.800000e-07	-3.215063e-06	-2.318932e-08	-2.344803e+01	-1.525743e+03
5.900000e-07	-3.089130e-06	-2.282879e-08	-2.252958e+01	-1.501774e+03
6.000000e-07	-2.962182e-06	-2.245431e-08	-2.160373e+01	-1.476589e+03
6.100000e-07	-2.834162e-06	-2.206347e-08	-2.067006e+01	-1.450245e+03
6.200000e-07	-2.705051e-06	-2.165624e-08	-1.972842e+01	-1.422787e+03
6.300000e-07	-2.574895e-06	-2.122481e-08	-1.877917e+01	-1.394214e+03
6.400000e-07	-2.443667e-06	-2.076628e-08	-1.782211e+01	-1.364462e+03
6.500000e-07	-2.311486e-06	-2.027943e-08	-1.685809e+01	-1.333380e+03
6.600000e-07	-2.178587e-06	-1.976552e-08	-1.588883e+01	-1.300733e+03
6.700000e-07	-2.045040e-06	-1.922462e-08	-1.491484e+01	-1.266198e+03
6.800000e-07	-1.910787e-06	-1.865045e-08	-1.393572e+01	-1.229396e+03
6.900000e-07	-1.775794e-06	-1.803679e-08	-1.295119e+01	-1.189910e+03
7.000000e-07	-1.640206e-06	-1.737847e-08	-1.196232e+01	-1.147335e+03
7.100000e-07	-1.504087e-06	-1.667459e-08	-1.096958e+01	-1.101315e+03
7.200000e-07	-1.367399e-06	-1.592380e-08	-9.972684e+00	-1.051578e+03
7.300000e-07	-1.230169e-06	-1.512467e-08	-8.971846e+00	-9.979754e+02
7.400000e-07	-1.092462e-06	-1.427203e-08	-7.967520e+00	-9.404941e+02
7.500000e-07	-9.544034e-07	-1.336350e-08	-6.960636e+00	-8.792617e+02
7.600000e-07	-8.160549e-07	-1.239637e-08	-5.951636e+00	-8.145323e+02
7.700000e-07	-6.774415e-07	-1.136947e-08	-4.940703e+00	-7.466581e+02
7.800000e-07	-5.385834e-07	-1.028545e-08	-3.927986e+00	-6.760490e+02
7.900000e-07	-3.995156e-07	-9.152381e-09	-2.913739e+00	-6.031262e+02
8.000000e-07	-2.603111e-07	-7.981192e-09	-1.898496e+00	-5.282765e+02
8.100000e-07	-1.209468e-07	-6.781117e-09	-8.820871e-01	-4.518132e+02
8.200000e-07	1.857216e-08	-5.566013e-09	1.354501e-01	-3.739490e+02
8.300000e-07	1.581444e-07	-4.345529e-09	1.153376e+00	-2.947868e+02
8.400000e-07	2.976657e-07	-3.124381e-09	2.170930e+00	-2.143285e+02
8.500000e-07	4.370707e-07	-1.902239e-09	3.187636e+00	-1.325020e+02
8.600000e-07	5.763241e-07	-6.695348e-10	4.203235e+00	-4.920290e+01
8.700000e-07	7.153360e-07	5.843937e-10	5.217074e+00	3.565431e+01
8.800000e-07	8.540791e-07	1.867247e-09	6.228953e+00	1.220826e+02
8.900000e-07	9.925633e-07	3.182772e-09	7.238943e+00	2.099741e+02
9.000000e-07	1.130741e-06	4.533663e-09	8.246695e+00	2.990635e+02
9.100000e-07	1.268512e-06	5.916684e-09	9.251485e+00	3.889100e+02
9.200000e-07	1.405765e-06	7.319084e-09	1.025250e+01	4.788997e+02
9.300000e-07	1.542487e-06	8.719220e-09	1.124964e+01	5.682702e+02
9.400000e-07	1.678620e-06	1.009219e-08	1.224248e+01	6.561556e+02
9.500000e-07	1.814093e-06	1.141674e-08	1.323050e+01	7.416455e+02
9.600000e-07	1.948855e-06	1.267323e-08	1.421335e+01	8.238534e+02
9.700000e-07	2.082847e-06	1.384730e-08	1.519058e+01	9.019851e+02
9.800000e-07	2.216107e-06	1.493281e-08	1.616247e+01	9.753995e+02
9.900000e-07	2.348585e-06	1.593312e-08	1.712865e+01	1.043656e+03
1.000000e-06	2.480179e-06	1.685624e-08	1.808839e+01	1.106539e+03
1.010000e-06	2.610816e-06	1.770658e-08	1.904115e+01	1.164067e+03
1.020000e-06	2.740409e-06	1.849020e-08	1.998630e+01	1.216470e+03
1.030000e-06	2.868964e-06	1.921369e-08	2.092387e+01	1.264155e+03
1.040000e-06	2.996457e-06	1.988532e-08	2.185370e+01	1.307652e+03
1.050000e-06	3.122854e-06	2.050969e-08	2.277554e+01	1.347556e+03
1.060000e-06	3.248215e-06	2.109013e-08	2.368981e+01	1.384469e+03
1.070000e-06	3.372456e-06	2.163264e-08	2.459593e+01	1.418939e+03
1.080000e-06	3.495498e-06	2.213929e-08	2.549330e+01	1.451427e+03
1.090000e-06	3.617307e-06	2.261300e-08	2.638167e+01	1.482276e+03
1.100000e-06	3.737797e-06	2.305782e-08	2.726042e+01	1.511704e+03
1.110000e-06	3.856937e-06	2.347636e-08	2.812934e+01	1.539817e+03
1.120000e-06	3.974686e-06	2.386979e-08	2.898810e+01	1.566625e+03
1.130000e-06	4.090946e-06	2.424064e-08	2.983600e+01	1.592082e+03
1.140000e-06	4.205602e-06	2.459162e-08	3.067221e+01	1.616115e+03
1.150000e-06	4.318609e-06	2.492547e-08	3.149639e+01	1.638661e+03
1.160000e-06	4.429986e-06	2.524144e-08	3.230869e+01	1.659698e+03
1.170000e-06	4.539848e-06	2.553844e-08	3.310993e+01	1.679253e+03
1.180000e-06	4.648201e-06	2.581711e-08	3.390017e+01	1.697416e+03
1.190000e-06	4.754928e-06	2.608105e-08	3.467855e+01	1.714330e+03
1.200000e-06	4.859943e-06	2.633169e-08	3.544444e+01	1.730176e+03
1.210000e-06	4.963166e-06	2.657100e-08	3.619727e+01	1.745153e+03
1.220000e-06	5.064610e-06	2.679886e-08	3.693712e+01	1.759447e+03
1.230000e-06	5.164253e-06	2.701561e-08	3.766383e+01	1.773219e+03
1.240000e-06	5.261965e-06	2.722173e-08	3.837646e+01	1.786579e+03
1.250000e-06	5.357645e-06	2.741540e-08	3.907427e+01	1.799581e+03
1.260000e-06	5.451382e-06	2.759976e-08	3.975791e+01	1.812225e+03
1.270000e-06	5.543197e-06	2.777544e-08	4.042753e+01	1.824459e+03
1.280000e-06	5.632970e-06	2.794351e-08	4.108226e+01	1.836204e+03
1.290000e-06	5.720680e-06	2.810350e-08	4.172195e+01	1.847366e+03
1.300000e-06	5.806379e-06	2.825503e-08	4.234697e+01	1.857859e+03
1.310000e-06	5.890066e-06	2.839994e-08	4.295731e+01	1.867624e+03
1.320000e-06	5.971633e-06	2.853906e-08	4.355220e+01	1.876639e+03
1.330000e-06	6.051015e-06	2.867118e-08	4.413114e+01	1.884928e+03
1.340000e-06	6.128169e-06	2.879604e-08	4.469384e+01	1.892555e+03
1.350000e-06	6.202958e-06	2.891432e-08	4.523929e+01	1.899616e+03
1.360000e-06	6.275333e-06	2.902458e-08	4.576714e+01	1.906229e+03
1.370000e-06	6.345466e-06	2.912806e-08	4.627862e+01	1.912509e+03
1.380000e-06	6.413396e-06	2.922530e-08	4.677405e+01	1.918561e+03
1.390000e-06	6.479041e-06	2.931537e-08	4.725281e+01	1.924458e+03
1.400000e-06	6.542369e-06	2.939986e-08	4.771467e+01	1.930238e+03
1.410000e-06	6.603460e-06	2.948004e-08	4.816022e+01	1.935898e+03
1.420000e-06	6.662292e-06	2.955692e-08	4.858930e+01	1.941402e+03
1.430000e-06	6.718736e-06	2.963125e-08	4.900095e+01	1.946687e+03
1.440000e-06	6.772722e-06	2.970136e-08	4.939468e+01	1.951679e+03
1.450000e-06	6.823986e-06	2.976704e-08	4.976856e+01	1.956307e+03
1.460000e-06	6.872445e-06	2.982865e-08	5.012198e+01	1.960514e+03
1.470000e-06	6.918391e-06	2.988638e-08	5.045707e+01	1.964273e+03
1.480000e-06	6.962035e-06	2.994057e-08	5.077537e+01	1.967585e+03
1.490000e-06	7.003203e-06	2.999056e-08	5.107562e+01	1.970487e+03
1.500000e-06	7.041797e-06	3.003666e-08	5.135710e+01	1.973036e+03
1.510000e-06	7.077976e-06	3.007857e-08	5.162096e+01	1.975310e+03
1.520000e-06	7.111629e-06	3.011730e-08	5.186639e+01	1.977387e+03
1.530000e-06	7.142677e-06	3.015226e-08	5.209283e+01	1.979335e+03
1.540000e-06	7.171290e-06	3.018378e-08	5.230151e+01	1.981204e+03
1.550000e-06	7.197326e-06	3.021111e-08	5.249140e+01	1.983013e+03
1.560000e-06	7.220630e-06	3.023328e-08	5.266136e+01	1.984753e+03
1.570000e-06	7.241421e-06	3.025215e-08	5.281299e+01	1.986389e+03
1.580000e-06	7.259727e-06	3.026818e-08	5.294650e+01	1.987865e+03
1.590000e-06	7.275292e-06	3.028131e-08	5.306001e+01	1.989116e+03
1.600000e-06	7.288030e-06	3.029190e-08	5.315291e+01	1.990081e+03
1.610000e-06	7.297908e-06	3.030117e-08	5.322496e+01	1.990712e+03
1.620000e-06	7.305036e-06	3.030815e-08	5.327694e+01	1.990985e+03
1.630000e-06	7.309644e-06	3.031165e-08	5.331055e+01	1.990904e+03
1.640000e-06	7.311653e-06	3.031283e-08	5.332520e+01	1.990500e+03
1.650000e-06	7.311042e-06	3.031148e-08	5.332075e+01	1.989827e+03
1.660000e-06	7.308057e-06	3.030150e-08	5.329898e+01	1.988950e+03
1.670000e-06	7.302642e-06	3.029052e-08	5.325948e+01	1.987942e+03
1.680000e-06	7.294731e-06	3.027870e-08	5.320178e+01	1.986863e+03
1.690000e-06	7.284470e-06	3.026594e-08	5.312695e+01	1.985758e+03
1.700000e-06	7.271670e-06	3.025178e-08	5.303360e+01	1.984648e+03
1.710000e-06	7.256309e-06	3.023919e-08	5.292157e+01	1.983524e+03
1.720000e-06	7.238666e-06	3.023024e-08	5.279290e+01	1.982356e+03
1.730000e-06	7.218908e-06	3.017633e-08	5.264880e+01	1.981094e+03
1.740000e-06	7.196534e-06	3.008328e-08	5.248562e+01	1.979680e+03
1.750000e-06	7.170860e-06	3.008772e-08	5.229837e+01	1.978058e+03
1.760000e-06	7.141836e-06	3.009597e-08	5.208669e+01	1.976182e+03
1.770000e-06	7.110056e-06	3.005273e-08	5.185492e+01	1.974026e+03
1.780000e-06	7.076220e-06	3.005375e-08	5.160815e+01	1.971588e+03
1.790000e-06	7.040759e-06	3.006433e-08	5.134953e+01	1.968886e+03
1.800000e-06	7.003665e-06	2.993404e-08	5.107899e+01	1.965956e+03
1.810000e-06	6.964160e-06	2.990803e-08	5.079087e+01	1.962844e+03
1.820000e-06	6.922011e-06	2.993381e-08	5.048347e+01	1.959595e+03
1.830000e-06	6.877625e-06	2.983556e-08	5.015976e+01	1.956242e+03
1.840000e-06	6.830777e-06	2.988185e-08	4.981809e+01	1.952799e+03
1.850000e-06	6.781351e-06	2.978035e-08	4.945761e+01	1.949256e+03
1.860000e-06	6.729308e-06	2.970398e-08	4.907806e+01	1.945576e+03
1.870000e-06	6.674498e-06	2.967630e-08	4.867831e+01	1.941702e+03
1.880000e-06	6.617252e-06	2.950714e-08	4.826081e+01	1.937564e+03
1.890000e-06	6.557523e-06	2.948817e-08	4.782519e+01	1.933087e+03
1.900000e-06	6.495172e-06	2.939510e-08	4.737046e+01	1.928206e+03
1.910000e-06	6.430370e-06	2.931994e-08	4.689785e+01	1.922877e+03
1.920000e-06	6.363254e-06	2.926432e-08	4.640836e+01	1.917080e+03
1.930000e-06	6.293750e-06	2.913833e-08	4.590145e+01	1.910827e+03
1.940000e-06	6.221686e-06	2.908026e-08	4.537588e+01	1.904158e+03
1.950000e-06	6.147210e-06	2.892411e-08	4.483271e+01	1.897134e+03
1.960000e-06	6.070190e-06	2.885011e-08	4.427099e+01	1.889826e+03
1.970000e-06	5.990681e-06	2.875062e-08	4.369111e+01	1.882303e+03
1.980000e-06	5.909094e-06	2.862922e-08	4.309609e+01	1.874620e+03
1.990000e-06	5.825557e-06	2.853518e-08	4.248684e+01	1.866802e+03
2.000000e-06	5.739867e-06	2.837449e-08	4.186188e+01	1.858842e+03
2.010000e-06	5.651957e-06	2.826587e-08	4.122074e+01	1.850699e+03
2.020000e-06	5.562103e-06	2.811458e-08	4.056542e+01	1.842301e+03
2.030000e-06	5.470443e-06	2.799807e-08	3.989693e+01	1.833552e+03
2.040000e-06	5.376819e-06	2.786032e-08	3.921411e+01	1.824351e+03
2.050000e-06	5.281148e-06	2.770048e-08	3.851636e+01	1.814602e+03
2.060000e-06	5.183712e-06	2.753438e-08	3.780574e+01	1.804230e+03
2.070000e-06	5.084661e-06	2.735108e-08	3.708335e+01	1.793191e+03
2.080000e-06	4.983750e-06	2.719098e-08	3.634739e+01	1.781479e+03
2.090000e-06	4.880844e-06	2.700628e-08	3.559687e+01	1.769122e+03
2.100000e-06	4.776141e-06	2.683105e-08	3.483326e+01	1.756178e+03
2.110000e-06	4.669918e-06	2.662904e-08	3.405855e+01	1.742721e+03
2.120000e-06	4.562218e-06	2.642071e-08	3.327308e+01	1.728823e+03
2.130000e-06	4.452950e-06	2.619962e-08	3.247617e+01	1.714540e+03
2.140000e-06	4.342050e-06	2.598166e-08	3.166735e+01	1.699894e+03
2.150000e-06	4.229449e-06	2.575493e-08	3.084613e+01	1.684866e+03
2.160000e-06	4.115182e-06	2.551248e-08	3.001276e+01	1.669389e+03
2.170000e-06	3.999210e-06	2.526164e-08	2.916696e+01	1.653354e+03
2.180000e-06	3.881539e-06	2.499486e-08	2.830876e+01	1.636619e+03
2.190000e-06	3.762219e-06	2.472118e-08	2.743854e+01	1.619027e+03
2.200000e-06	3.641414e-06	2.443072e-08	2.655749e+01	1.600426e+03
2.210000e-06	3.519352e-06	2.413521e-08	2.566727e+01	1.580685e+03
2.220000e-06	3.396035e-06	2.382124e-08	2.476790e+01	1.559713e+03
2.230000e-06	3.271418e-06	2.349397e-08	2.385904e+01	1.537465e+03
2.240000e-06	3.145556e-06	2.314739e-08	2.294110e+01	1.513942e+03
2.250000e-06	3.018548e-06	2.278540e-08	2.201481e+01	1.489183e+03
2.260000e-06	2.890410e-06	2.240147e-08	2.108028e+01	1.463245e+03
2.270000e-06	2.761254e-06	2.199743e-08	2.013832e+01	1.436181e+03
2.280000e-06	2.631162e-06	2.157316e-08	1.918954e+01	1.408008e+03
2.290000e-06	2.500152e-06	2.112832e-08	1.823406e+01	1.378688e+03
2.300000e-06	2.368257e-06	2.065874e-08	1.727212e+01	1.348103e+03
2.310000e-06	2.235565e-06	2.015572e-08	1.630438e+01	1.316046e+03
2.320000e-06	2.102129e-06	1.962051e-08	1.533120e+01	1.282225e+03
2.330000e-06	1.967896e-06	1.905151e-08	1.435222e+01	1.246278e+03
2.340000e-06	1.832956e-06	1.845121e-08	1.336808e+01	1.207797e+03
2.350000e-06	1.697347e-06	1.781447e-08	1.237906e+01	1.166369e+03
2.360000e-06	1.561120e-06	1.713640e-08	1.138553e+01	1.121614e+03
2.370000e-06	1.424398e-06	1.640897e-08	1.038839e+01	1.073227e+03
2.380000e-06	1.287287e-06	1.562655e-08	9.388418e+00	1.021012e+03
2.390000e-06	1.149815e-06	1.478847e-08	8.385811e+00	9.649074e+02
2.400000e-06	1.012001e-06	1.389735e-08	7.380702e+00	9.049902e+02
2.410000e-06	8.738775e-07	1.295187e-08	6.373346e+00	8.414723e+02
2.420000e-06	7.354233e-07	1.194742e-08	5.363574e+00	7.746749e+02
2.430000e-06	5.966212e-07	1.088639e-08	4.351266e+00	7.049923e+02
2.440000e-06	4.575548e-07	9.773743e-09	3.337030e+00	6.328473e+02
2.450000e-06	3.183047e-07	8.612465e-09	2.321454e+00	5.586440e+02
2.460000e-06	1.788597e-07	7.413014e-09	1.304456e+00	4.827256e+02
2.470000e-06	3.930987e-08	6.193405e-09	2.866939e-01	4.053428e+02
2.480000e-06	-1.002375e-07	4.968841e-09	-7.310503e-01	3.266377e+02
2.490000e-06	-2.397502e-07	3.742569e-09	-1.748541e+00	2.466462e+02
2.500000e-06	-3.791795e-07	2.511619e-09	-2.765425e+00	1.653183e+02
2.510000e-06	-5.184884e-07	1.275864e-09	-3.781430e+00	8.255569e+01
2.520000e-06	-6.576539e-07	2.811192e-11	-4.796388e+00	-1.740056e+00
2.530000e-06	-7.965971e-07	-1.244288e-09	-5.809726e+00	-8.761381e+01
2.540000e-06	-9.351533e-07	-2.550711e-09	-6.820241e+00	-1.750058e+02
2.550000e-06	-1.073329e-06	-3.892776e-09	-7.827982e+00	-2.637100e+02
2.560000e-06	-1.211160e-06	-5.269574e-09	-8.833211e+00	-3.533493e+02
2.570000e-06	-1.348622e-06	-6.675130e-09	-9.835745e+00	-4.433698e+02
2.580000e-06	-1.485664e-06	-8.089267e-09	-1.083521e+01	-5.330580e+02
2.590000e-06	-1.622146e-06	-9.486683e-09	-1.183061e+01	-6.215788e+02
2.600000e-06	-1.757923e-06	-1.084129e-08	-1.282085e+01	-7.080301e+02
2.610000e-06	-1.892982e-06	-1.213387e-08	-1.380586e+01	-7.915089e+02
2.620000e-06	-2.027323e-06	-1.334713e-08	-1.478563e+01	-8.711805e+02
2.630000e-06	-2.160847e-06	-1.447237e-08	-1.575945e+01	-9.463428e+02
2.640000e-06	-2.293573e-06	-1.551381e-08	-1.672744e+01	-1.016479e+03
2.650000e-06	-2.425454e-06	-1.647726e-08	-1.768928e+01	-1.081293e+03
2.660000e-06	-2.556367e-06	-1.736792e-08	-1.864405e+01	-1.140719e+03
2.670000e-06	-2.686339e-06	-1.818860e-08	-1.959195e+01	-1.194915e+03
2.680000e-06	-2.815409e-06	-1.894572e-08	-2.053328e+01	-1.244230e+03
2.690000e-06	-2.943502e-06	-1.964547e-08	-2.146749e+01	-1.289158e+03
2.700000e-06	-3.070538e-06	-2.029315e-08	-2.239399e+01	-1.330277e+03
2.710000e-06	-3.196414e-06	-2.089649e-08	-2.331202e+01	-1.368193e+03
2.720000e-06	-3.321083e-06	-2.146036e-08	-2.422126e+01	-1.403479e+03
2.730000e-06	-3.444546e-06	-2.198632e-08	-2.512170e+01	-1.436630e+03
2.740000e-06	-3.566796e-06	-2.247527e-08	-2.601329e+01	-1.468034e+03
2.750000e-06	-3.687822e-06	-2.293427e-08	-2.689595e+01	-1.497954e+03
2.760000e-06	-3.807488e-06	-2.336553e-08	-2.776870e+01	-1.526532e+03
2.770000e-06	-3.925635e-06	-2.377031e-08	-2.863036e+01	-1.553811e+03
2.780000e-06	-4.042257e-06	-2.415438e-08	-2.948091e+01	-1.579759e+03
2.790000e-06	-4.157294e-06	-2.451649e-08	-3.031989e+01	-1.604310e+03
2.800000e-06	-4.270589e-06	-2.485516e-08	-3.114617e+01	-1.627394e+03
2.810000e-06	-4.382177e-06	-2.517398e-08	-3.196001e+01	-1.648971e+03
2.820000e-06	-4.492195e-06	-2.547729e-08	-3.276238e+01	-1.669049e+03
2.830000e-06	-4.600721e-06	-2.576807e-08	-3.355389e+01	-1.687697e+03
2.840000e-06	-4.707748e-06	-2.604488e-08	-3.433445e+01	-1.705039e+03
2.850000e-06	-4.813228e-06	-2.630383e-08	-3.510374e+01	-1.721246e+03
2.860000e-06	-4.916971e-06	-2.654745e-08	-3.586035e+01	-1.736512e+03
2.870000e-06	-5.018777e-06	-2.677795e-08	-3.660285e+01	-1.751031e+03
2.880000e-06	-5.118705e-06	-2.699874e-08	-3.733164e+01	-1.764976e+03
2.890000e-06	-5.216839e-06	-2.721102e-08	-3.804735e+01	-1.778475e+03
2.900000e-06	-5.313135e-06	-2.741381e-08	-3.874965e+01	-1.791604e+03
2.910000e-06	-5.407501e-06	-2.760823e-08	-3.943788e+01	-1.804380e+03
2.920000e-06	-5.499941e-06	-2.779206e-08	-4.011206e+01	-1.816770e+03
2.930000e-06	-5.590403e-06	-2.796432e-08	-4.077182e+01	-1.828702e+03
2.940000e-06	-5.678756e-06	-2.812710e-08	-4.141619e+01	-1.840084e+03
