# Temperatura_=_74.36
# Concentracion g/m^3_=_28370.0
# C_Vs_to_Am_M_A/Vsm_=_65563218390.804596
# pendiente_HvsI_1/m_=_3716.3
# ordenada_HvsI_A/m_=_1297.0
# frecuencia_Hz_=_302375.67679993773

Tiempo_(s)	Campo_(V.s)	Magnetizacion_(V.s)	Campo_(kA/m)	Magnetizacion_(A/m)
0.000000e+00	-7.318501e-06	-3.070667e-08	-5.318690e+01	-2.010408e+03
1.000000e-08	-7.314256e-06	-3.069899e-08	-5.315604e+01	-2.009426e+03
2.000000e-08	-7.307681e-06	-3.068249e-08	-5.310826e+01	-2.008345e+03
3.000000e-08	-7.298742e-06	-3.066703e-08	-5.304330e+01	-2.007213e+03
4.000000e-08	-7.287164e-06	-3.065080e-08	-5.295915e+01	-2.006057e+03
5.000000e-08	-7.272825e-06	-3.062930e-08	-5.285495e+01	-2.004878e+03
6.000000e-08	-7.255901e-06	-3.060084e-08	-5.273195e+01	-2.003652e+03
7.000000e-08	-7.236818e-06	-3.056607e-08	-5.259327e+01	-2.002335e+03
8.000000e-08	-7.215616e-06	-3.056212e-08	-5.243918e+01	-2.000874e+03
9.000000e-08	-7.191770e-06	-3.060510e-08	-5.226588e+01	-1.999212e+03
1.000000e-07	-7.164917e-06	-3.053902e-08	-5.207073e+01	-1.997304e+03
1.100000e-07	-7.135288e-06	-3.044410e-08	-5.185540e+01	-1.995120e+03
1.200000e-07	-7.103190e-06	-3.040474e-08	-5.162213e+01	-1.992653e+03
1.300000e-07	-7.068610e-06	-3.035902e-08	-5.137083e+01	-1.989917e+03
1.400000e-07	-7.031900e-06	-3.025857e-08	-5.110403e+01	-1.986945e+03
1.500000e-07	-6.993418e-06	-3.022034e-08	-5.082437e+01	-1.983781e+03
1.600000e-07	-6.952697e-06	-3.030998e-08	-5.052843e+01	-1.980469e+03
1.700000e-07	-6.909454e-06	-3.014370e-08	-5.021416e+01	-1.977044e+03
1.800000e-07	-6.863854e-06	-3.008307e-08	-4.988276e+01	-1.973523e+03
1.900000e-07	-6.815708e-06	-3.007655e-08	-4.953287e+01	-1.969901e+03
2.000000e-07	-6.764723e-06	-2.991942e-08	-4.916234e+01	-1.966144e+03
2.100000e-07	-6.711019e-06	-2.991489e-08	-4.877205e+01	-1.962198e+03
2.200000e-07	-6.654837e-06	-2.981711e-08	-4.836375e+01	-1.957994e+03
2.300000e-07	-6.596127e-06	-2.973377e-08	-4.793707e+01	-1.953454e+03
2.400000e-07	-6.534932e-06	-2.969587e-08	-4.749234e+01	-1.948510e+03
2.500000e-07	-6.471394e-06	-2.958897e-08	-4.703058e+01	-1.943112e+03
2.600000e-07	-6.405367e-06	-2.949931e-08	-4.655074e+01	-1.937233e+03
2.700000e-07	-6.336896e-06	-2.941238e-08	-4.605312e+01	-1.930880e+03
2.800000e-07	-6.266108e-06	-2.932886e-08	-4.553867e+01	-1.924087e+03
2.900000e-07	-6.192871e-06	-2.919919e-08	-4.500643e+01	-1.916912e+03
3.000000e-07	-6.117076e-06	-2.909190e-08	-4.445559e+01	-1.909430e+03
3.100000e-07	-6.038723e-06	-2.900569e-08	-4.388616e+01	-1.901713e+03
3.200000e-07	-5.957919e-06	-2.885536e-08	-4.329892e+01	-1.893823e+03
3.300000e-07	-5.874985e-06	-2.874734e-08	-4.269621e+01	-1.885795e+03
3.400000e-07	-5.790173e-06	-2.861406e-08	-4.207984e+01	-1.877633e+03
3.500000e-07	-5.703425e-06	-2.849012e-08	-4.144940e+01	-1.869305e+03
3.600000e-07	-5.614697e-06	-2.836620e-08	-4.080457e+01	-1.860744e+03
3.700000e-07	-5.523892e-06	-2.821002e-08	-4.014465e+01	-1.851858e+03
3.800000e-07	-5.431055e-06	-2.805849e-08	-3.946996e+01	-1.842544e+03
3.900000e-07	-5.336313e-06	-2.788873e-08	-3.878143e+01	-1.832700e+03
4.000000e-07	-5.239732e-06	-2.772895e-08	-3.807953e+01	-1.822244e+03
4.100000e-07	-5.141266e-06	-2.755522e-08	-3.736393e+01	-1.811120e+03
4.200000e-07	-5.040959e-06	-2.739807e-08	-3.663496e+01	-1.799311e+03
4.300000e-07	-4.938920e-06	-2.721506e-08	-3.589339e+01	-1.786837e+03
4.400000e-07	-4.835116e-06	-2.701669e-08	-3.513900e+01	-1.773752e+03
4.500000e-07	-4.729646e-06	-2.681686e-08	-3.437250e+01	-1.760129e+03
4.600000e-07	-4.622413e-06	-2.660586e-08	-3.359319e+01	-1.746047e+03
4.700000e-07	-4.513466e-06	-2.638976e-08	-3.280142e+01	-1.731573e+03
4.800000e-07	-4.402955e-06	-2.616354e-08	-3.199829e+01	-1.716744e+03
4.900000e-07	-4.290807e-06	-2.593611e-08	-3.118326e+01	-1.701558e+03
5.000000e-07	-4.177024e-06	-2.568688e-08	-3.035635e+01	-1.685965e+03
5.100000e-07	-4.061562e-06	-2.542881e-08	-2.951723e+01	-1.669868e+03
5.200000e-07	-3.944460e-06	-2.515904e-08	-2.866620e+01	-1.653134e+03
5.300000e-07	-3.825890e-06	-2.488322e-08	-2.780449e+01	-1.635607e+03
5.400000e-07	-3.705874e-06	-2.459336e-08	-2.693228e+01	-1.617128e+03
5.500000e-07	-3.584453e-06	-2.428822e-08	-2.604986e+01	-1.597555e+03
5.600000e-07	-3.461612e-06	-2.397041e-08	-2.515712e+01	-1.576780e+03
5.700000e-07	-3.337409e-06	-2.363329e-08	-2.425448e+01	-1.554741e+03
5.800000e-07	-3.212060e-06	-2.328207e-08	-2.334351e+01	-1.531422e+03
5.900000e-07	-3.085578e-06	-2.291620e-08	-2.242431e+01	-1.506854e+03
6.000000e-07	-2.957977e-06	-2.253864e-08	-2.149697e+01	-1.481092e+03
6.100000e-07	-2.829273e-06	-2.214005e-08	-2.056162e+01	-1.454196e+03
6.200000e-07	-2.699531e-06	-2.172178e-08	-1.961873e+01	-1.426205e+03
6.300000e-07	-2.568811e-06	-2.127767e-08	-1.866872e+01	-1.397109e+03
6.400000e-07	-2.437047e-06	-2.080844e-08	-1.771114e+01	-1.366825e+03
6.500000e-07	-2.304353e-06	-2.031329e-08	-1.674679e+01	-1.335186e+03
6.600000e-07	-2.170955e-06	-1.978890e-08	-1.577732e+01	-1.301935e+03
6.700000e-07	-2.036913e-06	-1.923494e-08	-1.480318e+01	-1.266737e+03
6.800000e-07	-1.902152e-06	-1.864644e-08	-1.382381e+01	-1.229202e+03
6.900000e-07	-1.766705e-06	-1.802148e-08	-1.283945e+01	-1.188913e+03
7.000000e-07	-1.630558e-06	-1.735268e-08	-1.185001e+01	-1.145473e+03
7.100000e-07	-1.493794e-06	-1.663905e-08	-1.085609e+01	-1.098539e+03
7.200000e-07	-1.356535e-06	-1.587770e-08	-9.858562e+00	-1.047862e+03
7.300000e-07	-1.218769e-06	-1.506664e-08	-8.857353e+00	-9.933111e+02
7.400000e-07	-1.080577e-06	-1.420030e-08	-7.853046e+00	-9.348930e+02
7.500000e-07	-9.420418e-07	-1.327507e-08	-6.846249e+00	-8.727457e+02
7.600000e-07	-8.032187e-07	-1.229065e-08	-5.837358e+00	-8.071236e+02
7.700000e-07	-6.640855e-07	-1.124546e-08	-4.826213e+00	-7.383661e+02
7.800000e-07	-5.246597e-07	-1.014396e-08	-3.812942e+00	-6.668574e+02
7.900000e-07	-3.850317e-07	-8.993052e-09	-2.798201e+00	-5.929818e+02
8.000000e-07	-2.451731e-07	-7.803011e-09	-1.781785e+00	-5.170819e+02
8.100000e-07	-1.051362e-07	-6.584050e-09	-7.640726e-01	-4.394250e+02
8.200000e-07	3.495490e-08	-5.348956e-09	2.540333e-01	-3.601830e+02
8.300000e-07	1.750766e-07	-4.107491e-09	1.272362e+00	-2.794296e+02
8.400000e-07	3.151715e-07	-2.863290e-09	2.290495e+00	-1.971558e+02
8.500000e-07	4.551225e-07	-1.613171e-09	3.307583e+00	-1.133008e+02
8.600000e-07	5.948927e-07	-3.499310e-10	4.323357e+00	-2.779673e+01
8.700000e-07	7.344658e-07	9.352468e-10	5.337699e+00	5.938119e+01
8.800000e-07	8.737479e-07	2.252728e-09	6.349926e+00	1.481645e+02
8.900000e-07	1.012660e-06	3.606016e-09	7.359467e+00	2.383490e+02
9.000000e-07	1.151223e-06	4.994902e-09	8.366467e+00	3.295671e+02
9.100000e-07	1.289394e-06	6.412778e-09	9.370613e+00	4.212780e+02
9.200000e-07	1.427121e-06	7.845140e-09	1.037154e+01	5.127807e+02
9.300000e-07	1.564421e-06	9.266295e-09	1.136937e+01	6.032465e+02
9.400000e-07	1.701139e-06	1.064765e-08	1.236295e+01	6.917703e+02
9.500000e-07	1.837053e-06	1.196782e-08	1.335071e+01	7.774341e+02
9.600000e-07	1.972087e-06	1.321098e-08	1.433206e+01	8.593752e+02
9.700000e-07	2.106340e-06	1.436749e-08	1.530773e+01	9.368520e+02
9.800000e-07	2.239934e-06	1.543264e-08	1.627862e+01	1.009299e+03
9.900000e-07	2.372812e-06	1.641297e-08	1.724431e+01	1.076368e+03
1.000000e-06	2.504862e-06	1.731896e-08	1.820398e+01	1.137941e+03
1.010000e-06	2.635867e-06	1.815475e-08	1.915605e+01	1.194129e+03
1.020000e-06	2.765758e-06	1.892417e-08	2.010003e+01	1.245248e+03
1.030000e-06	2.894689e-06	1.963334e-08	2.103703e+01	1.291768e+03
1.040000e-06	3.022528e-06	2.029180e-08	2.196609e+01	1.334264e+03
1.050000e-06	3.149197e-06	2.090378e-08	2.288666e+01	1.373351e+03
1.060000e-06	3.274829e-06	2.147309e-08	2.379968e+01	1.409625e+03
1.070000e-06	3.399387e-06	2.200646e-08	2.470490e+01	1.443619e+03
1.080000e-06	3.522698e-06	2.250664e-08	2.560106e+01	1.475756e+03
1.090000e-06	3.644770e-06	2.297497e-08	2.648821e+01	1.506342e+03
1.100000e-06	3.765570e-06	2.341500e-08	2.736612e+01	1.535557e+03
1.110000e-06	3.884885e-06	2.382969e-08	2.823324e+01	1.563471e+03
1.120000e-06	4.002795e-06	2.421934e-08	2.909014e+01	1.590073e+03
1.130000e-06	4.119268e-06	2.458757e-08	2.993661e+01	1.615303e+03
1.140000e-06	4.234122e-06	2.493636e-08	3.077130e+01	1.639088e+03
1.150000e-06	4.347337e-06	2.526776e-08	3.159409e+01	1.661378e+03
1.160000e-06	4.458874e-06	2.557994e-08	3.240468e+01	1.682164e+03
1.170000e-06	4.568876e-06	2.587406e-08	3.320411e+01	1.701495e+03
1.180000e-06	4.677426e-06	2.615291e-08	3.399299e+01	1.719480e+03
1.190000e-06	4.784344e-06	2.641758e-08	3.477002e+01	1.736276e+03
1.200000e-06	4.889520e-06	2.666829e-08	3.553438e+01	1.752072e+03
1.210000e-06	4.992850e-06	2.690607e-08	3.628533e+01	1.767064e+03
1.220000e-06	5.094387e-06	2.713360e-08	3.702324e+01	1.781432e+03
1.230000e-06	5.194149e-06	2.735078e-08	3.774826e+01	1.795319e+03
1.240000e-06	5.291997e-06	2.755721e-08	3.845937e+01	1.808818e+03
1.250000e-06	5.387807e-06	2.775258e-08	3.915566e+01	1.821964e+03
1.260000e-06	5.481631e-06	2.793757e-08	3.983752e+01	1.834737e+03
1.270000e-06	5.573589e-06	2.811258e-08	4.050582e+01	1.847077e+03
1.280000e-06	5.663516e-06	2.828052e-08	4.115936e+01	1.858897e+03
1.290000e-06	5.751269e-06	2.844321e-08	4.179710e+01	1.870104e+03
1.300000e-06	5.836990e-06	2.859966e-08	4.242008e+01	1.880619e+03
1.310000e-06	5.920765e-06	2.874829e-08	4.302891e+01	1.890397e+03
1.320000e-06	6.002409e-06	2.888978e-08	4.362226e+01	1.899429e+03
1.330000e-06	6.081829e-06	2.902435e-08	4.419943e+01	1.907753e+03
1.340000e-06	6.158979e-06	2.915189e-08	4.476012e+01	1.915443e+03
1.350000e-06	6.233756e-06	2.927082e-08	4.530355e+01	1.922604e+03
1.360000e-06	6.306111e-06	2.938175e-08	4.582939e+01	1.929351e+03
1.370000e-06	6.376187e-06	2.948660e-08	4.633867e+01	1.935798e+03
1.380000e-06	6.444112e-06	2.958543e-08	4.683231e+01	1.942037e+03
1.390000e-06	6.509702e-06	2.967914e-08	4.730899e+01	1.948130e+03
1.400000e-06	6.572909e-06	2.976721e-08	4.776834e+01	1.954100e+03
1.410000e-06	6.633911e-06	2.985016e-08	4.821167e+01	1.959932e+03
1.420000e-06	6.692614e-06	2.992943e-08	4.863829e+01	1.965580e+03
1.430000e-06	6.748904e-06	3.000479e-08	4.904737e+01	1.970977e+03
1.440000e-06	6.802736e-06	3.007439e-08	4.943860e+01	1.976048e+03
1.450000e-06	6.853840e-06	3.013935e-08	4.980999e+01	1.980727e+03
1.460000e-06	6.902135e-06	3.020170e-08	5.016098e+01	1.984967e+03
1.470000e-06	6.947943e-06	3.026200e-08	5.049388e+01	1.988750e+03
1.480000e-06	6.991419e-06	3.031897e-08	5.080984e+01	1.992089e+03
1.490000e-06	7.032315e-06	3.037227e-08	5.110705e+01	1.995028e+03
1.500000e-06	7.070642e-06	3.042055e-08	5.138559e+01	1.997630e+03
1.510000e-06	7.106649e-06	3.046288e-08	5.164727e+01	1.999974e+03
1.520000e-06	7.140113e-06	3.050041e-08	5.189047e+01	2.002134e+03
1.530000e-06	7.170968e-06	3.053372e-08	5.211471e+01	2.004172e+03
1.540000e-06	7.199424e-06	3.056383e-08	5.232151e+01	2.006126e+03
1.550000e-06	7.225279e-06	3.059063e-08	5.250941e+01	2.008007e+03
1.560000e-06	7.248390e-06	3.061494e-08	5.267736e+01	2.009797e+03
1.570000e-06	7.268982e-06	3.063661e-08	5.282702e+01	2.011452e+03
1.580000e-06	7.287042e-06	3.065564e-08	5.295827e+01	2.012914e+03
1.590000e-06	7.302358e-06	3.067062e-08	5.306958e+01	2.014120e+03
1.600000e-06	7.314884e-06	3.068093e-08	5.316061e+01	2.015013e+03
1.610000e-06	7.324520e-06	3.068816e-08	5.323064e+01	2.015555e+03
1.620000e-06	7.331373e-06	3.069260e-08	5.328044e+01	2.015731e+03
1.630000e-06	7.335742e-06	3.069496e-08	5.331219e+01	2.015555e+03
1.640000e-06	7.337532e-06	3.069731e-08	5.332520e+01	2.015065e+03
1.650000e-06	7.336656e-06	3.069463e-08	5.331884e+01	2.014320e+03
1.660000e-06	7.333339e-06	3.068007e-08	5.329473e+01	2.013387e+03
1.670000e-06	7.327578e-06	3.066937e-08	5.325286e+01	2.012333e+03
1.680000e-06	7.319355e-06	3.065622e-08	5.319310e+01	2.011213e+03
1.690000e-06	7.308769e-06	3.063998e-08	5.311616e+01	2.010063e+03
1.700000e-06	7.295525e-06	3.062471e-08	5.301992e+01	2.008893e+03
1.710000e-06	7.279692e-06	3.061419e-08	5.290486e+01	2.007686e+03
1.720000e-06	7.261747e-06	3.060757e-08	5.277444e+01	2.006406e+03
1.730000e-06	7.241750e-06	3.052461e-08	5.262911e+01	2.005001e+03
1.740000e-06	7.219025e-06	3.042557e-08	5.246396e+01	2.003415e+03
1.750000e-06	7.192828e-06	3.045646e-08	5.227357e+01	2.001598e+03
1.760000e-06	7.163329e-06	3.045559e-08	5.205919e+01	1.999513e+03
1.770000e-06	7.131243e-06	3.039387e-08	5.182601e+01	1.997145e+03
1.780000e-06	7.097124e-06	3.042133e-08	5.157805e+01	1.994501e+03
1.790000e-06	7.061338e-06	3.043613e-08	5.131797e+01	1.991608e+03
1.800000e-06	7.023852e-06	3.024066e-08	5.104555e+01	1.988505e+03
1.810000e-06	6.983898e-06	3.029093e-08	5.075518e+01	1.985240e+03
1.820000e-06	6.941332e-06	3.029397e-08	5.044583e+01	1.981850e+03
1.830000e-06	6.896554e-06	3.016766e-08	5.012041e+01	1.978362e+03
1.840000e-06	6.849229e-06	3.026067e-08	4.977648e+01	1.974777e+03
1.850000e-06	6.799318e-06	3.006833e-08	4.941375e+01	1.971072e+03
1.860000e-06	6.746756e-06	3.004352e-08	4.903176e+01	1.967199e+03
1.870000e-06	6.691420e-06	3.001012e-08	4.862961e+01	1.963094e+03
1.880000e-06	6.633697e-06	2.982384e-08	4.821011e+01	1.958681e+03
1.890000e-06	6.573452e-06	2.984190e-08	4.777228e+01	1.953887e+03
1.900000e-06	6.510618e-06	2.970160e-08	4.731564e+01	1.948654e+03
1.910000e-06	6.445368e-06	2.964557e-08	4.684144e+01	1.942947e+03
1.920000e-06	6.377721e-06	2.955556e-08	4.634982e+01	1.936759e+03
1.930000e-06	6.307633e-06	2.943911e-08	4.584045e+01	1.930115e+03
1.940000e-06	6.235046e-06	2.939459e-08	4.531293e+01	1.923068e+03
1.950000e-06	6.160051e-06	2.920163e-08	4.476791e+01	1.915685e+03
1.960000e-06	6.082489e-06	2.914935e-08	4.420423e+01	1.908043e+03
1.970000e-06	6.002502e-06	2.901345e-08	4.362292e+01	1.900207e+03
1.980000e-06	5.920427e-06	2.890624e-08	4.302645e+01	1.892225e+03
1.990000e-06	5.836317e-06	2.880337e-08	4.241518e+01	1.884112e+03
2.000000e-06	5.750113e-06	2.863703e-08	4.178870e+01	1.875847e+03
2.010000e-06	5.661750e-06	2.853232e-08	4.114652e+01	1.867377e+03
2.020000e-06	5.571390e-06	2.835542e-08	4.048984e+01	1.858617e+03
2.030000e-06	5.479120e-06	2.823714e-08	3.981927e+01	1.849467e+03
2.040000e-06	5.384859e-06	2.808105e-08	3.913424e+01	1.839822e+03
2.050000e-06	5.288667e-06	2.792840e-08	3.843516e+01	1.829591e+03
2.060000e-06	5.190744e-06	2.774887e-08	3.772351e+01	1.818708e+03
2.070000e-06	5.091075e-06	2.756203e-08	3.699917e+01	1.807141e+03
2.080000e-06	4.989578e-06	2.739576e-08	3.626155e+01	1.794899e+03
2.090000e-06	4.886209e-06	2.720186e-08	3.551032e+01	1.782023e+03
2.100000e-06	4.781065e-06	2.702305e-08	3.474619e+01	1.768581e+03
2.110000e-06	4.674366e-06	2.681417e-08	3.397075e+01	1.754653e+03
2.120000e-06	4.566078e-06	2.660473e-08	3.318377e+01	1.740311e+03
2.130000e-06	4.456166e-06	2.637073e-08	3.238500e+01	1.725606e+03
2.140000e-06	4.344568e-06	2.614147e-08	3.157396e+01	1.710549e+03
2.150000e-06	4.231264e-06	2.590189e-08	3.075053e+01	1.695109e+03
2.160000e-06	4.116276e-06	2.565555e-08	2.991486e+01	1.679204e+03
2.170000e-06	3.999606e-06	2.539744e-08	2.906697e+01	1.662713e+03
2.180000e-06	3.881355e-06	2.512399e-08	2.820758e+01	1.645486e+03
2.190000e-06	3.761508e-06	2.484412e-08	2.733660e+01	1.627364e+03
2.200000e-06	3.640215e-06	2.454951e-08	2.645511e+01	1.608194e+03
2.210000e-06	3.517607e-06	2.424587e-08	2.556406e+01	1.587857e+03
2.220000e-06	3.393733e-06	2.392124e-08	2.466381e+01	1.566272e+03
2.230000e-06	3.268651e-06	2.358452e-08	2.375478e+01	1.543407e+03
2.240000e-06	3.142351e-06	2.322503e-08	2.283690e+01	1.519278e+03
2.250000e-06	3.014842e-06	2.285250e-08	2.191024e+01	1.493934e+03
2.260000e-06	2.886205e-06	2.245779e-08	2.097537e+01	1.467435e+03
2.270000e-06	2.756565e-06	2.204702e-08	2.003322e+01	1.439832e+03
2.280000e-06	2.625900e-06	2.161571e-08	1.908362e+01	1.411135e+03
2.290000e-06	2.494272e-06	2.116341e-08	1.812701e+01	1.381288e+03
2.300000e-06	2.361766e-06	2.068478e-08	1.716403e+01	1.350156e+03
2.310000e-06	2.228420e-06	2.017351e-08	1.619495e+01	1.317514e+03
2.320000e-06	2.094382e-06	1.962934e-08	1.522083e+01	1.283053e+03
2.330000e-06	1.959701e-06	1.904876e-08	1.424204e+01	1.246398e+03
2.340000e-06	1.824288e-06	1.843600e-08	1.325794e+01	1.207139e+03
2.350000e-06	1.688176e-06	1.778566e-08	1.226875e+01	1.164866e+03
2.360000e-06	1.551446e-06	1.709520e-08	1.127507e+01	1.119212e+03
2.370000e-06	1.414223e-06	1.635637e-08	1.027780e+01	1.069892e+03
2.380000e-06	1.276572e-06	1.556450e-08	9.277431e+00	1.016729e+03
2.390000e-06	1.138513e-06	1.471596e-08	8.274097e+00	9.596819e+02
2.400000e-06	1.000099e-06	1.381114e-08	7.268176e+00	8.988413e+02
2.410000e-06	8.613334e-07	1.285123e-08	6.259704e+00	8.344234e+02
2.420000e-06	7.222270e-07	1.183178e-08	5.248754e+00	7.667415e+02
2.430000e-06	5.828516e-07	1.075386e-08	4.235849e+00	6.961688e+02
2.440000e-06	4.432853e-07	9.621142e-09	3.221557e+00	6.230947e+02
2.450000e-06	3.035144e-07	8.438009e-09	2.205778e+00	5.478812e+02
2.460000e-06	1.635869e-07	7.218347e-09	1.188861e+00	4.708254e+02
2.470000e-06	2.354864e-08	5.980618e-09	1.711388e-01	3.921345e+02
2.480000e-06	-1.165415e-07	4.739263e-09	-8.469601e-01	3.119167e+02
2.490000e-06	-2.565852e-07	3.493975e-09	-1.864722e+00	2.301895e+02
2.500000e-06	-3.965483e-07	2.240449e-09	-2.881898e+00	1.469062e+02
2.510000e-06	-5.364287e-07	9.749672e-10	-3.898473e+00	6.199581e+01
2.520000e-06	-6.761546e-07	-3.092964e-10	-4.913925e+00	-2.458779e+01
2.530000e-06	-8.155834e-07	-1.620077e-09	-5.927218e+00	-1.128148e+02
2.540000e-06	-9.546145e-07	-2.965278e-09	-6.937621e+00	-2.025337e+02
2.550000e-06	-1.093245e-06	-4.345273e-09	-7.945114e+00	-2.934373e+02
2.560000e-06	-1.231521e-06	-5.758575e-09	-8.950030e+00	-3.850463e+02
2.570000e-06	-1.369395e-06	-7.195287e-09	-9.952020e+00	-4.767143e+02
2.580000e-06	-1.506788e-06	-8.631532e-09	-1.095051e+01	-5.676531e+02
2.590000e-06	-1.643622e-06	-1.004037e-08	-1.194495e+01	-6.569781e+02
2.600000e-06	-1.779856e-06	-1.139565e-08	-1.293503e+01	-7.437682e+02
2.610000e-06	-1.915306e-06	-1.268037e-08	-1.391940e+01	-8.271331e+02
2.620000e-06	-2.049881e-06	-1.388143e-08	-1.489742e+01	-9.062808e+02
2.630000e-06	-2.183756e-06	-1.499221e-08	-1.587036e+01	-9.805778e+02
2.640000e-06	-2.316941e-06	-1.601626e-08	-1.683827e+01	-1.049594e+03
2.650000e-06	-2.449229e-06	-1.696028e-08	-1.779967e+01	-1.113130e+03
2.660000e-06	-2.580464e-06	-1.783167e-08	-1.875341e+01	-1.171217e+03
2.670000e-06	-2.710719e-06	-1.863425e-08	-1.970003e+01	-1.224101e+03
2.680000e-06	-2.840044e-06	-1.937535e-08	-2.063990e+01	-1.272203e+03
2.690000e-06	-2.968455e-06	-2.006190e-08	-2.157312e+01	-1.316068e+03
2.700000e-06	-3.095781e-06	-2.069997e-08	-2.249845e+01	-1.356303e+03
2.710000e-06	-3.221944e-06	-2.129566e-08	-2.341534e+01	-1.393518e+03
2.720000e-06	-3.347043e-06	-2.185166e-08	-2.432449e+01	-1.428272e+03
2.730000e-06	-3.470855e-06	-2.236848e-08	-2.522429e+01	-1.461033e+03
2.740000e-06	-3.593339e-06	-2.285032e-08	-2.611444e+01	-1.492148e+03
2.750000e-06	-3.714630e-06	-2.330260e-08	-2.699591e+01	-1.521840e+03
2.760000e-06	-3.834521e-06	-2.372590e-08	-2.786722e+01	-1.550218e+03
2.770000e-06	-3.952858e-06	-2.412498e-08	-2.872723e+01	-1.577295e+03
2.780000e-06	-4.069751e-06	-2.450534e-08	-2.957674e+01	-1.603025e+03
2.790000e-06	-4.185061e-06	-2.486434e-08	-3.041475e+01	-1.627335e+03
2.800000e-06	-4.298645e-06	-2.519983e-08	-3.124022e+01	-1.650164e+03
2.810000e-06	-4.410541e-06	-2.551634e-08	-3.205342e+01	-1.671486e+03
2.820000e-06	-4.520686e-06	-2.581917e-08	-3.285390e+01	-1.691329e+03
2.830000e-06	-4.629223e-06	-2.610826e-08	-3.364268e+01	-1.709780e+03
2.840000e-06	-4.736340e-06	-2.638294e-08	-3.442115e+01	-1.726982e+03
2.850000e-06	-4.841914e-06	-2.664114e-08	-3.518841e+01	-1.743114e+03
2.860000e-06	-4.945702e-06	-2.688431e-08	-3.594268e+01	-1.758373e+03
2.870000e-06	-5.047566e-06	-2.711527e-08	-3.668297e+01	-1.772946e+03
2.880000e-06	-5.147552e-06	-2.733645e-08	-3.740961e+01	-1.786993e+03
2.890000e-06	-5.245769e-06	-2.754961e-08	-3.812341e+01	-1.800625e+03
2.900000e-06	-5.342176e-06	-2.775377e-08	-3.882404e+01	-1.813898e+03
2.910000e-06	-5.436645e-06	-2.794752e-08	-3.951059e+01	-1.826811e+03
2.920000e-06	-5.529109e-06	-2.813060e-08	-4.018256e+01	-1.839316e+03
2.930000e-06	-5.619622e-06	-2.830450e-08	-4.084036e+01	-1.851334e+03
2.940000e-06	-5.708159e-06	-2.846842e-08	-4.148380e+01	-1.862771e+03
