# Temperatura_=_93.35
# Concentracion g/m^3_=_28370.0
# C_Vs_to_Am_M_A/Vsm_=_65563218390.804596
# pendiente_HvsI_1/m_=_3716.3
# ordenada_HvsI_A/m_=_1297.0
# frecuencia_Hz_=_302370.597705404

Tiempo_(s)	Campo_(V.s)	Magnetizacion_(V.s)	Campo_(kA/m)	Magnetizacion_(A/m)
0.000000e+00	-7.316696e-06	-3.119982e-08	-5.318412e+01	-2.039340e+03
1.000000e-08	-7.312619e-06	-3.118845e-08	-5.315449e+01	-2.038467e+03
2.000000e-08	-7.306162e-06	-3.117237e-08	-5.310755e+01	-2.037508e+03
3.000000e-08	-7.297335e-06	-3.115367e-08	-5.304339e+01	-2.036498e+03
4.000000e-08	-7.285929e-06	-3.113417e-08	-5.296048e+01	-2.035446e+03
5.000000e-08	-7.271760e-06	-3.111303e-08	-5.285749e+01	-2.034336e+03
6.000000e-08	-7.254936e-06	-3.108483e-08	-5.273519e+01	-2.033131e+03
7.000000e-08	-7.235922e-06	-3.104660e-08	-5.259698e+01	-2.031779e+03
8.000000e-08	-7.214800e-06	-3.101431e-08	-5.244345e+01	-2.030224e+03
9.000000e-08	-7.191125e-06	-3.100563e-08	-5.227136e+01	-2.028415e+03
1.000000e-07	-7.164491e-06	-3.096823e-08	-5.207776e+01	-2.026319e+03
1.100000e-07	-7.135078e-06	-3.092200e-08	-5.186396e+01	-2.023922e+03
1.200000e-07	-7.103181e-06	-3.088060e-08	-5.163211e+01	-2.021239e+03
1.300000e-07	-7.068777e-06	-3.084087e-08	-5.138203e+01	-2.018303e+03
1.400000e-07	-7.032184e-06	-3.077480e-08	-5.111604e+01	-2.015167e+03
1.500000e-07	-6.993772e-06	-3.070235e-08	-5.083683e+01	-2.011889e+03
1.600000e-07	-6.953229e-06	-3.071279e-08	-5.054212e+01	-2.008522e+03
1.700000e-07	-6.910182e-06	-3.064535e-08	-5.022922e+01	-2.005102e+03
1.800000e-07	-6.864744e-06	-3.057689e-08	-4.989894e+01	-2.001642e+03
1.900000e-07	-6.816730e-06	-3.048885e-08	-4.954993e+01	-1.998121e+03
2.000000e-07	-6.765898e-06	-3.040159e-08	-4.918044e+01	-1.994493e+03
2.100000e-07	-6.712406e-06	-3.038277e-08	-4.879161e+01	-1.990683e+03
2.200000e-07	-6.656370e-06	-3.025050e-08	-4.838430e+01	-1.986603e+03
2.300000e-07	-6.597813e-06	-3.015479e-08	-4.795865e+01	-1.982161e+03
2.400000e-07	-6.536847e-06	-3.012762e-08	-4.751550e+01	-1.977276e+03
2.500000e-07	-6.473453e-06	-3.004654e-08	-4.705469e+01	-1.971891e+03
2.600000e-07	-6.407582e-06	-2.991961e-08	-4.657589e+01	-1.965980e+03
2.700000e-07	-6.339269e-06	-2.982414e-08	-4.607933e+01	-1.959551e+03
2.800000e-07	-6.268551e-06	-2.976770e-08	-4.556529e+01	-1.952649e+03
2.900000e-07	-6.195464e-06	-2.965635e-08	-4.503403e+01	-1.945342e+03
3.000000e-07	-6.119912e-06	-2.952215e-08	-4.448485e+01	-1.937716e+03
3.100000e-07	-6.041804e-06	-2.941983e-08	-4.391709e+01	-1.929852e+03
3.200000e-07	-5.961260e-06	-2.930296e-08	-4.333163e+01	-1.921820e+03
3.300000e-07	-5.878546e-06	-2.917363e-08	-4.273039e+01	-1.913660e+03
3.400000e-07	-5.793885e-06	-2.902300e-08	-4.211501e+01	-1.905374e+03
3.500000e-07	-5.707375e-06	-2.889392e-08	-4.148617e+01	-1.896927e+03
3.600000e-07	-5.618859e-06	-2.875947e-08	-4.084276e+01	-1.888249e+03
3.700000e-07	-5.528242e-06	-2.860363e-08	-4.018408e+01	-1.879240e+03
3.800000e-07	-5.435619e-06	-2.845210e-08	-3.951081e+01	-1.869792e+03
3.900000e-07	-5.341104e-06	-2.828966e-08	-3.882379e+01	-1.859799e+03
4.000000e-07	-5.244649e-06	-2.813030e-08	-3.812268e+01	-1.849176e+03
4.100000e-07	-5.146333e-06	-2.795732e-08	-3.740803e+01	-1.837869e+03
4.200000e-07	-5.046206e-06	-2.778154e-08	-3.668022e+01	-1.825864e+03
4.300000e-07	-4.944285e-06	-2.758826e-08	-3.593937e+01	-1.813187e+03
4.400000e-07	-4.840553e-06	-2.739168e-08	-3.518536e+01	-1.799895e+03
4.500000e-07	-4.735073e-06	-2.718994e-08	-3.441863e+01	-1.786069e+03
4.600000e-07	-4.627964e-06	-2.697622e-08	-3.364007e+01	-1.771792e+03
4.700000e-07	-4.519200e-06	-2.676011e-08	-3.284948e+01	-1.757130e+03
4.800000e-07	-4.408892e-06	-2.653324e-08	-3.204767e+01	-1.742123e+03
4.900000e-07	-4.296864e-06	-2.629479e-08	-3.123335e+01	-1.726762e+03
5.000000e-07	-4.183143e-06	-2.603968e-08	-3.040673e+01	-1.710992e+03
5.100000e-07	-4.067838e-06	-2.578072e-08	-2.956859e+01	-1.694711e+03
5.200000e-07	-3.950891e-06	-2.550931e-08	-2.871852e+01	-1.677778e+03
5.300000e-07	-3.832454e-06	-2.522743e-08	-2.785761e+01	-1.660031e+03
5.400000e-07	-3.712553e-06	-2.493649e-08	-2.698607e+01	-1.641310e+03
5.500000e-07	-3.591224e-06	-2.463265e-08	-2.610415e+01	-1.621471e+03
5.600000e-07	-3.468628e-06	-2.431071e-08	-2.521301e+01	-1.600408e+03
5.700000e-07	-3.344660e-06	-2.396893e-08	-2.431190e+01	-1.578062e+03
5.800000e-07	-3.219368e-06	-2.361511e-08	-2.340117e+01	-1.554425e+03
5.900000e-07	-3.092994e-06	-2.324239e-08	-2.248258e+01	-1.529531e+03
6.000000e-07	-2.965488e-06	-2.285123e-08	-2.155575e+01	-1.503439e+03
6.100000e-07	-2.836772e-06	-2.244454e-08	-2.062013e+01	-1.476212e+03
6.200000e-07	-2.707058e-06	-2.202189e-08	-1.967726e+01	-1.447887e+03
6.300000e-07	-2.576514e-06	-2.157209e-08	-1.872835e+01	-1.418448e+03
6.400000e-07	-2.444962e-06	-2.109509e-08	-1.777211e+01	-1.387805e+03
6.500000e-07	-2.312334e-06	-2.059497e-08	-1.680806e+01	-1.355782e+03
6.600000e-07	-2.178869e-06	-2.006709e-08	-1.583792e+01	-1.322111e+03
6.700000e-07	-2.044819e-06	-1.950615e-08	-1.486353e+01	-1.286449e+03
6.800000e-07	-1.910220e-06	-1.890982e-08	-1.388515e+01	-1.248398e+03
6.900000e-07	-1.774933e-06	-1.827704e-08	-1.290176e+01	-1.207539e+03
7.000000e-07	-1.638894e-06	-1.759839e-08	-1.191291e+01	-1.163475e+03
7.100000e-07	-1.502123e-06	-1.687287e-08	-1.091874e+01	-1.115867e+03
7.200000e-07	-1.364748e-06	-1.610014e-08	-9.920178e+00	-1.064471e+03
7.300000e-07	-1.226962e-06	-1.527747e-08	-8.918632e+00	-1.009167e+03
7.400000e-07	-1.088810e-06	-1.439823e-08	-7.914423e+00	-9.499639e+02
7.500000e-07	-9.503254e-07	-1.346016e-08	-6.907793e+00	-8.870033e+02
7.600000e-07	-8.115657e-07	-1.246478e-08	-5.899167e+00	-8.205358e+02
7.700000e-07	-6.724873e-07	-1.140825e-08	-4.888224e+00	-7.508903e+02
7.800000e-07	-5.331339e-07	-1.029306e-08	-3.875282e+00	-6.784335e+02
7.900000e-07	-3.935880e-07	-9.125384e-09	-2.860940e+00	-6.035260e+02
8.000000e-07	-2.538696e-07	-7.917478e-09	-1.845346e+00	-5.264823e+02
8.100000e-07	-1.139985e-07	-6.680359e-09	-8.286406e-01	-4.475407e+02
8.200000e-07	2.594583e-08	-5.424730e-09	1.885969e-01	-3.668465e+02
8.300000e-07	1.659083e-07	-4.159002e-09	1.205966e+00	-2.844533e+02
8.400000e-07	3.058940e-07	-2.886338e-09	2.223504e+00	-2.003420e+02
8.500000e-07	4.457471e-07	-1.605286e-09	3.240078e+00	-1.144553e+02
8.600000e-07	5.854036e-07	-3.076030e-10	4.255224e+00	-2.674316e+01
8.700000e-07	7.249320e-07	1.015822e-09	5.269437e+00	6.278599e+01
8.800000e-07	8.642369e-07	2.371828e-09	6.282026e+00	1.540169e+02
8.900000e-07	1.003224e-06	3.762292e-09	7.292309e+00	2.466882e+02
9.000000e-07	1.141871e-06	5.188810e-09	8.300110e+00	3.403681e+02
9.100000e-07	1.280122e-06	6.643873e-09	9.305040e+00	4.344509e+02
9.200000e-07	1.417929e-06	8.109916e-09	1.030674e+01	5.281744e+02
9.300000e-07	1.555182e-06	9.561259e-09	1.130442e+01	6.206578e+02
9.400000e-07	1.691733e-06	1.096958e-08	1.229699e+01	7.109571e+02
9.500000e-07	1.827562e-06	1.231229e-08	1.328431e+01	7.981314e+02
9.600000e-07	1.962624e-06	1.357134e-08	1.426606e+01	8.813117e+02
9.700000e-07	2.096941e-06	1.473937e-08	1.524240e+01	9.597670e+02
9.800000e-07	2.230590e-06	1.581475e-08	1.621387e+01	1.032957e+03
9.900000e-07	2.363494e-06	1.680293e-08	1.717993e+01	1.100566e+03
1.000000e-06	2.495502e-06	1.771285e-08	1.813948e+01	1.162520e+03
1.010000e-06	2.626516e-06	1.855281e-08	1.909180e+01	1.218973e+03
1.020000e-06	2.756565e-06	1.932722e-08	2.003712e+01	1.270280e+03
1.030000e-06	2.885574e-06	2.003951e-08	2.097486e+01	1.316945e+03
1.040000e-06	3.013435e-06	2.069839e-08	2.190427e+01	1.359570e+03
1.050000e-06	3.140146e-06	2.131212e-08	2.282532e+01	1.398784e+03
1.060000e-06	3.265762e-06	2.188361e-08	2.373840e+01	1.435192e+03
1.070000e-06	3.390278e-06	2.241680e-08	2.464349e+01	1.469322e+03
1.080000e-06	3.513607e-06	2.291484e-08	2.553996e+01	1.501594e+03
1.090000e-06	3.635790e-06	2.338252e-08	2.642809e+01	1.532301e+03
1.100000e-06	3.756674e-06	2.382461e-08	2.730678e+01	1.561614e+03
1.110000e-06	3.876100e-06	2.424012e-08	2.817487e+01	1.589595e+03
1.120000e-06	3.994161e-06	2.463083e-08	2.903304e+01	1.616228e+03
1.130000e-06	4.110760e-06	2.499930e-08	2.988058e+01	1.641456e+03
1.140000e-06	4.225754e-06	2.534639e-08	3.071646e+01	1.665210e+03
1.150000e-06	4.339054e-06	2.567377e-08	3.154003e+01	1.687447e+03
1.160000e-06	4.450672e-06	2.598166e-08	3.235136e+01	1.708170e+03
1.170000e-06	4.560763e-06	2.627303e-08	3.315160e+01	1.727440e+03
1.180000e-06	4.669372e-06	2.655103e-08	3.394106e+01	1.745373e+03
1.190000e-06	4.776378e-06	2.681604e-08	3.471887e+01	1.762134e+03
1.200000e-06	4.881648e-06	2.706909e-08	3.548407e+01	1.777914e+03
1.210000e-06	4.985085e-06	2.730968e-08	3.623594e+01	1.792909e+03
1.220000e-06	5.086711e-06	2.753669e-08	3.697465e+01	1.807294e+03
1.230000e-06	5.186530e-06	2.775042e-08	3.770021e+01	1.821207e+03
1.240000e-06	5.284411e-06	2.795299e-08	3.841170e+01	1.834733e+03
1.250000e-06	5.380296e-06	2.814601e-08	3.910868e+01	1.847901e+03
1.260000e-06	5.474280e-06	2.833012e-08	3.979184e+01	1.860688e+03
1.270000e-06	5.566383e-06	2.850484e-08	4.046132e+01	1.873032e+03
1.280000e-06	5.656414e-06	2.867322e-08	4.111574e+01	1.884848e+03
1.290000e-06	5.744296e-06	2.883618e-08	4.175455e+01	1.896048e+03
1.300000e-06	5.830176e-06	2.899220e-08	4.237880e+01	1.906560e+03
1.310000e-06	5.914107e-06	2.914136e-08	4.298888e+01	1.916346e+03
1.320000e-06	5.995902e-06	2.928367e-08	4.358344e+01	1.925404e+03
1.330000e-06	6.075445e-06	2.941738e-08	4.416162e+01	1.933775e+03
1.340000e-06	6.152732e-06	2.954214e-08	4.472341e+01	1.941538e+03
1.350000e-06	6.227660e-06	2.965983e-08	4.526806e+01	1.948795e+03
1.360000e-06	6.300171e-06	2.977080e-08	4.579513e+01	1.955656e+03
1.370000e-06	6.370388e-06	2.987505e-08	4.630553e+01	1.962227e+03
1.380000e-06	6.438400e-06	2.997431e-08	4.679990e+01	1.968594e+03
1.390000e-06	6.504077e-06	3.006944e-08	4.727729e+01	1.974808e+03
1.400000e-06	6.567407e-06	3.015926e-08	4.773764e+01	1.980887e+03
1.410000e-06	6.628577e-06	3.024233e-08	4.818227e+01	1.986813e+03
1.420000e-06	6.687463e-06	3.032054e-08	4.861030e+01	1.992538e+03
1.430000e-06	6.743910e-06	3.039559e-08	4.902061e+01	1.998000e+03
1.440000e-06	6.797896e-06	3.046630e-08	4.941303e+01	2.003130e+03
1.450000e-06	6.849180e-06	3.053227e-08	4.978580e+01	2.007870e+03
1.460000e-06	6.897708e-06	3.059383e-08	5.013855e+01	2.012184e+03
1.470000e-06	6.943729e-06	3.065248e-08	5.047307e+01	2.016060e+03
1.480000e-06	6.987360e-06	3.070973e-08	5.079022e+01	2.019518e+03
1.490000e-06	7.028471e-06	3.076452e-08	5.108905e+01	2.022603e+03
1.500000e-06	7.067017e-06	3.081329e-08	5.136923e+01	2.025377e+03
1.510000e-06	7.103133e-06	3.085740e-08	5.163176e+01	2.027909e+03
1.520000e-06	7.136727e-06	3.089924e-08	5.187595e+01	2.030265e+03
1.530000e-06	7.167785e-06	3.093612e-08	5.210170e+01	2.032494e+03
1.540000e-06	7.196416e-06	3.096642e-08	5.230982e+01	2.034622e+03
1.550000e-06	7.222406e-06	3.099102e-08	5.249874e+01	2.036648e+03
1.560000e-06	7.245683e-06	3.101291e-08	5.266793e+01	2.038546e+03
1.570000e-06	7.266474e-06	3.103188e-08	5.281907e+01	2.040270e+03
1.580000e-06	7.284752e-06	3.104847e-08	5.295193e+01	2.041765e+03
1.590000e-06	7.300263e-06	3.106332e-08	5.306467e+01	2.042974e+03
1.600000e-06	7.312927e-06	3.107409e-08	5.315672e+01	2.043852e+03
1.610000e-06	7.322715e-06	3.108052e-08	5.322787e+01	2.044375e+03
1.620000e-06	7.329720e-06	3.108363e-08	5.327879e+01	2.044542e+03
1.630000e-06	7.334192e-06	3.108537e-08	5.331130e+01	2.044378e+03
1.640000e-06	7.336105e-06	3.108642e-08	5.332520e+01	2.043929e+03
1.650000e-06	7.335379e-06	3.108530e-08	5.331992e+01	2.043256e+03
1.660000e-06	7.332239e-06	3.107733e-08	5.329710e+01	2.042424e+03
1.670000e-06	7.326671e-06	3.106774e-08	5.325663e+01	2.041489e+03
1.680000e-06	7.318577e-06	3.105705e-08	5.319779e+01	2.040494e+03
1.690000e-06	7.308057e-06	3.104498e-08	5.312132e+01	2.039456e+03
1.700000e-06	7.294954e-06	3.103032e-08	5.302608e+01	2.038369e+03
1.710000e-06	7.279297e-06	3.101655e-08	5.291227e+01	2.037202e+03
1.720000e-06	7.261465e-06	3.101266e-08	5.278265e+01	2.035908e+03
1.730000e-06	7.241532e-06	3.098635e-08	5.263776e+01	2.034430e+03
1.740000e-06	7.218894e-06	3.093639e-08	5.247321e+01	2.032715e+03
1.750000e-06	7.192916e-06	3.090538e-08	5.228438e+01	2.030723e+03
1.760000e-06	7.163649e-06	3.086678e-08	5.207164e+01	2.028432e+03
1.770000e-06	7.131692e-06	3.081023e-08	5.183935e+01	2.025847e+03
1.780000e-06	7.097683e-06	3.078090e-08	5.159214e+01	2.022994e+03
1.790000e-06	7.062024e-06	3.077236e-08	5.133294e+01	2.019922e+03
1.800000e-06	7.024675e-06	3.066706e-08	5.106146e+01	2.016687e+03
1.810000e-06	6.984945e-06	3.065649e-08	5.077266e+01	2.013345e+03
1.820000e-06	6.942646e-06	3.062267e-08	5.046520e+01	2.009940e+03
1.830000e-06	6.898038e-06	3.057944e-08	5.014095e+01	2.006493e+03
1.840000e-06	6.850881e-06	3.061637e-08	4.979817e+01	2.002997e+03
1.850000e-06	6.801103e-06	3.049291e-08	4.943634e+01	1.999413e+03
1.860000e-06	6.748592e-06	3.047402e-08	4.905464e+01	1.995677e+03
1.870000e-06	6.693342e-06	3.042862e-08	4.865304e+01	1.991702e+03
1.880000e-06	6.635742e-06	3.029583e-08	4.823436e+01	1.987398e+03
1.890000e-06	6.575688e-06	3.023818e-08	4.779783e+01	1.982678e+03
1.900000e-06	6.513050e-06	3.014594e-08	4.734252e+01	1.977475e+03
1.910000e-06	6.447939e-06	3.008494e-08	4.686924e+01	1.971751e+03
1.920000e-06	6.380411e-06	2.997584e-08	4.637838e+01	1.965503e+03
1.930000e-06	6.310521e-06	2.988194e-08	4.587036e+01	1.958761e+03
1.940000e-06	6.238169e-06	2.981259e-08	4.534445e+01	1.951589e+03
1.950000e-06	6.163329e-06	2.966110e-08	4.480044e+01	1.944065e+03
1.960000e-06	6.085989e-06	2.955580e-08	4.423827e+01	1.936276e+03
1.970000e-06	6.006179e-06	2.943587e-08	4.365814e+01	1.928297e+03
1.980000e-06	5.924183e-06	2.934486e-08	4.306212e+01	1.920178e+03
1.990000e-06	5.840155e-06	2.921993e-08	4.245133e+01	1.911938e+03
2.000000e-06	5.754024e-06	2.908111e-08	4.182526e+01	1.903554e+03
2.010000e-06	5.665766e-06	2.896537e-08	4.118373e+01	1.894967e+03
2.020000e-06	5.575572e-06	2.880622e-08	4.052811e+01	1.886087e+03
2.030000e-06	5.483428e-06	2.866221e-08	3.985833e+01	1.876807e+03
2.040000e-06	5.389329e-06	2.850033e-08	3.917434e+01	1.867019e+03
2.050000e-06	5.293360e-06	2.834846e-08	3.847675e+01	1.856628e+03
2.060000e-06	5.195611e-06	2.817485e-08	3.776623e+01	1.845568e+03
2.070000e-06	5.096111e-06	2.799725e-08	3.704297e+01	1.833810e+03
2.080000e-06	4.994717e-06	2.781649e-08	3.630596e+01	1.821366e+03
2.090000e-06	4.891441e-06	2.762366e-08	3.555525e+01	1.808284e+03
2.100000e-06	4.786392e-06	2.743506e-08	3.479167e+01	1.794638e+03
2.110000e-06	4.679833e-06	2.722720e-08	3.401710e+01	1.780511e+03
2.120000e-06	4.571700e-06	2.701272e-08	3.323110e+01	1.765979e+03
2.130000e-06	4.461979e-06	2.678839e-08	3.243355e+01	1.751092e+03
2.140000e-06	4.350643e-06	2.656282e-08	3.162426e+01	1.735860e+03
2.150000e-06	4.237573e-06	2.631816e-08	3.080238e+01	1.720245e+03
2.160000e-06	4.122779e-06	2.606354e-08	2.996795e+01	1.704159e+03
2.170000e-06	4.006207e-06	2.579690e-08	2.912060e+01	1.687475e+03
2.180000e-06	3.888039e-06	2.551753e-08	2.826165e+01	1.670037e+03
2.190000e-06	3.768350e-06	2.522770e-08	2.739165e+01	1.651680e+03
2.200000e-06	3.647188e-06	2.493302e-08	2.651094e+01	1.632253e+03
2.210000e-06	3.524771e-06	2.463014e-08	2.562111e+01	1.611635e+03
2.220000e-06	3.401047e-06	2.430381e-08	2.472177e+01	1.589750e+03
2.230000e-06	3.275922e-06	2.396063e-08	2.381225e+01	1.566571e+03
2.240000e-06	3.149657e-06	2.360189e-08	2.289445e+01	1.542118e+03
2.250000e-06	3.022299e-06	2.322735e-08	2.196870e+01	1.516445e+03
2.260000e-06	2.893679e-06	2.282775e-08	2.103378e+01	1.489616e+03
2.270000e-06	2.763981e-06	2.240996e-08	2.009102e+01	1.461681e+03
2.280000e-06	2.633438e-06	2.197167e-08	1.914212e+01	1.432644e+03
2.290000e-06	2.501967e-06	2.150936e-08	1.818648e+01	1.402446e+03
2.300000e-06	2.369449e-06	2.102186e-08	1.722322e+01	1.370940e+03
2.310000e-06	2.236047e-06	2.050922e-08	1.625353e+01	1.337892e+03
2.320000e-06	2.102070e-06	1.996297e-08	1.527968e+01	1.302984e+03
2.330000e-06	1.967533e-06	1.937637e-08	1.430174e+01	1.265832e+03
2.340000e-06	1.832244e-06	1.875284e-08	1.331834e+01	1.226022e+03
2.350000e-06	1.696183e-06	1.809178e-08	1.232933e+01	1.183144e+03
2.360000e-06	1.559465e-06	1.738955e-08	1.133555e+01	1.136834e+03
2.370000e-06	1.422240e-06	1.663992e-08	1.033808e+01	1.086810e+03
2.380000e-06	1.284589e-06	1.583996e-08	9.337514e+00	1.032906e+03
2.390000e-06	1.146598e-06	1.498370e-08	8.334470e+00	9.750849e+02
2.400000e-06	1.008313e-06	1.406547e-08	7.329294e+00	9.134415e+02
2.410000e-06	8.696837e-07	1.308510e-08	6.321619e+00	8.481906e+02
2.420000e-06	7.307280e-07	1.204683e-08	5.311568e+00	7.796377e+02
2.430000e-06	5.914952e-07	1.095427e-08	4.299502e+00	7.081410e+02
2.440000e-06	4.520107e-07	9.807053e-09	3.285607e+00	6.340681e+02
2.450000e-06	3.122658e-07	8.609414e-09	2.269820e+00	5.577542e+02
2.460000e-06	1.723256e-07	7.375345e-09	1.252612e+00	4.794675e+02
2.470000e-06	3.222476e-08	6.118146e-09	2.342377e-01	3.993872e+02
2.480000e-06	-1.079510e-07	4.850330e-09	-7.846819e-01	3.175984e+02
2.490000e-06	-2.480742e-07	3.574564e-09	-1.803219e+00	2.341049e+02
2.500000e-06	-3.880369e-07	2.287489e-09	-2.820591e+00	1.488581e+02
2.510000e-06	-5.278082e-07	9.896644e-10	-3.836570e+00	6.179972e+01
2.520000e-06	-6.673925e-07	-3.262077e-10	-4.851190e+00	-2.708853e+01
2.530000e-06	-8.067326e-07	-1.670231e-09	-5.864035e+00	-1.177348e+02
2.540000e-06	-9.458087e-07	-3.050369e-09	-6.874962e+00	-2.099333e+02
2.550000e-06	-1.084491e-06	-4.468217e-09	-7.883029e+00	-3.033150e+02
2.560000e-06	-1.222745e-06	-5.919957e-09	-8.887976e+00	-3.973352e+02
2.570000e-06	-1.360605e-06	-7.394006e-09	-9.890061e+00	-4.912843e+02
2.580000e-06	-1.497991e-06	-8.864546e-09	-1.088871e+01	-5.843184e+02
2.590000e-06	-1.634800e-06	-1.030509e-08	-1.188315e+01	-6.755088e+02
2.600000e-06	-1.770969e-06	-1.168819e-08	-1.287294e+01	-7.639054e+02
2.610000e-06	-1.906386e-06	-1.299351e-08	-1.385727e+01	-8.486059e+02
2.620000e-06	-2.041114e-06	-1.420928e-08	-1.483659e+01	-9.288229e+02
2.630000e-06	-2.175201e-06	-1.532911e-08	-1.581125e+01	-1.003943e+03
2.640000e-06	-2.308394e-06	-1.635907e-08	-1.677942e+01	-1.073568e+03
2.650000e-06	-2.440602e-06	-1.730903e-08	-1.774042e+01	-1.137536e+03
2.660000e-06	-2.571842e-06	-1.818592e-08	-1.869439e+01	-1.195924e+03
2.670000e-06	-2.702143e-06	-1.899424e-08	-1.964153e+01	-1.249019e+03
2.680000e-06	-2.831555e-06	-1.974138e-08	-2.058221e+01	-1.297278e+03
2.690000e-06	-2.959958e-06	-2.043314e-08	-2.151555e+01	-1.341275e+03
2.700000e-06	-3.087285e-06	-2.107518e-08	-2.244108e+01	-1.381637e+03
2.710000e-06	-3.213570e-06	-2.167360e-08	-2.335903e+01	-1.418983e+03
2.720000e-06	-3.338677e-06	-2.223186e-08	-2.426842e+01	-1.453873e+03
2.730000e-06	-3.462454e-06	-2.275187e-08	-2.516813e+01	-1.486770e+03
2.740000e-06	-3.584997e-06	-2.323664e-08	-2.605888e+01	-1.518011e+03
2.750000e-06	-3.706324e-06	-2.368928e-08	-2.694079e+01	-1.547811e+03
2.760000e-06	-3.826254e-06	-2.411124e-08	-2.781254e+01	-1.576267e+03
2.770000e-06	-3.944803e-06	-2.451000e-08	-2.867426e+01	-1.603389e+03
2.780000e-06	-4.061903e-06	-2.488996e-08	-2.952545e+01	-1.629128e+03
2.790000e-06	-4.177275e-06	-2.525104e-08	-3.036407e+01	-1.653416e+03
2.800000e-06	-4.290882e-06	-2.559278e-08	-3.118986e+01	-1.676199e+03
2.810000e-06	-4.402771e-06	-2.591537e-08	-3.200318e+01	-1.697460e+03
2.820000e-06	-4.512980e-06	-2.621915e-08	-3.280427e+01	-1.717240e+03
2.830000e-06	-4.621646e-06	-2.650371e-08	-3.359415e+01	-1.735635e+03
2.840000e-06	-4.728808e-06	-2.677385e-08	-3.437310e+01	-1.752795e+03
2.850000e-06	-4.834411e-06	-2.702988e-08	-3.514071e+01	-1.768904e+03
2.860000e-06	-4.938290e-06	-2.727415e-08	-3.589579e+01	-1.784159e+03
2.870000e-06	-5.040246e-06	-2.750839e-08	-3.663690e+01	-1.798745e+03
2.880000e-06	-5.140286e-06	-2.773310e-08	-3.736408e+01	-1.812815e+03
2.890000e-06	-5.238573e-06	-2.795054e-08	-3.807851e+01	-1.826474e+03
2.900000e-06	-5.335126e-06	-2.815696e-08	-3.878034e+01	-1.839772e+03
2.910000e-06	-5.429700e-06	-2.835107e-08	-3.946779e+01	-1.852702e+03
2.920000e-06	-5.522201e-06	-2.853282e-08	-4.014017e+01	-1.865214e+03
2.930000e-06	-5.612800e-06	-2.870389e-08	-4.079872e+01	-1.877230e+03
2.940000e-06	-5.701472e-06	-2.886667e-08	-4.144327e+01	-1.888661e+03
