# Temperatura_=_71.24
# Concentracion g/m^3_=_28370.0
# C_Vs_to_Am_M_A/Vsm_=_65563218390.804596
# pendiente_HvsI_1/m_=_3716.3
# ordenada_HvsI_A/m_=_1297.0
# frecuencia_Hz_=_302377.0521806685

Tiempo_(s)	Campo_(V.s)	Magnetizacion_(V.s)	Campo_(kA/m)	Magnetizacion_(A/m)
0.000000e+00	-7.359176e-06	-3.065610e-08	-5.318692e+01	-2.007219e+03
1.000000e-08	-7.355104e-06	-3.065105e-08	-5.315749e+01	-2.006256e+03
2.000000e-08	-7.348675e-06	-3.063681e-08	-5.311103e+01	-2.005196e+03
3.000000e-08	-7.339850e-06	-3.062330e-08	-5.304725e+01	-2.004089e+03
4.000000e-08	-7.328414e-06	-3.060601e-08	-5.296459e+01	-2.002963e+03
5.000000e-08	-7.314170e-06	-3.058327e-08	-5.286165e+01	-2.001816e+03
6.000000e-08	-7.297224e-06	-3.055473e-08	-5.273918e+01	-2.000625e+03
7.000000e-08	-7.278117e-06	-3.052083e-08	-5.260108e+01	-1.999345e+03
8.000000e-08	-7.256909e-06	-3.051851e-08	-5.244781e+01	-1.997921e+03
9.000000e-08	-7.233079e-06	-3.056232e-08	-5.227558e+01	-1.996296e+03
1.000000e-07	-7.206267e-06	-3.049400e-08	-5.208180e+01	-1.994423e+03
1.100000e-07	-7.176663e-06	-3.039837e-08	-5.186785e+01	-1.992274e+03
1.200000e-07	-7.144518e-06	-3.036180e-08	-5.163553e+01	-1.989842e+03
1.300000e-07	-7.109862e-06	-3.032228e-08	-5.138505e+01	-1.987143e+03
1.400000e-07	-7.073066e-06	-3.023026e-08	-5.111912e+01	-1.984213e+03
1.500000e-07	-7.034515e-06	-3.017802e-08	-5.084050e+01	-1.981097e+03
1.600000e-07	-6.993737e-06	-3.025926e-08	-5.054579e+01	-1.977843e+03
1.700000e-07	-6.950357e-06	-3.010273e-08	-5.023227e+01	-1.974488e+03
1.800000e-07	-6.904625e-06	-3.003639e-08	-4.990175e+01	-1.971052e+03
1.900000e-07	-6.856304e-06	-3.004610e-08	-4.955252e+01	-1.967528e+03
2.000000e-07	-6.805091e-06	-2.991352e-08	-4.918238e+01	-1.963882e+03
2.100000e-07	-6.751218e-06	-2.990638e-08	-4.879303e+01	-1.960059e+03
2.200000e-07	-6.694816e-06	-2.980738e-08	-4.838540e+01	-1.955983e+03
2.300000e-07	-6.635899e-06	-2.971866e-08	-4.795959e+01	-1.951576e+03
2.400000e-07	-6.574577e-06	-2.966615e-08	-4.751639e+01	-1.946764e+03
2.500000e-07	-6.510830e-06	-2.956115e-08	-4.705568e+01	-1.941492e+03
2.600000e-07	-6.444529e-06	-2.947927e-08	-4.657650e+01	-1.935731e+03
2.700000e-07	-6.375808e-06	-2.938474e-08	-4.607983e+01	-1.929486e+03
2.800000e-07	-6.304776e-06	-2.930632e-08	-4.556646e+01	-1.922791e+03
2.900000e-07	-6.231274e-06	-2.918560e-08	-4.503524e+01	-1.915708e+03
3.000000e-07	-6.155218e-06	-2.907130e-08	-4.448556e+01	-1.908311e+03
3.100000e-07	-6.076579e-06	-2.898730e-08	-4.391722e+01	-1.900679e+03
3.200000e-07	-5.995475e-06	-2.885359e-08	-4.333105e+01	-1.892878e+03
3.300000e-07	-5.912262e-06	-2.875180e-08	-4.272965e+01	-1.884948e+03
3.400000e-07	-5.827169e-06	-2.861055e-08	-4.211466e+01	-1.876898e+03
3.500000e-07	-5.740184e-06	-2.848537e-08	-4.148599e+01	-1.868696e+03
3.600000e-07	-5.651163e-06	-2.836029e-08	-4.084261e+01	-1.860279e+03
3.700000e-07	-5.559990e-06	-2.820595e-08	-4.018368e+01	-1.851554e+03
3.800000e-07	-5.466810e-06	-2.806293e-08	-3.951023e+01	-1.842416e+03
3.900000e-07	-5.371710e-06	-2.790155e-08	-3.882292e+01	-1.832760e+03
4.000000e-07	-5.274669e-06	-2.774437e-08	-3.812158e+01	-1.822499e+03
4.100000e-07	-5.175744e-06	-2.756430e-08	-3.740662e+01	-1.811574e+03
4.200000e-07	-5.075000e-06	-2.740285e-08	-3.667851e+01	-1.799965e+03
4.300000e-07	-4.972508e-06	-2.721896e-08	-3.593777e+01	-1.787689e+03
4.400000e-07	-4.868250e-06	-2.702536e-08	-3.518427e+01	-1.774799e+03
4.500000e-07	-4.762272e-06	-2.683134e-08	-3.441834e+01	-1.761369e+03
4.600000e-07	-4.654595e-06	-2.662663e-08	-3.364012e+01	-1.747479e+03
4.700000e-07	-4.545233e-06	-2.641546e-08	-3.284973e+01	-1.733197e+03
4.800000e-07	-4.434310e-06	-2.619231e-08	-3.204806e+01	-1.718565e+03
4.900000e-07	-4.321749e-06	-2.596933e-08	-3.123455e+01	-1.703581e+03
5.000000e-07	-4.207381e-06	-2.572253e-08	-3.040797e+01	-1.688197e+03
5.100000e-07	-4.091248e-06	-2.546488e-08	-2.956865e+01	-1.672316e+03
5.200000e-07	-3.973580e-06	-2.519487e-08	-2.871823e+01	-1.655805e+03
5.300000e-07	-3.854542e-06	-2.492195e-08	-2.785790e+01	-1.638503e+03
5.400000e-07	-3.734009e-06	-2.463619e-08	-2.698677e+01	-1.620250e+03
5.500000e-07	-3.611983e-06	-2.433564e-08	-2.610486e+01	-1.600898e+03
5.600000e-07	-3.488615e-06	-2.402271e-08	-2.521324e+01	-1.580337e+03
5.700000e-07	-3.363895e-06	-2.369180e-08	-2.431186e+01	-1.558501e+03
5.800000e-07	-3.237979e-06	-2.334594e-08	-2.340183e+01	-1.535376e+03
5.900000e-07	-3.110996e-06	-2.298192e-08	-2.248408e+01	-1.510990e+03
6.000000e-07	-2.982847e-06	-2.260561e-08	-2.155791e+01	-1.485405e+03
6.100000e-07	-2.853485e-06	-2.220765e-08	-2.062297e+01	-1.458685e+03
6.200000e-07	-2.723080e-06	-2.178993e-08	-1.968050e+01	-1.430876e+03
6.300000e-07	-2.591730e-06	-2.134780e-08	-1.873119e+01	-1.401973e+03
6.400000e-07	-2.459368e-06	-2.088364e-08	-1.777457e+01	-1.371902e+03
6.500000e-07	-2.326073e-06	-2.039469e-08	-1.681121e+01	-1.340498e+03
6.600000e-07	-2.192071e-06	-1.987450e-08	-1.584274e+01	-1.307508e+03
6.700000e-07	-2.057444e-06	-1.932349e-08	-1.486975e+01	-1.272595e+03
6.800000e-07	-1.922073e-06	-1.873691e-08	-1.389139e+01	-1.235363e+03
6.900000e-07	-1.785901e-06	-1.811562e-08	-1.290723e+01	-1.195389e+03
7.000000e-07	-1.648977e-06	-1.745170e-08	-1.191764e+01	-1.152264e+03
7.100000e-07	-1.511394e-06	-1.674369e-08	-1.092329e+01	-1.105631e+03
7.200000e-07	-1.373311e-06	-1.598804e-08	-9.925323e+00	-1.055228e+03
7.300000e-07	-1.234773e-06	-1.518019e-08	-8.924064e+00	-1.000915e+03
7.400000e-07	-1.095772e-06	-1.431529e-08	-7.919463e+00	-9.426857e+02
7.500000e-07	-9.564233e-07	-1.339281e-08	-6.912351e+00	-8.806726e+02
7.600000e-07	-8.167380e-07	-1.241158e-08	-5.902804e+00	-8.151277e+02
7.700000e-07	-6.766886e-07	-1.136812e-08	-4.890627e+00	-7.463921e+02
7.800000e-07	-5.363840e-07	-1.026713e-08	-3.876604e+00	-6.748558e+02
7.900000e-07	-3.959236e-07	-9.114931e-09	-2.861456e+00	-6.009118e+02
8.000000e-07	-2.552383e-07	-7.922749e-09	-1.844682e+00	-5.249134e+02
8.100000e-07	-1.143888e-07	-6.700992e-09	-8.267212e-01	-4.471388e+02
8.200000e-07	2.645514e-08	-5.464602e-09	1.911990e-01	-3.677699e+02
8.300000e-07	1.673054e-07	-4.221075e-09	1.209165e+00	-2.868881e+02
8.400000e-07	3.081913e-07	-2.973199e-09	2.227388e+00	-2.044888e+02
8.500000e-07	4.490466e-07	-1.719966e-09	3.245391e+00	-1.205117e+02
8.600000e-07	5.897793e-07	-4.524303e-10	4.262507e+00	-3.488591e+01
8.700000e-07	7.302331e-07	8.357430e-10	5.277608e+00	5.241965e+01
8.800000e-07	8.703312e-07	2.153572e-09	6.290139e+00	1.413448e+02
8.900000e-07	1.010099e-06	3.506765e-09	7.300281e+00	2.316943e+02
9.000000e-07	1.149507e-06	4.897493e-09	8.307821e+00	3.231088e+02
9.100000e-07	1.288561e-06	6.319825e-09	9.312811e+00	4.150537e+02
9.200000e-07	1.427180e-06	7.756357e-09	1.031465e+01	5.068305e+02
9.300000e-07	1.565256e-06	9.182411e-09	1.131257e+01	5.976093e+02
9.400000e-07	1.702733e-06	1.057034e-08	1.230615e+01	6.864796e+02
9.500000e-07	1.839505e-06	1.189873e-08	1.329464e+01	7.725138e+02
9.600000e-07	1.975404e-06	1.314966e-08	1.427682e+01	8.548370e+02
9.700000e-07	2.110476e-06	1.431037e-08	1.525303e+01	9.326932e+02
9.800000e-07	2.244814e-06	1.538016e-08	1.622393e+01	1.005503e+03
9.900000e-07	2.378324e-06	1.636555e-08	1.718884e+01	1.072904e+03
1.000000e-06	2.510979e-06	1.727345e-08	1.814758e+01	1.134768e+03
1.010000e-06	2.642725e-06	1.811099e-08	1.909975e+01	1.191199e+03
1.020000e-06	2.773501e-06	1.888313e-08	2.004491e+01	1.242509e+03
1.030000e-06	2.903278e-06	1.959443e-08	2.098284e+01	1.289171e+03
1.040000e-06	3.031907e-06	2.025208e-08	2.191248e+01	1.331763e+03
1.050000e-06	3.159321e-06	2.086497e-08	2.283334e+01	1.370909e+03
1.060000e-06	3.285621e-06	2.143884e-08	2.374615e+01	1.407215e+03
1.070000e-06	3.410816e-06	2.197717e-08	2.465097e+01	1.441223e+03
1.080000e-06	3.534828e-06	2.247920e-08	2.554724e+01	1.473368e+03
1.090000e-06	3.657651e-06	2.294699e-08	2.643491e+01	1.503962e+03
1.100000e-06	3.779203e-06	2.338523e-08	2.731340e+01	1.533190e+03
1.110000e-06	3.899282e-06	2.379751e-08	2.818125e+01	1.561127e+03
1.120000e-06	4.017884e-06	2.418683e-08	2.903842e+01	1.587759e+03
1.130000e-06	4.135052e-06	2.455537e-08	2.988523e+01	1.613026e+03
1.140000e-06	4.250712e-06	2.490425e-08	3.072114e+01	1.636849e+03
1.150000e-06	4.364767e-06	2.523605e-08	3.154545e+01	1.659173e+03
1.160000e-06	4.477066e-06	2.554923e-08	3.235707e+01	1.679985e+03
1.170000e-06	4.587709e-06	2.584433e-08	3.315672e+01	1.699329e+03
1.180000e-06	4.696869e-06	2.612365e-08	3.394565e+01	1.717311e+03
1.190000e-06	4.804467e-06	2.638784e-08	3.472329e+01	1.734089e+03
1.200000e-06	4.910390e-06	2.663754e-08	3.548883e+01	1.749850e+03
1.210000e-06	5.014450e-06	2.687374e-08	3.624090e+01	1.764794e+03
1.220000e-06	5.116656e-06	2.710105e-08	3.697957e+01	1.779105e+03
1.230000e-06	5.217053e-06	2.731840e-08	3.770517e+01	1.792929e+03
1.240000e-06	5.315492e-06	2.752362e-08	3.841661e+01	1.806364e+03
1.250000e-06	5.411917e-06	2.771690e-08	3.911351e+01	1.819448e+03
1.260000e-06	5.506385e-06	2.790143e-08	3.979625e+01	1.832165e+03
1.270000e-06	5.598924e-06	2.807659e-08	4.046506e+01	1.844453e+03
1.280000e-06	5.689484e-06	2.824462e-08	4.111957e+01	1.856228e+03
1.290000e-06	5.777921e-06	2.840665e-08	4.175873e+01	1.867394e+03
1.300000e-06	5.864220e-06	2.856145e-08	4.238244e+01	1.877871e+03
1.310000e-06	5.948522e-06	2.870837e-08	4.299171e+01	1.887612e+03
1.320000e-06	6.030770e-06	2.884847e-08	4.358614e+01	1.896605e+03
1.330000e-06	6.110842e-06	2.898191e-08	4.416484e+01	1.904887e+03
1.340000e-06	6.188612e-06	2.910757e-08	4.472691e+01	1.912533e+03
1.350000e-06	6.264002e-06	2.922587e-08	4.527178e+01	1.919645e+03
1.360000e-06	6.336921e-06	2.933764e-08	4.579879e+01	1.926342e+03
1.370000e-06	6.407475e-06	2.944312e-08	4.630870e+01	1.932738e+03
1.380000e-06	6.475851e-06	2.954080e-08	4.680287e+01	1.938927e+03
1.390000e-06	6.541931e-06	2.963260e-08	4.728045e+01	1.944972e+03
1.400000e-06	6.605646e-06	2.971939e-08	4.774094e+01	1.950899e+03
1.410000e-06	6.667076e-06	2.980024e-08	4.818491e+01	1.956693e+03
1.420000e-06	6.726254e-06	2.987705e-08	4.861261e+01	1.962310e+03
1.430000e-06	6.783047e-06	2.995123e-08	4.902306e+01	1.967682e+03
1.440000e-06	6.837365e-06	3.002193e-08	4.941564e+01	1.972734e+03
1.450000e-06	6.888977e-06	3.008881e-08	4.978865e+01	1.977398e+03
1.460000e-06	6.937750e-06	3.015217e-08	5.014115e+01	1.981627e+03
1.470000e-06	6.983944e-06	3.021195e-08	5.047501e+01	1.985400e+03
1.480000e-06	7.027713e-06	3.026868e-08	5.079134e+01	1.988731e+03
1.490000e-06	7.068984e-06	3.032137e-08	5.108962e+01	1.991662e+03
1.500000e-06	7.107725e-06	3.036803e-08	5.136961e+01	1.994259e+03
1.510000e-06	7.144065e-06	3.040885e-08	5.163225e+01	1.996599e+03
1.520000e-06	7.177896e-06	3.044618e-08	5.187676e+01	1.998757e+03
1.530000e-06	7.209112e-06	3.048111e-08	5.210236e+01	2.000796e+03
1.540000e-06	7.237847e-06	3.051343e-08	5.231004e+01	2.002755e+03
1.550000e-06	7.263956e-06	3.054186e-08	5.249874e+01	2.004644e+03
1.560000e-06	7.287304e-06	3.056648e-08	5.266748e+01	2.006445e+03
1.570000e-06	7.308140e-06	3.058687e-08	5.281806e+01	2.008115e+03
1.580000e-06	7.326497e-06	3.060253e-08	5.295074e+01	2.009593e+03
1.590000e-06	7.342117e-06	3.061451e-08	5.306363e+01	2.010817e+03
1.600000e-06	7.354890e-06	3.062262e-08	5.315595e+01	2.011728e+03
1.610000e-06	7.364794e-06	3.062869e-08	5.322752e+01	2.012287e+03
1.620000e-06	7.371864e-06	3.063413e-08	5.327862e+01	2.012480e+03
1.630000e-06	7.376376e-06	3.063795e-08	5.331123e+01	2.012320e+03
1.640000e-06	7.378309e-06	3.064012e-08	5.332520e+01	2.011846e+03
1.650000e-06	7.377600e-06	3.063880e-08	5.332007e+01	2.011117e+03
1.660000e-06	7.374521e-06	3.062644e-08	5.329782e+01	2.010202e+03
1.670000e-06	7.368954e-06	3.061649e-08	5.325759e+01	2.009168e+03
1.680000e-06	7.360855e-06	3.060387e-08	5.319905e+01	2.008073e+03
1.690000e-06	7.350375e-06	3.058716e-08	5.312331e+01	2.006950e+03
1.700000e-06	7.337248e-06	3.056893e-08	5.302844e+01	2.005811e+03
1.710000e-06	7.321556e-06	3.055491e-08	5.291503e+01	2.004638e+03
1.720000e-06	7.303700e-06	3.054563e-08	5.278598e+01	2.003395e+03
1.730000e-06	7.283744e-06	3.046354e-08	5.264175e+01	2.002027e+03
1.740000e-06	7.261063e-06	3.036933e-08	5.247783e+01	2.000478e+03
1.750000e-06	7.234961e-06	3.040660e-08	5.228918e+01	1.998697e+03
1.760000e-06	7.205468e-06	3.040643e-08	5.207603e+01	1.996648e+03
1.770000e-06	7.173318e-06	3.033995e-08	5.184367e+01	1.994314e+03
1.780000e-06	7.139186e-06	3.035683e-08	5.159699e+01	1.991706e+03
1.790000e-06	7.103366e-06	3.038158e-08	5.133811e+01	1.988852e+03
1.800000e-06	7.065828e-06	3.019321e-08	5.106681e+01	1.985795e+03
1.810000e-06	7.025795e-06	3.023117e-08	5.077748e+01	1.982584e+03
1.820000e-06	6.983167e-06	3.024887e-08	5.046939e+01	1.979260e+03
1.830000e-06	6.938352e-06	3.012539e-08	5.014550e+01	1.975851e+03
1.840000e-06	6.890953e-06	3.020464e-08	4.980294e+01	1.972360e+03
1.850000e-06	6.840916e-06	3.000322e-08	4.944130e+01	1.968761e+03
1.860000e-06	6.788186e-06	2.997792e-08	4.906020e+01	1.965008e+03
1.870000e-06	6.732703e-06	2.995596e-08	4.865921e+01	1.961030e+03
1.880000e-06	6.674829e-06	2.978669e-08	4.824094e+01	1.956749e+03
1.890000e-06	6.614409e-06	2.981581e-08	4.780427e+01	1.952087e+03
1.900000e-06	6.551367e-06	2.966571e-08	4.734865e+01	1.946983e+03
1.910000e-06	6.485871e-06	2.960734e-08	4.687529e+01	1.941397e+03
1.920000e-06	6.417966e-06	2.951033e-08	4.638452e+01	1.935321e+03
1.930000e-06	6.347591e-06	2.939785e-08	4.587590e+01	1.928779e+03
1.940000e-06	6.274736e-06	2.937452e-08	4.534935e+01	1.921825e+03
1.950000e-06	6.199541e-06	2.919033e-08	4.480590e+01	1.914529e+03
1.960000e-06	6.121758e-06	2.913229e-08	4.424374e+01	1.906971e+03
1.970000e-06	6.041482e-06	2.898013e-08	4.366356e+01	1.899223e+03
1.980000e-06	5.959141e-06	2.887653e-08	4.306846e+01	1.891335e+03
1.990000e-06	5.874711e-06	2.877583e-08	4.245826e+01	1.883328e+03
2.000000e-06	5.788079e-06	2.861978e-08	4.183215e+01	1.875184e+03
2.010000e-06	5.699273e-06	2.852551e-08	4.119031e+01	1.866852e+03
2.020000e-06	5.608519e-06	2.834454e-08	4.053441e+01	1.858247e+03
2.030000e-06	5.515777e-06	2.821973e-08	3.986414e+01	1.849268e+03
2.040000e-06	5.421014e-06	2.805652e-08	3.917925e+01	1.839807e+03
2.050000e-06	5.324411e-06	2.791778e-08	3.848108e+01	1.829769e+03
2.060000e-06	5.226115e-06	2.775042e-08	3.777067e+01	1.819084e+03
2.070000e-06	5.126032e-06	2.757237e-08	3.704733e+01	1.807717e+03
2.080000e-06	5.024000e-06	2.740643e-08	3.630992e+01	1.795674e+03
2.090000e-06	4.920055e-06	2.721343e-08	3.555868e+01	1.782994e+03
2.100000e-06	4.814373e-06	2.703662e-08	3.479488e+01	1.769746e+03
2.110000e-06	4.707199e-06	2.683016e-08	3.402030e+01	1.756010e+03
2.120000e-06	4.598516e-06	2.662771e-08	3.323482e+01	1.741860e+03
2.130000e-06	4.488197e-06	2.639730e-08	3.243751e+01	1.727349e+03
2.140000e-06	4.376112e-06	2.617294e-08	3.162744e+01	1.712492e+03
2.150000e-06	4.262268e-06	2.593420e-08	3.080466e+01	1.697259e+03
2.160000e-06	4.146697e-06	2.569159e-08	2.996939e+01	1.681568e+03
2.170000e-06	4.029329e-06	2.543454e-08	2.912114e+01	1.665297e+03
2.180000e-06	3.910355e-06	2.516431e-08	2.826128e+01	1.648295e+03
2.190000e-06	3.789930e-06	2.488679e-08	2.739093e+01	1.630399e+03
2.200000e-06	3.668109e-06	2.459633e-08	2.651050e+01	1.611453e+03
2.210000e-06	3.545012e-06	2.429621e-08	2.562084e+01	1.591332e+03
2.220000e-06	3.420511e-06	2.397311e-08	2.472103e+01	1.569954e+03
2.230000e-06	3.294653e-06	2.363797e-08	2.381143e+01	1.547286e+03
2.240000e-06	3.167651e-06	2.327863e-08	2.289354e+01	1.523344e+03
2.250000e-06	3.039489e-06	2.291082e-08	2.196728e+01	1.498178e+03
2.260000e-06	2.910176e-06	2.252234e-08	2.103270e+01	1.471855e+03
2.270000e-06	2.779862e-06	2.211846e-08	2.009087e+01	1.444431e+03
2.280000e-06	2.648646e-06	2.169064e-08	1.914254e+01	1.415921e+03
2.290000e-06	2.516409e-06	2.123667e-08	1.818683e+01	1.386280e+03
2.300000e-06	2.383151e-06	2.075813e-08	1.722373e+01	1.355375e+03
2.310000e-06	2.249122e-06	2.025403e-08	1.625506e+01	1.322985e+03
2.320000e-06	2.114419e-06	1.971892e-08	1.528152e+01	1.288800e+03
2.330000e-06	1.979030e-06	1.914557e-08	1.430303e+01	1.252443e+03
2.340000e-06	1.842987e-06	1.853639e-08	1.331981e+01	1.213496e+03
2.350000e-06	1.706241e-06	1.788788e-08	1.233150e+01	1.171539e+03
2.360000e-06	1.568867e-06	1.719947e-08	1.133866e+01	1.126193e+03
2.370000e-06	1.431011e-06	1.646477e-08	1.034233e+01	1.077158e+03
2.380000e-06	1.292725e-06	1.567851e-08	9.342902e+00	1.024248e+03
2.390000e-06	1.154011e-06	1.483523e-08	8.340374e+00	9.674074e+02
2.400000e-06	1.014850e-06	1.393349e-08	7.334616e+00	9.067210e+02
2.410000e-06	8.752921e-07	1.297274e-08	6.325992e+00	8.424007e+02
2.420000e-06	7.353833e-07	1.195240e-08	5.314831e+00	7.747601e+02
2.430000e-06	5.951337e-07	1.087537e-08	4.301205e+00	7.041766e+02
2.440000e-06	4.546194e-07	9.744064e-09	3.285667e+00	6.310476e+02
2.450000e-06	3.138892e-07	8.562245e-09	2.268569e+00	5.557450e+02
2.460000e-06	1.729828e-07	7.343380e-09	1.250197e+00	4.785771e+02
2.470000e-06	3.196776e-08	6.103759e-09	2.310404e-01	3.997617e+02
2.480000e-06	-1.091043e-07	4.855579e-09	-7.885286e-01	3.194154e+02
2.490000e-06	-2.501118e-07	3.603427e-09	-1.807631e+00	2.375614e+02
2.500000e-06	-3.910309e-07	2.346436e-09	-2.826095e+00	1.541550e+02
2.510000e-06	-5.318303e-07	1.081716e-09	-3.843693e+00	6.912335e+01
2.520000e-06	-6.724152e-07	-2.008236e-10	-4.859742e+00	-1.758489e+01
2.530000e-06	-8.127073e-07	-1.510374e-09	-5.873673e+00	-1.059476e+02
2.540000e-06	-9.526518e-07	-2.852041e-09	-6.885093e+00	-1.958222e+02
2.550000e-06	-1.092236e-06	-4.231983e-09	-7.893909e+00	-2.869102e+02
2.560000e-06	-1.231399e-06	-5.649546e-09	-8.899678e+00	-3.787392e+02
2.570000e-06	-1.370055e-06	-7.092892e-09	-9.901787e+00	-4.706668e+02
2.580000e-06	-1.508165e-06	-8.536568e-09	-1.089995e+01	-5.619051e+02
2.590000e-06	-1.645653e-06	-9.952441e-09	-1.189361e+01	-6.515655e+02
2.600000e-06	-1.782469e-06	-1.131491e-08	-1.288243e+01	-7.387188e+02
2.610000e-06	-1.918627e-06	-1.260474e-08	-1.386648e+01	-8.224630e+02
2.620000e-06	-2.054072e-06	-1.381087e-08	-1.484538e+01	-9.019928e+02
2.630000e-06	-2.188778e-06	-1.492640e-08	-1.581894e+01	-9.766600e+02
2.640000e-06	-2.322712e-06	-1.595508e-08	-1.678692e+01	-1.046021e+03
2.650000e-06	-2.455766e-06	-1.690432e-08	-1.774854e+01	-1.109863e+03
2.660000e-06	-2.587772e-06	-1.778000e-08	-1.870258e+01	-1.168211e+03
2.670000e-06	-2.718765e-06	-1.858612e-08	-1.964931e+01	-1.221305e+03
2.680000e-06	-2.848830e-06	-1.932926e-08	-2.058933e+01	-1.269566e+03
2.690000e-06	-2.977902e-06	-2.001621e-08	-2.152217e+01	-1.313542e+03
2.700000e-06	-3.105947e-06	-2.065344e-08	-2.244759e+01	-1.353848e+03
2.710000e-06	-3.232926e-06	-2.124858e-08	-2.336531e+01	-1.391104e+03
2.720000e-06	-3.358772e-06	-2.180585e-08	-2.427483e+01	-1.425878e+03
2.730000e-06	-3.483268e-06	-2.232453e-08	-2.517460e+01	-1.458647e+03
2.740000e-06	-3.606454e-06	-2.280660e-08	-2.606490e+01	-1.489769e+03
2.750000e-06	-3.728458e-06	-2.325850e-08	-2.694666e+01	-1.519472e+03
2.760000e-06	-3.849124e-06	-2.368269e-08	-2.781875e+01	-1.547869e+03
2.770000e-06	-3.968322e-06	-2.408348e-08	-2.868022e+01	-1.574974e+03
2.780000e-06	-4.085982e-06	-2.446459e-08	-2.953059e+01	-1.600739e+03
2.790000e-06	-4.202004e-06	-2.482416e-08	-3.036911e+01	-1.625087e+03
2.800000e-06	-4.316339e-06	-2.516053e-08	-3.119545e+01	-1.647953e+03
2.810000e-06	-4.429026e-06	-2.547681e-08	-3.200987e+01	-1.669304e+03
2.820000e-06	-4.539951e-06	-2.577806e-08	-3.281155e+01	-1.689164e+03
2.830000e-06	-4.649189e-06	-2.606636e-08	-3.360105e+01	-1.707619e+03
2.840000e-06	-4.756915e-06	-2.634051e-08	-3.437962e+01	-1.724808e+03
2.850000e-06	-4.863086e-06	-2.659829e-08	-3.514695e+01	-1.740910e+03
2.860000e-06	-4.967557e-06	-2.684192e-08	-3.590199e+01	-1.756125e+03
2.870000e-06	-5.070177e-06	-2.707393e-08	-3.664365e+01	-1.770644e+03
2.880000e-06	-5.170845e-06	-2.729596e-08	-3.737121e+01	-1.784630e+03
2.890000e-06	-5.269602e-06	-2.750886e-08	-3.808496e+01	-1.798198e+03
2.900000e-06	-5.366590e-06	-2.771048e-08	-3.878592e+01	-1.811408e+03
2.910000e-06	-5.461721e-06	-2.790136e-08	-3.947346e+01	-1.824262e+03
2.920000e-06	-5.554786e-06	-2.808417e-08	-4.014607e+01	-1.836714e+03
2.930000e-06	-5.645808e-06	-2.825817e-08	-4.080391e+01	-1.848685e+03
2.940000e-06	-5.734888e-06	-2.842146e-08	-4.144771e+01	-1.860079e+03
