# Temperatura_=_80.15
# Concentracion g/m^3_=_28370.0
# C_Vs_to_Am_M_A/Vsm_=_65563218390.804596
# pendiente_HvsI_1/m_=_3716.3
# ordenada_HvsI_A/m_=_1297.0
# frecuencia_Hz_=_302374.13524507865

Tiempo_(s)	Campo_(V.s)	Magnetizacion_(V.s)	Campo_(kA/m)	Magnetizacion_(A/m)
0.000000e+00	-7.325639e-06	-3.025025e-08	-5.318680e+01	-1.980477e+03
1.000000e-08	-7.321511e-06	-3.024386e-08	-5.315683e+01	-1.979485e+03
2.000000e-08	-7.315045e-06	-3.022818e-08	-5.310988e+01	-1.978392e+03
3.000000e-08	-7.306184e-06	-3.021002e-08	-5.304555e+01	-1.977247e+03
4.000000e-08	-7.294758e-06	-3.019015e-08	-5.296260e+01	-1.976072e+03
5.000000e-08	-7.280548e-06	-3.016914e-08	-5.285943e+01	-1.974867e+03
6.000000e-08	-7.263669e-06	-3.014498e-08	-5.273687e+01	-1.973609e+03
7.000000e-08	-7.244572e-06	-3.011737e-08	-5.259822e+01	-1.972255e+03
8.000000e-08	-7.223353e-06	-3.010661e-08	-5.244417e+01	-1.970753e+03
9.000000e-08	-7.199515e-06	-3.012888e-08	-5.227110e+01	-1.969050e+03
1.000000e-07	-7.172673e-06	-3.007707e-08	-5.207621e+01	-1.967103e+03
1.100000e-07	-7.143066e-06	-2.998841e-08	-5.186126e+01	-1.964887e+03
1.200000e-07	-7.110992e-06	-2.993809e-08	-5.162839e+01	-1.962396e+03
1.300000e-07	-7.076453e-06	-2.989594e-08	-5.137762e+01	-1.959646e+03
1.400000e-07	-7.039770e-06	-2.981795e-08	-5.111129e+01	-1.956671e+03
1.500000e-07	-7.001278e-06	-2.977004e-08	-5.083182e+01	-1.953513e+03
1.600000e-07	-6.960579e-06	-2.981674e-08	-5.053634e+01	-1.950214e+03
1.700000e-07	-6.917384e-06	-2.970129e-08	-5.022272e+01	-1.946808e+03
1.800000e-07	-6.871798e-06	-2.961534e-08	-4.989175e+01	-1.943309e+03
1.900000e-07	-6.823582e-06	-2.959600e-08	-4.954168e+01	-1.939707e+03
2.000000e-07	-6.772553e-06	-2.947879e-08	-4.917119e+01	-1.935968e+03
2.100000e-07	-6.718855e-06	-2.943786e-08	-4.878133e+01	-1.932038e+03
2.200000e-07	-6.662674e-06	-2.935831e-08	-4.837343e+01	-1.927844e+03
2.300000e-07	-6.604016e-06	-2.927805e-08	-4.794755e+01	-1.923313e+03
2.400000e-07	-6.542908e-06	-2.923179e-08	-4.750389e+01	-1.918379e+03
2.500000e-07	-6.479466e-06	-2.913035e-08	-4.704327e+01	-1.912991e+03
2.600000e-07	-6.413489e-06	-2.904211e-08	-4.656426e+01	-1.907128e+03
2.700000e-07	-6.344965e-06	-2.895292e-08	-4.606675e+01	-1.900796e+03
2.800000e-07	-6.274120e-06	-2.886089e-08	-4.555239e+01	-1.894034e+03
2.900000e-07	-6.200912e-06	-2.874573e-08	-4.502087e+01	-1.886899e+03
3.000000e-07	-6.125142e-06	-2.863739e-08	-4.447076e+01	-1.879466e+03
3.100000e-07	-6.046857e-06	-2.854471e-08	-4.390238e+01	-1.871807e+03
3.200000e-07	-5.966214e-06	-2.840666e-08	-4.331688e+01	-1.863981e+03
3.300000e-07	-5.883378e-06	-2.829121e-08	-4.271546e+01	-1.856022e+03
3.400000e-07	-5.798574e-06	-2.816187e-08	-4.209976e+01	-1.847933e+03
3.500000e-07	-5.711870e-06	-2.803714e-08	-4.147025e+01	-1.839679e+03
3.600000e-07	-5.623169e-06	-2.791284e-08	-4.082625e+01	-1.831194e+03
3.700000e-07	-5.532351e-06	-2.776237e-08	-4.016688e+01	-1.822387e+03
3.800000e-07	-5.439505e-06	-2.761290e-08	-3.949279e+01	-1.813155e+03
3.900000e-07	-5.344797e-06	-2.744782e-08	-3.880517e+01	-1.803400e+03
4.000000e-07	-5.248262e-06	-2.728563e-08	-3.810429e+01	-1.793038e+03
4.100000e-07	-5.149819e-06	-2.711578e-08	-3.738956e+01	-1.782019e+03
4.200000e-07	-5.049514e-06	-2.695216e-08	-3.666131e+01	-1.770326e+03
4.300000e-07	-4.947421e-06	-2.677125e-08	-3.592007e+01	-1.757981e+03
4.400000e-07	-4.843626e-06	-2.657760e-08	-3.516649e+01	-1.745034e+03
4.500000e-07	-4.738148e-06	-2.638019e-08	-3.440068e+01	-1.731561e+03
4.600000e-07	-4.630842e-06	-2.617341e-08	-3.362159e+01	-1.717637e+03
4.700000e-07	-4.521846e-06	-2.596302e-08	-3.283024e+01	-1.703327e+03
4.800000e-07	-4.411320e-06	-2.574381e-08	-3.202778e+01	-1.688668e+03
4.900000e-07	-4.299250e-06	-2.551743e-08	-3.121412e+01	-1.673655e+03
5.000000e-07	-4.185482e-06	-2.527144e-08	-3.038812e+01	-1.658239e+03
5.100000e-07	-4.069929e-06	-2.501516e-08	-2.954916e+01	-1.642325e+03
5.200000e-07	-3.952744e-06	-2.474858e-08	-2.869836e+01	-1.625781e+03
5.300000e-07	-3.834096e-06	-2.447318e-08	-2.783693e+01	-1.608455e+03
5.400000e-07	-3.714092e-06	-2.418455e-08	-2.696566e+01	-1.590194e+03
5.500000e-07	-3.592707e-06	-2.388268e-08	-2.608436e+01	-1.570859e+03
5.600000e-07	-3.469868e-06	-2.356918e-08	-2.519250e+01	-1.550346e+03
5.700000e-07	-3.345642e-06	-2.323969e-08	-2.429058e+01	-1.528596e+03
5.800000e-07	-3.220210e-06	-2.289509e-08	-2.337990e+01	-1.505597e+03
5.900000e-07	-3.093688e-06	-2.253545e-08	-2.246130e+01	-1.481377e+03
6.000000e-07	-2.966064e-06	-2.216273e-08	-2.153470e+01	-1.455992e+03
6.100000e-07	-2.837362e-06	-2.176946e-08	-2.060028e+01	-1.429498e+03
6.200000e-07	-2.707542e-06	-2.135585e-08	-1.965774e+01	-1.401933e+03
6.300000e-07	-2.576582e-06	-2.091828e-08	-1.870692e+01	-1.373284e+03
6.400000e-07	-2.444691e-06	-2.045738e-08	-1.774934e+01	-1.343468e+03
6.500000e-07	-2.312029e-06	-1.997120e-08	-1.678617e+01	-1.312319e+03
6.600000e-07	-2.178566e-06	-1.945624e-08	-1.581718e+01	-1.279585e+03
6.700000e-07	-2.044359e-06	-1.891067e-08	-1.484279e+01	-1.244937e+03
6.800000e-07	-1.909408e-06	-1.833181e-08	-1.386299e+01	-1.207994e+03
6.900000e-07	-1.773728e-06	-1.771685e-08	-1.287791e+01	-1.168351e+03
7.000000e-07	-1.637477e-06	-1.705916e-08	-1.188867e+01	-1.125620e+03
7.100000e-07	-1.500714e-06	-1.635746e-08	-1.089573e+01	-1.079470e+03
7.200000e-07	-1.363431e-06	-1.560891e-08	-9.899008e+00	-1.029656e+03
7.300000e-07	-1.225613e-06	-1.481162e-08	-8.898393e+00	-9.760544e+02
7.400000e-07	-1.087266e-06	-1.395985e-08	-7.893944e+00	-9.186671e+02
7.500000e-07	-9.484347e-07	-1.305093e-08	-6.885980e+00	-8.576257e+02
7.600000e-07	-8.092605e-07	-1.208454e-08	-5.875525e+00	-7.931719e+02
7.700000e-07	-6.698342e-07	-1.105821e-08	-4.863240e+00	-7.256284e+02
7.800000e-07	-5.301286e-07	-9.975535e-09	-3.848926e+00	-6.553591e+02
7.900000e-07	-3.902318e-07	-8.843427e-09	-2.833225e+00	-5.827275e+02
8.000000e-07	-2.502166e-07	-7.673050e-09	-1.816663e+00	-5.080562e+02
8.100000e-07	-1.100581e-07	-6.475005e-09	-7.990618e-01	-4.315955e+02
8.200000e-07	3.022436e-08	-5.258559e-09	2.194399e-01	-3.535060e+02
8.300000e-07	1.705550e-07	-4.033471e-09	1.238291e+00	-2.738565e+02
8.400000e-07	3.108079e-07	-2.803968e-09	2.256578e+00	-1.926400e+02
8.500000e-07	4.509461e-07	-1.568868e-09	3.274033e+00	-1.098052e+02
8.600000e-07	5.909692e-07	-3.214687e-10	4.290651e+00	-2.529940e+01
8.700000e-07	7.307893e-07	9.502189e-10	5.305796e+00	6.088252e+01
8.800000e-07	8.703441e-07	2.254155e-09	6.319014e+00	1.486505e+02
8.900000e-07	1.009638e-06	3.592753e-09	7.330339e+00	2.377794e+02
9.000000e-07	1.148525e-06	4.965824e-09	8.338712e+00	3.278837e+02
9.100000e-07	1.286861e-06	6.366226e-09	9.343082e+00	4.184104e+02
9.200000e-07	1.424660e-06	7.778681e-09	1.034355e+01	5.086530e+02
9.300000e-07	1.561941e-06	9.177559e-09	1.134026e+01	5.977856e+02
9.400000e-07	1.698645e-06	1.053781e-08	1.233278e+01	6.849140e+02
9.500000e-07	1.834660e-06	1.183823e-08	1.332030e+01	7.691377e+02
9.600000e-07	1.969859e-06	1.305930e-08	1.430189e+01	8.496176e+02
9.700000e-07	2.104261e-06	1.419139e-08	1.527770e+01	9.256387e+02
9.800000e-07	2.237967e-06	1.523445e-08	1.624846e+01	9.966633e+02
9.900000e-07	2.370934e-06	1.619538e-08	1.721384e+01	1.062368e+03
1.000000e-06	2.503095e-06	1.708409e-08	1.817338e+01	1.122657e+03
1.010000e-06	2.634289e-06	1.790474e-08	1.912590e+01	1.177659e+03
1.020000e-06	2.764399e-06	1.865947e-08	2.007054e+01	1.227696e+03
1.030000e-06	2.893512e-06	1.935311e-08	2.100795e+01	1.273244e+03
1.040000e-06	3.021525e-06	1.999598e-08	2.193737e+01	1.314873e+03
1.050000e-06	3.148322e-06	2.059642e-08	2.285796e+01	1.353188e+03
1.060000e-06	3.274061e-06	2.115778e-08	2.377087e+01	1.388774e+03
1.070000e-06	3.398785e-06	2.168274e-08	2.467641e+01	1.422146e+03
1.080000e-06	3.522316e-06	2.217213e-08	2.557329e+01	1.453717e+03
1.090000e-06	3.644550e-06	2.263042e-08	2.646075e+01	1.483776e+03
1.100000e-06	3.765479e-06	2.306302e-08	2.733875e+01	1.512493e+03
1.110000e-06	3.884997e-06	2.347115e-08	2.820649e+01	1.539931e+03
1.120000e-06	4.003083e-06	2.385535e-08	2.906384e+01	1.566074e+03
1.130000e-06	4.119741e-06	2.421763e-08	2.991082e+01	1.590863e+03
1.140000e-06	4.234845e-06	2.455953e-08	3.074652e+01	1.614225e+03
1.150000e-06	4.348263e-06	2.488308e-08	3.156997e+01	1.636113e+03
1.160000e-06	4.459966e-06	2.518856e-08	3.238098e+01	1.656521e+03
1.170000e-06	4.570105e-06	2.547847e-08	3.318062e+01	1.675501e+03
1.180000e-06	4.678783e-06	2.575261e-08	3.396967e+01	1.693164e+03
1.190000e-06	4.785901e-06	2.601163e-08	3.474738e+01	1.709666e+03
1.200000e-06	4.891270e-06	2.625845e-08	3.551239e+01	1.725195e+03
1.210000e-06	4.994759e-06	2.649566e-08	3.626377e+01	1.739944e+03
1.220000e-06	5.096482e-06	2.672215e-08	3.700231e+01	1.754088e+03
1.230000e-06	5.196429e-06	2.693565e-08	3.772796e+01	1.767768e+03
1.240000e-06	5.294384e-06	2.713698e-08	3.843915e+01	1.781071e+03
1.250000e-06	5.390248e-06	2.732700e-08	3.913516e+01	1.794029e+03
1.260000e-06	5.484154e-06	2.750763e-08	3.981695e+01	1.806621e+03
1.270000e-06	5.576206e-06	2.767971e-08	4.048528e+01	1.818786e+03
1.280000e-06	5.666212e-06	2.784546e-08	4.113876e+01	1.830436e+03
1.290000e-06	5.754114e-06	2.800629e-08	4.177696e+01	1.841482e+03
1.300000e-06	5.839993e-06	2.816136e-08	4.240047e+01	1.851845e+03
1.310000e-06	5.923869e-06	2.830913e-08	4.300944e+01	1.861481e+03
1.320000e-06	6.005650e-06	2.844989e-08	4.360320e+01	1.870384e+03
1.330000e-06	6.085208e-06	2.858465e-08	4.418082e+01	1.878589e+03
1.340000e-06	6.162527e-06	2.871060e-08	4.474218e+01	1.886173e+03
1.350000e-06	6.237445e-06	2.882609e-08	4.528612e+01	1.893238e+03
1.360000e-06	6.309928e-06	2.893260e-08	4.581237e+01	1.899898e+03
1.370000e-06	6.380175e-06	2.903370e-08	4.632239e+01	1.906263e+03
1.380000e-06	6.448235e-06	2.913108e-08	4.681653e+01	1.912427e+03
1.390000e-06	6.513957e-06	2.922412e-08	4.729370e+01	1.918447e+03
1.400000e-06	6.577312e-06	2.931298e-08	4.775368e+01	1.924348e+03
1.410000e-06	6.638495e-06	2.939752e-08	4.819789e+01	1.930116e+03
1.420000e-06	6.697353e-06	2.947769e-08	4.862522e+01	1.935707e+03
1.430000e-06	6.753753e-06	2.955279e-08	4.903470e+01	1.941055e+03
1.440000e-06	6.807757e-06	2.962109e-08	4.942679e+01	1.946088e+03
1.450000e-06	6.859057e-06	2.968425e-08	4.979925e+01	1.950743e+03
1.460000e-06	6.907525e-06	2.974587e-08	5.015114e+01	1.954973e+03
1.470000e-06	6.953479e-06	2.980604e-08	5.048478e+01	1.958761e+03
1.480000e-06	6.997077e-06	2.986376e-08	5.080132e+01	1.962119e+03
1.490000e-06	7.038113e-06	2.991702e-08	5.109926e+01	1.965087e+03
1.500000e-06	7.076574e-06	2.996535e-08	5.137850e+01	1.967728e+03
1.510000e-06	7.112657e-06	3.000934e-08	5.164047e+01	1.970112e+03
1.520000e-06	7.146217e-06	3.004811e-08	5.188413e+01	1.972312e+03
1.530000e-06	7.177214e-06	3.008312e-08	5.210918e+01	1.974383e+03
1.540000e-06	7.205773e-06	3.011486e-08	5.231653e+01	1.976361e+03
1.550000e-06	7.231702e-06	3.014106e-08	5.250479e+01	1.978254e+03
1.560000e-06	7.254889e-06	3.016244e-08	5.267313e+01	1.980042e+03
1.570000e-06	7.275569e-06	3.018139e-08	5.282327e+01	1.981684e+03
1.580000e-06	7.293738e-06	3.019903e-08	5.295519e+01	1.983123e+03
1.590000e-06	7.309181e-06	3.021322e-08	5.306731e+01	1.984298e+03
1.600000e-06	7.321823e-06	3.022317e-08	5.315910e+01	1.985158e+03
1.610000e-06	7.331544e-06	3.023013e-08	5.322968e+01	1.985667e+03
1.620000e-06	7.338502e-06	3.023498e-08	5.328019e+01	1.985813e+03
1.630000e-06	7.342949e-06	3.023848e-08	5.331248e+01	1.985612e+03
1.640000e-06	7.344701e-06	3.024026e-08	5.332520e+01	1.985103e+03
1.650000e-06	7.343838e-06	3.023711e-08	5.331893e+01	1.984343e+03
1.660000e-06	7.340664e-06	3.022314e-08	5.329589e+01	1.983399e+03
1.670000e-06	7.335029e-06	3.020964e-08	5.325498e+01	1.982335e+03
1.680000e-06	7.326835e-06	3.019728e-08	5.319549e+01	1.981202e+03
1.690000e-06	7.316228e-06	3.018311e-08	5.311848e+01	1.980035e+03
1.700000e-06	7.303069e-06	3.016614e-08	5.302293e+01	1.978842e+03
1.710000e-06	7.287392e-06	3.014883e-08	5.290911e+01	1.977605e+03
1.720000e-06	7.269545e-06	3.013193e-08	5.277954e+01	1.976290e+03
1.730000e-06	7.249534e-06	3.006791e-08	5.263425e+01	1.974845e+03
1.740000e-06	7.226776e-06	2.998099e-08	5.246902e+01	1.973218e+03
1.750000e-06	7.200657e-06	2.998877e-08	5.227939e+01	1.971360e+03
1.760000e-06	7.171212e-06	2.998888e-08	5.206561e+01	1.969241e+03
1.770000e-06	7.139132e-06	2.994088e-08	5.183269e+01	1.966846e+03
1.780000e-06	7.105047e-06	2.994148e-08	5.158522e+01	1.964184e+03
1.790000e-06	7.069287e-06	2.994383e-08	5.132559e+01	1.961283e+03
1.800000e-06	7.031861e-06	2.980747e-08	5.105386e+01	1.958184e+03
1.810000e-06	6.992013e-06	2.981043e-08	5.076455e+01	1.954929e+03
1.820000e-06	6.949532e-06	2.982438e-08	5.045613e+01	1.951557e+03
1.830000e-06	6.904812e-06	2.973332e-08	5.013145e+01	1.948089e+03
1.840000e-06	6.857567e-06	2.977802e-08	4.978843e+01	1.944525e+03
1.850000e-06	6.807672e-06	2.964149e-08	4.942617e+01	1.940839e+03
1.860000e-06	6.755092e-06	2.958322e-08	4.904442e+01	1.936983e+03
1.870000e-06	6.699764e-06	2.954573e-08	4.864272e+01	1.932891e+03
1.880000e-06	6.642026e-06	2.937911e-08	4.822352e+01	1.928487e+03
1.890000e-06	6.581803e-06	2.936427e-08	4.778628e+01	1.923702e+03
1.900000e-06	6.518973e-06	2.926115e-08	4.733012e+01	1.918479e+03
1.910000e-06	6.453688e-06	2.918419e-08	4.685612e+01	1.912784e+03
1.920000e-06	6.386015e-06	2.911231e-08	4.636479e+01	1.906616e+03
1.930000e-06	6.315952e-06	2.899547e-08	4.585611e+01	1.900000e+03
1.940000e-06	6.243368e-06	2.892616e-08	4.532912e+01	1.892989e+03
1.950000e-06	6.168331e-06	2.876110e-08	4.478433e+01	1.885652e+03
1.960000e-06	6.090758e-06	2.868338e-08	4.422112e+01	1.878065e+03
1.970000e-06	6.010774e-06	2.856584e-08	4.364040e+01	1.870291e+03
1.980000e-06	5.928697e-06	2.844852e-08	4.304449e+01	1.862376e+03
1.990000e-06	5.844600e-06	2.834802e-08	4.243392e+01	1.854334e+03
2.000000e-06	5.758436e-06	2.818908e-08	4.180834e+01	1.846144e+03
2.010000e-06	5.670056e-06	2.807422e-08	4.116666e+01	1.837749e+03
2.020000e-06	5.579621e-06	2.791580e-08	4.051008e+01	1.829067e+03
2.030000e-06	5.487324e-06	2.779106e-08	3.983997e+01	1.819997e+03
2.040000e-06	5.393125e-06	2.764376e-08	3.915605e+01	1.810438e+03
2.050000e-06	5.296980e-06	2.748214e-08	3.845800e+01	1.800299e+03
2.060000e-06	5.199016e-06	2.730870e-08	3.774675e+01	1.789518e+03
2.070000e-06	5.099360e-06	2.712322e-08	3.702321e+01	1.778063e+03
2.080000e-06	4.997872e-06	2.695574e-08	3.628637e+01	1.765944e+03
2.090000e-06	4.894422e-06	2.676650e-08	3.553529e+01	1.753204e+03
2.100000e-06	4.789196e-06	2.658664e-08	3.477130e+01	1.739908e+03
2.110000e-06	4.682392e-06	2.638263e-08	3.399587e+01	1.726135e+03
2.120000e-06	4.574049e-06	2.617047e-08	3.320926e+01	1.711955e+03
2.130000e-06	4.464105e-06	2.594222e-08	3.241103e+01	1.697418e+03
2.140000e-06	4.352489e-06	2.571347e-08	3.160066e+01	1.682533e+03
2.150000e-06	4.239170e-06	2.547791e-08	3.077791e+01	1.667268e+03
2.160000e-06	4.124173e-06	2.523168e-08	2.994299e+01	1.651544e+03
2.170000e-06	4.007509e-06	2.497664e-08	2.909597e+01	1.635240e+03
2.180000e-06	3.889135e-06	2.470649e-08	2.823653e+01	1.618210e+03
2.190000e-06	3.769232e-06	2.443035e-08	2.736599e+01	1.600298e+03
2.200000e-06	3.647947e-06	2.414051e-08	2.648542e+01	1.581359e+03
2.210000e-06	3.525253e-06	2.384122e-08	2.559462e+01	1.561275e+03
2.220000e-06	3.401301e-06	2.352318e-08	2.469468e+01	1.539969e+03
2.230000e-06	3.276128e-06	2.319120e-08	2.378588e+01	1.517413e+03
2.240000e-06	3.149649e-06	2.283727e-08	2.286760e+01	1.493623e+03
2.250000e-06	3.021983e-06	2.246656e-08	2.194070e+01	1.468645e+03
2.260000e-06	2.893271e-06	2.207588e-08	2.100620e+01	1.442540e+03
2.270000e-06	2.763506e-06	2.166973e-08	2.006406e+01	1.415354e+03
2.280000e-06	2.632674e-06	2.124556e-08	1.911417e+01	1.387096e+03
2.290000e-06	2.500923e-06	2.080011e-08	1.815761e+01	1.357710e+03
2.300000e-06	2.368379e-06	2.032986e-08	1.719529e+01	1.327060e+03
2.310000e-06	2.235062e-06	1.982794e-08	1.622737e+01	1.294924e+03
2.320000e-06	2.100937e-06	1.929225e-08	1.525357e+01	1.261000e+03
2.330000e-06	1.965981e-06	1.872014e-08	1.427374e+01	1.224921e+03
2.340000e-06	1.830322e-06	1.811645e-08	1.328880e+01	1.186287e+03
2.350000e-06	1.694091e-06	1.747769e-08	1.229971e+01	1.144700e+03
2.360000e-06	1.557332e-06	1.679853e-08	1.130679e+01	1.099803e+03
2.370000e-06	1.420054e-06	1.607180e-08	1.031011e+01	1.051317e+03
2.380000e-06	1.282321e-06	1.529320e-08	9.310115e+00	9.990728e+02
2.390000e-06	1.144157e-06	1.445914e-08	8.306999e+00	9.430273e+02
2.400000e-06	1.005592e-06	1.357015e-08	7.300965e+00	8.832668e+02
2.410000e-06	8.667149e-07	1.262695e-08	6.292665e+00	8.199967e+02
2.420000e-06	7.275798e-07	1.162592e-08	5.282494e+00	7.535146e+02
2.430000e-06	5.881661e-07	1.056668e-08	4.270300e+00	6.841747e+02
2.440000e-06	4.484569e-07	9.452106e-09	3.255960e+00	6.123453e+02
2.450000e-06	3.085235e-07	8.287532e-09	2.239993e+00	5.383679e+02
2.460000e-06	1.684555e-07	7.088469e-09	1.223048e+00	4.625215e+02
2.470000e-06	2.827503e-08	5.872326e-09	2.052870e-01	3.849997e+02
2.480000e-06	-1.119471e-07	4.649949e-09	-8.127767e-01	3.059033e+02
2.490000e-06	-2.521301e-07	3.420940e-09	-1.830556e+00	2.252493e+02
2.500000e-06	-3.922313e-07	2.181525e-09	-2.847742e+00	1.429979e+02
2.510000e-06	-5.322006e-07	9.301909e-10	-3.863970e+00	5.909154e+01
2.520000e-06	-6.720329e-07	-3.398326e-10	-4.879203e+00	-2.649771e+01
2.530000e-06	-8.116384e-07	-1.636334e-09	-5.892790e+00	-1.137189e+02
2.540000e-06	-9.508588e-07	-2.965565e-09	-6.903581e+00	-2.023988e+02
2.550000e-06	-1.089653e-06	-4.328604e-09	-7.911275e+00	-2.922112e+02
2.560000e-06	-1.228032e-06	-5.724003e-09	-8.915962e+00	-3.826622e+02
2.570000e-06	-1.365977e-06	-7.141266e-09	-9.917486e+00	-4.730973e+02
2.580000e-06	-1.503468e-06	-8.556423e-09	-1.091572e+01	-5.627282e+02
2.590000e-06	-1.640396e-06	-9.942703e-09	-1.190987e+01	-6.506783e+02
2.600000e-06	-1.776678e-06	-1.127473e-08	-1.289933e+01	-7.360418e+02
2.610000e-06	-1.912297e-06	-1.253565e-08	-1.388397e+01	-8.179501e+02
2.620000e-06	-2.047160e-06	-1.371248e-08	-1.486312e+01	-8.956370e+02
2.630000e-06	-2.181197e-06	-1.480172e-08	-1.583628e+01	-9.684964e+02
2.640000e-06	-2.314460e-06	-1.580721e-08	-1.680382e+01	-1.036125e+03
2.650000e-06	-2.446846e-06	-1.673399e-08	-1.776499e+01	-1.098346e+03
2.660000e-06	-2.578174e-06	-1.758827e-08	-1.871848e+01	-1.155210e+03
2.670000e-06	-2.708592e-06	-1.837429e-08	-1.966537e+01	-1.206975e+03
2.680000e-06	-2.838167e-06	-1.909910e-08	-2.060612e+01	-1.254066e+03
2.690000e-06	-2.966765e-06	-1.976841e-08	-2.153979e+01	-1.297027e+03
2.700000e-06	-3.094276e-06	-2.039097e-08	-2.246557e+01	-1.336457e+03
2.710000e-06	-3.220652e-06	-2.097396e-08	-2.338310e+01	-1.372956e+03
2.720000e-06	-3.345882e-06	-2.151988e-08	-2.429232e+01	-1.407067e+03
2.730000e-06	-3.469795e-06	-2.202923e-08	-2.519197e+01	-1.439243e+03
2.740000e-06	-3.592409e-06	-2.250397e-08	-2.608219e+01	-1.469818e+03
2.750000e-06	-3.713833e-06	-2.294827e-08	-2.696378e+01	-1.499003e+03
2.760000e-06	-3.833919e-06	-2.336436e-08	-2.783565e+01	-1.526898e+03
2.770000e-06	-3.952515e-06	-2.375756e-08	-2.869670e+01	-1.553511e+03
2.780000e-06	-4.069592e-06	-2.413159e-08	-2.954672e+01	-1.578793e+03
2.790000e-06	-4.185074e-06	-2.448237e-08	-3.038516e+01	-1.602673e+03
2.800000e-06	-4.298824e-06	-2.481155e-08	-3.121103e+01	-1.625093e+03
2.810000e-06	-4.410907e-06	-2.512436e-08	-3.202479e+01	-1.646028e+03
2.820000e-06	-4.521299e-06	-2.542250e-08	-3.282627e+01	-1.665510e+03
2.830000e-06	-4.630089e-06	-2.570648e-08	-3.361613e+01	-1.683628e+03
2.840000e-06	-4.737432e-06	-2.597529e-08	-3.439548e+01	-1.700526e+03
2.850000e-06	-4.843243e-06	-2.622852e-08	-3.516370e+01	-1.716382e+03
2.860000e-06	-4.947316e-06	-2.646725e-08	-3.591931e+01	-1.731389e+03
2.870000e-06	-5.049402e-06	-2.669457e-08	-3.666049e+01	-1.745733e+03
2.880000e-06	-5.149518e-06	-2.691274e-08	-3.738737e+01	-1.759567e+03
2.890000e-06	-5.247829e-06	-2.712256e-08	-3.810114e+01	-1.772999e+03
2.900000e-06	-5.344396e-06	-2.732358e-08	-3.880226e+01	-1.786081e+03
2.910000e-06	-5.439051e-06	-2.751605e-08	-3.948949e+01	-1.798811e+03
2.920000e-06	-5.531647e-06	-2.769894e-08	-4.016177e+01	-1.811139e+03
2.930000e-06	-5.622297e-06	-2.787026e-08	-4.081992e+01	-1.822986e+03
2.940000e-06	-5.711005e-06	-2.803096e-08	-4.146398e+01	-1.834259e+03
