# Temperatura_=_75.54
# Concentracion g/m^3_=_28370.0
# C_Vs_to_Am_M_A/Vsm_=_65563218390.804596
# pendiente_HvsI_1/m_=_3716.3
# ordenada_HvsI_A/m_=_1297.0
# frecuencia_Hz_=_302374.5341181765

Tiempo_(s)	Campo_(V.s)	Magnetizacion_(V.s)	Campo_(kA/m)	Magnetizacion_(A/m)
0.000000e+00	-7.303181e-06	-3.050002e-08	-5.318621e+01	-1.996575e+03
1.000000e-08	-7.299158e-06	-3.049377e-08	-5.315691e+01	-1.995590e+03
2.000000e-08	-7.292812e-06	-3.048149e-08	-5.311069e+01	-1.994510e+03
3.000000e-08	-7.284147e-06	-3.046629e-08	-5.304759e+01	-1.993387e+03
4.000000e-08	-7.272908e-06	-3.044986e-08	-5.296574e+01	-1.992249e+03
5.000000e-08	-7.258925e-06	-3.042994e-08	-5.286391e+01	-1.991100e+03
6.000000e-08	-7.242283e-06	-3.040678e-08	-5.274272e+01	-1.989917e+03
7.000000e-08	-7.223381e-06	-3.038055e-08	-5.260506e+01	-1.988656e+03
8.000000e-08	-7.202375e-06	-3.036368e-08	-5.245208e+01	-1.987260e+03
9.000000e-08	-7.178816e-06	-3.036598e-08	-5.228051e+01	-1.985673e+03
1.000000e-07	-7.152310e-06	-3.033370e-08	-5.208748e+01	-1.983843e+03
1.100000e-07	-7.123048e-06	-3.026436e-08	-5.187437e+01	-1.981737e+03
1.200000e-07	-7.091320e-06	-3.020946e-08	-5.164331e+01	-1.979344e+03
1.300000e-07	-7.057105e-06	-3.016202e-08	-5.139413e+01	-1.976676e+03
1.400000e-07	-7.020687e-06	-3.010366e-08	-5.112891e+01	-1.973765e+03
1.500000e-07	-6.982448e-06	-3.005657e-08	-5.085043e+01	-1.970655e+03
1.600000e-07	-6.942109e-06	-3.003731e-08	-5.055667e+01	-1.967394e+03
1.700000e-07	-6.899266e-06	-2.997776e-08	-5.024466e+01	-1.964021e+03
1.800000e-07	-6.853995e-06	-2.989554e-08	-4.991497e+01	-1.960559e+03
1.900000e-07	-6.806170e-06	-2.985113e-08	-4.956667e+01	-1.957007e+03
2.000000e-07	-6.755506e-06	-2.977927e-08	-4.919771e+01	-1.953338e+03
2.100000e-07	-6.702160e-06	-2.973303e-08	-4.880921e+01	-1.949499e+03
2.200000e-07	-6.646289e-06	-2.966970e-08	-4.840232e+01	-1.945421e+03
2.300000e-07	-6.587917e-06	-2.956004e-08	-4.797722e+01	-1.941027e+03
2.400000e-07	-6.527121e-06	-2.949410e-08	-4.753447e+01	-1.936243e+03
2.500000e-07	-6.463969e-06	-2.940411e-08	-4.707456e+01	-1.931012e+03
2.600000e-07	-6.398340e-06	-2.931486e-08	-4.659661e+01	-1.925302e+03
2.700000e-07	-6.330249e-06	-2.924496e-08	-4.610073e+01	-1.919111e+03
2.800000e-07	-6.259847e-06	-2.915444e-08	-4.558801e+01	-1.912466e+03
2.900000e-07	-6.187046e-06	-2.903412e-08	-4.505783e+01	-1.905424e+03
3.000000e-07	-6.111691e-06	-2.891971e-08	-4.450905e+01	-1.898054e+03
3.100000e-07	-6.033747e-06	-2.881499e-08	-4.394142e+01	-1.890433e+03
3.200000e-07	-5.953351e-06	-2.868796e-08	-4.335592e+01	-1.882626e+03
3.300000e-07	-5.870783e-06	-2.858028e-08	-4.275461e+01	-1.874677e+03
3.400000e-07	-5.786309e-06	-2.846884e-08	-4.213942e+01	-1.866597e+03
3.500000e-07	-5.699954e-06	-2.833044e-08	-4.151053e+01	-1.858361e+03
3.600000e-07	-5.611606e-06	-2.819480e-08	-4.086713e+01	-1.849913e+03
3.700000e-07	-5.521185e-06	-2.805257e-08	-4.020863e+01	-1.841166e+03
3.800000e-07	-5.428722e-06	-2.790306e-08	-3.953526e+01	-1.832018e+03
3.900000e-07	-5.334394e-06	-2.774836e-08	-3.884830e+01	-1.822369e+03
4.000000e-07	-5.238244e-06	-2.758867e-08	-3.814808e+01	-1.812129e+03
4.100000e-07	-5.140172e-06	-2.742155e-08	-3.743386e+01	-1.801239e+03
4.200000e-07	-5.040266e-06	-2.724729e-08	-3.670628e+01	-1.789672e+03
4.300000e-07	-4.938635e-06	-2.706411e-08	-3.596615e+01	-1.777441e+03
4.400000e-07	-4.835252e-06	-2.687044e-08	-3.521324e+01	-1.764591e+03
4.500000e-07	-4.730130e-06	-2.667528e-08	-3.444769e+01	-1.751190e+03
4.600000e-07	-4.623254e-06	-2.647314e-08	-3.366935e+01	-1.737316e+03
4.700000e-07	-4.514659e-06	-2.626186e-08	-3.287849e+01	-1.723037e+03
4.800000e-07	-4.404553e-06	-2.604166e-08	-3.207664e+01	-1.708395e+03
4.900000e-07	-4.292939e-06	-2.581088e-08	-3.126379e+01	-1.693395e+03
5.000000e-07	-4.179635e-06	-2.556830e-08	-3.043865e+01	-1.677996e+03
5.100000e-07	-4.064548e-06	-2.531168e-08	-2.960052e+01	-1.662111e+03
5.200000e-07	-3.947807e-06	-2.504615e-08	-2.875033e+01	-1.645614e+03
5.300000e-07	-3.829645e-06	-2.477317e-08	-2.788981e+01	-1.628355e+03
5.400000e-07	-3.710091e-06	-2.448733e-08	-2.701914e+01	-1.610177e+03
5.500000e-07	-3.589117e-06	-2.418420e-08	-2.613813e+01	-1.590935e+03
5.600000e-07	-3.466770e-06	-2.386963e-08	-2.524713e+01	-1.570518e+03
5.700000e-07	-3.343060e-06	-2.354394e-08	-2.434620e+01	-1.548854e+03
5.800000e-07	-3.218079e-06	-2.320172e-08	-2.343601e+01	-1.525921e+03
5.900000e-07	-3.091959e-06	-2.284405e-08	-2.251753e+01	-1.501739e+03
6.000000e-07	-2.964746e-06	-2.247108e-08	-2.159109e+01	-1.476358e+03
6.100000e-07	-2.836445e-06	-2.207777e-08	-2.065672e+01	-1.449836e+03
6.200000e-07	-2.707073e-06	-2.165936e-08	-1.971455e+01	-1.422211e+03
6.300000e-07	-2.576685e-06	-2.121752e-08	-1.876499e+01	-1.393478e+03
6.400000e-07	-2.445310e-06	-2.075496e-08	-1.780823e+01	-1.363564e+03
6.500000e-07	-2.313015e-06	-2.026897e-08	-1.684478e+01	-1.332312e+03
6.600000e-07	-2.179935e-06	-1.975340e-08	-1.587562e+01	-1.299479e+03
6.700000e-07	-2.046170e-06	-1.920621e-08	-1.490145e+01	-1.264740e+03
6.800000e-07	-1.911690e-06	-1.862536e-08	-1.392209e+01	-1.227714e+03
6.900000e-07	-1.776528e-06	-1.800568e-08	-1.293776e+01	-1.187990e+03
7.000000e-07	-1.640823e-06	-1.734435e-08	-1.194947e+01	-1.145168e+03
7.100000e-07	-1.504560e-06	-1.664087e-08	-1.095712e+01	-1.098901e+03
7.200000e-07	-1.367710e-06	-1.589183e-08	-9.960499e+00	-1.048929e+03
7.300000e-07	-1.230349e-06	-1.509108e-08	-8.960150e+00	-9.951099e+02
7.400000e-07	-1.092498e-06	-1.423592e-08	-7.956234e+00	-9.374340e+02
7.500000e-07	-9.541814e-07	-1.332340e-08	-6.948929e+00	-8.760265e+02
7.600000e-07	-8.155323e-07	-1.235102e-08	-5.939203e+00	-8.111315e+02
7.700000e-07	-6.766739e-07	-1.131863e-08	-4.927951e+00	-7.430831e+02
7.800000e-07	-5.375943e-07	-1.023036e-08	-3.915089e+00	-6.722659e+02
7.900000e-07	-3.982676e-07	-9.093004e-09	-2.900427e+00	-5.990707e+02
8.000000e-07	-2.588009e-07	-7.913004e-09	-1.884746e+00	-5.238518e+02
8.100000e-07	-1.192201e-07	-6.702863e-09	-8.682332e-01	-4.468912e+02
8.200000e-07	2.052214e-08	-5.477668e-09	1.494547e-01	-3.683768e+02
8.300000e-07	1.603002e-07	-4.247491e-09	1.167404e+00	-2.883962e+02
8.400000e-07	3.000597e-07	-3.015809e-09	2.185217e+00	-2.069495e+02
8.500000e-07	4.397565e-07	-1.778692e-09	3.202575e+00	-1.239777e+02
8.600000e-07	5.792813e-07	-5.273397e-10	4.218679e+00	-3.940592e+01
8.700000e-07	7.185860e-07	7.479041e-10	5.233181e+00	4.680740e+01
8.800000e-07	8.576734e-07	2.053977e-09	6.246100e+00	1.346193e+02
8.900000e-07	9.965510e-07	3.394803e-09	7.257491e+00	2.238582e+02
9.000000e-07	1.135062e-06	4.768737e-09	8.266212e+00	3.141933e+02
9.100000e-07	1.273047e-06	6.169710e-09	9.271100e+00	4.051217e+02
9.200000e-07	1.410482e-06	7.585713e-09	1.027199e+01	4.959766e+02
9.300000e-07	1.547280e-06	8.994743e-09	1.126824e+01	5.859571e+02
9.400000e-07	1.683461e-06	1.037181e-08	1.225999e+01	6.741761e+02
9.500000e-07	1.819077e-06	1.169530e-08	1.324763e+01	7.597216e+02
9.600000e-07	1.953969e-06	1.294698e-08	1.422999e+01	8.417243e+02
9.700000e-07	2.088096e-06	1.411217e-08	1.520679e+01	9.194242e+02
9.800000e-07	2.221541e-06	1.518588e-08	1.617861e+01	9.922274e+02
9.900000e-07	2.354207e-06	1.617357e-08	1.714477e+01	1.059748e+03
1.000000e-06	2.485987e-06	1.708418e-08	1.810447e+01	1.121830e+03
1.010000e-06	2.616861e-06	1.792398e-08	1.905758e+01	1.178546e+03
1.020000e-06	2.746738e-06	1.869876e-08	2.000342e+01	1.230174e+03
1.030000e-06	2.875541e-06	1.941426e-08	2.094144e+01	1.277156e+03
1.040000e-06	3.003217e-06	2.007901e-08	2.187125e+01	1.320047e+03
1.050000e-06	3.129761e-06	2.069875e-08	2.279282e+01	1.359451e+03
1.060000e-06	3.255270e-06	2.127456e-08	2.370686e+01	1.395967e+03
1.070000e-06	3.379709e-06	2.181058e-08	2.461310e+01	1.430130e+03
1.080000e-06	3.502968e-06	2.231118e-08	2.551074e+01	1.462382e+03
1.090000e-06	3.624968e-06	2.278007e-08	2.639922e+01	1.493044e+03
1.100000e-06	3.745550e-06	2.322075e-08	2.727738e+01	1.522312e+03
1.110000e-06	3.864700e-06	2.363492e-08	2.814510e+01	1.550274e+03
1.120000e-06	3.982515e-06	2.402571e-08	2.900310e+01	1.576929e+03
1.130000e-06	4.098902e-06	2.439709e-08	2.985070e+01	1.602225e+03
1.140000e-06	4.213718e-06	2.474878e-08	3.068686e+01	1.626091e+03
1.150000e-06	4.326865e-06	2.508088e-08	3.151086e+01	1.648471e+03
1.160000e-06	4.438320e-06	2.539459e-08	3.232255e+01	1.669350e+03
1.170000e-06	4.548214e-06	2.569001e-08	3.312286e+01	1.688770e+03
1.180000e-06	4.656618e-06	2.596843e-08	3.391232e+01	1.706828e+03
1.190000e-06	4.763486e-06	2.623190e-08	3.469061e+01	1.723674e+03
1.200000e-06	4.868643e-06	2.648177e-08	3.545642e+01	1.739493e+03
1.210000e-06	4.971956e-06	2.672107e-08	3.620881e+01	1.754478e+03
1.220000e-06	5.073502e-06	2.695010e-08	3.694833e+01	1.768813e+03
1.230000e-06	5.173210e-06	2.716806e-08	3.767446e+01	1.782645e+03
1.240000e-06	5.270964e-06	2.737310e-08	3.838637e+01	1.796075e+03
1.250000e-06	5.366716e-06	2.756690e-08	3.908369e+01	1.809145e+03
1.260000e-06	5.460555e-06	2.775151e-08	3.976709e+01	1.821847e+03
1.270000e-06	5.552542e-06	2.792575e-08	4.043699e+01	1.834123e+03
1.280000e-06	5.642520e-06	2.809291e-08	4.109226e+01	1.845892e+03
1.290000e-06	5.730378e-06	2.825399e-08	4.173210e+01	1.857062e+03
1.300000e-06	5.816172e-06	2.840782e-08	4.235690e+01	1.867552e+03
1.310000e-06	5.899978e-06	2.855464e-08	4.296723e+01	1.877312e+03
1.320000e-06	5.981680e-06	2.869703e-08	4.356223e+01	1.886328e+03
1.330000e-06	6.061165e-06	2.883443e-08	4.414109e+01	1.894631e+03
1.340000e-06	6.138377e-06	2.896374e-08	4.470339e+01	1.902291e+03
1.350000e-06	6.213241e-06	2.908159e-08	4.524860e+01	1.909409e+03
1.360000e-06	6.285695e-06	2.918931e-08	4.577626e+01	1.916099e+03
1.370000e-06	6.355858e-06	2.929107e-08	4.628723e+01	1.922475e+03
1.380000e-06	6.423842e-06	2.938830e-08	4.678232e+01	1.928633e+03
1.390000e-06	6.489514e-06	2.948064e-08	4.726059e+01	1.934641e+03
1.400000e-06	6.552860e-06	2.956811e-08	4.772191e+01	1.940528e+03
1.410000e-06	6.614019e-06	2.965142e-08	4.816731e+01	1.946285e+03
1.420000e-06	6.672900e-06	2.973085e-08	4.859612e+01	1.951871e+03
1.430000e-06	6.729367e-06	2.980625e-08	4.900735e+01	1.957223e+03
1.440000e-06	6.783364e-06	2.987593e-08	4.940059e+01	1.962267e+03
1.450000e-06	6.834651e-06	2.993940e-08	4.977408e+01	1.966937e+03
1.460000e-06	6.883127e-06	2.999916e-08	5.012712e+01	1.971183e+03
1.470000e-06	6.929071e-06	3.005833e-08	5.046171e+01	1.974982e+03
1.480000e-06	6.972664e-06	3.011604e-08	5.077918e+01	1.978343e+03
1.490000e-06	7.013755e-06	3.017010e-08	5.107843e+01	1.981304e+03
1.500000e-06	7.052307e-06	3.021917e-08	5.135919e+01	1.983925e+03
1.510000e-06	7.088450e-06	3.026177e-08	5.162240e+01	1.986280e+03
1.520000e-06	7.122056e-06	3.029869e-08	5.186715e+01	1.988443e+03
1.530000e-06	7.153085e-06	3.033270e-08	5.209312e+01	1.990475e+03
1.540000e-06	7.181699e-06	3.036391e-08	5.230151e+01	1.992417e+03
1.550000e-06	7.207752e-06	3.039109e-08	5.249124e+01	1.994280e+03
1.560000e-06	7.231103e-06	3.041388e-08	5.266129e+01	1.996049e+03
1.570000e-06	7.251943e-06	3.043243e-08	5.281307e+01	1.997684e+03
1.580000e-06	7.270293e-06	3.044814e-08	5.294670e+01	1.999128e+03
1.590000e-06	7.285900e-06	3.046062e-08	5.306036e+01	2.000318e+03
1.600000e-06	7.298666e-06	3.046965e-08	5.315333e+01	2.001198e+03
1.610000e-06	7.308533e-06	3.047803e-08	5.322519e+01	2.001730e+03
1.620000e-06	7.315637e-06	3.048413e-08	5.327692e+01	2.001898e+03
1.630000e-06	7.320234e-06	3.048667e-08	5.331040e+01	2.001715e+03
1.640000e-06	7.322266e-06	3.048589e-08	5.332520e+01	2.001218e+03
1.650000e-06	7.321662e-06	3.047997e-08	5.332080e+01	2.000466e+03
1.660000e-06	7.318592e-06	3.046836e-08	5.329844e+01	1.999528e+03
1.670000e-06	7.313093e-06	3.045534e-08	5.325839e+01	1.998474e+03
1.680000e-06	7.305083e-06	3.044319e-08	5.320006e+01	1.997360e+03
1.690000e-06	7.294691e-06	3.043068e-08	5.312438e+01	1.996224e+03
1.700000e-06	7.281780e-06	3.041634e-08	5.303035e+01	1.995079e+03
1.710000e-06	7.266329e-06	3.039933e-08	5.291783e+01	1.993911e+03
1.720000e-06	7.248682e-06	3.037845e-08	5.278932e+01	1.992682e+03
1.730000e-06	7.228879e-06	3.032999e-08	5.264509e+01	1.991340e+03
1.740000e-06	7.206370e-06	3.025761e-08	5.248118e+01	1.989826e+03
1.750000e-06	7.180551e-06	3.024007e-08	5.229315e+01	1.988086e+03
1.760000e-06	7.151453e-06	3.023914e-08	5.208124e+01	1.986079e+03
1.770000e-06	7.119681e-06	3.020671e-08	5.184985e+01	1.983787e+03
1.780000e-06	7.085825e-06	3.018544e-08	5.160329e+01	1.981213e+03
1.790000e-06	7.050291e-06	3.017786e-08	5.134451e+01	1.978383e+03
1.800000e-06	7.013056e-06	3.012408e-08	5.107335e+01	1.975337e+03
1.810000e-06	6.973414e-06	3.008186e-08	5.078464e+01	1.972123e+03
1.820000e-06	6.931144e-06	3.008643e-08	5.047681e+01	1.968785e+03
1.830000e-06	6.886649e-06	3.002272e-08	5.015277e+01	1.965352e+03
1.840000e-06	6.839682e-06	2.998705e-08	4.981073e+01	1.961833e+03
1.850000e-06	6.790053e-06	2.989109e-08	4.944930e+01	1.958209e+03
1.860000e-06	6.737768e-06	2.978650e-08	4.906853e+01	1.954436e+03
1.870000e-06	6.682750e-06	2.977047e-08	4.866785e+01	1.950451e+03
1.880000e-06	6.625302e-06	2.967716e-08	4.824948e+01	1.946177e+03
1.890000e-06	6.565384e-06	2.962758e-08	4.781312e+01	1.941538e+03
1.900000e-06	6.502904e-06	2.955879e-08	4.735811e+01	1.936471e+03
1.910000e-06	6.438007e-06	2.943715e-08	4.688548e+01	1.930933e+03
1.920000e-06	6.370750e-06	2.934504e-08	4.639568e+01	1.924910e+03
1.930000e-06	6.301105e-06	2.924690e-08	4.588848e+01	1.918421e+03
1.940000e-06	6.228976e-06	2.918110e-08	4.536320e+01	1.911511e+03
1.950000e-06	6.154415e-06	2.907377e-08	4.482020e+01	1.904248e+03
1.960000e-06	6.077315e-06	2.897563e-08	4.425871e+01	1.896707e+03
1.970000e-06	5.997715e-06	2.885735e-08	4.367901e+01	1.888959e+03
1.980000e-06	5.916006e-06	2.870729e-08	4.308395e+01	1.881056e+03
1.990000e-06	5.832275e-06	2.860260e-08	4.247418e+01	1.873021e+03
2.000000e-06	5.746383e-06	2.847308e-08	4.184866e+01	1.864845e+03
2.010000e-06	5.658342e-06	2.835767e-08	4.120749e+01	1.856480e+03
2.020000e-06	5.568363e-06	2.821726e-08	4.055221e+01	1.847849e+03
2.030000e-06	5.476510e-06	2.806745e-08	3.988328e+01	1.838855e+03
2.040000e-06	5.382652e-06	2.791328e-08	3.919975e+01	1.829394e+03
2.050000e-06	5.286809e-06	2.774807e-08	3.850176e+01	1.819373e+03
2.060000e-06	5.189219e-06	2.759146e-08	3.779105e+01	1.808718e+03
2.070000e-06	5.089974e-06	2.741994e-08	3.706829e+01	1.797392e+03
2.080000e-06	4.988912e-06	2.725330e-08	3.633229e+01	1.785393e+03
2.090000e-06	4.885870e-06	2.706793e-08	3.558188e+01	1.772756e+03
2.100000e-06	4.781009e-06	2.687911e-08	3.481822e+01	1.759542e+03
2.110000e-06	4.674661e-06	2.667686e-08	3.404372e+01	1.745826e+03
2.120000e-06	4.566776e-06	2.646579e-08	3.325804e+01	1.731683e+03
2.130000e-06	4.457288e-06	2.624810e-08	3.246068e+01	1.717167e+03
2.140000e-06	4.346110e-06	2.601979e-08	3.165102e+01	1.702296e+03
2.150000e-06	4.233171e-06	2.578516e-08	3.082853e+01	1.687045e+03
2.160000e-06	4.118587e-06	2.554032e-08	2.999406e+01	1.671345e+03
2.170000e-06	4.002381e-06	2.528589e-08	2.914778e+01	1.655082e+03
2.180000e-06	3.884571e-06	2.501349e-08	2.828981e+01	1.638111e+03
2.190000e-06	3.765170e-06	2.473445e-08	2.742026e+01	1.620278e+03
2.200000e-06	3.644285e-06	2.444598e-08	2.653990e+01	1.601429e+03
2.210000e-06	3.522062e-06	2.414547e-08	2.564980e+01	1.581441e+03
2.220000e-06	3.398619e-06	2.382755e-08	2.475081e+01	1.560225e+03
2.230000e-06	3.273903e-06	2.349283e-08	2.384256e+01	1.537744e+03
2.240000e-06	3.147862e-06	2.313878e-08	2.292465e+01	1.514002e+03
2.250000e-06	3.020626e-06	2.276962e-08	2.199804e+01	1.489041e+03
2.260000e-06	2.892303e-06	2.238697e-08	2.106351e+01	1.462919e+03
2.270000e-06	2.762953e-06	2.198642e-08	2.012151e+01	1.435684e+03
2.280000e-06	2.632631e-06	2.156298e-08	1.917242e+01	1.407349e+03
2.290000e-06	2.501419e-06	2.111248e-08	1.821686e+01	1.377869e+03
2.300000e-06	2.369370e-06	2.063470e-08	1.725519e+01	1.347117e+03
2.310000e-06	2.236505e-06	2.012801e-08	1.628759e+01	1.314881e+03
2.320000e-06	2.102865e-06	1.959343e-08	1.531434e+01	1.280863e+03
2.330000e-06	1.968473e-06	1.902724e-08	1.433562e+01	1.244698e+03
2.340000e-06	1.833405e-06	1.842610e-08	1.335197e+01	1.205983e+03
2.350000e-06	1.697688e-06	1.778229e-08	1.236359e+01	1.164310e+03
2.360000e-06	1.561345e-06	1.709585e-08	1.137066e+01	1.119307e+03
2.370000e-06	1.424491e-06	1.636552e-08	1.037401e+01	1.070680e+03
2.380000e-06	1.287210e-06	1.558472e-08	9.374243e+00	1.018241e+03
2.390000e-06	1.149528e-06	1.474909e-08	8.371565e+00	9.619337e+02
2.400000e-06	1.011488e-06	1.385558e-08	7.366274e+00	9.018351e+02
2.410000e-06	8.731220e-07	1.290294e-08	6.358606e+00	8.381497e+02
2.420000e-06	7.344530e-07	1.188986e-08	5.348734e+00	7.711836e+02
2.430000e-06	5.954452e-07	1.082126e-08	4.336395e+00	7.013082e+02
2.440000e-06	4.561466e-07	9.702673e-09	3.321937e+00	6.289174e+02
2.450000e-06	3.167006e-07	8.537327e-09	2.306406e+00	5.543830e+02
2.460000e-06	1.771609e-07	7.334219e-09	1.290194e+00	4.780161e+02
2.470000e-06	3.751978e-08	6.109147e-09	2.732419e-01	4.000400e+02
2.480000e-06	-1.022192e-07	4.874762e-09	-7.444223e-01	3.205775e+02
2.490000e-06	-2.419825e-07	3.635382e-09	-1.762264e+00	2.396574e+02
2.500000e-06	-3.816397e-07	2.390655e-09	-2.779333e+00	1.572376e+02
2.510000e-06	-5.211270e-07	1.138018e-09	-3.795164e+00	7.324336e+01
2.520000e-06	-6.604332e-07	-1.298512e-10	-4.809677e+00	-1.238472e+01
2.530000e-06	-7.994485e-07	-1.423525e-09	-5.822070e+00	-9.963935e+01
2.540000e-06	-9.381366e-07	-2.750269e-09	-6.832082e+00	-1.883993e+02
2.550000e-06	-1.076518e-06	-4.113849e-09	-7.839858e+00	-2.783932e+02
2.560000e-06	-1.214573e-06	-5.513828e-09	-8.845260e+00	-3.691797e+02
2.570000e-06	-1.352236e-06	-6.937961e-09	-9.847803e+00	-4.601481e+02
2.580000e-06	-1.489410e-06	-8.364011e-09	-1.084679e+01	-5.505410e+02
2.590000e-06	-1.625960e-06	-9.766702e-09	-1.184123e+01	-6.394954e+02
2.600000e-06	-1.761871e-06	-1.112082e-08	-1.283101e+01	-7.261007e+02
2.610000e-06	-1.897171e-06	-1.240712e-08	-1.381635e+01	-8.094645e+02
2.620000e-06	-2.031799e-06	-1.361104e-08	-1.479679e+01	-8.887804e+02
2.630000e-06	-2.165609e-06	-1.472862e-08	-1.577128e+01	-9.633896e+02
2.640000e-06	-2.298494e-06	-1.576145e-08	-1.673903e+01	-1.032829e+03
2.650000e-06	-2.430476e-06	-1.671253e-08	-1.770021e+01	-1.096858e+03
2.660000e-06	-2.561546e-06	-1.759017e-08	-1.865473e+01	-1.155470e+03
2.670000e-06	-2.691681e-06	-1.839955e-08	-1.960246e+01	-1.208873e+03
2.680000e-06	-2.820885e-06	-1.914746e-08	-2.054340e+01	-1.257456e+03
2.690000e-06	-2.949114e-06	-1.983971e-08	-2.147725e+01	-1.301742e+03
2.700000e-06	-3.076291e-06	-2.048010e-08	-2.240342e+01	-1.342323e+03
2.710000e-06	-3.202352e-06	-2.107478e-08	-2.332148e+01	-1.379806e+03
2.720000e-06	-3.327181e-06	-2.163092e-08	-2.423055e+01	-1.414755e+03
2.730000e-06	-3.450745e-06	-2.215275e-08	-2.513042e+01	-1.447648e+03
2.740000e-06	-3.573154e-06	-2.264088e-08	-2.602188e+01	-1.478850e+03
2.750000e-06	-3.694307e-06	-2.309670e-08	-2.690419e+01	-1.508602e+03
2.760000e-06	-3.814043e-06	-2.352103e-08	-2.777618e+01	-1.537028e+03
2.770000e-06	-3.932364e-06	-2.392037e-08	-2.863787e+01	-1.564155e+03
2.780000e-06	-4.049143e-06	-2.430086e-08	-2.948832e+01	-1.589946e+03
2.790000e-06	-4.164268e-06	-2.466163e-08	-3.032673e+01	-1.614332e+03
2.800000e-06	-4.277771e-06	-2.500205e-08	-3.115333e+01	-1.637248e+03
2.810000e-06	-4.389545e-06	-2.532264e-08	-3.196734e+01	-1.658664e+03
2.820000e-06	-4.499571e-06	-2.562457e-08	-3.276861e+01	-1.678598e+03
2.830000e-06	-4.608076e-06	-2.591028e-08	-3.355881e+01	-1.697128e+03
2.840000e-06	-4.715164e-06	-2.618154e-08	-3.433869e+01	-1.714389e+03
2.850000e-06	-4.820734e-06	-2.643845e-08	-3.510752e+01	-1.730554e+03
2.860000e-06	-4.924544e-06	-2.668283e-08	-3.586353e+01	-1.745817e+03
2.870000e-06	-5.026444e-06	-2.691650e-08	-3.660563e+01	-1.760366e+03
2.880000e-06	-5.126453e-06	-2.714079e-08	-3.733395e+01	-1.774365e+03
2.890000e-06	-5.224692e-06	-2.735671e-08	-3.804939e+01	-1.787932e+03
2.900000e-06	-5.321131e-06	-2.756166e-08	-3.875172e+01	-1.801131e+03
2.910000e-06	-5.415608e-06	-2.775394e-08	-3.943975e+01	-1.813970e+03
2.920000e-06	-5.508077e-06	-2.793497e-08	-4.011317e+01	-1.826408e+03
2.930000e-06	-5.598610e-06	-2.810686e-08	-4.077249e+01	-1.838370e+03
2.940000e-06	-5.687244e-06	-2.827050e-08	-4.141797e+01	-1.849765e+03
