# Temperatura_=_59.63
# Concentracion g/m^3_=_41000.0
# C_Vs_to_Am_M_A/Vsm_=_65563218390.804596
# pendiente_HvsI_1/m_=_3716.3
# ordenada_HvsI_A/m_=_1297.0
# frecuencia_Hz_=_301996.4592469905

Tiempo_(s)	Campo_(V.s)	Magnetizacion_(V.s)	Campo_(kA/m)	Magnetizacion_(A/m)
0.000000e+00	-6.749615e-06	-2.530328e-08	-4.747374e+01	-1.656177e+03
1.000000e-08	-6.746462e-06	-2.530063e-08	-4.745156e+01	-1.656483e+03
2.000000e-08	-6.741124e-06	-2.529458e-08	-4.741402e+01	-1.656429e+03
3.000000e-08	-6.733708e-06	-2.528420e-08	-4.736186e+01	-1.655893e+03
4.000000e-08	-6.723982e-06	-2.527093e-08	-4.729345e+01	-1.654871e+03
5.000000e-08	-6.711790e-06	-2.525409e-08	-4.720770e+01	-1.653481e+03
6.000000e-08	-6.697118e-06	-2.523531e-08	-4.710450e+01	-1.651923e+03
7.000000e-08	-6.680016e-06	-2.521369e-08	-4.698422e+01	-1.650424e+03
8.000000e-08	-6.660731e-06	-2.520084e-08	-4.684857e+01	-1.649164e+03
9.000000e-08	-6.639100e-06	-2.521322e-08	-4.669643e+01	-1.648229e+03
1.000000e-07	-6.614783e-06	-2.521006e-08	-4.652540e+01	-1.647582e+03
1.100000e-07	-6.587804e-06	-2.516959e-08	-4.633564e+01	-1.647082e+03
1.200000e-07	-6.558503e-06	-2.513362e-08	-4.612955e+01	-1.646525e+03
1.300000e-07	-6.527294e-06	-2.508665e-08	-4.591004e+01	-1.645709e+03
1.400000e-07	-6.494313e-06	-2.501780e-08	-4.567806e+01	-1.644494e+03
1.500000e-07	-6.459326e-06	-2.500495e-08	-4.543198e+01	-1.642839e+03
1.600000e-07	-6.422248e-06	-2.502763e-08	-4.517119e+01	-1.640809e+03
1.700000e-07	-6.383167e-06	-2.499015e-08	-4.489631e+01	-1.638545e+03
1.800000e-07	-6.341778e-06	-2.497937e-08	-4.460520e+01	-1.636217e+03
1.900000e-07	-6.297925e-06	-2.492726e-08	-4.429676e+01	-1.633958e+03
2.000000e-07	-6.251812e-06	-2.483354e-08	-4.397242e+01	-1.631823e+03
2.100000e-07	-6.203294e-06	-2.483343e-08	-4.363117e+01	-1.629768e+03
2.200000e-07	-6.152071e-06	-2.482898e-08	-4.327088e+01	-1.627662e+03
2.300000e-07	-6.098334e-06	-2.479223e-08	-4.289293e+01	-1.625333e+03
2.400000e-07	-6.042347e-06	-2.471760e-08	-4.249914e+01	-1.622625e+03
2.500000e-07	-5.984046e-06	-2.464249e-08	-4.208908e+01	-1.619451e+03
2.600000e-07	-5.923428e-06	-2.459611e-08	-4.166271e+01	-1.615827e+03
2.700000e-07	-5.860708e-06	-2.453344e-08	-4.122157e+01	-1.611868e+03
2.800000e-07	-5.795908e-06	-2.450097e-08	-4.076580e+01	-1.607758e+03
2.900000e-07	-5.728851e-06	-2.446248e-08	-4.029415e+01	-1.603689e+03
3.000000e-07	-5.659640e-06	-2.438054e-08	-3.980735e+01	-1.599802e+03
3.100000e-07	-5.588365e-06	-2.430808e-08	-3.930604e+01	-1.596138e+03
3.200000e-07	-5.514934e-06	-2.425807e-08	-3.878956e+01	-1.592623e+03
3.300000e-07	-5.439253e-06	-2.421386e-08	-3.825725e+01	-1.589086e+03
3.400000e-07	-5.361319e-06	-2.413546e-08	-3.770910e+01	-1.585308e+03
3.500000e-07	-5.281206e-06	-2.405631e-08	-3.714562e+01	-1.581092e+03
3.600000e-07	-5.199148e-06	-2.397801e-08	-3.656846e+01	-1.576323e+03
3.700000e-07	-5.115446e-06	-2.389680e-08	-3.597974e+01	-1.571001e+03
3.800000e-07	-5.030116e-06	-2.383438e-08	-3.537957e+01	-1.565247e+03
3.900000e-07	-4.943125e-06	-2.376425e-08	-3.476771e+01	-1.559262e+03
4.000000e-07	-4.854442e-06	-2.368368e-08	-3.414395e+01	-1.553264e+03
4.100000e-07	-4.763962e-06	-2.358312e-08	-3.350756e+01	-1.547416e+03
4.200000e-07	-4.671780e-06	-2.348206e-08	-3.285919e+01	-1.541772e+03
4.300000e-07	-4.578042e-06	-2.338748e-08	-3.219988e+01	-1.536257e+03
4.400000e-07	-4.482769e-06	-2.329280e-08	-3.152977e+01	-1.530684e+03
4.500000e-07	-4.385864e-06	-2.319409e-08	-3.084819e+01	-1.524808e+03
4.600000e-07	-4.287253e-06	-2.308486e-08	-3.015460e+01	-1.518404e+03
4.700000e-07	-4.187105e-06	-2.297222e-08	-2.945020e+01	-1.511337e+03
4.800000e-07	-4.085524e-06	-2.285767e-08	-2.873573e+01	-1.503602e+03
4.900000e-07	-3.982592e-06	-2.274858e-08	-2.801175e+01	-1.495329e+03
5.000000e-07	-3.878228e-06	-2.263578e-08	-2.727771e+01	-1.486741e+03
5.100000e-07	-3.772308e-06	-2.251494e-08	-2.653271e+01	-1.478083e+03
5.200000e-07	-3.664913e-06	-2.238303e-08	-2.577734e+01	-1.469536e+03
5.300000e-07	-3.556138e-06	-2.224217e-08	-2.501227e+01	-1.461156e+03
5.400000e-07	-3.446187e-06	-2.209833e-08	-2.423892e+01	-1.452845e+03
5.500000e-07	-3.335103e-06	-2.195337e-08	-2.345760e+01	-1.444372e+03
5.600000e-07	-3.222660e-06	-2.180660e-08	-2.266674e+01	-1.435436e+03
5.700000e-07	-3.108780e-06	-2.165066e-08	-2.186575e+01	-1.425760e+03
5.800000e-07	-2.993534e-06	-2.148776e-08	-2.105516e+01	-1.415171e+03
5.900000e-07	-2.877032e-06	-2.131903e-08	-2.023575e+01	-1.403658e+03
6.000000e-07	-2.759459e-06	-2.114431e-08	-1.940879e+01	-1.391371e+03
6.100000e-07	-2.640977e-06	-2.096108e-08	-1.857544e+01	-1.378582e+03
6.200000e-07	-2.521566e-06	-2.077198e-08	-1.773556e+01	-1.365582e+03
6.300000e-07	-2.401107e-06	-2.057514e-08	-1.688830e+01	-1.352590e+03
6.400000e-07	-2.279701e-06	-2.036757e-08	-1.603439e+01	-1.339660e+03
6.500000e-07	-2.157470e-06	-2.015057e-08	-1.517467e+01	-1.326649e+03
6.600000e-07	-2.034393e-06	-1.992458e-08	-1.430900e+01	-1.313237e+03
6.700000e-07	-1.910578e-06	-1.969061e-08	-1.343815e+01	-1.299015e+03
6.800000e-07	-1.786139e-06	-1.944672e-08	-1.256289e+01	-1.283598e+03
6.900000e-07	-1.661066e-06	-1.919312e-08	-1.168319e+01	-1.266737e+03
7.000000e-07	-1.535476e-06	-1.892847e-08	-1.079984e+01	-1.248399e+03
7.100000e-07	-1.409498e-06	-1.864887e-08	-9.913770e+00	-1.228771e+03
7.200000e-07	-1.283149e-06	-1.835385e-08	-9.025090e+00	-1.208194e+03
7.300000e-07	-1.156384e-06	-1.804448e-08	-8.133482e+00	-1.187037e+03
7.400000e-07	-1.029224e-06	-1.771715e-08	-7.239093e+00	-1.165549e+03
7.500000e-07	-9.016976e-07	-1.737086e-08	-6.342134e+00	-1.143726e+03
7.600000e-07	-7.737974e-07	-1.700568e-08	-5.442541e+00	-1.121260e+03
7.700000e-07	-6.455997e-07	-1.661875e-08	-4.540856e+00	-1.097560e+03
7.800000e-07	-5.171506e-07	-1.620703e-08	-3.637404e+00	-1.071883e+03
7.900000e-07	-3.885606e-07	-1.576743e-08	-2.732959e+00	-1.043504e+03
8.000000e-07	-2.598553e-07	-1.529520e-08	-1.827705e+00	-1.011911e+03
8.100000e-07	-1.309512e-07	-1.478437e-08	-9.210519e-01	-9.769228e+02
8.200000e-07	-1.955376e-09	-1.423279e-08	-1.375323e-02	-9.387112e+02
8.300000e-07	1.270614e-07	-1.363827e-08	8.936924e-01	-8.976773e+02
8.400000e-07	2.560872e-07	-1.299175e-08	1.801202e+00	-8.542100e+02
8.500000e-07	3.850483e-07	-1.228407e-08	2.708256e+00	-8.083733e+02
8.600000e-07	5.138999e-07	-1.150521e-08	3.614540e+00	-7.596067e+02
8.700000e-07	6.425839e-07	-1.064513e-08	4.519645e+00	-7.065326e+02
8.800000e-07	7.710434e-07	-9.689644e-09	5.423171e+00	-6.469468e+02
8.900000e-07	8.992346e-07	-8.611913e-09	6.324810e+00	-5.780365e+02
9.000000e-07	1.027084e-06	-7.380416e-09	7.224043e+00	-4.968120e+02
9.100000e-07	1.154564e-06	-5.957759e-09	8.120685e+00	-4.006859e+02
9.200000e-07	1.281635e-06	-4.300566e-09	9.014445e+00	-2.880900e+02
9.300000e-07	1.408218e-06	-2.368930e-09	9.904771e+00	-1.589963e+02
9.400000e-07	1.534341e-06	-1.636657e-10	1.079186e+01	-1.522123e+01
9.500000e-07	1.660027e-06	2.224009e-09	1.167588e+01	1.395741e+02
9.600000e-07	1.785219e-06	4.671114e-09	1.255642e+01	3.002080e+02
9.700000e-07	1.909808e-06	7.117995e-09	1.343273e+01	4.605854e+02
9.800000e-07	2.033661e-06	9.499357e-09	1.430385e+01	6.144798e+02
9.900000e-07	2.156717e-06	1.167497e-08	1.516937e+01	7.563479e+02
1.000000e-06	2.278908e-06	1.353647e-08	1.602881e+01	8.820230e+02
1.010000e-06	2.400217e-06	1.507823e-08	1.688204e+01	9.891627e+02
1.020000e-06	2.520560e-06	1.634222e-08	1.772848e+01	1.077377e+03
1.030000e-06	2.639884e-06	1.737889e-08	1.856775e+01	1.148030e+03
1.040000e-06	2.758259e-06	1.823417e-08	1.940034e+01	1.203778e+03
1.050000e-06	2.875688e-06	1.894217e-08	2.022629e+01	1.247958e+03
1.060000e-06	2.992101e-06	1.953390e-08	2.104509e+01	1.283944e+03
1.070000e-06	3.107289e-06	2.003444e-08	2.185527e+01	1.314627e+03
1.080000e-06	3.221144e-06	2.046390e-08	2.265607e+01	1.342080e+03
1.090000e-06	3.333694e-06	2.084041e-08	2.344770e+01	1.367456e+03
1.100000e-06	3.444991e-06	2.117340e-08	2.423051e+01	1.391114e+03
1.110000e-06	3.555108e-06	2.147140e-08	2.500503e+01	1.412883e+03
1.120000e-06	3.664141e-06	2.173905e-08	2.577191e+01	1.432388e+03
1.130000e-06	3.772001e-06	2.198103e-08	2.653055e+01	1.449352e+03
1.140000e-06	3.878503e-06	2.220136e-08	2.727963e+01	1.463778e+03
1.150000e-06	3.983629e-06	2.240363e-08	2.801904e+01	1.476012e+03
1.160000e-06	4.087328e-06	2.259094e-08	2.874842e+01	1.486661e+03
1.170000e-06	4.189566e-06	2.276303e-08	2.946751e+01	1.496436e+03
1.180000e-06	4.290404e-06	2.292295e-08	3.017676e+01	1.505962e+03
1.190000e-06	4.389753e-06	2.307407e-08	3.087554e+01	1.515630e+03
1.200000e-06	4.487357e-06	2.321749e-08	3.156204e+01	1.525519e+03
1.210000e-06	4.583134e-06	2.335306e-08	3.223569e+01	1.535423e+03
1.220000e-06	4.677329e-06	2.347998e-08	3.289822e+01	1.544958e+03
1.230000e-06	4.770046e-06	2.359687e-08	3.355034e+01	1.553706e+03
1.240000e-06	4.861138e-06	2.370536e-08	3.419105e+01	1.561364e+03
1.250000e-06	4.950421e-06	2.380640e-08	3.481902e+01	1.567843e+03
1.260000e-06	5.037809e-06	2.390047e-08	3.543367e+01	1.573294e+03
1.270000e-06	5.123439e-06	2.398869e-08	3.603596e+01	1.578059e+03
1.280000e-06	5.207374e-06	2.407298e-08	3.662632e+01	1.582562e+03
1.290000e-06	5.289427e-06	2.415484e-08	3.720344e+01	1.587187e+03
1.300000e-06	5.369490e-06	2.423458e-08	3.776657e+01	1.592169e+03
1.310000e-06	5.447590e-06	2.431127e-08	3.831589e+01	1.597537e+03
1.320000e-06	5.523671e-06	2.438394e-08	3.885100e+01	1.603123e+03
1.330000e-06	5.597619e-06	2.445229e-08	3.937112e+01	1.608631e+03
1.340000e-06	5.669408e-06	2.451642e-08	3.987605e+01	1.613735e+03
1.350000e-06	5.739133e-06	2.457750e-08	4.036647e+01	1.618187e+03
1.360000e-06	5.806855e-06	2.463662e-08	4.084280e+01	1.621893e+03
1.370000e-06	5.872466e-06	2.469333e-08	4.130427e+01	1.624936e+03
1.380000e-06	5.935969e-06	2.474580e-08	4.175092e+01	1.627542e+03
1.390000e-06	5.997498e-06	2.479514e-08	4.218369e+01	1.630007e+03
1.400000e-06	6.057000e-06	2.484315e-08	4.260220e+01	1.632602e+03
1.410000e-06	6.114313e-06	2.488921e-08	4.300532e+01	1.635491e+03
1.420000e-06	6.169450e-06	2.493155e-08	4.339313e+01	1.638683e+03
1.430000e-06	6.222337e-06	2.497203e-08	4.376511e+01	1.642036e+03
1.440000e-06	6.272661e-06	2.501220e-08	4.411907e+01	1.645310e+03
1.450000e-06	6.320440e-06	2.504939e-08	4.445512e+01	1.648242e+03
1.460000e-06	6.366004e-06	2.508244e-08	4.477559e+01	1.650635e+03
1.470000e-06	6.409423e-06	2.511184e-08	4.508098e+01	1.652415e+03
1.480000e-06	6.450503e-06	2.513920e-08	4.536992e+01	1.653654e+03
1.490000e-06	6.489263e-06	2.516294e-08	4.564254e+01	1.654547e+03
1.500000e-06	6.525878e-06	2.518332e-08	4.590008e+01	1.655343e+03
1.510000e-06	6.560248e-06	2.520394e-08	4.614182e+01	1.656276e+03
1.520000e-06	6.592218e-06	2.522537e-08	4.636668e+01	1.657484e+03
1.530000e-06	6.621923e-06	2.524627e-08	4.657562e+01	1.658978e+03
1.540000e-06	6.649376e-06	2.526415e-08	4.676870e+01	1.660634e+03
1.550000e-06	6.674287e-06	2.527853e-08	4.694392e+01	1.662243e+03
1.560000e-06	6.696679e-06	2.529077e-08	4.710142e+01	1.663574e+03
1.570000e-06	6.716880e-06	2.530000e-08	4.724350e+01	1.664452e+03
1.580000e-06	6.734829e-06	2.530647e-08	4.736975e+01	1.664809e+03
1.590000e-06	6.750248e-06	2.531289e-08	4.747819e+01	1.664708e+03
1.600000e-06	6.762999e-06	2.532079e-08	4.756788e+01	1.664322e+03
1.610000e-06	6.773042e-06	2.532974e-08	4.763852e+01	1.663877e+03
1.620000e-06	6.780525e-06	2.533788e-08	4.769115e+01	1.663583e+03
1.630000e-06	6.785692e-06	2.534271e-08	4.772749e+01	1.663570e+03
1.640000e-06	6.788579e-06	2.534346e-08	4.774780e+01	1.663846e+03
1.650000e-06	6.788999e-06	2.534172e-08	4.775075e+01	1.664296e+03
1.660000e-06	6.787046e-06	2.533777e-08	4.773701e+01	1.664720e+03
1.670000e-06	6.782948e-06	2.533060e-08	4.770819e+01	1.664895e+03
1.680000e-06	6.776547e-06	2.532422e-08	4.766317e+01	1.664645e+03
1.690000e-06	6.767875e-06	2.531675e-08	4.760217e+01	1.663897e+03
1.700000e-06	6.757093e-06	2.530841e-08	4.752634e+01	1.662699e+03
1.710000e-06	6.744034e-06	2.530186e-08	4.743449e+01	1.661212e+03
1.720000e-06	6.728673e-06	2.529978e-08	4.732644e+01	1.659655e+03
1.730000e-06	6.711226e-06	2.528346e-08	4.720373e+01	1.658243e+03
1.740000e-06	6.691485e-06	2.523108e-08	4.706488e+01	1.657121e+03
1.750000e-06	6.668711e-06	2.520521e-08	4.690470e+01	1.656323e+03
1.760000e-06	6.642793e-06	2.520732e-08	4.672240e+01	1.655764e+03
1.770000e-06	6.614353e-06	2.519425e-08	4.652237e+01	1.655268e+03
1.780000e-06	6.583804e-06	2.521211e-08	4.630750e+01	1.654625e+03
1.790000e-06	6.551687e-06	2.522960e-08	4.608161e+01	1.653652e+03
1.800000e-06	6.518048e-06	2.517710e-08	4.584501e+01	1.652250e+03
1.810000e-06	6.482102e-06	2.517570e-08	4.559218e+01	1.650423e+03
1.820000e-06	6.443712e-06	2.516202e-08	4.532216e+01	1.648274e+03
1.830000e-06	6.403148e-06	2.509433e-08	4.503685e+01	1.645965e+03
1.840000e-06	6.360432e-06	2.511666e-08	4.473640e+01	1.643657e+03
1.850000e-06	6.315636e-06	2.507876e-08	4.442133e+01	1.641452e+03
1.860000e-06	6.268516e-06	2.502220e-08	4.408991e+01	1.639365e+03
1.870000e-06	6.218996e-06	2.497279e-08	4.374161e+01	1.637310e+03
1.880000e-06	6.167146e-06	2.488555e-08	4.337692e+01	1.635133e+03
1.890000e-06	6.112595e-06	2.489730e-08	4.299323e+01	1.632660e+03
1.900000e-06	6.055625e-06	2.485590e-08	4.259253e+01	1.629759e+03
1.910000e-06	5.996525e-06	2.481082e-08	4.217684e+01	1.626387e+03
1.920000e-06	5.935204e-06	2.477405e-08	4.174554e+01	1.622602e+03
1.930000e-06	5.871681e-06	2.467721e-08	4.129875e+01	1.618556e+03
1.940000e-06	5.805911e-06	2.465834e-08	4.083616e+01	1.614444e+03
1.950000e-06	5.738006e-06	2.460099e-08	4.035854e+01	1.610443e+03
1.960000e-06	5.667864e-06	2.454900e-08	3.986519e+01	1.606656e+03
1.970000e-06	5.595505e-06	2.448958e-08	3.935625e+01	1.603074e+03
1.980000e-06	5.521100e-06	2.440357e-08	3.883292e+01	1.599577e+03
1.990000e-06	5.444572e-06	2.435715e-08	3.829466e+01	1.595966e+03
2.000000e-06	5.365865e-06	2.427899e-08	3.774107e+01	1.592023e+03
2.010000e-06	5.285102e-06	2.423755e-08	3.717302e+01	1.587580e+03
2.020000e-06	5.202543e-06	2.415528e-08	3.659234e+01	1.582569e+03
2.030000e-06	5.118245e-06	2.405734e-08	3.599942e+01	1.577043e+03
2.040000e-06	5.032059e-06	2.398287e-08	3.539323e+01	1.571166e+03
2.050000e-06	4.944012e-06	2.390297e-08	3.477394e+01	1.565153e+03
2.060000e-06	4.854296e-06	2.384160e-08	3.414292e+01	1.559206e+03
2.070000e-06	4.763029e-06	2.374089e-08	3.350099e+01	1.553449e+03
2.080000e-06	4.670106e-06	2.365341e-08	3.284742e+01	1.547880e+03
2.090000e-06	4.575376e-06	2.355582e-08	3.218112e+01	1.542370e+03
2.100000e-06	4.478977e-06	2.345979e-08	3.150310e+01	1.536700e+03
2.110000e-06	4.381188e-06	2.336565e-08	3.081530e+01	1.530624e+03
2.120000e-06	4.282048e-06	2.326538e-08	3.011799e+01	1.523948e+03
2.130000e-06	4.181411e-06	2.316468e-08	2.941015e+01	1.516589e+03
2.140000e-06	4.079101e-06	2.304556e-08	2.869055e+01	1.508603e+03
2.150000e-06	3.975126e-06	2.292988e-08	2.795924e+01	1.500167e+03
2.160000e-06	3.869766e-06	2.280420e-08	2.721819e+01	1.491523e+03
2.170000e-06	3.763170e-06	2.268438e-08	2.646844e+01	1.482899e+03
2.180000e-06	3.655311e-06	2.255859e-08	2.570981e+01	1.474428e+03
2.190000e-06	3.546154e-06	2.243136e-08	2.494204e+01	1.466101e+03
2.200000e-06	3.435663e-06	2.229360e-08	2.416490e+01	1.457757e+03
2.210000e-06	3.323782e-06	2.214585e-08	2.337798e+01	1.449125e+03
2.220000e-06	3.210574e-06	2.199481e-08	2.258173e+01	1.439904e+03
2.230000e-06	3.096127e-06	2.184056e-08	2.177676e+01	1.429852e+03
2.240000e-06	2.980405e-06	2.168629e-08	2.096282e+01	1.418860e+03
2.250000e-06	2.863458e-06	2.152273e-08	2.014027e+01	1.406991e+03
2.260000e-06	2.745394e-06	2.135029e-08	1.930986e+01	1.394454e+03
2.270000e-06	2.626195e-06	2.116476e-08	1.847147e+01	1.381543e+03
2.280000e-06	2.505888e-06	2.097388e-08	1.762528e+01	1.368531e+03
2.290000e-06	2.384711e-06	2.077790e-08	1.677298e+01	1.355573e+03
2.300000e-06	2.262833e-06	2.057750e-08	1.591574e+01	1.342639e+03
2.310000e-06	2.140283e-06	2.036485e-08	1.505379e+01	1.329505e+03
2.320000e-06	2.017061e-06	2.013976e-08	1.418710e+01	1.315800e+03
2.330000e-06	1.893100e-06	1.990314e-08	1.331521e+01	1.301110e+03
2.340000e-06	1.768403e-06	1.965590e-08	1.243815e+01	1.285095e+03
2.350000e-06	1.643084e-06	1.939809e-08	1.155671e+01	1.267594e+03
2.360000e-06	1.517274e-06	1.912686e-08	1.067182e+01	1.248671e+03
2.370000e-06	1.390983e-06	1.884212e-08	9.783543e+00	1.228592e+03
2.380000e-06	1.264188e-06	1.854202e-08	8.891725e+00	1.207727e+03
2.390000e-06	1.136949e-06	1.822757e-08	7.996788e+00	1.186413e+03
2.400000e-06	1.009263e-06	1.789547e-08	7.098699e+00	1.164801e+03
2.410000e-06	8.811604e-07	1.754267e-08	6.197684e+00	1.142761e+03
2.420000e-06	7.527472e-07	1.716583e-08	5.294483e+00	1.119854e+03
2.430000e-06	6.240855e-07	1.676543e-08	4.389536e+00	1.095403e+03
2.440000e-06	4.952154e-07	1.634029e-08	3.483122e+00	1.068650e+03
2.450000e-06	3.662057e-07	1.588871e-08	2.575726e+00	1.038942e+03
2.460000e-06	2.370644e-07	1.540332e-08	1.667404e+00	1.005896e+03
2.470000e-06	1.078541e-07	1.487546e-08	7.585970e-01	9.694904e+02
2.480000e-06	-2.135803e-08	1.430573e-08	-1.502227e-01	9.300165e+02
2.490000e-06	-1.506285e-07	1.369050e-08	-1.059453e+00	8.879060e+02
2.500000e-06	-2.798716e-07	1.302260e-08	-1.968491e+00	8.434480e+02
2.510000e-06	-4.089979e-07	1.229286e-08	-2.876707e+00	7.964716e+02
2.520000e-06	-5.380752e-07	1.148977e-08	-3.784578e+00	7.460804e+02
2.530000e-06	-6.670619e-07	1.059703e-08	-4.691812e+00	6.905308e+02
2.540000e-06	-7.958608e-07	9.595978e-09	-5.597725e+00	6.273179e+02
2.550000e-06	-9.243458e-07	8.463079e-09	-6.501431e+00	5.534894e+02
2.560000e-06	-1.052432e-06	7.165914e-09	-7.402332e+00	4.661519e+02
2.570000e-06	-1.180105e-06	5.664304e-09	-8.300325e+00	3.630819e+02
2.580000e-06	-1.307287e-06	3.912038e-09	-9.194866e+00	2.433177e+02
2.590000e-06	-1.433941e-06	1.876132e-09	-1.008569e+01	1.076007e+02
2.600000e-06	-1.560097e-06	-4.261169e-10	-1.097302e+01	-4.144293e+01
2.610000e-06	-1.685723e-06	-2.893327e-09	-1.185662e+01	-1.994424e+02
2.620000e-06	-1.810694e-06	-5.409071e-09	-1.273560e+01	-3.607370e+02
2.630000e-06	-1.934869e-06	-7.903210e-09	-1.360899e+01	-5.190743e+02
2.640000e-06	-2.058208e-06	-1.026411e-08	-1.447651e+01	-6.684244e+02
2.650000e-06	-2.180723e-06	-1.235282e-08	-1.533822e+01	-8.037609e+02
2.660000e-06	-2.302461e-06	-1.411415e-08	-1.619447e+01	-9.216621e+02
2.670000e-06	-2.423451e-06	-1.556756e-08	-1.704546e+01	-1.020626e+03
2.680000e-06	-2.543568e-06	-1.675726e-08	-1.789031e+01	-1.101056e+03
2.690000e-06	-2.662651e-06	-1.773043e-08	-1.872788e+01	-1.164939e+03
2.700000e-06	-2.780632e-06	-1.853085e-08	-1.955771e+01	-1.215303e+03
2.710000e-06	-2.897488e-06	-1.919771e-08	-2.037962e+01	-1.255573e+03
2.720000e-06	-3.013161e-06	-1.976135e-08	-2.119321e+01	-1.288973e+03
2.730000e-06	-3.127524e-06	-2.024230e-08	-2.199759e+01	-1.318070e+03
2.740000e-06	-3.240473e-06	-2.065701e-08	-2.279202e+01	-1.344540e+03
2.750000e-06	-3.352123e-06	-2.101801e-08	-2.357732e+01	-1.369172e+03
2.760000e-06	-3.462513e-06	-2.133556e-08	-2.435375e+01	-1.392058e+03
2.770000e-06	-3.571726e-06	-2.161860e-08	-2.512191e+01	-1.412900e+03
2.780000e-06	-3.679867e-06	-2.187351e-08	-2.588252e+01	-1.431335e+03
2.790000e-06	-3.786859e-06	-2.210677e-08	-2.663506e+01	-1.447188e+03
2.800000e-06	-3.892659e-06	-2.232252e-08	-2.737920e+01	-1.460612e+03
2.810000e-06	-3.997053e-06	-2.252228e-08	-2.811346e+01	-1.472079e+03
2.820000e-06	-4.099851e-06	-2.270686e-08	-2.883650e+01	-1.482265e+03
2.830000e-06	-4.201077e-06	-2.287627e-08	-2.954848e+01	-1.491865e+03
2.840000e-06	-4.300813e-06	-2.303202e-08	-3.024998e+01	-1.501420e+03
2.850000e-06	-4.399174e-06	-2.317754e-08	-3.094180e+01	-1.511188e+03
2.860000e-06	-4.496122e-06	-2.331381e-08	-3.162369e+01	-1.521120e+03
2.870000e-06	-4.591415e-06	-2.344193e-08	-3.229394e+01	-1.530917e+03
2.880000e-06	-4.684973e-06	-2.356224e-08	-3.295198e+01	-1.540159e+03
2.890000e-06	-4.776856e-06	-2.367433e-08	-3.359825e+01	-1.548464e+03
2.900000e-06	-4.867081e-06	-2.377868e-08	-3.423285e+01	-1.555611e+03
2.910000e-06	-4.955610e-06	-2.387689e-08	-3.485552e+01	-1.561616e+03
2.920000e-06	-5.042268e-06	-2.397022e-08	-3.546503e+01	-1.566721e+03
2.930000e-06	-5.126952e-06	-2.405936e-08	-3.606067e+01	-1.571319e+03
2.940000e-06	-5.209832e-06	-2.414514e-08	-3.664361e+01	-1.575831e+03
