# Temperatura_=_36.42
# Concentracion g/m^3_=_41000.0
# C_Vs_to_Am_M_A/Vsm_=_65563218390.804596
# pendiente_HvsI_1/m_=_3716.3
# ordenada_HvsI_A/m_=_1297.0
# frecuencia_Hz_=_301999.5736187033

Tiempo_(s)	Campo_(V.s)	Magnetizacion_(V.s)	Campo_(kA/m)	Magnetizacion_(A/m)
0.000000e+00	-6.748108e-06	-2.488159e-08	-4.747128e+01	-1.628230e+03
1.000000e-08	-6.744744e-06	-2.487575e-08	-4.744762e+01	-1.628631e+03
2.000000e-08	-6.739159e-06	-2.486994e-08	-4.740833e+01	-1.628813e+03
3.000000e-08	-6.731484e-06	-2.486312e-08	-4.735433e+01	-1.628578e+03
4.000000e-08	-6.721463e-06	-2.485158e-08	-4.728384e+01	-1.627829e+03
5.000000e-08	-6.708945e-06	-2.483625e-08	-4.719578e+01	-1.626598e+03
6.000000e-08	-6.693911e-06	-2.481647e-08	-4.709002e+01	-1.625036e+03
7.000000e-08	-6.676516e-06	-2.479384e-08	-4.696765e+01	-1.623373e+03
8.000000e-08	-6.657069e-06	-2.479470e-08	-4.683085e+01	-1.621841e+03
9.000000e-08	-6.635298e-06	-2.480450e-08	-4.667769e+01	-1.620609e+03
1.000000e-07	-6.610732e-06	-2.477725e-08	-4.650488e+01	-1.619734e+03
1.100000e-07	-6.583465e-06	-2.474076e-08	-4.631306e+01	-1.619142e+03
1.200000e-07	-6.553934e-06	-2.471711e-08	-4.610532e+01	-1.618656e+03
1.300000e-07	-6.522563e-06	-2.465100e-08	-4.588463e+01	-1.618048e+03
1.400000e-07	-6.489441e-06	-2.459913e-08	-4.565162e+01	-1.617112e+03
1.500000e-07	-6.454284e-06	-2.464219e-08	-4.540430e+01	-1.615721e+03
1.600000e-07	-6.416993e-06	-2.460087e-08	-4.514197e+01	-1.613864e+03
1.700000e-07	-6.377680e-06	-2.457721e-08	-4.486542e+01	-1.611640e+03
1.800000e-07	-6.336028e-06	-2.457964e-08	-4.457240e+01	-1.609223e+03
1.900000e-07	-6.291911e-06	-2.448118e-08	-4.426205e+01	-1.606800e+03
2.000000e-07	-6.245554e-06	-2.443967e-08	-4.393594e+01	-1.604509e+03
2.100000e-07	-6.196681e-06	-2.442468e-08	-4.359213e+01	-1.602391e+03
2.200000e-07	-6.145205e-06	-2.443114e-08	-4.323001e+01	-1.600378e+03
2.300000e-07	-6.091314e-06	-2.440953e-08	-4.285090e+01	-1.598312e+03
2.400000e-07	-6.035108e-06	-2.431391e-08	-4.245550e+01	-1.596001e+03
2.500000e-07	-5.976590e-06	-2.426246e-08	-4.204384e+01	-1.593281e+03
2.600000e-07	-5.915784e-06	-2.421007e-08	-4.161608e+01	-1.590068e+03
2.700000e-07	-5.852878e-06	-2.414145e-08	-4.117356e+01	-1.586394e+03
2.800000e-07	-5.787828e-06	-2.411686e-08	-4.071595e+01	-1.582395e+03
2.900000e-07	-5.720536e-06	-2.407780e-08	-4.024257e+01	-1.578270e+03
3.000000e-07	-5.651095e-06	-2.400089e-08	-3.975407e+01	-1.574219e+03
3.100000e-07	-5.579612e-06	-2.392505e-08	-3.925120e+01	-1.570378e+03
3.200000e-07	-5.505971e-06	-2.389046e-08	-3.873315e+01	-1.566770e+03
3.300000e-07	-5.430053e-06	-2.383150e-08	-3.819909e+01	-1.563300e+03
3.400000e-07	-5.351919e-06	-2.375789e-08	-3.764944e+01	-1.559773e+03
3.500000e-07	-5.271616e-06	-2.369791e-08	-3.708452e+01	-1.555961e+03
3.600000e-07	-5.189395e-06	-2.361327e-08	-3.650612e+01	-1.551665e+03
3.700000e-07	-5.105527e-06	-2.353982e-08	-3.591613e+01	-1.546786e+03
3.800000e-07	-5.020052e-06	-2.347313e-08	-3.531483e+01	-1.541348e+03
3.900000e-07	-4.932953e-06	-2.340151e-08	-3.470211e+01	-1.535498e+03
4.000000e-07	-4.844114e-06	-2.331771e-08	-3.407715e+01	-1.529458e+03
4.100000e-07	-4.753488e-06	-2.322409e-08	-3.343962e+01	-1.523454e+03
4.200000e-07	-4.661231e-06	-2.313235e-08	-3.279062e+01	-1.517640e+03
4.300000e-07	-4.567363e-06	-2.304205e-08	-3.213028e+01	-1.512049e+03
4.400000e-07	-4.471880e-06	-2.295106e-08	-3.145857e+01	-1.506578e+03
4.500000e-07	-4.374744e-06	-2.285051e-08	-3.077525e+01	-1.501010e+03
4.600000e-07	-4.275941e-06	-2.274691e-08	-3.008019e+01	-1.495086e+03
4.700000e-07	-4.175591e-06	-2.263672e-08	-2.937426e+01	-1.488579e+03
4.800000e-07	-4.073808e-06	-2.252684e-08	-2.865824e+01	-1.481367e+03
4.900000e-07	-3.970616e-06	-2.242162e-08	-2.793231e+01	-1.473473e+03
5.000000e-07	-3.865983e-06	-2.231215e-08	-2.719624e+01	-1.465059e+03
5.100000e-07	-3.759912e-06	-2.219280e-08	-2.645006e+01	-1.456373e+03
5.200000e-07	-3.652399e-06	-2.206218e-08	-2.569373e+01	-1.447670e+03
5.300000e-07	-3.543566e-06	-2.192584e-08	-2.492811e+01	-1.439127e+03
5.400000e-07	-3.433557e-06	-2.178711e-08	-2.415423e+01	-1.430774e+03
5.500000e-07	-3.322310e-06	-2.164708e-08	-2.337163e+01	-1.422481e+03
5.600000e-07	-3.209700e-06	-2.150268e-08	-2.257945e+01	-1.413984e+03
5.700000e-07	-3.095690e-06	-2.135309e-08	-2.177742e+01	-1.404961e+03
5.800000e-07	-2.980326e-06	-2.119503e-08	-2.096586e+01	-1.395129e+03
5.900000e-07	-2.863714e-06	-2.102986e-08	-2.014552e+01	-1.384330e+03
6.000000e-07	-2.746034e-06	-2.085991e-08	-1.931768e+01	-1.372583e+03
6.100000e-07	-2.627434e-06	-2.068612e-08	-1.848335e+01	-1.360078e+03
6.200000e-07	-2.507884e-06	-2.050425e-08	-1.764235e+01	-1.347118e+03
6.300000e-07	-2.387364e-06	-2.031116e-08	-1.679452e+01	-1.334016e+03
6.400000e-07	-2.265947e-06	-2.010988e-08	-1.594038e+01	-1.320989e+03
6.500000e-07	-2.143696e-06	-1.990078e-08	-1.508037e+01	-1.308069e+03
6.600000e-07	-2.020645e-06	-1.968446e-08	-1.421474e+01	-1.295080e+03
6.700000e-07	-1.896780e-06	-1.946033e-08	-1.334338e+01	-1.281668e+03
6.800000e-07	-1.772182e-06	-1.922686e-08	-1.246686e+01	-1.267395e+03
6.900000e-07	-1.647025e-06	-1.898303e-08	-1.158642e+01	-1.251866e+03
7.000000e-07	-1.521475e-06	-1.872794e-08	-1.070320e+01	-1.234845e+03
7.100000e-07	-1.395560e-06	-1.846055e-08	-9.817421e+00	-1.216328e+03
7.200000e-07	-1.269192e-06	-1.818273e-08	-8.928454e+00	-1.196540e+03
7.300000e-07	-1.142399e-06	-1.789242e-08	-8.036499e+00	-1.175853e+03
7.400000e-07	-1.015209e-06	-1.758253e-08	-7.141746e+00	-1.154654e+03
7.500000e-07	-8.876588e-07	-1.725269e-08	-6.244462e+00	-1.133184e+03
7.600000e-07	-7.597645e-07	-1.690354e-08	-5.344757e+00	-1.111414e+03
7.700000e-07	-6.315501e-07	-1.653466e-08	-4.442800e+00	-1.088994e+03
7.800000e-07	-5.030942e-07	-1.614535e-08	-3.539145e+00	-1.065296e+03
7.900000e-07	-3.744390e-07	-1.573390e-08	-2.634087e+00	-1.039552e+03
8.000000e-07	-2.456355e-07	-1.529438e-08	-1.727986e+00	-1.011045e+03
8.100000e-07	-1.167295e-07	-1.482138e-08	-8.211633e-01	-9.792983e+02
8.200000e-07	1.223242e-08	-1.431152e-08	8.605204e-02	-9.441944e+02
8.300000e-07	1.411803e-07	-1.376125e-08	9.931688e-01	-9.059786e+02
8.400000e-07	2.701635e-07	-1.316750e-08	1.900534e+00	-8.651185e+02
8.500000e-07	3.991522e-07	-1.252521e-08	2.807937e+00	-8.220434e+02
8.600000e-07	5.279685e-07	-1.182632e-08	3.714129e+00	-7.768205e+02
8.700000e-07	6.565905e-07	-1.105869e-08	4.618953e+00	-7.288559e+02
8.800000e-07	7.850471e-07	-1.021052e-08	5.522614e+00	-6.767147e+02
8.900000e-07	9.132637e-07	-9.266295e-09	6.424586e+00	-6.181354e+02
9.000000e-07	1.041116e-06	-8.203552e-09	7.323996e+00	-5.502749e+02
9.100000e-07	1.168503e-06	-6.990623e-09	8.220131e+00	-4.701649e+02
9.200000e-07	1.295410e-06	-5.592018e-09	9.112889e+00	-3.753036e+02
9.300000e-07	1.421903e-06	-3.967896e-09	1.000274e+01	-2.642677e+02
9.400000e-07	1.547967e-06	-2.083380e-09	1.088957e+01	-1.372102e+02
9.500000e-07	1.673516e-06	6.600752e-11	1.177278e+01	3.874412e+00
9.600000e-07	1.798521e-06	2.413121e-09	1.265215e+01	1.551953e+02
9.700000e-07	1.922969e-06	4.846497e-09	1.352762e+01	3.115331e+02
9.800000e-07	2.046788e-06	7.272782e-09	1.439865e+01	4.668743e+02
9.900000e-07	2.169806e-06	9.570022e-09	1.526405e+01	6.152006e+02
1.000000e-06	2.291932e-06	1.161589e-08	1.612318e+01	7.512827e+02
1.010000e-06	2.413198e-06	1.336326e-08	1.697626e+01	8.713302e+02
1.020000e-06	2.533495e-06	1.482291e-08	1.782252e+01	9.733812e+02
1.030000e-06	2.652736e-06	1.603379e-08	1.866135e+01	1.057367e+03
1.040000e-06	2.770993e-06	1.704041e-08	1.949326e+01	1.124863e+03
1.050000e-06	2.888288e-06	1.788095e-08	2.031840e+01	1.178595e+03
1.060000e-06	3.004559e-06	1.858397e-08	2.113634e+01	1.221819e+03
1.070000e-06	3.119604e-06	1.917625e-08	2.194565e+01	1.257711e+03
1.080000e-06	3.233327e-06	1.967943e-08	2.274566e+01	1.288881e+03
1.090000e-06	3.345747e-06	2.011249e-08	2.353651e+01	1.317102e+03
1.100000e-06	3.456876e-06	2.049194e-08	2.431827e+01	1.343263e+03
1.110000e-06	3.566885e-06	2.082720e-08	2.509216e+01	1.367533e+03
1.120000e-06	3.675789e-06	2.112549e-08	2.585827e+01	1.389649e+03
1.130000e-06	3.783494e-06	2.139386e-08	2.661595e+01	1.409243e+03
1.140000e-06	3.889879e-06	2.163926e-08	2.736434e+01	1.426113e+03
1.150000e-06	3.994811e-06	2.186329e-08	2.810252e+01	1.440378e+03
1.160000e-06	4.098219e-06	2.206958e-08	2.882996e+01	1.452493e+03
1.170000e-06	4.200148e-06	2.225988e-08	2.954701e+01	1.463143e+03
1.180000e-06	4.300755e-06	2.243591e-08	3.025476e+01	1.473064e+03
1.190000e-06	4.399908e-06	2.259962e-08	3.095227e+01	1.482854e+03
1.200000e-06	4.497346e-06	2.275081e-08	3.163773e+01	1.492835e+03
1.210000e-06	4.593014e-06	2.289041e-08	3.231073e+01	1.503007e+03
1.220000e-06	4.687023e-06	2.302239e-08	3.297205e+01	1.513092e+03
1.230000e-06	4.779496e-06	2.314660e-08	3.362258e+01	1.522665e+03
1.240000e-06	4.870370e-06	2.326341e-08	3.426186e+01	1.531310e+03
1.250000e-06	4.959455e-06	2.337301e-08	3.488855e+01	1.538760e+03
1.260000e-06	5.046657e-06	2.347459e-08	3.550200e+01	1.544988e+03
1.270000e-06	5.132081e-06	2.356962e-08	3.610293e+01	1.550208e+03
1.280000e-06	5.215846e-06	2.365771e-08	3.669219e+01	1.554812e+03
1.290000e-06	5.297752e-06	2.374159e-08	3.726838e+01	1.559246e+03
1.300000e-06	5.377618e-06	2.382187e-08	3.783022e+01	1.563884e+03
1.310000e-06	5.455502e-06	2.389858e-08	3.837811e+01	1.568924e+03
1.320000e-06	5.531312e-06	2.397192e-08	3.891142e+01	1.574347e+03
1.330000e-06	5.604911e-06	2.404192e-08	3.942917e+01	1.579939e+03
1.340000e-06	5.676369e-06	2.410807e-08	3.993186e+01	1.585375e+03
1.350000e-06	5.745831e-06	2.417068e-08	4.042051e+01	1.590326e+03
1.360000e-06	5.813338e-06	2.423155e-08	4.089541e+01	1.594566e+03
1.370000e-06	5.878738e-06	2.429030e-08	4.135548e+01	1.598036e+03
1.380000e-06	5.941996e-06	2.434496e-08	4.180048e+01	1.600861e+03
1.390000e-06	6.003297e-06	2.439599e-08	4.223172e+01	1.603298e+03
1.400000e-06	6.062574e-06	2.444400e-08	4.264872e+01	1.605654e+03
1.410000e-06	6.119641e-06	2.448837e-08	4.305017e+01	1.608189e+03
1.420000e-06	6.174524e-06	2.452826e-08	4.343626e+01	1.611037e+03
1.430000e-06	6.227114e-06	2.456710e-08	4.380622e+01	1.614168e+03
1.440000e-06	6.277102e-06	2.460553e-08	4.415787e+01	1.617407e+03
1.450000e-06	6.324593e-06	2.463963e-08	4.449196e+01	1.620494e+03
1.460000e-06	6.369890e-06	2.467186e-08	4.481061e+01	1.623168e+03
1.470000e-06	6.413018e-06	2.470197e-08	4.511401e+01	1.625256e+03
1.480000e-06	6.453808e-06	2.472767e-08	4.540095e+01	1.626721e+03
1.490000e-06	6.492283e-06	2.475041e-08	4.567162e+01	1.627676e+03
1.500000e-06	6.528636e-06	2.477016e-08	4.592735e+01	1.628347e+03
1.510000e-06	6.562711e-06	2.478989e-08	4.616706e+01	1.628999e+03
1.520000e-06	6.594319e-06	2.480991e-08	4.638942e+01	1.629856e+03
1.530000e-06	6.623698e-06	2.483001e-08	4.659609e+01	1.631033e+03
1.540000e-06	6.650916e-06	2.484887e-08	4.678756e+01	1.632501e+03
1.550000e-06	6.675655e-06	2.486340e-08	4.696159e+01	1.634105e+03
1.560000e-06	6.697882e-06	2.487496e-08	4.711795e+01	1.635610e+03
1.570000e-06	6.717879e-06	2.488453e-08	4.725863e+01	1.636782e+03
1.580000e-06	6.735526e-06	2.489259e-08	4.738277e+01	1.637460e+03
1.590000e-06	6.750583e-06	2.489891e-08	4.748869e+01	1.637605e+03
1.600000e-06	6.763123e-06	2.490472e-08	4.757691e+01	1.637314e+03
1.610000e-06	6.773019e-06	2.491125e-08	4.764653e+01	1.636787e+03
1.620000e-06	6.780268e-06	2.491732e-08	4.769752e+01	1.636264e+03
1.630000e-06	6.785167e-06	2.492177e-08	4.773199e+01	1.635948e+03
1.640000e-06	6.787714e-06	2.492315e-08	4.774990e+01	1.635945e+03
1.650000e-06	6.787835e-06	2.492314e-08	4.775075e+01	1.636228e+03
1.660000e-06	6.785683e-06	2.491718e-08	4.773562e+01	1.636649e+03
1.670000e-06	6.781378e-06	2.490922e-08	4.770533e+01	1.636987e+03
1.680000e-06	6.774781e-06	2.490172e-08	4.765892e+01	1.637012e+03
1.690000e-06	6.765946e-06	2.489308e-08	4.759677e+01	1.636564e+03
1.700000e-06	6.755019e-06	2.488491e-08	4.751990e+01	1.635599e+03
1.710000e-06	6.741748e-06	2.488049e-08	4.742654e+01	1.634204e+03
1.720000e-06	6.726062e-06	2.488311e-08	4.731620e+01	1.632571e+03
1.730000e-06	6.708260e-06	2.484665e-08	4.719096e+01	1.630940e+03
1.740000e-06	6.688133e-06	2.479741e-08	4.704938e+01	1.629524e+03
1.750000e-06	6.664910e-06	2.479319e-08	4.688601e+01	1.628449e+03
1.760000e-06	6.638592e-06	2.478141e-08	4.670086e+01	1.627713e+03
1.770000e-06	6.609853e-06	2.476979e-08	4.649869e+01	1.627195e+03
1.780000e-06	6.579145e-06	2.481384e-08	4.628267e+01	1.626687e+03
1.790000e-06	6.546987e-06	2.476608e-08	4.605644e+01	1.625963e+03
1.800000e-06	6.513168e-06	2.472503e-08	4.581854e+01	1.624843e+03
1.810000e-06	6.476876e-06	2.476174e-08	4.556323e+01	1.623249e+03
1.820000e-06	6.438223e-06	2.469519e-08	4.529132e+01	1.621219e+03
1.830000e-06	6.397468e-06	2.470571e-08	4.500462e+01	1.618891e+03
1.840000e-06	6.354550e-06	2.470094e-08	4.470270e+01	1.616453e+03
1.850000e-06	6.309514e-06	2.463632e-08	4.438588e+01	1.614077e+03
1.860000e-06	6.262090e-06	2.463276e-08	4.405227e+01	1.611864e+03
1.870000e-06	6.212333e-06	2.451039e-08	4.370224e+01	1.609808e+03
1.880000e-06	6.160206e-06	2.447745e-08	4.333553e+01	1.607797e+03
1.890000e-06	6.105376e-06	2.448702e-08	4.294982e+01	1.605652e+03
1.900000e-06	6.048165e-06	2.442068e-08	4.254735e+01	1.603184e+03
1.910000e-06	5.988781e-06	2.443738e-08	4.212960e+01	1.600259e+03
1.920000e-06	5.927210e-06	2.435380e-08	4.169647e+01	1.596841e+03
1.930000e-06	5.863472e-06	2.427982e-08	4.124808e+01	1.593008e+03
1.940000e-06	5.797546e-06	2.424602e-08	4.078431e+01	1.588931e+03
1.950000e-06	5.729505e-06	2.418834e-08	4.030566e+01	1.584818e+03
1.960000e-06	5.659139e-06	2.415544e-08	3.981065e+01	1.580848e+03
1.970000e-06	5.586561e-06	2.407259e-08	3.930008e+01	1.577114e+03
1.980000e-06	5.511931e-06	2.403244e-08	3.877508e+01	1.573586e+03
1.990000e-06	5.435116e-06	2.395481e-08	3.823471e+01	1.570121e+03
2.000000e-06	5.356171e-06	2.388617e-08	3.767935e+01	1.566502e+03
2.010000e-06	5.275192e-06	2.384626e-08	3.710968e+01	1.562505e+03
2.020000e-06	5.192457e-06	2.375351e-08	3.652766e+01	1.557967e+03
2.030000e-06	5.107999e-06	2.368138e-08	3.593352e+01	1.552839e+03
2.040000e-06	5.021651e-06	2.359290e-08	3.532608e+01	1.547204e+03
2.050000e-06	4.933419e-06	2.352984e-08	3.470539e+01	1.541246e+03
2.060000e-06	4.843530e-06	2.345423e-08	3.407304e+01	1.535198e+03
2.070000e-06	4.752104e-06	2.336204e-08	3.342989e+01	1.529265e+03
2.080000e-06	4.658989e-06	2.327723e-08	3.277484e+01	1.523553e+03
2.090000e-06	4.564177e-06	2.318268e-08	3.210786e+01	1.518036e+03
2.100000e-06	4.467778e-06	2.309740e-08	3.142972e+01	1.512557e+03
2.110000e-06	4.369933e-06	2.299892e-08	3.074141e+01	1.506871e+03
2.120000e-06	4.270659e-06	2.290600e-08	3.004304e+01	1.500722e+03
2.130000e-06	4.169829e-06	2.279625e-08	2.933372e+01	1.493922e+03
2.140000e-06	4.067320e-06	2.268145e-08	2.861260e+01	1.486409e+03
2.150000e-06	3.963218e-06	2.256530e-08	2.788027e+01	1.478268e+03
2.160000e-06	3.857719e-06	2.244623e-08	2.713810e+01	1.469706e+03
2.170000e-06	3.750977e-06	2.233015e-08	2.638720e+01	1.460987e+03
2.180000e-06	3.643049e-06	2.221154e-08	2.562795e+01	1.452341e+03
2.190000e-06	3.533804e-06	2.208982e-08	2.485944e+01	1.443887e+03
2.200000e-06	3.423221e-06	2.195463e-08	2.408152e+01	1.435588e+03
2.210000e-06	3.311234e-06	2.181292e-08	2.329372e+01	1.427247e+03
2.220000e-06	3.197918e-06	2.166482e-08	2.249657e+01	1.418567e+03
2.230000e-06	3.083379e-06	2.151592e-08	2.169081e+01	1.409228e+03
2.240000e-06	2.967551e-06	2.136193e-08	2.087599e+01	1.398993e+03
2.250000e-06	2.850479e-06	2.120103e-08	2.005242e+01	1.387777e+03
2.260000e-06	2.732257e-06	2.102913e-08	1.922076e+01	1.375676e+03
2.270000e-06	2.612933e-06	2.084953e-08	1.838134e+01	1.362939e+03
2.280000e-06	2.492520e-06	2.066601e-08	1.753426e+01	1.349885e+03
2.290000e-06	2.371230e-06	2.048107e-08	1.668102e+01	1.336800e+03
2.300000e-06	2.249259e-06	2.028963e-08	1.582298e+01	1.323829e+03
2.310000e-06	2.126626e-06	2.008291e-08	1.496029e+01	1.310916e+03
2.320000e-06	2.003274e-06	1.986318e-08	1.409254e+01	1.297799e+03
2.330000e-06	1.879168e-06	1.963247e-08	1.321949e+01	1.284074e+03
2.340000e-06	1.754384e-06	1.939474e-08	1.234166e+01	1.269306e+03
2.350000e-06	1.629054e-06	1.914668e-08	1.145999e+01	1.253157e+03
2.360000e-06	1.503227e-06	1.888606e-08	1.057483e+01	1.235483e+03
2.370000e-06	1.376907e-06	1.861229e-08	9.686200e+00	1.216385e+03
2.380000e-06	1.250147e-06	1.832673e-08	8.794478e+00	1.196164e+03
2.390000e-06	1.122936e-06	1.802849e-08	7.899582e+00	1.175218e+03
2.400000e-06	9.952596e-07	1.771404e-08	7.001407e+00	1.153889e+03
2.410000e-06	8.671234e-07	1.738054e-08	6.100000e+00	1.132315e+03
2.420000e-06	7.386754e-07	1.702239e-08	5.196400e+00	1.110330e+03
2.430000e-06	6.100286e-07	1.664146e-08	4.291402e+00	1.087453e+03
2.440000e-06	4.812066e-07	1.623961e-08	3.385170e+00	1.062976e+03
2.450000e-06	3.522246e-07	1.581535e-08	2.477814e+00	1.036128e+03
2.460000e-06	2.230675e-07	1.536493e-08	1.569225e+00	1.006274e+03
2.470000e-06	9.382295e-08	1.488126e-08	6.600214e-01	9.730829e+02
2.480000e-06	-3.544909e-08	1.435974e-08	-2.493756e-01	9.366000e+02
2.490000e-06	-1.647400e-07	1.379613e-08	-1.158905e+00	8.971912e+02
2.500000e-06	-2.940387e-07	1.318634e-08	-2.068490e+00	8.553451e+02
2.510000e-06	-4.232522e-07	1.252369e-08	-2.977475e+00	8.113761e+02
2.520000e-06	-5.523136e-07	1.179881e-08	-3.885390e+00	7.651001e+02
2.530000e-06	-6.812199e-07	1.099930e-08	-4.792214e+00	7.155747e+02
2.540000e-06	-8.099612e-07	1.011255e-08	-5.697878e+00	6.609956e+02
2.550000e-06	-9.384572e-07	9.123846e-09	-6.601816e+00	5.988088e+02
2.560000e-06	-1.066540e-06	8.009392e-09	-7.502844e+00	5.260516e+02
2.570000e-06	-1.194152e-06	6.735826e-09	-8.400566e+00	4.398788e+02
2.580000e-06	-1.321238e-06	5.261628e-09	-9.294588e+00	3.381795e+02
2.590000e-06	-1.447765e-06	3.546956e-09	-1.018467e+01	2.201563e+02
2.600000e-06	-1.573769e-06	1.565131e-09	-1.107108e+01	8.673584e+01
2.610000e-06	-1.699249e-06	-6.756114e-10	-1.195380e+01	-5.929273e+01
2.620000e-06	-1.824093e-06	-3.099126e-09	-1.283204e+01	-2.134637e+02
2.630000e-06	-1.948157e-06	-5.589916e-09	-1.370480e+01	-3.701275e+02
2.640000e-06	-2.071423e-06	-8.019631e-09	-1.457195e+01	-5.231682e+02
2.650000e-06	-2.193875e-06	-1.025354e-08	-1.543337e+01	-6.668135e+02
2.660000e-06	-2.315504e-06	-1.220732e-08	-1.628900e+01	-7.963842e+02
2.670000e-06	-2.436317e-06	-1.386402e-08	-1.713889e+01	-9.088443e+02
2.680000e-06	-2.556261e-06	-1.524516e-08	-1.798267e+01	-1.003054e+03
2.690000e-06	-2.675182e-06	-1.638724e-08	-1.881925e+01	-1.079698e+03
2.700000e-06	-2.793029e-06	-1.733247e-08	-1.964827e+01	-1.140913e+03
2.710000e-06	-2.909780e-06	-1.812206e-08	-2.046958e+01	-1.189732e+03
2.720000e-06	-3.025311e-06	-1.878954e-08	-2.128232e+01	-1.229446e+03
2.730000e-06	-3.139548e-06	-1.935727e-08	-2.208595e+01	-1.263038e+03
2.740000e-06	-3.252411e-06	-1.984075e-08	-2.287992e+01	-1.292778e+03
2.750000e-06	-3.363945e-06	-2.025765e-08	-2.366453e+01	-1.320052e+03
2.760000e-06	-3.474225e-06	-2.062188e-08	-2.444032e+01	-1.345412e+03
2.770000e-06	-3.583316e-06	-2.094205e-08	-2.520775e+01	-1.368802e+03
2.780000e-06	-3.691315e-06	-2.122874e-08	-2.596750e+01	-1.389876e+03
2.790000e-06	-3.798168e-06	-2.148840e-08	-2.671918e+01	-1.408308e+03
2.800000e-06	-3.903791e-06	-2.172523e-08	-2.746221e+01	-1.424024e+03
2.810000e-06	-4.008064e-06	-2.194428e-08	-2.819574e+01	-1.437292e+03
2.820000e-06	-4.110783e-06	-2.214591e-08	-2.891835e+01	-1.448686e+03
2.830000e-06	-4.211872e-06	-2.232950e-08	-2.962948e+01	-1.458935e+03
2.840000e-06	-4.311419e-06	-2.249891e-08	-3.032977e+01	-1.468738e+03
2.850000e-06	-4.409558e-06	-2.265646e-08	-3.102016e+01	-1.478587e+03
2.860000e-06	-4.506292e-06	-2.280201e-08	-3.170065e+01	-1.488666e+03
2.870000e-06	-4.601369e-06	-2.293858e-08	-3.236950e+01	-1.498844e+03
2.880000e-06	-4.694659e-06	-2.306786e-08	-3.302578e+01	-1.508763e+03
2.890000e-06	-4.786323e-06	-2.318961e-08	-3.367060e+01	-1.517981e+03
2.900000e-06	-4.876340e-06	-2.330312e-08	-3.430386e+01	-1.526131e+03
2.910000e-06	-4.964610e-06	-2.340884e-08	-3.492481e+01	-1.533043e+03
2.920000e-06	-5.050989e-06	-2.350754e-08	-3.553247e+01	-1.538798e+03
2.930000e-06	-5.135425e-06	-2.360054e-08	-3.612645e+01	-1.543698e+03
2.940000e-06	-5.218066e-06	-2.368781e-08	-3.670781e+01	-1.548173e+03
