# Temperatura_=_63.32
# Concentracion g/m^3_=_41000.0
# C_Vs_to_Am_M_A/Vsm_=_65563218390.804596
# pendiente_HvsI_1/m_=_3716.3
# ordenada_HvsI_A/m_=_1297.0
# frecuencia_Hz_=_302001.2396291982

Tiempo_(s)	Campo_(V.s)	Magnetizacion_(V.s)	Campo_(kA/m)	Magnetizacion_(A/m)
0.000000e+00	-6.750168e-06	-2.278482e-08	-4.747014e+01	-1.492300e+03
1.000000e-08	-6.746925e-06	-2.278238e-08	-4.744733e+01	-1.492527e+03
2.000000e-08	-6.741503e-06	-2.277825e-08	-4.740919e+01	-1.492286e+03
3.000000e-08	-6.733995e-06	-2.277086e-08	-4.735640e+01	-1.491519e+03
4.000000e-08	-6.724152e-06	-2.275944e-08	-4.728718e+01	-1.490305e+03
5.000000e-08	-6.711802e-06	-2.274494e-08	-4.720033e+01	-1.488833e+03
6.000000e-08	-6.696973e-06	-2.272712e-08	-4.709604e+01	-1.487342e+03
7.000000e-08	-6.679753e-06	-2.270542e-08	-4.697494e+01	-1.486051e+03
8.000000e-08	-6.660382e-06	-2.270204e-08	-4.683872e+01	-1.485088e+03
9.000000e-08	-6.638711e-06	-2.271977e-08	-4.668632e+01	-1.484454e+03
1.000000e-07	-6.614285e-06	-2.269765e-08	-4.651455e+01	-1.484027e+03
1.100000e-07	-6.587154e-06	-2.265291e-08	-4.632375e+01	-1.483603e+03
1.200000e-07	-6.557762e-06	-2.263160e-08	-4.611705e+01	-1.482958e+03
1.300000e-07	-6.526460e-06	-2.258788e-08	-4.589692e+01	-1.481926e+03
1.400000e-07	-6.493351e-06	-2.253606e-08	-4.566408e+01	-1.480441e+03
1.500000e-07	-6.458263e-06	-2.256423e-08	-4.541733e+01	-1.478564e+03
1.600000e-07	-6.421077e-06	-2.252454e-08	-4.515582e+01	-1.476455e+03
1.700000e-07	-6.381943e-06	-2.246004e-08	-4.488062e+01	-1.474316e+03
1.800000e-07	-6.340513e-06	-2.247136e-08	-4.458926e+01	-1.472327e+03
1.900000e-07	-6.296541e-06	-2.241899e-08	-4.428003e+01	-1.470580e+03
2.000000e-07	-6.250298e-06	-2.241437e-08	-4.395483e+01	-1.469045e+03
2.100000e-07	-6.201602e-06	-2.243112e-08	-4.361238e+01	-1.467575e+03
2.200000e-07	-6.150234e-06	-2.238582e-08	-4.325113e+01	-1.465954e+03
2.300000e-07	-6.096394e-06	-2.233147e-08	-4.287251e+01	-1.463955e+03
2.400000e-07	-6.040233e-06	-2.224623e-08	-4.247756e+01	-1.461423e+03
2.500000e-07	-5.981761e-06	-2.219604e-08	-4.206636e+01	-1.458317e+03
2.600000e-07	-5.921087e-06	-2.217266e-08	-4.163968e+01	-1.454731e+03
2.700000e-07	-5.858367e-06	-2.211734e-08	-4.119860e+01	-1.450869e+03
2.800000e-07	-5.793484e-06	-2.206828e-08	-4.074231e+01	-1.446979e+03
2.900000e-07	-5.726276e-06	-2.200930e-08	-4.026968e+01	-1.443282e+03
3.000000e-07	-5.656952e-06	-2.195005e-08	-3.978216e+01	-1.439899e+03
3.100000e-07	-5.585585e-06	-2.190011e-08	-3.928027e+01	-1.436813e+03
3.200000e-07	-5.512040e-06	-2.186466e-08	-3.876308e+01	-1.433873e+03
3.300000e-07	-5.436228e-06	-2.181156e-08	-3.822993e+01	-1.430836e+03
3.400000e-07	-5.358168e-06	-2.173407e-08	-3.768098e+01	-1.427443e+03
3.500000e-07	-5.278013e-06	-2.167173e-08	-3.711729e+01	-1.423495e+03
3.600000e-07	-5.195950e-06	-2.159715e-08	-3.654019e+01	-1.418918e+03
3.700000e-07	-5.112190e-06	-2.153407e-08	-3.595116e+01	-1.413784e+03
3.800000e-07	-5.026823e-06	-2.147746e-08	-3.535082e+01	-1.408287e+03
3.900000e-07	-4.939839e-06	-2.140279e-08	-3.473911e+01	-1.402682e+03
4.000000e-07	-4.851117e-06	-2.131967e-08	-3.411518e+01	-1.397205e+03
4.100000e-07	-4.760574e-06	-2.123331e-08	-3.347844e+01	-1.391994e+03
4.200000e-07	-4.668379e-06	-2.114813e-08	-3.283008e+01	-1.387044e+03
4.300000e-07	-4.574622e-06	-2.105772e-08	-3.217074e+01	-1.382203e+03
4.400000e-07	-4.479265e-06	-2.096825e-08	-3.150015e+01	-1.377219e+03
4.500000e-07	-4.382173e-06	-2.087550e-08	-3.081735e+01	-1.371818e+03
4.600000e-07	-4.283365e-06	-2.077905e-08	-3.012250e+01	-1.365787e+03
4.700000e-07	-4.183078e-06	-2.068277e-08	-2.941723e+01	-1.359046e+03
4.800000e-07	-4.081415e-06	-2.058631e-08	-2.870230e+01	-1.351671e+03
4.900000e-07	-3.978308e-06	-2.048615e-08	-2.797720e+01	-1.343875e+03
5.000000e-07	-3.873685e-06	-2.037555e-08	-2.724145e+01	-1.335938e+03
5.100000e-07	-3.767650e-06	-2.026015e-08	-2.649576e+01	-1.328114e+03
5.200000e-07	-3.660152e-06	-2.014078e-08	-2.573979e+01	-1.320545e+03
5.300000e-07	-3.551307e-06	-2.001580e-08	-2.497434e+01	-1.313211e+03
5.400000e-07	-3.441349e-06	-1.988454e-08	-2.420107e+01	-1.305917e+03
5.500000e-07	-3.330144e-06	-1.974908e-08	-2.341903e+01	-1.298356e+03
5.600000e-07	-3.217515e-06	-1.961000e-08	-2.262697e+01	-1.290189e+03
5.700000e-07	-3.103509e-06	-1.946750e-08	-2.182523e+01	-1.281157e+03
5.800000e-07	-2.988153e-06	-1.932450e-08	-2.101400e+01	-1.271156e+03
5.900000e-07	-2.871553e-06	-1.917891e-08	-2.019402e+01	-1.260278e+03
6.000000e-07	-2.753907e-06	-1.902364e-08	-1.936668e+01	-1.248779e+03
6.100000e-07	-2.635361e-06	-1.885459e-08	-1.853301e+01	-1.236999e+03
6.200000e-07	-2.515832e-06	-1.867683e-08	-1.769243e+01	-1.225249e+03
6.300000e-07	-2.395223e-06	-1.849342e-08	-1.684426e+01	-1.213700e+03
6.400000e-07	-2.273754e-06	-1.830526e-08	-1.599003e+01	-1.202310e+03
6.500000e-07	-2.151520e-06	-1.811109e-08	-1.513043e+01	-1.190819e+03
6.600000e-07	-2.028478e-06	-1.790712e-08	-1.426515e+01	-1.178809e+03
6.700000e-07	-1.904627e-06	-1.769411e-08	-1.339417e+01	-1.165826e+03
6.800000e-07	-1.780054e-06	-1.747113e-08	-1.251812e+01	-1.151507e+03
6.900000e-07	-1.654945e-06	-1.723814e-08	-1.163830e+01	-1.135699e+03
7.000000e-07	-1.529379e-06	-1.699659e-08	-1.075526e+01	-1.118505e+03
7.100000e-07	-1.403354e-06	-1.674472e-08	-9.868995e+00	-1.100253e+03
7.200000e-07	-1.276912e-06	-1.647960e-08	-8.979806e+00	-1.081381e+03
7.300000e-07	-1.150090e-06	-1.619898e-08	-8.087937e+00	-1.062283e+03
7.400000e-07	-1.022907e-06	-1.590062e-08	-7.193529e+00	-1.043137e+03
7.500000e-07	-8.953311e-07	-1.558402e-08	-6.296360e+00	-1.023805e+03
7.600000e-07	-7.673661e-07	-1.524947e-08	-5.396454e+00	-1.003805e+03
7.700000e-07	-6.390882e-07	-1.489450e-08	-4.494347e+00	-9.824005e+02
7.800000e-07	-5.105636e-07	-1.451480e-08	-3.590506e+00	-9.587740e+02
7.900000e-07	-3.818409e-07	-1.410954e-08	-2.685272e+00	-9.322371e+02
8.000000e-07	-2.529770e-07	-1.367377e-08	-1.779045e+00	-9.024173e+02
8.100000e-07	-1.240043e-07	-1.320167e-08	-8.720525e-01	-8.693492e+02
8.200000e-07	5.025683e-09	-1.269058e-08	3.534280e-02	-8.334271e+02
8.300000e-07	1.340886e-07	-1.213659e-08	9.429700e-01	-7.952103e+02
8.400000e-07	2.631279e-07	-1.153471e-08	1.850430e+00	-7.551161e+02
8.500000e-07	3.920691e-07	-1.087596e-08	2.757201e+00	-7.130765e+02
8.600000e-07	5.208912e-07	-1.014833e-08	3.663135e+00	-6.682552e+02
8.700000e-07	6.495607e-07	-9.337322e-09	4.567995e+00	-6.189199e+02
8.800000e-07	7.780422e-07	-8.426656e-09	5.471533e+00	-5.625373e+02
8.900000e-07	9.062413e-07	-7.392361e-09	6.373085e+00	-4.961085e+02
9.000000e-07	1.034055e-06	-6.203492e-09	7.271929e+00	-4.167019e+02
9.100000e-07	1.161462e-06	-4.823232e-09	8.167908e+00	-3.220876e+02
9.200000e-07	1.288485e-06	-3.212679e-09	9.061188e+00	-2.113418e+02
9.300000e-07	1.415083e-06	-1.342348e-09	9.951480e+00	-8.528270e+01
9.400000e-07	1.541215e-06	7.807333e-10	1.083850e+01	5.337153e+01
9.500000e-07	1.666858e-06	3.090052e-09	1.172207e+01	2.001798e+02
9.600000e-07	1.791974e-06	5.464299e-09	1.260195e+01	3.494756e+02
9.700000e-07	1.916547e-06	7.755824e-09	1.347800e+01	4.951012e+02
9.800000e-07	2.040481e-06	9.836426e-09	1.434955e+01	6.312420e+02
9.900000e-07	2.163634e-06	1.163407e-08	1.521562e+01	7.532019e+02
1.000000e-06	2.285876e-06	1.313485e-08	1.607528e+01	8.579735e+02
1.010000e-06	2.407165e-06	1.436378e-08	1.692824e+01	9.445014e+02
1.020000e-06	2.527504e-06	1.536396e-08	1.777451e+01	1.013602e+03
1.030000e-06	2.646853e-06	1.618025e-08	1.861382e+01	1.067582e+03
1.040000e-06	2.765234e-06	1.685399e-08	1.944633e+01	1.109645e+03
1.050000e-06	2.882670e-06	1.741652e-08	2.027220e+01	1.143231e+03
1.060000e-06	2.999055e-06	1.789023e-08	2.109067e+01	1.171422e+03
1.070000e-06	3.114163e-06	1.829575e-08	2.190016e+01	1.196524e+03
1.080000e-06	3.227913e-06	1.864875e-08	2.270009e+01	1.219890e+03
1.090000e-06	3.340435e-06	1.896031e-08	2.349140e+01	1.241983e+03
1.100000e-06	3.451762e-06	1.923532e-08	2.427430e+01	1.262622e+03
1.110000e-06	3.561895e-06	1.948119e-08	2.504880e+01	1.281325e+03
1.120000e-06	3.670921e-06	1.970445e-08	2.581552e+01	1.297647e+03
1.130000e-06	3.778784e-06	1.990879e-08	2.657406e+01	1.311424e+03
1.140000e-06	3.885317e-06	2.009726e-08	2.732325e+01	1.322875e+03
1.150000e-06	3.990391e-06	2.027066e-08	2.806217e+01	1.332562e+03
1.160000e-06	4.093942e-06	2.043168e-08	2.879039e+01	1.341229e+03
1.170000e-06	4.196019e-06	2.058122e-08	2.950824e+01	1.349598e+03
1.180000e-06	4.296706e-06	2.072109e-08	3.021632e+01	1.358179e+03
1.190000e-06	4.395930e-06	2.085400e-08	3.091410e+01	1.367161e+03
1.200000e-06	4.493451e-06	2.097851e-08	3.159991e+01	1.376399e+03
1.210000e-06	4.589218e-06	2.109263e-08	3.227339e+01	1.385503e+03
1.220000e-06	4.683352e-06	2.119844e-08	3.293538e+01	1.393994e+03
1.230000e-06	4.775955e-06	2.129594e-08	3.358660e+01	1.401470e+03
1.240000e-06	4.867007e-06	2.138871e-08	3.422692e+01	1.407739e+03
1.250000e-06	4.956206e-06	2.147727e-08	3.485420e+01	1.412877e+03
1.260000e-06	5.043461e-06	2.156078e-08	3.546782e+01	1.417197e+03
1.270000e-06	5.128937e-06	2.164163e-08	3.606893e+01	1.421151e+03
1.280000e-06	5.212734e-06	2.171960e-08	3.665822e+01	1.425190e+03
1.290000e-06	5.294748e-06	2.179455e-08	3.723498e+01	1.429638e+03
1.300000e-06	5.374757e-06	2.186679e-08	3.779764e+01	1.434598e+03
1.310000e-06	5.452766e-06	2.193555e-08	3.834623e+01	1.439945e+03
1.320000e-06	5.528744e-06	2.200060e-08	3.888054e+01	1.445376e+03
1.330000e-06	5.602512e-06	2.206247e-08	3.939931e+01	1.450516e+03
1.340000e-06	5.674112e-06	2.212042e-08	3.990283e+01	1.455038e+03
1.350000e-06	5.743747e-06	2.217566e-08	4.039254e+01	1.458767e+03
1.360000e-06	5.811410e-06	2.222797e-08	4.086838e+01	1.461722e+03
1.370000e-06	5.876906e-06	2.227838e-08	4.132898e+01	1.464109e+03
1.380000e-06	5.940272e-06	2.232719e-08	4.177459e+01	1.466245e+03
1.390000e-06	6.001710e-06	2.237357e-08	4.220665e+01	1.468456e+03
1.400000e-06	6.061172e-06	2.241706e-08	4.262481e+01	1.470979e+03
1.410000e-06	6.118424e-06	2.245545e-08	4.302743e+01	1.473891e+03
1.420000e-06	6.173468e-06	2.248927e-08	4.341453e+01	1.477090e+03
1.430000e-06	6.226265e-06	2.252157e-08	4.378581e+01	1.480336e+03
1.440000e-06	6.276482e-06	2.255416e-08	4.413897e+01	1.483331e+03
1.450000e-06	6.324183e-06	2.258425e-08	4.447442e+01	1.485817e+03
1.460000e-06	6.369695e-06	2.261147e-08	4.479448e+01	1.487654e+03
1.470000e-06	6.413093e-06	2.263700e-08	4.509967e+01	1.488866e+03
1.480000e-06	6.454118e-06	2.266074e-08	4.538818e+01	1.489627e+03
1.490000e-06	6.492743e-06	2.268230e-08	4.565980e+01	1.490207e+03
1.500000e-06	6.529275e-06	2.270149e-08	4.591672e+01	1.490887e+03
1.510000e-06	6.563549e-06	2.272078e-08	4.615775e+01	1.491872e+03
1.520000e-06	6.595340e-06	2.273959e-08	4.638132e+01	1.493228e+03
1.530000e-06	6.624871e-06	2.275602e-08	4.658899e+01	1.494869e+03
1.540000e-06	6.652201e-06	2.276967e-08	4.678118e+01	1.496585e+03
1.550000e-06	6.676999e-06	2.278144e-08	4.695558e+01	1.498112e+03
1.560000e-06	6.699295e-06	2.279189e-08	4.711238e+01	1.499217e+03
1.570000e-06	6.719400e-06	2.280067e-08	4.725376e+01	1.499769e+03
1.580000e-06	6.737134e-06	2.280958e-08	4.737848e+01	1.499778e+03
1.590000e-06	6.752265e-06	2.281764e-08	4.748488e+01	1.499397e+03
1.600000e-06	6.764895e-06	2.282407e-08	4.757370e+01	1.498862e+03
1.610000e-06	6.774848e-06	2.282869e-08	4.764369e+01	1.498428e+03
1.620000e-06	6.782170e-06	2.283121e-08	4.769519e+01	1.498282e+03
1.630000e-06	6.787189e-06	2.283185e-08	4.773048e+01	1.498490e+03
1.640000e-06	6.789846e-06	2.282986e-08	4.774916e+01	1.498978e+03
1.650000e-06	6.790071e-06	2.282768e-08	4.775075e+01	1.499555e+03
1.660000e-06	6.787993e-06	2.282256e-08	4.773614e+01	1.499977e+03
1.670000e-06	6.783837e-06	2.281662e-08	4.770691e+01	1.500021e+03
1.680000e-06	6.777440e-06	2.281232e-08	4.766192e+01	1.499557e+03
1.690000e-06	6.768720e-06	2.280833e-08	4.760060e+01	1.498584e+03
1.700000e-06	6.757858e-06	2.280202e-08	4.752421e+01	1.497233e+03
1.710000e-06	6.744720e-06	2.279308e-08	4.743182e+01	1.495726e+03
1.720000e-06	6.729213e-06	2.278976e-08	4.732277e+01	1.494300e+03
1.730000e-06	6.711584e-06	2.275918e-08	4.719879e+01	1.493143e+03
1.740000e-06	6.691674e-06	2.269929e-08	4.705878e+01	1.492331e+03
1.750000e-06	6.668663e-06	2.269164e-08	4.689695e+01	1.491809e+03
1.760000e-06	6.642509e-06	2.269675e-08	4.671303e+01	1.491414e+03
1.770000e-06	6.613935e-06	2.268174e-08	4.651209e+01	1.490923e+03
1.780000e-06	6.583289e-06	2.271309e-08	4.629657e+01	1.490130e+03
1.790000e-06	6.551125e-06	2.268088e-08	4.607038e+01	1.488906e+03
1.800000e-06	6.517419e-06	2.263070e-08	4.583334e+01	1.487242e+03
1.810000e-06	6.481313e-06	2.268934e-08	4.557943e+01	1.485244e+03
1.820000e-06	6.442778e-06	2.264810e-08	4.530843e+01	1.483099e+03
1.830000e-06	6.402108e-06	2.262399e-08	4.502243e+01	1.481009e+03
1.840000e-06	6.359289e-06	2.262278e-08	4.472130e+01	1.479122e+03
1.850000e-06	6.314388e-06	2.249974e-08	4.440553e+01	1.477478e+03
1.860000e-06	6.267125e-06	2.248471e-08	4.407316e+01	1.475997e+03
1.870000e-06	6.217469e-06	2.244756e-08	4.372396e+01	1.474494e+03
1.880000e-06	6.165463e-06	2.242683e-08	4.335823e+01	1.472738e+03
1.890000e-06	6.110795e-06	2.246193e-08	4.297378e+01	1.470527e+03
1.900000e-06	6.053774e-06	2.236051e-08	4.257279e+01	1.467747e+03
1.910000e-06	5.994548e-06	2.232788e-08	4.215628e+01	1.464419e+03
1.920000e-06	5.933008e-06	2.228242e-08	4.172351e+01	1.460688e+03
1.930000e-06	5.869258e-06	2.221804e-08	4.127519e+01	1.456786e+03
1.940000e-06	5.803327e-06	2.221015e-08	4.081153e+01	1.452958e+03
1.950000e-06	5.735318e-06	2.213865e-08	4.033327e+01	1.449391e+03
1.960000e-06	5.665067e-06	2.210330e-08	3.983923e+01	1.446148e+03
1.970000e-06	5.592566e-06	2.202323e-08	3.932937e+01	1.443153e+03
1.980000e-06	5.517998e-06	2.196242e-08	3.880497e+01	1.440206e+03
1.990000e-06	5.441272e-06	2.192048e-08	3.826541e+01	1.437049e+03
2.000000e-06	5.362425e-06	2.185236e-08	3.771091e+01	1.433438e+03
2.010000e-06	5.281541e-06	2.181501e-08	3.714211e+01	1.429223e+03
2.020000e-06	5.198857e-06	2.171974e-08	3.656064e+01	1.424393e+03
2.030000e-06	5.114408e-06	2.164731e-08	3.596675e+01	1.419077e+03
2.040000e-06	5.028114e-06	2.157156e-08	3.535990e+01	1.413504e+03
2.050000e-06	4.940041e-06	2.149666e-08	3.474053e+01	1.407931e+03
2.060000e-06	4.850294e-06	2.143087e-08	3.410939e+01	1.402562e+03
2.070000e-06	4.759026e-06	2.134845e-08	3.346755e+01	1.397474e+03
2.080000e-06	4.666059e-06	2.127935e-08	3.281377e+01	1.392599e+03
2.090000e-06	4.571297e-06	2.118709e-08	3.214736e+01	1.387733e+03
2.100000e-06	4.474859e-06	2.110157e-08	3.146917e+01	1.382605e+03
2.110000e-06	4.376943e-06	2.100473e-08	3.078057e+01	1.376956e+03
2.120000e-06	4.277718e-06	2.090860e-08	3.008278e+01	1.370623e+03
2.130000e-06	4.176942e-06	2.080742e-08	2.937408e+01	1.363595e+03
2.140000e-06	4.074468e-06	2.069991e-08	2.865344e+01	1.356010e+03
2.150000e-06	3.970449e-06	2.059423e-08	2.792193e+01	1.348121e+03
2.160000e-06	3.865007e-06	2.048293e-08	2.718042e+01	1.340208e+03
2.170000e-06	3.758296e-06	2.037846e-08	2.642998e+01	1.332487e+03
2.180000e-06	3.650346e-06	2.026540e-08	2.567083e+01	1.325035e+03
2.190000e-06	3.541073e-06	2.014919e-08	2.490237e+01	1.317752e+03
2.200000e-06	3.430469e-06	2.002343e-08	2.412456e+01	1.310388e+03
2.210000e-06	3.318482e-06	1.989358e-08	2.333701e+01	1.302608e+03
2.220000e-06	3.205203e-06	1.975286e-08	2.254039e+01	1.294097e+03
2.230000e-06	3.090744e-06	1.960421e-08	2.173546e+01	1.284654e+03
2.240000e-06	2.975045e-06	1.945254e-08	2.092182e+01	1.274257e+03
2.250000e-06	2.858048e-06	1.929991e-08	2.009905e+01	1.263077e+03
2.260000e-06	2.739889e-06	1.914335e-08	1.926809e+01	1.251417e+03
2.270000e-06	2.620617e-06	1.898113e-08	1.842932e+01	1.239620e+03
2.280000e-06	2.500210e-06	1.881465e-08	1.758257e+01	1.227949e+03
2.290000e-06	2.378957e-06	1.863667e-08	1.672987e+01	1.216489e+03
2.300000e-06	2.257021e-06	1.844764e-08	1.587236e+01	1.205101e+03
2.310000e-06	2.134368e-06	1.824816e-08	1.500981e+01	1.193446e+03
2.320000e-06	2.011051e-06	1.804400e-08	1.414259e+01	1.181075e+03
2.330000e-06	1.887017e-06	1.783044e-08	1.327033e+01	1.167556e+03
2.340000e-06	1.762185e-06	1.760537e-08	1.239246e+01	1.152605e+03
2.350000e-06	1.636730e-06	1.736542e-08	1.151020e+01	1.136178e+03
2.360000e-06	1.510833e-06	1.711309e-08	1.062484e+01	1.118483e+03
2.370000e-06	1.384498e-06	1.685151e-08	9.736392e+00	1.099913e+03
2.380000e-06	1.257720e-06	1.658113e-08	8.844836e+00	1.080907e+03
2.390000e-06	1.130446e-06	1.629912e-08	7.949791e+00	1.061786e+03
2.400000e-06	1.002669e-06	1.599820e-08	7.051210e+00	1.042600e+03
2.410000e-06	8.744716e-07	1.567554e-08	6.149666e+00	1.023061e+03
2.420000e-06	7.459978e-07	1.532699e-08	5.246183e+00	1.002561e+03
2.430000e-06	6.173488e-07	1.495622e-08	4.341466e+00	9.803044e+02
2.440000e-06	4.884731e-07	1.456311e-08	3.435156e+00	9.555022e+02
2.450000e-06	3.594097e-07	1.414596e-08	2.527526e+00	9.275833e+02
2.460000e-06	2.302306e-07	1.370089e-08	1.619082e+00	8.963457e+02
2.470000e-06	1.009479e-07	1.321955e-08	7.099096e-01	8.619929e+02
2.480000e-06	-2.837324e-08	1.269601e-08	-1.995331e-01	8.250217e+02
2.490000e-06	-1.576988e-07	1.212416e-08	-1.109007e+00	7.859721e+02
2.500000e-06	-2.869846e-07	1.149828e-08	-2.018201e+00	7.450944e+02
2.510000e-06	-4.161710e-07	1.080987e-08	-2.926696e+00	7.020191e+02
2.520000e-06	-5.452519e-07	1.004842e-08	-3.834450e+00	6.555293e+02
2.530000e-06	-6.742119e-07	9.199117e-09	-4.741353e+00	6.035236e+02
2.540000e-06	-8.029635e-07	8.243076e-09	-5.646790e+00	5.432150e+02
2.550000e-06	-9.314037e-07	7.155130e-09	-6.550038e+00	4.715595e+02
2.560000e-06	-1.059488e-06	5.901851e-09	-7.450786e+00	3.858472e+02
2.570000e-06	-1.187137e-06	4.445382e-09	-8.348464e+00	2.843406e+02
2.580000e-06	-1.314300e-06	2.746316e-09	-9.242734e+00	1.668233e+02
2.590000e-06	-1.440992e-06	7.816126e-10	-1.013369e+01	3.492747e+01
2.600000e-06	-1.567195e-06	-1.424537e-09	-1.102120e+01	-1.078488e+02
2.610000e-06	-1.692802e-06	-3.785281e-09	-1.190453e+01	-2.564620e+02
2.620000e-06	-1.817672e-06	-6.163721e-09	-1.278267e+01	-4.049358e+02
2.630000e-06	-1.941804e-06	-8.409991e-09	-1.365562e+01	-5.471570e+02
2.640000e-06	-2.065178e-06	-1.040969e-08	-1.452324e+01	-6.777044e+02
2.650000e-06	-2.187728e-06	-1.211109e-08	-1.538506e+01	-7.925523e+02
2.660000e-06	-2.309453e-06	-1.351826e-08	-1.624108e+01	-8.895174e+02
2.670000e-06	-2.430365e-06	-1.466874e-08	-1.709139e+01	-9.683757e+02
2.680000e-06	-2.550444e-06	-1.560985e-08	-1.793584e+01	-1.030644e+03
2.690000e-06	-2.669542e-06	-1.638206e-08	-1.877339e+01	-1.079093e+03
2.700000e-06	-2.787532e-06	-1.702003e-08	-1.960315e+01	-1.117108e+03
2.710000e-06	-2.904353e-06	-1.755252e-08	-2.042468e+01	-1.148041e+03
2.720000e-06	-3.019994e-06	-1.800344e-08	-2.123792e+01	-1.174677e+03
2.730000e-06	-3.134397e-06	-1.839199e-08	-2.204245e+01	-1.198923e+03
2.740000e-06	-3.247503e-06	-1.873052e-08	-2.283786e+01	-1.221729e+03
2.750000e-06	-3.359232e-06	-1.902897e-08	-2.362359e+01	-1.243245e+03
2.760000e-06	-3.469621e-06	-1.929387e-08	-2.439989e+01	-1.263115e+03
2.770000e-06	-3.578801e-06	-1.953017e-08	-2.516770e+01	-1.280838e+03
2.780000e-06	-3.686863e-06	-1.974544e-08	-2.592763e+01	-1.296065e+03
2.790000e-06	-3.793776e-06	-1.994474e-08	-2.667949e+01	-1.308794e+03
2.800000e-06	-3.899422e-06	-2.012881e-08	-2.742244e+01	-1.319403e+03
2.810000e-06	-4.003713e-06	-2.029839e-08	-2.815586e+01	-1.328556e+03
2.820000e-06	-4.106483e-06	-2.045570e-08	-2.887859e+01	-1.337013e+03
2.830000e-06	-4.207646e-06	-2.060235e-08	-2.959001e+01	-1.345425e+03
2.840000e-06	-4.307286e-06	-2.074034e-08	-3.029072e+01	-1.354173e+03
2.850000e-06	-4.405530e-06	-2.086906e-08	-3.098161e+01	-1.363298e+03
2.860000e-06	-4.502322e-06	-2.098910e-08	-3.166230e+01	-1.372533e+03
2.870000e-06	-4.597528e-06	-2.110142e-08	-3.233183e+01	-1.381429e+03
2.880000e-06	-4.691021e-06	-2.120579e-08	-3.298931e+01	-1.389522e+03
2.890000e-06	-4.782875e-06	-2.130334e-08	-3.363527e+01	-1.396487e+03
2.900000e-06	-4.873105e-06	-2.139557e-08	-3.426980e+01	-1.402244e+03
2.910000e-06	-4.961614e-06	-2.148393e-08	-3.489224e+01	-1.406980e+03
2.920000e-06	-5.048166e-06	-2.156802e-08	-3.550091e+01	-1.411082e+03
2.930000e-06	-5.132690e-06	-2.164729e-08	-3.609532e+01	-1.415020e+03
2.940000e-06	-5.215432e-06	-2.172306e-08	-3.667720e+01	-1.419204e+03
