# Temperatura_=_78.68
# Concentracion g/m^3_=_41000.0
# C_Vs_to_Am_M_A/Vsm_=_65563218390.804596
# pendiente_HvsI_1/m_=_3716.3
# ordenada_HvsI_A/m_=_1297.0
# frecuencia_Hz_=_302001.18693976256

Tiempo_(s)	Campo_(V.s)	Magnetizacion_(V.s)	Campo_(kA/m)	Magnetizacion_(A/m)
0.000000e+00	-6.795755e-06	-2.417347e-08	-4.746846e+01	-1.583072e+03
1.000000e-08	-6.792200e-06	-2.416826e-08	-4.744363e+01	-1.583087e+03
2.000000e-08	-6.786439e-06	-2.416219e-08	-4.740338e+01	-1.582691e+03
3.000000e-08	-6.778559e-06	-2.415308e-08	-4.734834e+01	-1.581860e+03
4.000000e-08	-6.768346e-06	-2.414095e-08	-4.727701e+01	-1.580675e+03
5.000000e-08	-6.755562e-06	-2.412786e-08	-4.718771e+01	-1.579293e+03
6.000000e-08	-6.740278e-06	-2.410901e-08	-4.708095e+01	-1.577905e+03
7.000000e-08	-6.722707e-06	-2.409126e-08	-4.695822e+01	-1.576668e+03
8.000000e-08	-6.702985e-06	-2.410578e-08	-4.682046e+01	-1.575665e+03
9.000000e-08	-6.680834e-06	-2.409988e-08	-4.666573e+01	-1.574878e+03
1.000000e-07	-6.655914e-06	-2.406049e-08	-4.649167e+01	-1.574195e+03
1.100000e-07	-6.628329e-06	-2.402981e-08	-4.629898e+01	-1.573450e+03
1.200000e-07	-6.598501e-06	-2.400386e-08	-4.609063e+01	-1.572474e+03
1.300000e-07	-6.566855e-06	-2.393857e-08	-4.586959e+01	-1.571146e+03
1.400000e-07	-6.533384e-06	-2.391445e-08	-4.563579e+01	-1.569433e+03
1.500000e-07	-6.497859e-06	-2.393016e-08	-4.538765e+01	-1.567394e+03
1.600000e-07	-6.460221e-06	-2.384694e-08	-4.512474e+01	-1.565158e+03
1.700000e-07	-6.420554e-06	-2.384442e-08	-4.484767e+01	-1.562879e+03
1.800000e-07	-6.378493e-06	-2.381417e-08	-4.455387e+01	-1.560682e+03
1.900000e-07	-6.333879e-06	-2.374816e-08	-4.424225e+01	-1.558618e+03
2.000000e-07	-6.287042e-06	-2.378292e-08	-4.391509e+01	-1.556645e+03
2.100000e-07	-6.237634e-06	-2.373822e-08	-4.356997e+01	-1.554640e+03
2.200000e-07	-6.185519e-06	-2.368490e-08	-4.320595e+01	-1.552432e+03
2.300000e-07	-6.131000e-06	-2.363536e-08	-4.282513e+01	-1.549862e+03
2.400000e-07	-6.074136e-06	-2.354502e-08	-4.242794e+01	-1.546830e+03
2.500000e-07	-6.014942e-06	-2.349356e-08	-4.201447e+01	-1.543332e+03
2.600000e-07	-5.953546e-06	-2.346532e-08	-4.158561e+01	-1.539464e+03
2.700000e-07	-5.890154e-06	-2.341517e-08	-4.114282e+01	-1.535392e+03
2.800000e-07	-5.824581e-06	-2.333477e-08	-4.068479e+01	-1.531304e+03
2.900000e-07	-5.756663e-06	-2.328022e-08	-4.021038e+01	-1.527351e+03
3.000000e-07	-5.686581e-06	-2.322094e-08	-3.972086e+01	-1.523597e+03
3.100000e-07	-5.614374e-06	-2.315082e-08	-3.921649e+01	-1.519996e+03
3.200000e-07	-5.539944e-06	-2.312227e-08	-3.869660e+01	-1.516406e+03
3.300000e-07	-5.463242e-06	-2.305118e-08	-3.816083e+01	-1.512629e+03
3.400000e-07	-5.384255e-06	-2.296630e-08	-3.760911e+01	-1.508471e+03
3.500000e-07	-5.303132e-06	-2.289339e-08	-3.704246e+01	-1.503800e+03
3.600000e-07	-5.220242e-06	-2.281167e-08	-3.646347e+01	-1.498591e+03
3.700000e-07	-5.135739e-06	-2.274076e-08	-3.587322e+01	-1.492928e+03
3.800000e-07	-5.049614e-06	-2.266790e-08	-3.527163e+01	-1.486983e+03
3.900000e-07	-4.961887e-06	-2.258447e-08	-3.465886e+01	-1.480960e+03
4.000000e-07	-4.872311e-06	-2.248500e-08	-3.403317e+01	-1.475029e+03
4.100000e-07	-4.780864e-06	-2.239545e-08	-3.339441e+01	-1.469271e+03
4.200000e-07	-4.687836e-06	-2.230247e-08	-3.274461e+01	-1.463653e+03
4.300000e-07	-4.593247e-06	-2.220201e-08	-3.208390e+01	-1.458031e+03
4.400000e-07	-4.496998e-06	-2.210173e-08	-3.141160e+01	-1.452196e+03
4.500000e-07	-4.398972e-06	-2.199389e-08	-3.072689e+01	-1.445938e+03
4.600000e-07	-4.299331e-06	-2.188846e-08	-3.003089e+01	-1.439109e+03
4.700000e-07	-4.198257e-06	-2.178094e-08	-2.932489e+01	-1.431672e+03
4.800000e-07	-4.095787e-06	-2.167356e-08	-2.860913e+01	-1.423711e+03
4.900000e-07	-3.991878e-06	-2.156285e-08	-2.788333e+01	-1.415404e+03
5.000000e-07	-3.886320e-06	-2.144521e-08	-2.714601e+01	-1.406965e+03
5.100000e-07	-3.779301e-06	-2.131791e-08	-2.639848e+01	-1.398568e+03
5.200000e-07	-3.671016e-06	-2.118478e-08	-2.564211e+01	-1.390289e+03
5.300000e-07	-3.561432e-06	-2.104566e-08	-2.487666e+01	-1.382071e+03
5.400000e-07	-3.450655e-06	-2.089608e-08	-2.410288e+01	-1.373736e+03
5.500000e-07	-3.338570e-06	-2.074558e-08	-2.331997e+01	-1.365030e+03
5.600000e-07	-3.224938e-06	-2.059372e-08	-2.252625e+01	-1.355703e+03
5.700000e-07	-3.109837e-06	-2.044045e-08	-2.172226e+01	-1.345581e+03
5.800000e-07	-2.993466e-06	-2.028584e-08	-2.090941e+01	-1.334624e+03
5.900000e-07	-2.875896e-06	-2.012712e-08	-2.008818e+01	-1.322941e+03
6.000000e-07	-2.757325e-06	-1.995418e-08	-1.925996e+01	-1.310749e+03
6.100000e-07	-2.637923e-06	-1.976679e-08	-1.842593e+01	-1.298305e+03
6.200000e-07	-2.517538e-06	-1.957143e-08	-1.758504e+01	-1.285818e+03
6.300000e-07	-2.395996e-06	-1.937033e-08	-1.673607e+01	-1.273361e+03
6.400000e-07	-2.273482e-06	-1.916547e-08	-1.588030e+01	-1.260839e+03
6.500000e-07	-2.150240e-06	-1.895382e-08	-1.501946e+01	-1.247996e+03
6.600000e-07	-2.026252e-06	-1.873305e-08	-1.415340e+01	-1.234480e+03
6.700000e-07	-1.901537e-06	-1.850203e-08	-1.328227e+01	-1.219941e+03
6.800000e-07	-1.776192e-06	-1.826099e-08	-1.240673e+01	-1.204133e+03
6.900000e-07	-1.650252e-06	-1.800913e-08	-1.152704e+01	-1.186989e+03
7.000000e-07	-1.523808e-06	-1.774707e-08	-1.064382e+01	-1.168638e+03
7.100000e-07	-1.396946e-06	-1.747169e-08	-9.757689e+00	-1.149357e+03
7.200000e-07	-1.269690e-06	-1.717950e-08	-8.868803e+00	-1.129467e+03
7.300000e-07	-1.142068e-06	-1.687050e-08	-7.977365e+00	-1.109203e+03
7.400000e-07	-1.014115e-06	-1.654339e-08	-7.083612e+00	-1.088594e+03
7.500000e-07	-8.857305e-07	-1.620037e-08	-6.186842e+00	-1.067401e+03
7.600000e-07	-7.568655e-07	-1.583724e-08	-5.286717e+00	-1.045128e+03
7.700000e-07	-6.276801e-07	-1.545118e-08	-4.384356e+00	-1.021119e+03
7.800000e-07	-4.982336e-07	-1.504104e-08	-3.480169e+00	-9.947087e+02
7.900000e-07	-3.685428e-07	-1.460082e-08	-2.574277e+00	-9.653891e+02
8.000000e-07	-2.386866e-07	-1.412464e-08	-1.667230e+00	-9.329282e+02
8.100000e-07	-1.087233e-07	-1.360780e-08	-7.594340e-01	-8.974009e+02
8.200000e-07	2.125750e-08	-1.304814e-08	1.484840e-01	-8.590985e+02
8.300000e-07	1.512496e-07	-1.244040e-08	1.056481e+00	-8.183260e+02
8.400000e-07	2.812338e-07	-1.177624e-08	1.964423e+00	-7.751295e+02
8.500000e-07	4.111441e-07	-1.104579e-08	2.871848e+00	-7.290245e+02
8.600000e-07	5.409323e-07	-1.023753e-08	3.778421e+00	-6.788077e+02
8.700000e-07	6.705641e-07	-9.336639e-09	4.683901e+00	-6.225271e+02
8.800000e-07	8.000129e-07	-8.321368e-09	5.588103e+00	-5.576526e+02
8.900000e-07	9.291586e-07	-7.161400e-09	6.490187e+00	-4.814448e+02
9.000000e-07	1.057887e-06	-5.822065e-09	7.389357e+00	-3.914689e+02
9.100000e-07	1.186160e-06	-4.261722e-09	8.285343e+00	-2.861585e+02
9.200000e-07	1.313899e-06	-2.442156e-09	9.177602e+00	-1.653109e+02
9.300000e-07	1.441119e-06	-3.610250e-10	1.006624e+01	-3.039906e+01
9.400000e-07	1.567954e-06	1.898793e-09	1.095219e+01	1.153824e+02
9.500000e-07	1.694370e-06	4.220076e-09	1.183520e+01	2.673706e+02
9.600000e-07	1.820201e-06	6.535768e-09	1.271413e+01	4.199556e+02
9.700000e-07	1.945388e-06	8.797210e-09	1.358857e+01	5.672820e+02
9.800000e-07	2.069969e-06	1.090416e-08	1.445877e+01	7.040046e+02
9.900000e-07	2.193875e-06	1.273691e-08	1.532426e+01	8.259568e+02
1.000000e-06	2.316868e-06	1.425543e-08	1.618336e+01	9.306124e+02
1.010000e-06	2.438901e-06	1.549209e-08	1.703576e+01	1.017261e+03
1.020000e-06	2.559963e-06	1.649682e-08	1.788138e+01	1.086884e+03
1.030000e-06	2.679991e-06	1.731739e-08	1.871978e+01	1.141767e+03
1.040000e-06	2.799021e-06	1.799439e-08	1.955121e+01	1.184958e+03
1.050000e-06	2.917092e-06	1.855890e-08	2.037593e+01	1.219670e+03
1.060000e-06	3.034142e-06	1.903541e-08	2.119353e+01	1.248767e+03
1.070000e-06	3.150009e-06	1.944147e-08	2.200286e+01	1.274412e+03
1.080000e-06	3.264578e-06	1.979402e-08	2.280313e+01	1.297926e+03
1.090000e-06	3.377795e-06	2.010524e-08	2.359395e+01	1.319849e+03
1.100000e-06	3.489656e-06	2.038303e-08	2.437530e+01	1.340162e+03
1.110000e-06	3.600230e-06	2.063372e-08	2.514767e+01	1.358575e+03
1.120000e-06	3.709662e-06	2.086313e-08	2.591205e+01	1.374807e+03
1.130000e-06	3.818002e-06	2.107291e-08	2.666880e+01	1.388792e+03
1.140000e-06	3.925118e-06	2.126680e-08	2.741701e+01	1.400756e+03
1.150000e-06	4.030793e-06	2.144700e-08	2.815515e+01	1.411181e+03
1.160000e-06	4.134872e-06	2.161432e-08	2.888215e+01	1.420679e+03
1.170000e-06	4.237407e-06	2.177005e-08	2.959835e+01	1.429826e+03
1.180000e-06	4.338551e-06	2.191628e-08	3.030485e+01	1.439021e+03
1.190000e-06	4.438284e-06	2.205455e-08	3.100148e+01	1.448399e+03
1.200000e-06	4.536367e-06	2.218320e-08	3.168659e+01	1.457836e+03
1.210000e-06	4.632594e-06	2.230351e-08	3.235874e+01	1.467025e+03
1.220000e-06	4.727110e-06	2.241837e-08	3.301894e+01	1.475596e+03
1.230000e-06	4.820133e-06	2.252892e-08	3.366871e+01	1.483256e+03
1.240000e-06	4.911620e-06	2.263234e-08	3.430774e+01	1.489881e+03
1.250000e-06	5.001282e-06	2.272896e-08	3.493404e+01	1.495555e+03
1.260000e-06	5.088955e-06	2.281881e-08	3.554643e+01	1.500541e+03
1.270000e-06	5.174783e-06	2.290369e-08	3.614594e+01	1.505200e+03
1.280000e-06	5.258920e-06	2.298464e-08	3.673364e+01	1.509878e+03
1.290000e-06	5.341237e-06	2.306328e-08	3.730863e+01	1.514813e+03
1.300000e-06	5.421512e-06	2.313996e-08	3.786935e+01	1.520070e+03
1.310000e-06	5.499791e-06	2.321413e-08	3.841613e+01	1.525537e+03
1.320000e-06	5.576047e-06	2.328463e-08	3.894878e+01	1.530978e+03
1.330000e-06	5.650079e-06	2.335023e-08	3.946589e+01	1.536114e+03
1.340000e-06	5.721986e-06	2.341215e-08	3.996817e+01	1.540714e+03
1.350000e-06	5.791885e-06	2.347360e-08	4.045641e+01	1.544669e+03
1.360000e-06	5.859743e-06	2.353385e-08	4.093040e+01	1.548022e+03
1.370000e-06	5.925399e-06	2.359081e-08	4.138901e+01	1.550949e+03
1.380000e-06	5.988871e-06	2.364414e-08	4.183236e+01	1.553697e+03
1.390000e-06	6.050367e-06	2.369414e-08	4.226191e+01	1.556505e+03
1.400000e-06	6.109915e-06	2.374159e-08	4.267785e+01	1.559530e+03
1.410000e-06	6.167329e-06	2.378620e-08	4.307889e+01	1.562801e+03
1.420000e-06	6.222482e-06	2.382808e-08	4.346414e+01	1.566212e+03
1.430000e-06	6.275321e-06	2.386955e-08	4.383322e+01	1.569563e+03
1.440000e-06	6.325539e-06	2.390937e-08	4.418399e+01	1.572623e+03
1.450000e-06	6.373182e-06	2.394485e-08	4.451678e+01	1.575208e+03
1.460000e-06	6.418644e-06	2.397591e-08	4.483433e+01	1.577235e+03
1.470000e-06	6.462020e-06	2.400398e-08	4.513731e+01	1.578747e+03
1.480000e-06	6.503002e-06	2.403035e-08	4.542357e+01	1.579901e+03
1.490000e-06	6.541609e-06	2.405436e-08	4.569324e+01	1.580914e+03
1.500000e-06	6.578111e-06	2.407628e-08	4.594821e+01	1.581998e+03
1.510000e-06	6.612273e-06	2.409770e-08	4.618683e+01	1.583291e+03
1.520000e-06	6.643947e-06	2.411950e-08	4.640808e+01	1.584822e+03
1.530000e-06	6.673359e-06	2.413951e-08	4.661352e+01	1.586504e+03
1.540000e-06	6.700517e-06	2.415610e-08	4.680322e+01	1.588161e+03
1.550000e-06	6.725159e-06	2.417031e-08	4.697535e+01	1.589590e+03
1.560000e-06	6.747332e-06	2.418294e-08	4.713022e+01	1.590626e+03
1.570000e-06	6.767277e-06	2.419323e-08	4.726954e+01	1.591191e+03
1.580000e-06	6.784808e-06	2.420166e-08	4.739199e+01	1.591321e+03
1.590000e-06	6.799752e-06	2.420926e-08	4.749637e+01	1.591149e+03
1.600000e-06	6.812178e-06	2.421726e-08	4.758317e+01	1.590870e+03
1.610000e-06	6.821924e-06	2.422568e-08	4.765124e+01	1.590671e+03
1.620000e-06	6.829044e-06	2.423257e-08	4.770098e+01	1.590680e+03
1.630000e-06	6.833799e-06	2.423619e-08	4.773420e+01	1.590924e+03
1.640000e-06	6.836169e-06	2.423597e-08	4.775075e+01	1.591322e+03
1.650000e-06	6.836092e-06	2.423309e-08	4.775021e+01	1.591713e+03
1.660000e-06	6.833716e-06	2.422635e-08	4.773361e+01	1.591906e+03
1.670000e-06	6.829157e-06	2.422046e-08	4.770177e+01	1.591741e+03
1.680000e-06	6.822292e-06	2.421353e-08	4.765382e+01	1.591141e+03
1.690000e-06	6.813177e-06	2.420557e-08	4.759015e+01	1.590130e+03
1.700000e-06	6.801888e-06	2.419742e-08	4.751130e+01	1.588832e+03
1.710000e-06	6.788217e-06	2.419117e-08	4.741581e+01	1.587426e+03
1.720000e-06	6.772231e-06	2.418532e-08	4.730414e+01	1.586093e+03
1.730000e-06	6.754221e-06	2.413268e-08	4.717834e+01	1.584962e+03
1.740000e-06	6.733799e-06	2.409915e-08	4.703569e+01	1.584068e+03
1.750000e-06	6.710196e-06	2.409758e-08	4.687082e+01	1.583349e+03
1.760000e-06	6.683534e-06	2.407601e-08	4.668459e+01	1.582661e+03
1.770000e-06	6.654436e-06	2.407450e-08	4.648134e+01	1.581829e+03
1.780000e-06	6.623393e-06	2.410169e-08	4.626451e+01	1.580701e+03
1.790000e-06	6.590899e-06	2.404443e-08	4.603753e+01	1.579193e+03
1.800000e-06	6.556666e-06	2.405530e-08	4.579841e+01	1.577318e+03
1.810000e-06	6.519898e-06	2.407512e-08	4.554159e+01	1.575170e+03
1.820000e-06	6.480823e-06	2.399314e-08	4.526865e+01	1.572897e+03
1.830000e-06	6.439696e-06	2.400922e-08	4.498138e+01	1.570645e+03
1.840000e-06	6.396378e-06	2.392617e-08	4.467880e+01	1.568510e+03
1.850000e-06	6.350876e-06	2.384660e-08	4.436097e+01	1.566500e+03
1.860000e-06	6.302934e-06	2.385763e-08	4.402610e+01	1.564533e+03
1.870000e-06	6.252668e-06	2.378133e-08	4.367499e+01	1.562456e+03
1.880000e-06	6.199989e-06	2.379643e-08	4.330702e+01	1.560099e+03
1.890000e-06	6.144643e-06	2.377092e-08	4.292043e+01	1.557323e+03
1.900000e-06	6.086955e-06	2.367877e-08	4.251748e+01	1.554070e+03
1.910000e-06	6.027004e-06	2.363834e-08	4.209872e+01	1.550384e+03
1.920000e-06	5.964752e-06	2.357344e-08	4.166389e+01	1.546399e+03
1.930000e-06	5.900322e-06	2.355571e-08	4.121384e+01	1.542299e+03
1.940000e-06	5.833747e-06	2.348988e-08	4.074881e+01	1.538261e+03
1.950000e-06	5.764977e-06	2.345177e-08	4.026845e+01	1.534399e+03
1.960000e-06	5.693878e-06	2.338529e-08	3.977183e+01	1.530729e+03
1.970000e-06	5.620641e-06	2.328080e-08	3.926027e+01	1.527157e+03
1.980000e-06	5.545269e-06	2.324249e-08	3.873379e+01	1.523508e+03
1.990000e-06	5.467628e-06	2.316327e-08	3.819147e+01	1.519577e+03
2.000000e-06	5.387970e-06	2.311414e-08	3.763506e+01	1.515192e+03
2.010000e-06	5.306379e-06	2.304375e-08	3.706514e+01	1.510269e+03
2.020000e-06	5.222979e-06	2.295537e-08	3.648259e+01	1.504833e+03
2.030000e-06	5.137708e-06	2.287328e-08	3.588697e+01	1.499016e+03
2.040000e-06	5.050524e-06	2.278401e-08	3.527799e+01	1.493011e+03
2.050000e-06	4.961624e-06	2.271384e-08	3.465702e+01	1.487015e+03
2.060000e-06	4.871127e-06	2.262175e-08	3.402490e+01	1.481162e+03
2.070000e-06	4.779037e-06	2.254065e-08	3.338165e+01	1.475482e+03
2.080000e-06	4.685102e-06	2.244514e-08	3.272551e+01	1.469887e+03
2.090000e-06	4.589423e-06	2.235301e-08	3.205719e+01	1.464195e+03
2.100000e-06	4.492218e-06	2.225388e-08	3.137821e+01	1.458188e+03
2.110000e-06	4.393601e-06	2.214789e-08	3.068937e+01	1.451678e+03
2.120000e-06	4.293528e-06	2.204583e-08	2.999036e+01	1.444565e+03
2.130000e-06	4.191755e-06	2.193188e-08	2.927948e+01	1.436869e+03
2.140000e-06	4.088359e-06	2.181834e-08	2.855725e+01	1.428723e+03
2.150000e-06	3.983507e-06	2.169600e-08	2.782486e+01	1.420330e+03
2.160000e-06	3.877309e-06	2.157654e-08	2.708307e+01	1.411895e+03
2.170000e-06	3.769911e-06	2.145246e-08	2.633289e+01	1.403552e+03
2.180000e-06	3.661145e-06	2.133011e-08	2.557316e+01	1.395318e+03
2.190000e-06	3.550909e-06	2.119959e-08	2.480315e+01	1.387075e+03
2.200000e-06	3.439322e-06	2.106387e-08	2.402372e+01	1.378602e+03
2.210000e-06	3.326328e-06	2.091945e-08	2.323445e+01	1.369637e+03
2.220000e-06	3.212050e-06	2.076481e-08	2.243622e+01	1.359956e+03
2.230000e-06	3.096531e-06	2.060133e-08	2.162932e+01	1.349444e+03
2.240000e-06	2.979624e-06	2.043606e-08	2.081272e+01	1.338129e+03
2.250000e-06	2.861468e-06	2.027271e-08	1.998740e+01	1.326179e+03
2.260000e-06	2.742274e-06	2.010225e-08	1.915483e+01	1.313841e+03
2.270000e-06	2.622067e-06	1.992683e-08	1.831518e+01	1.301359e+03
2.280000e-06	2.500834e-06	1.974011e-08	1.746837e+01	1.288887e+03
2.290000e-06	2.378716e-06	1.954592e-08	1.661537e+01	1.276424e+03
2.300000e-06	2.255908e-06	1.934100e-08	1.575756e+01	1.263794e+03
2.310000e-06	2.132517e-06	1.912675e-08	1.489566e+01	1.250686e+03
2.320000e-06	2.008438e-06	1.890394e-08	1.402897e+01	1.236736e+03
2.330000e-06	1.883453e-06	1.867142e-08	1.315595e+01	1.221629e+03
2.340000e-06	1.757594e-06	1.842644e-08	1.227682e+01	1.205198e+03
2.350000e-06	1.631081e-06	1.816670e-08	1.139313e+01	1.187468e+03
2.360000e-06	1.504110e-06	1.789583e-08	1.050623e+01	1.168646e+03
2.370000e-06	1.376746e-06	1.761646e-08	9.616593e+00	1.149046e+03
2.380000e-06	1.248977e-06	1.732718e-08	8.724126e+00	1.128965e+03
2.390000e-06	1.120784e-06	1.701968e-08	7.828696e+00	1.108554e+03
2.400000e-06	9.921453e-07	1.668990e-08	6.930151e+00	1.087722e+03
2.410000e-06	8.631442e-07	1.633727e-08	6.029076e+00	1.066103e+03
2.420000e-06	7.338706e-07	1.596059e-08	5.126098e+00	1.043111e+03
2.430000e-06	6.043673e-07	1.556111e-08	4.221515e+00	1.018065e+03
2.440000e-06	4.746935e-07	1.513590e-08	3.315742e+00	9.903538e+02
2.450000e-06	3.448794e-07	1.468233e-08	2.408988e+00	9.595865e+02
2.460000e-06	2.149259e-07	1.419401e-08	1.501261e+00	9.256772e+02
2.470000e-06	8.486518e-08	1.366348e-08	5.927846e-01	8.888198e+02
2.480000e-06	-4.521983e-08	1.308869e-08	-3.158612e-01	8.493427e+02
2.490000e-06	-1.752852e-07	1.246234e-08	-1.224370e+00	8.074667e+02
2.500000e-06	-3.053167e-07	1.177369e-08	-2.132642e+00	7.630221e+02
2.510000e-06	-4.352383e-07	1.101292e-08	-3.040147e+00	7.152058e+02
2.520000e-06	-5.650526e-07	1.017051e-08	-3.946902e+00	6.624591e+02
2.530000e-06	-6.947543e-07	9.227876e-09	-4.852870e+00	6.025277e+02
2.540000e-06	-8.242092e-07	8.159390e-09	-5.757115e+00	5.327277e+02
2.550000e-06	-9.534001e-07	6.935669e-09	-6.659515e+00	4.503918e+02
2.560000e-06	-1.082287e-06	5.521689e-09	-7.559795e+00	3.534196e+02
2.570000e-06	-1.210752e-06	3.875890e-09	-8.457120e+00	2.408247e+02
2.580000e-06	-1.338755e-06	1.960644e-09	-9.351224e+00	1.131584e+02
2.590000e-06	-1.466244e-06	-2.102401e-10	-1.024174e+01	-2.729458e+01
2.600000e-06	-1.593215e-06	-2.536235e-09	-1.112863e+01	-1.766087e+02
2.610000e-06	-1.719661e-06	-4.907006e-09	-1.201186e+01	-3.296030e+02
2.620000e-06	-1.845441e-06	-7.260966e-09	-1.289044e+01	-4.804598e+02
2.630000e-06	-1.970382e-06	-9.523372e-09	-1.376315e+01	-6.234687e+02
2.640000e-06	-2.094399e-06	-1.156616e-08	-1.462941e+01	-7.537587e+02
2.650000e-06	-2.217516e-06	-1.329709e-08	-1.548938e+01	-8.678837e+02
2.660000e-06	-2.339809e-06	-1.471970e-08	-1.634360e+01	-9.641572e+02
2.670000e-06	-2.461347e-06	-1.587713e-08	-1.719255e+01	-1.042687e+03
2.680000e-06	-2.582071e-06	-1.681873e-08	-1.803581e+01	-1.105121e+03
2.690000e-06	-2.701833e-06	-1.758867e-08	-1.887235e+01	-1.154172e+03
2.700000e-06	-2.820539e-06	-1.822402e-08	-1.970151e+01	-1.193036e+03
2.710000e-06	-2.938149e-06	-1.875601e-08	-2.052302e+01	-1.224820e+03
2.720000e-06	-3.054505e-06	-1.920919e-08	-2.133576e+01	-1.252095e+03
2.730000e-06	-3.169543e-06	-1.959962e-08	-2.213931e+01	-1.276636e+03
2.740000e-06	-3.283325e-06	-1.993857e-08	-2.293408e+01	-1.299383e+03
2.750000e-06	-3.395776e-06	-2.023660e-08	-2.371955e+01	-1.320584e+03
2.760000e-06	-3.506799e-06	-2.050287e-08	-2.449505e+01	-1.340055e+03
2.770000e-06	-3.616479e-06	-2.074334e-08	-2.526116e+01	-1.357479e+03
2.780000e-06	-3.725029e-06	-2.096279e-08	-2.601939e+01	-1.372658e+03
2.790000e-06	-3.832477e-06	-2.116681e-08	-2.676991e+01	-1.385658e+03
2.800000e-06	-3.938706e-06	-2.135703e-08	-2.751192e+01	-1.396834e+03
2.810000e-06	-4.043550e-06	-2.153317e-08	-2.824426e+01	-1.406750e+03
2.820000e-06	-4.146873e-06	-2.169521e-08	-2.896598e+01	-1.416020e+03
2.830000e-06	-4.248563e-06	-2.184543e-08	-2.967628e+01	-1.425153e+03
2.840000e-06	-4.348660e-06	-2.198721e-08	-3.037546e+01	-1.434432e+03
2.850000e-06	-4.447337e-06	-2.212017e-08	-3.106472e+01	-1.443865e+03
2.860000e-06	-4.544579e-06	-2.224418e-08	-3.174395e+01	-1.453231e+03
2.870000e-06	-4.640237e-06	-2.236081e-08	-3.241213e+01	-1.462176e+03
2.880000e-06	-4.734126e-06	-2.247081e-08	-3.306795e+01	-1.470351e+03
2.890000e-06	-4.826267e-06	-2.257370e-08	-3.371155e+01	-1.477532e+03
2.900000e-06	-4.916757e-06	-2.267084e-08	-3.434362e+01	-1.483691e+03
2.910000e-06	-5.005521e-06	-2.276437e-08	-3.496364e+01	-1.489004e+03
2.920000e-06	-5.092416e-06	-2.285423e-08	-3.557060e+01	-1.493790e+03
2.930000e-06	-5.177345e-06	-2.293979e-08	-3.616384e+01	-1.498418e+03
2.940000e-06	-5.260395e-06	-2.302021e-08	-3.674394e+01	-1.503195e+03
