# Temperatura_=_56.7
# Concentracion g/m^3_=_41000.0
# C_Vs_to_Am_M_A/Vsm_=_65563218390.804596
# pendiente_HvsI_1/m_=_3716.3
# ordenada_HvsI_A/m_=_1297.0
# frecuencia_Hz_=_302000.61762505333

Tiempo_(s)	Campo_(V.s)	Magnetizacion_(V.s)	Campo_(kA/m)	Magnetizacion_(A/m)
0.000000e+00	-6.763829e-06	-2.587925e-08	-4.746917e+01	-1.693625e+03
1.000000e-08	-6.760610e-06	-2.587094e-08	-4.744658e+01	-1.693902e+03
2.000000e-08	-6.755157e-06	-2.586375e-08	-4.740832e+01	-1.693870e+03
3.000000e-08	-6.747624e-06	-2.585292e-08	-4.735545e+01	-1.693402e+03
4.000000e-08	-6.737784e-06	-2.584000e-08	-4.728639e+01	-1.692469e+03
5.000000e-08	-6.725409e-06	-2.582692e-08	-4.719954e+01	-1.691158e+03
6.000000e-08	-6.710480e-06	-2.581295e-08	-4.709476e+01	-1.689642e+03
7.000000e-08	-6.693185e-06	-2.580277e-08	-4.697338e+01	-1.688122e+03
8.000000e-08	-6.673777e-06	-2.578917e-08	-4.683718e+01	-1.686776e+03
9.000000e-08	-6.652072e-06	-2.576059e-08	-4.668485e+01	-1.685700e+03
1.000000e-07	-6.627680e-06	-2.575861e-08	-4.651367e+01	-1.684883e+03
1.100000e-07	-6.600629e-06	-2.574102e-08	-4.632382e+01	-1.684217e+03
1.200000e-07	-6.571293e-06	-2.568979e-08	-4.611794e+01	-1.683531e+03
1.300000e-07	-6.540032e-06	-2.565675e-08	-4.589855e+01	-1.682646e+03
1.400000e-07	-6.506912e-06	-2.564455e-08	-4.566610e+01	-1.681428e+03
1.500000e-07	-6.471775e-06	-2.555377e-08	-4.541951e+01	-1.679830e+03
1.600000e-07	-6.434643e-06	-2.555696e-08	-4.515891e+01	-1.677897e+03
1.700000e-07	-6.395479e-06	-2.559105e-08	-4.488406e+01	-1.675747e+03
1.800000e-07	-6.353958e-06	-2.550162e-08	-4.459266e+01	-1.673525e+03
1.900000e-07	-6.309931e-06	-2.549722e-08	-4.428367e+01	-1.671352e+03
2.000000e-07	-6.263657e-06	-2.544527e-08	-4.395892e+01	-1.669278e+03
2.100000e-07	-6.215006e-06	-2.539025e-08	-4.361749e+01	-1.667264e+03
2.200000e-07	-6.163674e-06	-2.540327e-08	-4.325723e+01	-1.665190e+03
2.300000e-07	-6.109834e-06	-2.534726e-08	-4.287938e+01	-1.662896e+03
2.400000e-07	-6.053640e-06	-2.527386e-08	-4.248500e+01	-1.660229e+03
2.500000e-07	-5.995079e-06	-2.521904e-08	-4.207402e+01	-1.657100e+03
2.600000e-07	-5.934270e-06	-2.517107e-08	-4.164725e+01	-1.653513e+03
2.700000e-07	-5.871333e-06	-2.511646e-08	-4.120555e+01	-1.649567e+03
2.800000e-07	-5.806271e-06	-2.506190e-08	-4.074894e+01	-1.645430e+03
2.900000e-07	-5.739015e-06	-2.501611e-08	-4.027694e+01	-1.641287e+03
3.000000e-07	-5.669559e-06	-2.492475e-08	-3.978949e+01	-1.637280e+03
3.100000e-07	-5.598010e-06	-2.486352e-08	-3.928735e+01	-1.633465e+03
3.200000e-07	-5.524335e-06	-2.482964e-08	-3.877029e+01	-1.629788e+03
3.300000e-07	-5.448442e-06	-2.477655e-08	-3.823767e+01	-1.626100e+03
3.400000e-07	-5.370252e-06	-2.470321e-08	-3.768892e+01	-1.622201e+03
3.500000e-07	-5.289824e-06	-2.460819e-08	-3.712447e+01	-1.617901e+03
3.600000e-07	-5.207497e-06	-2.453060e-08	-3.654670e+01	-1.613078e+03
3.700000e-07	-5.123522e-06	-2.445527e-08	-3.595735e+01	-1.607715e+03
3.800000e-07	-5.037974e-06	-2.439015e-08	-3.535697e+01	-1.601909e+03
3.900000e-07	-4.950841e-06	-2.431901e-08	-3.474546e+01	-1.595836e+03
4.000000e-07	-4.861945e-06	-2.422791e-08	-3.412158e+01	-1.589700e+03
4.100000e-07	-4.771232e-06	-2.412183e-08	-3.348495e+01	-1.583661e+03
4.200000e-07	-4.678893e-06	-2.401624e-08	-3.283690e+01	-1.577785e+03
4.300000e-07	-4.584977e-06	-2.392667e-08	-3.217779e+01	-1.572020e+03
4.400000e-07	-4.489454e-06	-2.383395e-08	-3.150740e+01	-1.566204e+03
4.500000e-07	-4.392226e-06	-2.372939e-08	-3.082505e+01	-1.560115e+03
4.600000e-07	-4.293301e-06	-2.361571e-08	-3.013078e+01	-1.553539e+03
4.700000e-07	-4.192866e-06	-2.349631e-08	-2.942592e+01	-1.546334e+03
4.800000e-07	-4.090975e-06	-2.338020e-08	-2.871084e+01	-1.538477e+03
4.900000e-07	-3.987684e-06	-2.327073e-08	-2.798593e+01	-1.530073e+03
5.000000e-07	-3.882968e-06	-2.315907e-08	-2.725103e+01	-1.521318e+03
5.100000e-07	-3.776729e-06	-2.303563e-08	-2.650543e+01	-1.512437e+03
5.200000e-07	-3.669017e-06	-2.289837e-08	-2.574950e+01	-1.503611e+03
5.300000e-07	-3.560014e-06	-2.275331e-08	-2.498451e+01	-1.494905e+03
5.400000e-07	-3.449828e-06	-2.260293e-08	-2.421121e+01	-1.486249e+03
5.500000e-07	-3.338405e-06	-2.245040e-08	-2.342924e+01	-1.477439e+03
5.600000e-07	-3.225658e-06	-2.229792e-08	-2.263796e+01	-1.468203e+03
5.700000e-07	-3.111521e-06	-2.214124e-08	-2.183694e+01	-1.458275e+03
5.800000e-07	-2.995947e-06	-2.197665e-08	-2.102583e+01	-1.447475e+03
5.900000e-07	-2.879087e-06	-2.180405e-08	-2.020569e+01	-1.435772e+03
6.000000e-07	-2.761218e-06	-2.162485e-08	-1.937848e+01	-1.423286e+03
6.100000e-07	-2.642447e-06	-2.143712e-08	-1.854494e+01	-1.410254e+03
6.200000e-07	-2.522786e-06	-2.124268e-08	-1.770514e+01	-1.396950e+03
6.300000e-07	-2.402062e-06	-2.104078e-08	-1.685789e+01	-1.383587e+03
6.400000e-07	-2.280325e-06	-2.082948e-08	-1.600353e+01	-1.370235e+03
6.500000e-07	-2.157775e-06	-2.060769e-08	-1.514346e+01	-1.356783e+03
6.600000e-07	-2.034442e-06	-2.037600e-08	-1.427790e+01	-1.342951e+03
6.700000e-07	-1.910385e-06	-2.013604e-08	-1.340726e+01	-1.328360e+03
6.800000e-07	-1.785679e-06	-1.988705e-08	-1.253206e+01	-1.312638e+03
6.900000e-07	-1.660434e-06	-1.962928e-08	-1.165308e+01	-1.295529e+03
7.000000e-07	-1.534668e-06	-1.936003e-08	-1.077044e+01	-1.276967e+03
7.100000e-07	-1.408406e-06	-1.907559e-08	-9.884322e+00	-1.257094e+03
7.200000e-07	-1.281753e-06	-1.877406e-08	-8.995458e+00	-1.236202e+03
7.300000e-07	-1.154696e-06	-1.845670e-08	-8.103760e+00	-1.214629e+03
7.400000e-07	-1.027255e-06	-1.812212e-08	-7.209370e+00	-1.192614e+03
7.500000e-07	-8.994738e-07	-1.776965e-08	-6.312590e+00	-1.170178e+03
7.600000e-07	-7.713463e-07	-1.739858e-08	-5.413379e+00	-1.147055e+03
7.700000e-07	-6.428924e-07	-1.700541e-08	-4.511878e+00	-1.122714e+03
7.800000e-07	-5.141563e-07	-1.658584e-08	-3.608396e+00	-1.096462e+03
7.900000e-07	-3.852165e-07	-1.613597e-08	-2.703485e+00	-1.067602e+03
8.000000e-07	-2.561283e-07	-1.565268e-08	-1.797532e+00	-1.035613e+03
8.100000e-07	-1.268959e-07	-1.513260e-08	-8.905669e-01	-1.000271e+03
8.200000e-07	2.469808e-09	-1.457305e-08	1.733334e-02	-9.616792e+02
8.300000e-07	1.318691e-07	-1.396913e-08	9.254698e-01	-9.201651e+02
8.400000e-07	2.612245e-07	-1.331395e-08	1.833298e+00	-8.760656e+02
8.500000e-07	3.905224e-07	-1.259707e-08	2.740722e+00	-8.294346e+02
8.600000e-07	5.197094e-07	-1.180750e-08	3.647369e+00	-7.797565e+02
8.700000e-07	6.487245e-07	-1.093718e-08	4.552808e+00	-7.257488e+02
8.800000e-07	7.774877e-07	-9.972513e-09	5.456480e+00	-6.653345e+02
8.900000e-07	9.059467e-07	-8.887184e-09	6.358017e+00	-5.958262e+02
9.000000e-07	1.034128e-06	-7.649026e-09	7.257605e+00	-5.143193e+02
9.100000e-07	1.161944e-06	-6.222355e-09	8.154631e+00	-4.182367e+02
9.200000e-07	1.289229e-06	-4.564562e-09	9.047928e+00	-3.059239e+02
9.300000e-07	1.415911e-06	-2.632450e-09	9.936994e+00	-1.771699e+02
9.400000e-07	1.542162e-06	-4.220109e-10	1.082303e+01	-3.353346e+01
9.500000e-07	1.668092e-06	1.969157e-09	1.170682e+01	1.216128e+02
9.600000e-07	1.793541e-06	4.415307e-09	1.258723e+01	2.833527e+02
9.700000e-07	1.918351e-06	6.866780e-09	1.346316e+01	4.457776e+02
9.800000e-07	2.042425e-06	9.284550e-09	1.433393e+01	6.027263e+02
9.900000e-07	2.165647e-06	1.154055e-08	1.519871e+01	7.485781e+02
1.000000e-06	2.288025e-06	1.350031e-08	1.605757e+01	8.789537e+02
1.010000e-06	2.409646e-06	1.513218e-08	1.691112e+01	9.911958e+02
1.020000e-06	2.530372e-06	1.647102e-08	1.775839e+01	1.084550e+03
1.030000e-06	2.649998e-06	1.756760e-08	1.859793e+01	1.160030e+03
1.040000e-06	2.768544e-06	1.847219e-08	1.942990e+01	1.220013e+03
1.050000e-06	2.886064e-06	1.922460e-08	2.025466e+01	1.267661e+03
1.060000e-06	3.002546e-06	1.985625e-08	2.107214e+01	1.306308e+03
1.070000e-06	3.117956e-06	2.039158e-08	2.188210e+01	1.338919e+03
1.080000e-06	3.232165e-06	2.084795e-08	2.268363e+01	1.367725e+03
1.090000e-06	3.345073e-06	2.124317e-08	2.347603e+01	1.394083e+03
1.100000e-06	3.456627e-06	2.159262e-08	2.425893e+01	1.418543e+03
1.110000e-06	3.566958e-06	2.190328e-08	2.503324e+01	1.441084e+03
1.120000e-06	3.676194e-06	2.218041e-08	2.579986e+01	1.461414e+03
1.130000e-06	3.784202e-06	2.243156e-08	2.655788e+01	1.479264e+03
1.140000e-06	3.890869e-06	2.266316e-08	2.730648e+01	1.494597e+03
1.150000e-06	3.996205e-06	2.287746e-08	2.804573e+01	1.507684e+03
1.160000e-06	4.100119e-06	2.307535e-08	2.877501e+01	1.519065e+03
1.170000e-06	4.202536e-06	2.325912e-08	2.949378e+01	1.529407e+03
1.180000e-06	4.303456e-06	2.342881e-08	3.020205e+01	1.539333e+03
1.190000e-06	4.402806e-06	2.358688e-08	3.089930e+01	1.549267e+03
1.200000e-06	4.500550e-06	2.373295e-08	3.158528e+01	1.559353e+03
1.210000e-06	4.596603e-06	2.386892e-08	3.225939e+01	1.569456e+03
1.220000e-06	4.690935e-06	2.399685e-08	3.292142e+01	1.579244e+03
1.230000e-06	4.783685e-06	2.411861e-08	3.357234e+01	1.588326e+03
1.240000e-06	4.874873e-06	2.423558e-08	3.421231e+01	1.596390e+03
1.250000e-06	4.964403e-06	2.434512e-08	3.484063e+01	1.603308e+03
1.260000e-06	5.052079e-06	2.444573e-08	3.545595e+01	1.609176e+03
1.270000e-06	5.137881e-06	2.453788e-08	3.605812e+01	1.614281e+03
1.280000e-06	5.221920e-06	2.462377e-08	3.664791e+01	1.619013e+03
1.290000e-06	5.304087e-06	2.470652e-08	3.722457e+01	1.623749e+03
1.300000e-06	5.384351e-06	2.478697e-08	3.778787e+01	1.628747e+03
1.310000e-06	5.462634e-06	2.486440e-08	3.833727e+01	1.634083e+03
1.320000e-06	5.538779e-06	2.493815e-08	3.887166e+01	1.639642e+03
1.330000e-06	5.612764e-06	2.500706e-08	3.939089e+01	1.645173e+03
1.340000e-06	5.684561e-06	2.507275e-08	3.989477e+01	1.650380e+03
1.350000e-06	5.754319e-06	2.513629e-08	4.038434e+01	1.655013e+03
1.360000e-06	5.822097e-06	2.519744e-08	4.086001e+01	1.658952e+03
1.370000e-06	5.887761e-06	2.525751e-08	4.132085e+01	1.662238e+03
1.380000e-06	5.951317e-06	2.531429e-08	4.176689e+01	1.665053e+03
1.390000e-06	6.012877e-06	2.536629e-08	4.219892e+01	1.667658e+03
1.400000e-06	6.072433e-06	2.541485e-08	4.261689e+01	1.670308e+03
1.410000e-06	6.129800e-06	2.545854e-08	4.301950e+01	1.673176e+03
1.420000e-06	6.184949e-06	2.549885e-08	4.340654e+01	1.676298e+03
1.430000e-06	6.237791e-06	2.553860e-08	4.377739e+01	1.679574e+03
1.440000e-06	6.288101e-06	2.557956e-08	4.413047e+01	1.682798e+03
1.450000e-06	6.335910e-06	2.561865e-08	4.446600e+01	1.685734e+03
1.460000e-06	6.381482e-06	2.565331e-08	4.478582e+01	1.688189e+03
1.470000e-06	6.424895e-06	2.568381e-08	4.509050e+01	1.690074e+03
1.480000e-06	6.465970e-06	2.571129e-08	4.537877e+01	1.691435e+03
1.490000e-06	6.504741e-06	2.573543e-08	4.565087e+01	1.692431e+03
1.500000e-06	6.541343e-06	2.575638e-08	4.590775e+01	1.693286e+03
1.510000e-06	6.575651e-06	2.577703e-08	4.614853e+01	1.694220e+03
1.520000e-06	6.607578e-06	2.579802e-08	4.637259e+01	1.695377e+03
1.530000e-06	6.637254e-06	2.581900e-08	4.658086e+01	1.696788e+03
1.540000e-06	6.664676e-06	2.583770e-08	4.677331e+01	1.698360e+03
1.550000e-06	6.689620e-06	2.585282e-08	4.694837e+01	1.699912e+03
1.560000e-06	6.712058e-06	2.586443e-08	4.710584e+01	1.701232e+03
1.570000e-06	6.732254e-06	2.587361e-08	4.724758e+01	1.702148e+03
1.580000e-06	6.750148e-06	2.588126e-08	4.737316e+01	1.702580e+03
1.590000e-06	6.765495e-06	2.588831e-08	4.748087e+01	1.702566e+03
1.600000e-06	6.778252e-06	2.589555e-08	4.757040e+01	1.702251e+03
1.610000e-06	6.788320e-06	2.590226e-08	4.764105e+01	1.701836e+03
1.620000e-06	6.795776e-06	2.590759e-08	4.769338e+01	1.701524e+03
1.630000e-06	6.800884e-06	2.591094e-08	4.772923e+01	1.701447e+03
1.640000e-06	6.803641e-06	2.591171e-08	4.774858e+01	1.701634e+03
1.650000e-06	6.803950e-06	2.590976e-08	4.775075e+01	1.701998e+03
1.660000e-06	6.801986e-06	2.590917e-08	4.773697e+01	1.702367e+03
1.670000e-06	6.797882e-06	2.590411e-08	4.770816e+01	1.702535e+03
1.680000e-06	6.791488e-06	2.589639e-08	4.766329e+01	1.702329e+03
1.690000e-06	6.782804e-06	2.588907e-08	4.760234e+01	1.701660e+03
1.700000e-06	6.771946e-06	2.588040e-08	4.752614e+01	1.700551e+03
1.710000e-06	6.758732e-06	2.586937e-08	4.743340e+01	1.699130e+03
1.720000e-06	6.743169e-06	2.585035e-08	4.732418e+01	1.697589e+03
1.730000e-06	6.725538e-06	2.583375e-08	4.720044e+01	1.696128e+03
1.740000e-06	6.705575e-06	2.582941e-08	4.706034e+01	1.694894e+03
1.750000e-06	6.682511e-06	2.578897e-08	4.689848e+01	1.693938e+03
1.760000e-06	6.656402e-06	2.576658e-08	4.671524e+01	1.693207e+03
1.770000e-06	6.627889e-06	2.577618e-08	4.651514e+01	1.692557e+03
1.780000e-06	6.597280e-06	2.573066e-08	4.630032e+01	1.691808e+03
1.790000e-06	6.565067e-06	2.574833e-08	4.607425e+01	1.690794e+03
1.800000e-06	6.531233e-06	2.579275e-08	4.583679e+01	1.689415e+03
1.810000e-06	6.495094e-06	2.570647e-08	4.558317e+01	1.687665e+03
1.820000e-06	6.456545e-06	2.573362e-08	4.531263e+01	1.685624e+03
1.830000e-06	6.415802e-06	2.570738e-08	4.502669e+01	1.683428e+03
1.840000e-06	6.372930e-06	2.562118e-08	4.472581e+01	1.681218e+03
1.850000e-06	6.327966e-06	2.567398e-08	4.441025e+01	1.679088e+03
1.860000e-06	6.280636e-06	2.558978e-08	4.407808e+01	1.677052e+03
1.870000e-06	6.230930e-06	2.553133e-08	4.372924e+01	1.675032e+03
1.880000e-06	6.178812e-06	2.550599e-08	4.336347e+01	1.672886e+03
1.890000e-06	6.124024e-06	2.545024e-08	4.297896e+01	1.670450e+03
1.900000e-06	6.066871e-06	2.546118e-08	4.257786e+01	1.667594e+03
1.910000e-06	6.007570e-06	2.538554e-08	4.216168e+01	1.664264e+03
1.920000e-06	5.945986e-06	2.532544e-08	4.172948e+01	1.660508e+03
1.930000e-06	5.882132e-06	2.528402e-08	4.128134e+01	1.656459e+03
1.940000e-06	5.816154e-06	2.523555e-08	4.081830e+01	1.652300e+03
1.950000e-06	5.748102e-06	2.521581e-08	4.034071e+01	1.648205e+03
1.960000e-06	5.677746e-06	2.510670e-08	3.984694e+01	1.644282e+03
1.970000e-06	5.605169e-06	2.504635e-08	3.933759e+01	1.640541e+03
1.980000e-06	5.530578e-06	2.498009e-08	3.881410e+01	1.636883e+03
1.990000e-06	5.453752e-06	2.491323e-08	3.827493e+01	1.633132e+03
2.000000e-06	5.374708e-06	2.487392e-08	3.772019e+01	1.629084e+03
2.010000e-06	5.293720e-06	2.480325e-08	3.715181e+01	1.624571e+03
2.020000e-06	5.210973e-06	2.473158e-08	3.657108e+01	1.619514e+03
2.030000e-06	5.126398e-06	2.461101e-08	3.597753e+01	1.613946e+03
2.040000e-06	5.039905e-06	2.452506e-08	3.537051e+01	1.608003e+03
2.050000e-06	4.951644e-06	2.446308e-08	3.475109e+01	1.601881e+03
2.060000e-06	4.861768e-06	2.439950e-08	3.412034e+01	1.595773e+03
2.070000e-06	4.770356e-06	2.431381e-08	3.347880e+01	1.589805e+03
2.080000e-06	4.677233e-06	2.420709e-08	3.282525e+01	1.583992e+03
2.090000e-06	4.582258e-06	2.411485e-08	3.215871e+01	1.578232e+03
2.100000e-06	4.485641e-06	2.401031e-08	3.148064e+01	1.572329e+03
2.110000e-06	4.387599e-06	2.391256e-08	3.079258e+01	1.566057e+03
2.120000e-06	4.288200e-06	2.380988e-08	3.009498e+01	1.559224e+03
2.130000e-06	4.187164e-06	2.370381e-08	2.938590e+01	1.551737e+03
2.140000e-06	4.084382e-06	2.358561e-08	2.866457e+01	1.543629e+03
2.150000e-06	3.980099e-06	2.345707e-08	2.793270e+01	1.535049e+03
2.160000e-06	3.874464e-06	2.332887e-08	2.719134e+01	1.526215e+03
2.170000e-06	3.767587e-06	2.320472e-08	2.644127e+01	1.517343e+03
2.180000e-06	3.659497e-06	2.308409e-08	2.568269e+01	1.508570e+03
2.190000e-06	3.550067e-06	2.295293e-08	2.491470e+01	1.499905e+03
2.200000e-06	3.439253e-06	2.281257e-08	2.413699e+01	1.491216e+03
2.210000e-06	3.327072e-06	2.265821e-08	2.334970e+01	1.482261e+03
2.220000e-06	3.213546e-06	2.250009e-08	2.255296e+01	1.472759e+03
2.230000e-06	3.098762e-06	2.233766e-08	2.174740e+01	1.462473e+03
2.240000e-06	2.982702e-06	2.217743e-08	2.093288e+01	1.451283e+03
2.250000e-06	2.865368e-06	2.201344e-08	2.010942e+01	1.439223e+03
2.260000e-06	2.746832e-06	2.183885e-08	1.927752e+01	1.426473e+03
2.270000e-06	2.627209e-06	2.165053e-08	1.843800e+01	1.413294e+03
2.280000e-06	2.506648e-06	2.145078e-08	1.759188e+01	1.399947e+03
2.290000e-06	2.385228e-06	2.125029e-08	1.673975e+01	1.386592e+03
2.300000e-06	2.263041e-06	2.104511e-08	1.588223e+01	1.373224e+03
2.310000e-06	2.140143e-06	2.082724e-08	1.501972e+01	1.359654e+03
2.320000e-06	2.016587e-06	2.059629e-08	1.415259e+01	1.345547e+03
2.330000e-06	1.892326e-06	2.035552e-08	1.328052e+01	1.330514e+03
2.340000e-06	1.767314e-06	2.010342e-08	1.240317e+01	1.314222e+03
2.350000e-06	1.641635e-06	1.983894e-08	1.152115e+01	1.296488e+03
2.360000e-06	1.515393e-06	1.956150e-08	1.063517e+01	1.277338e+03
2.370000e-06	1.388675e-06	1.927201e-08	9.745847e+00	1.256988e+03
2.380000e-06	1.261482e-06	1.896743e-08	8.853197e+00	1.235768e+03
2.390000e-06	1.133896e-06	1.864585e-08	7.957786e+00	1.213988e+03
2.400000e-06	1.005979e-06	1.830543e-08	7.060050e+00	1.191808e+03
2.410000e-06	8.776921e-07	1.794280e-08	6.159724e+00	1.169129e+03
2.420000e-06	7.491026e-07	1.755792e-08	5.257271e+00	1.145564e+03
2.430000e-06	6.202328e-07	1.715002e-08	4.352851e+00	1.120496e+03
2.440000e-06	4.911123e-07	1.671839e-08	3.446671e+00	1.093207e+03
2.450000e-06	3.618547e-07	1.626066e-08	2.539529e+00	1.063057e+03
2.460000e-06	2.324580e-07	1.576791e-08	1.631412e+00	1.029640e+03
2.470000e-06	1.029491e-07	1.523223e-08	7.225065e-01	9.928780e+02
2.480000e-06	-2.657351e-08	1.465305e-08	-1.864953e-01	9.529889e+02
2.490000e-06	-1.561000e-07	1.402951e-08	-1.095524e+00	9.103370e+02
2.500000e-06	-2.856138e-07	1.335288e-08	-2.004464e+00	8.651752e+02
2.510000e-06	-4.150377e-07	1.261356e-08	-2.912773e+00	8.173453e+02
2.520000e-06	-5.443105e-07	1.179913e-08	-3.820021e+00	7.660187e+02
2.530000e-06	-6.734438e-07	1.089393e-08	-4.726290e+00	7.095640e+02
2.540000e-06	-8.023842e-07	9.882790e-09	-5.631206e+00	6.456071e+02
2.550000e-06	-9.310184e-07	8.742522e-09	-6.533973e+00	5.713088e+02
2.560000e-06	-1.059292e-06	7.441350e-09	-7.434209e+00	4.838324e+02
2.570000e-06	-1.187151e-06	5.939738e-09	-8.331533e+00	3.809248e+02
2.580000e-06	-1.314558e-06	4.188011e-09	-9.225687e+00	2.614951e+02
2.590000e-06	-1.441522e-06	2.148363e-09	-1.011673e+01	1.260658e+02
2.600000e-06	-1.567993e-06	-1.626797e-10	-1.100432e+01	-2.301397e+01
2.610000e-06	-1.693869e-06	-2.635717e-09	-1.188773e+01	-1.816592e+02
2.620000e-06	-1.819104e-06	-5.152141e-09	-1.276664e+01	-3.444471e+02
2.630000e-06	-1.943606e-06	-7.661786e-09	-1.364041e+01	-5.052637e+02
2.640000e-06	-2.067213e-06	-1.007955e-08	-1.450789e+01	-6.580845e+02
2.650000e-06	-2.189933e-06	-1.225936e-08	-1.536915e+01	-7.977454e+02
2.660000e-06	-2.311886e-06	-1.411500e-08	-1.622503e+01	-9.205624e+02
2.670000e-06	-2.433033e-06	-1.565257e-08	-1.707525e+01	-1.024690e+03
2.680000e-06	-2.553293e-06	-1.691426e-08	-1.791925e+01	-1.110167e+03
2.690000e-06	-2.672584e-06	-1.794761e-08	-1.875644e+01	-1.178652e+03
2.700000e-06	-2.790844e-06	-1.879808e-08	-1.958640e+01	-1.232935e+03
2.710000e-06	-2.908044e-06	-1.950600e-08	-2.040892e+01	-1.276326e+03
2.720000e-06	-3.023962e-06	-2.010410e-08	-2.122245e+01	-1.312058e+03
2.730000e-06	-3.138531e-06	-2.061417e-08	-2.202650e+01	-1.342813e+03
2.740000e-06	-3.251821e-06	-2.105196e-08	-2.282158e+01	-1.370453e+03
2.750000e-06	-3.363840e-06	-2.143154e-08	-2.360774e+01	-1.395968e+03
2.760000e-06	-3.474530e-06	-2.176436e-08	-2.438457e+01	-1.419630e+03
2.770000e-06	-3.583899e-06	-2.206078e-08	-2.515213e+01	-1.441261e+03
2.780000e-06	-3.692159e-06	-2.232880e-08	-2.591191e+01	-1.460549e+03
2.790000e-06	-3.799238e-06	-2.257397e-08	-2.666340e+01	-1.477305e+03
2.800000e-06	-3.905083e-06	-2.280001e-08	-2.740623e+01	-1.491622e+03
2.810000e-06	-4.009589e-06	-2.300785e-08	-2.813966e+01	-1.503899e+03
2.820000e-06	-4.112538e-06	-2.319761e-08	-2.886217e+01	-1.514749e+03
2.830000e-06	-4.213988e-06	-2.337230e-08	-2.957416e+01	-1.524843e+03
2.840000e-06	-4.313916e-06	-2.353507e-08	-3.027546e+01	-1.534734e+03
2.850000e-06	-4.412378e-06	-2.368734e-08	-3.096648e+01	-1.544731e+03
2.860000e-06	-4.509367e-06	-2.382949e-08	-3.164715e+01	-1.554853e+03
2.870000e-06	-4.604708e-06	-2.396316e-08	-3.231626e+01	-1.564866e+03
2.880000e-06	-4.698447e-06	-2.408989e-08	-3.297413e+01	-1.574396e+03
2.890000e-06	-4.790505e-06	-2.420751e-08	-3.362020e+01	-1.583069e+03
2.900000e-06	-4.880867e-06	-2.431669e-08	-3.425437e+01	-1.590643e+03
2.910000e-06	-4.969537e-06	-2.441900e-08	-3.487667e+01	-1.597084e+03
2.920000e-06	-5.056298e-06	-2.451667e-08	-3.548556e+01	-1.602579e+03
2.930000e-06	-5.141103e-06	-2.460979e-08	-3.608073e+01	-1.607473e+03
2.940000e-06	-5.224068e-06	-2.469704e-08	-3.666299e+01	-1.612163e+03
