# Temperatura_=_91.4
# Concentracion g/m^3_=_26700.0
# C_Vs_to_Am_M_A/Vsm_=_65563218390.804596
# pendiente_HvsI_1/m_=_3716.3
# ordenada_HvsI_A/m_=_1297.0
# frecuencia_Hz_=_302527.04855680605

Tiempo_(s)	Campo_(V.s)	Magnetizacion_(V.s)	Campo_(kA/m)	Magnetizacion_(A/m)
0.000000e+00	-8.050414e-06	-2.730608e-08	-5.684854e+01	-1.786715e+03
1.000000e-08	-8.046220e-06	-2.730175e-08	-5.681892e+01	-1.786209e+03
2.000000e-08	-8.039442e-06	-2.728873e-08	-5.677106e+01	-1.785613e+03
3.000000e-08	-8.029953e-06	-2.727999e-08	-5.670405e+01	-1.784949e+03
4.000000e-08	-8.017600e-06	-2.726945e-08	-5.661682e+01	-1.784217e+03
5.000000e-08	-8.002242e-06	-2.725233e-08	-5.650836e+01	-1.783397e+03
6.000000e-08	-7.984124e-06	-2.722771e-08	-5.638042e+01	-1.782454e+03
7.000000e-08	-7.963724e-06	-2.719213e-08	-5.623637e+01	-1.781358e+03
8.000000e-08	-7.940836e-06	-2.722838e-08	-5.607474e+01	-1.780091e+03
9.000000e-08	-7.914803e-06	-2.726933e-08	-5.589091e+01	-1.778659e+03
1.000000e-07	-7.885472e-06	-2.719391e-08	-5.568379e+01	-1.777093e+03
1.100000e-07	-7.853257e-06	-2.714071e-08	-5.545630e+01	-1.775444e+03
1.200000e-07	-7.818296e-06	-2.712037e-08	-5.520941e+01	-1.773765e+03
1.300000e-07	-7.780724e-06	-2.704939e-08	-5.494410e+01	-1.772098e+03
1.400000e-07	-7.740922e-06	-2.693668e-08	-5.466304e+01	-1.770460e+03
1.500000e-07	-7.698811e-06	-2.698296e-08	-5.436566e+01	-1.768832e+03
1.600000e-07	-7.654033e-06	-2.706419e-08	-5.404946e+01	-1.767161e+03
1.700000e-07	-7.606573e-06	-2.688443e-08	-5.371432e+01	-1.765375e+03
1.800000e-07	-7.556207e-06	-2.692429e-08	-5.335866e+01	-1.763393e+03
1.900000e-07	-7.502750e-06	-2.687558e-08	-5.298117e+01	-1.761147e+03
2.000000e-07	-7.446536e-06	-2.674365e-08	-5.258421e+01	-1.758599e+03
2.100000e-07	-7.387616e-06	-2.677758e-08	-5.216814e+01	-1.755742e+03
2.200000e-07	-7.325993e-06	-2.671083e-08	-5.173299e+01	-1.752607e+03
2.300000e-07	-7.261722e-06	-2.671276e-08	-5.127913e+01	-1.749243e+03
2.400000e-07	-7.194660e-06	-2.660550e-08	-5.080557e+01	-1.745707e+03
2.500000e-07	-7.124901e-06	-2.654008e-08	-5.031296e+01	-1.742046e+03
2.600000e-07	-7.052418e-06	-2.650698e-08	-4.980112e+01	-1.738286e+03
2.700000e-07	-6.977110e-06	-2.644695e-08	-4.926933e+01	-1.734425e+03
2.800000e-07	-6.899030e-06	-2.638297e-08	-4.871796e+01	-1.730438e+03
2.900000e-07	-6.818161e-06	-2.630148e-08	-4.814690e+01	-1.726291e+03
3.000000e-07	-6.734715e-06	-2.626623e-08	-4.755763e+01	-1.721949e+03
3.100000e-07	-6.648993e-06	-2.615685e-08	-4.695230e+01	-1.717393e+03
3.200000e-07	-6.561017e-06	-2.608519e-08	-4.633105e+01	-1.712625e+03
3.300000e-07	-6.470666e-06	-2.604958e-08	-4.569304e+01	-1.707664e+03
3.400000e-07	-6.377968e-06	-2.595923e-08	-4.503844e+01	-1.702544e+03
3.500000e-07	-6.282970e-06	-2.587526e-08	-4.436761e+01	-1.697296e+03
3.600000e-07	-6.185659e-06	-2.579319e-08	-4.368044e+01	-1.691937e+03
3.700000e-07	-6.086078e-06	-2.571248e-08	-4.297725e+01	-1.686465e+03
3.800000e-07	-5.984353e-06	-2.562379e-08	-4.225890e+01	-1.680853e+03
3.900000e-07	-5.880507e-06	-2.554535e-08	-4.152559e+01	-1.675060e+03
4.000000e-07	-5.774503e-06	-2.545470e-08	-4.077704e+01	-1.669038e+03
4.100000e-07	-5.666447e-06	-2.534401e-08	-4.001399e+01	-1.662752e+03
4.200000e-07	-5.556392e-06	-2.524108e-08	-3.923683e+01	-1.656185e+03
4.300000e-07	-5.444298e-06	-2.513976e-08	-3.844527e+01	-1.649347e+03
4.400000e-07	-5.330111e-06	-2.503991e-08	-3.763893e+01	-1.642272e+03
4.500000e-07	-5.213889e-06	-2.492890e-08	-3.681823e+01	-1.635002e+03
4.600000e-07	-5.095758e-06	-2.481247e-08	-3.598403e+01	-1.627576e+03
4.700000e-07	-4.975757e-06	-2.469539e-08	-3.513664e+01	-1.620014e+03
4.800000e-07	-4.853967e-06	-2.457302e-08	-3.427661e+01	-1.612308e+03
4.900000e-07	-4.730405e-06	-2.444990e-08	-3.340407e+01	-1.604422e+03
5.000000e-07	-4.605101e-06	-2.432877e-08	-3.251923e+01	-1.596297e+03
5.100000e-07	-4.478178e-06	-2.420261e-08	-3.162295e+01	-1.587871e+03
5.200000e-07	-4.349637e-06	-2.406466e-08	-3.071525e+01	-1.579092e+03
5.300000e-07	-4.219508e-06	-2.392089e-08	-2.979633e+01	-1.569934e+03
5.400000e-07	-4.087754e-06	-2.377963e-08	-2.886595e+01	-1.560401e+03
5.500000e-07	-3.954408e-06	-2.363279e-08	-2.792431e+01	-1.550526e+03
5.600000e-07	-3.819577e-06	-2.347885e-08	-2.697219e+01	-1.540357e+03
5.700000e-07	-3.683304e-06	-2.331328e-08	-2.600990e+01	-1.529939e+03
5.800000e-07	-3.545666e-06	-2.314605e-08	-2.503796e+01	-1.519294e+03
5.900000e-07	-3.406641e-06	-2.297659e-08	-2.405622e+01	-1.508413e+03
6.000000e-07	-3.266110e-06	-2.280321e-08	-2.306386e+01	-1.497252e+03
6.100000e-07	-3.124131e-06	-2.262489e-08	-2.206126e+01	-1.485741e+03
6.200000e-07	-2.980886e-06	-2.244271e-08	-2.104972e+01	-1.473800e+03
6.300000e-07	-2.836547e-06	-2.225335e-08	-2.003046e+01	-1.461361e+03
6.400000e-07	-2.691199e-06	-2.205039e-08	-1.900408e+01	-1.448385e+03
6.500000e-07	-2.544841e-06	-2.184328e-08	-1.797057e+01	-1.434869e+03
6.600000e-07	-2.397612e-06	-2.163044e-08	-1.693089e+01	-1.420842e+03
6.700000e-07	-2.249604e-06	-2.141349e-08	-1.588573e+01	-1.406351e+03
6.800000e-07	-2.100855e-06	-2.118608e-08	-1.483532e+01	-1.391442e+03
6.900000e-07	-1.951472e-06	-2.094950e-08	-1.378045e+01	-1.376132e+03
7.000000e-07	-1.801464e-06	-2.070709e-08	-1.272116e+01	-1.360399e+03
7.100000e-07	-1.650852e-06	-2.045697e-08	-1.165760e+01	-1.344178e+03
7.200000e-07	-1.499712e-06	-2.019795e-08	-1.059031e+01	-1.327371e+03
7.300000e-07	-1.348090e-06	-1.992941e-08	-9.519627e+00	-1.309867e+03
7.400000e-07	-1.195997e-06	-1.965061e-08	-8.445615e+00	-1.291567e+03
7.500000e-07	-1.043392e-06	-1.935691e-08	-7.367980e+00	-1.272407e+03
7.600000e-07	-8.903879e-07	-1.905202e-08	-6.287533e+00	-1.252361e+03
7.700000e-07	-7.371224e-07	-1.873497e-08	-5.205239e+00	-1.231439e+03
7.800000e-07	-5.835867e-07	-1.840641e-08	-4.121036e+00	-1.209664e+03
7.900000e-07	-4.298205e-07	-1.806312e-08	-3.035206e+00	-1.187041e+03
8.000000e-07	-2.758904e-07	-1.770357e-08	-1.948219e+00	-1.163525e+03
8.100000e-07	-1.218285e-07	-1.732642e-08	-8.602998e-01	-1.139003e+03
8.200000e-07	3.234786e-08	-1.692915e-08	2.284266e-01	-1.113289e+03
8.300000e-07	1.865816e-07	-1.651060e-08	1.317558e+00	-1.086139e+03
8.400000e-07	3.407554e-07	-1.606558e-08	2.406267e+00	-1.057277e+03
8.500000e-07	4.947906e-07	-1.559547e-08	3.493997e+00	-1.026434e+03
8.600000e-07	6.486716e-07	-1.509413e-08	4.580638e+00	-9.933699e+02
8.700000e-07	8.023763e-07	-1.455720e-08	5.666033e+00	-9.578735e+02
8.800000e-07	9.558012e-07	-1.397898e-08	6.749453e+00	-9.197406e+02
8.900000e-07	1.108881e-06	-1.335679e-08	7.830437e+00	-8.787192e+02
9.000000e-07	1.261577e-06	-1.268473e-08	8.908708e+00	-8.344408e+02
9.100000e-07	1.413792e-06	-1.194934e-08	9.983584e+00	-7.863533e+02
9.200000e-07	1.565512e-06	-1.113753e-08	1.105497e+01	-7.336812e+02
9.300000e-07	1.716682e-06	-1.023670e-08	1.212246e+01	-6.754312e+02
9.400000e-07	1.867153e-06	-9.237995e-09	1.318502e+01	-6.104602e+02
9.500000e-07	2.016899e-06	-8.121797e-09	1.424247e+01	-5.376030e+02
9.600000e-07	2.165933e-06	-6.871788e-09	1.529488e+01	-4.558500e+02
9.700000e-07	2.314194e-06	-5.478702e-09	1.634184e+01	-3.645438e+02
9.800000e-07	2.461562e-06	-3.939756e-09	1.738249e+01	-2.635624e+02
9.900000e-07	2.608008e-06	-2.260271e-09	1.841662e+01	-1.534502e+02
1.000000e-06	2.753525e-06	-4.545338e-10	1.944420e+01	-3.546722e+01
1.010000e-06	2.898043e-06	1.444315e-09	2.046472e+01	8.845955e+01
1.020000e-06	3.041508e-06	3.397785e-09	2.147781e+01	2.158821e+02
1.030000e-06	3.183787e-06	5.359646e-09	2.248252e+01	3.440537e+02
1.040000e-06	3.324733e-06	7.285234e-09	2.347782e+01	4.701930e+02
1.050000e-06	3.464322e-06	9.131160e-09	2.446354e+01	5.917482e+02
1.060000e-06	3.602595e-06	1.086491e-08	2.543996e+01	7.066182e+02
1.070000e-06	3.739496e-06	1.247049e-08	2.640670e+01	8.132995e+02
1.080000e-06	3.874929e-06	1.394056e-08	2.736307e+01	9.109401e+02
1.090000e-06	4.008977e-06	1.527460e-08	2.830966e+01	9.993032e+02
1.100000e-06	4.141650e-06	1.647665e-08	2.924654e+01	1.078656e+03
1.110000e-06	4.272801e-06	1.755425e-08	3.017267e+01	1.149614e+03
1.120000e-06	4.402446e-06	1.851581e-08	3.108816e+01	1.212974e+03
1.130000e-06	4.530578e-06	1.937545e-08	3.199297e+01	1.269572e+03
1.140000e-06	4.657158e-06	2.014101e-08	3.288683e+01	1.320174e+03
1.150000e-06	4.782207e-06	2.082249e-08	3.376987e+01	1.365431e+03
1.160000e-06	4.905577e-06	2.142947e-08	3.464106e+01	1.405872e+03
1.170000e-06	5.027201e-06	2.196921e-08	3.549992e+01	1.441935e+03
1.180000e-06	5.146997e-06	2.244649e-08	3.634586e+01	1.474014e+03
1.190000e-06	5.264847e-06	2.287096e-08	3.717807e+01	1.502500e+03
1.200000e-06	5.380698e-06	2.325198e-08	3.799616e+01	1.527806e+03
1.210000e-06	5.494467e-06	2.359615e-08	3.879954e+01	1.550364e+03
1.220000e-06	5.606142e-06	2.390714e-08	3.958814e+01	1.570610e+03
1.230000e-06	5.715838e-06	2.418757e-08	4.036277e+01	1.588942e+03
1.240000e-06	5.823544e-06	2.444310e-08	4.112334e+01	1.605697e+03
1.250000e-06	5.929101e-06	2.467600e-08	4.186874e+01	1.621121e+03
1.260000e-06	6.032449e-06	2.488852e-08	4.259854e+01	1.635370e+03
1.270000e-06	6.133598e-06	2.508211e-08	4.331281e+01	1.648525e+03
1.280000e-06	6.232472e-06	2.525972e-08	4.401102e+01	1.660618e+03
1.290000e-06	6.328921e-06	2.542373e-08	4.469210e+01	1.671668e+03
1.300000e-06	6.423121e-06	2.557463e-08	4.535729e+01	1.681712e+03
1.310000e-06	6.515150e-06	2.571547e-08	4.600716e+01	1.690821e+03
1.320000e-06	6.604781e-06	2.584735e-08	4.664010e+01	1.699104e+03
1.330000e-06	6.691977e-06	2.596886e-08	4.725584e+01	1.706694e+03
1.340000e-06	6.776899e-06	2.608033e-08	4.785552e+01	1.713726e+03
1.350000e-06	6.859500e-06	2.618316e-08	4.843882e+01	1.720315e+03
1.360000e-06	6.939574e-06	2.627759e-08	4.900426e+01	1.726540e+03
1.370000e-06	7.017035e-06	2.636316e-08	4.955126e+01	1.732433e+03
1.380000e-06	7.091839e-06	2.644195e-08	5.007949e+01	1.737993e+03
1.390000e-06	7.164010e-06	2.651549e-08	5.058913e+01	1.743196e+03
1.400000e-06	7.233646e-06	2.658537e-08	5.108087e+01	1.748016e+03
1.410000e-06	7.300712e-06	2.665230e-08	5.155446e+01	1.752446e+03
1.420000e-06	7.365084e-06	2.671698e-08	5.200903e+01	1.756503e+03
1.430000e-06	7.426930e-06	2.677860e-08	5.244576e+01	1.760233e+03
1.440000e-06	7.486299e-06	2.683671e-08	5.286500e+01	1.763693e+03
1.450000e-06	7.542968e-06	2.688989e-08	5.326517e+01	1.766944e+03
1.460000e-06	7.596937e-06	2.693774e-08	5.364627e+01	1.770029e+03
1.470000e-06	7.647899e-06	2.698085e-08	5.400614e+01	1.772963e+03
1.480000e-06	7.695747e-06	2.701985e-08	5.434403e+01	1.775734e+03
1.490000e-06	7.740855e-06	2.705737e-08	5.466256e+01	1.778305e+03
1.500000e-06	7.783179e-06	2.709247e-08	5.496143e+01	1.780632e+03
1.510000e-06	7.822665e-06	2.712448e-08	5.524027e+01	1.782679e+03
1.520000e-06	7.859496e-06	2.715264e-08	5.550035e+01	1.784434e+03
1.530000e-06	7.893591e-06	2.717646e-08	5.574111e+01	1.785911e+03
1.540000e-06	7.924872e-06	2.719717e-08	5.596201e+01	1.787152e+03
1.550000e-06	7.953442e-06	2.721646e-08	5.616376e+01	1.788212e+03
1.560000e-06	7.979071e-06	2.723422e-08	5.634474e+01	1.789148e+03
1.570000e-06	8.001688e-06	2.724931e-08	5.650445e+01	1.790003e+03
1.580000e-06	8.021518e-06	2.726097e-08	5.664448e+01	1.790791e+03
1.590000e-06	8.038445e-06	2.726916e-08	5.676401e+01	1.791501e+03
1.600000e-06	8.052341e-06	2.727584e-08	5.686214e+01	1.792100e+03
1.610000e-06	8.063098e-06	2.728264e-08	5.693810e+01	1.792544e+03
1.620000e-06	8.070804e-06	2.728800e-08	5.699252e+01	1.792796e+03
1.630000e-06	8.075713e-06	2.729125e-08	5.702719e+01	1.792839e+03
1.640000e-06	8.077740e-06	2.729382e-08	5.704150e+01	1.792676e+03
1.650000e-06	8.076936e-06	2.729156e-08	5.703582e+01	1.792335e+03
1.660000e-06	8.073514e-06	2.727913e-08	5.701166e+01	1.791856e+03
1.670000e-06	8.067336e-06	2.727283e-08	5.696803e+01	1.791278e+03
1.680000e-06	8.058449e-06	2.726271e-08	5.690527e+01	1.790629e+03
1.690000e-06	8.046871e-06	2.724920e-08	5.682352e+01	1.789914e+03
1.700000e-06	8.032427e-06	2.724224e-08	5.672152e+01	1.789118e+03
1.710000e-06	8.015360e-06	2.724509e-08	5.660099e+01	1.788208e+03
1.720000e-06	7.996000e-06	2.724523e-08	5.646428e+01	1.787151e+03
1.730000e-06	7.974078e-06	2.712219e-08	5.630948e+01	1.785926e+03
1.740000e-06	7.948924e-06	2.708525e-08	5.613185e+01	1.784532e+03
1.750000e-06	7.920025e-06	2.712913e-08	5.592778e+01	1.782994e+03
1.760000e-06	7.887677e-06	2.709185e-08	5.569935e+01	1.781359e+03
1.770000e-06	7.852823e-06	2.706801e-08	5.545323e+01	1.779682e+03
1.780000e-06	7.815631e-06	2.716976e-08	5.519060e+01	1.778008e+03
1.790000e-06	7.776205e-06	2.713622e-08	5.491219e+01	1.776362e+03
1.800000e-06	7.734766e-06	2.696815e-08	5.461957e+01	1.774733e+03
1.810000e-06	7.690774e-06	2.708649e-08	5.430891e+01	1.773078e+03
1.820000e-06	7.644067e-06	2.696003e-08	5.397909e+01	1.771327e+03
1.830000e-06	7.594639e-06	2.696716e-08	5.363005e+01	1.769400e+03
1.840000e-06	7.542087e-06	2.703276e-08	5.325895e+01	1.767224e+03
1.850000e-06	7.486634e-06	2.688674e-08	5.286736e+01	1.764752e+03
1.860000e-06	7.428522e-06	2.696527e-08	5.245700e+01	1.761970e+03
1.870000e-06	7.367747e-06	2.678138e-08	5.202783e+01	1.758898e+03
1.880000e-06	7.304240e-06	2.676924e-08	5.157938e+01	1.755585e+03
1.890000e-06	7.237831e-06	2.677339e-08	5.111043e+01	1.752085e+03
1.900000e-06	7.168607e-06	2.665196e-08	5.062159e+01	1.748451e+03
1.910000e-06	7.096580e-06	2.667751e-08	5.011297e+01	1.744714e+03
1.920000e-06	7.021803e-06	2.653902e-08	4.958493e+01	1.740878e+03
1.930000e-06	6.944246e-06	2.653457e-08	4.903725e+01	1.736925e+03
1.940000e-06	6.864023e-06	2.642135e-08	4.847075e+01	1.732820e+03
1.950000e-06	6.781337e-06	2.636859e-08	4.788686e+01	1.728528e+03
1.960000e-06	6.696142e-06	2.635471e-08	4.728525e+01	1.724025e+03
1.970000e-06	6.608498e-06	2.620346e-08	4.666635e+01	1.719307e+03
1.980000e-06	6.518455e-06	2.617818e-08	4.603050e+01	1.714391e+03
1.990000e-06	6.426120e-06	2.606644e-08	4.537847e+01	1.709306e+03
2.000000e-06	6.331477e-06	2.602568e-08	4.471014e+01	1.704086e+03
2.010000e-06	6.234622e-06	2.592937e-08	4.402620e+01	1.698753e+03
2.020000e-06	6.135588e-06	2.584891e-08	4.332686e+01	1.693309e+03
2.030000e-06	6.034233e-06	2.575856e-08	4.261113e+01	1.687735e+03
2.040000e-06	5.930665e-06	2.564519e-08	4.187979e+01	1.681990e+03
2.050000e-06	5.825050e-06	2.557203e-08	4.113398e+01	1.676028e+03
2.060000e-06	5.717554e-06	2.546706e-08	4.037489e+01	1.669809e+03
2.070000e-06	5.608109e-06	2.538875e-08	3.960203e+01	1.663311e+03
2.080000e-06	5.496504e-06	2.526287e-08	3.881392e+01	1.656538e+03
2.090000e-06	5.382726e-06	2.516910e-08	3.801048e+01	1.649517e+03
2.100000e-06	5.266942e-06	2.505986e-08	3.719286e+01	1.642290e+03
2.110000e-06	5.149213e-06	2.496303e-08	3.636151e+01	1.634899e+03
2.120000e-06	5.029502e-06	2.485221e-08	3.551616e+01	1.627369e+03
2.130000e-06	4.907961e-06	2.474031e-08	3.465789e+01	1.619701e+03
2.140000e-06	4.784705e-06	2.460953e-08	3.378751e+01	1.611863e+03
2.150000e-06	4.659691e-06	2.446888e-08	3.290472e+01	1.603803e+03
2.160000e-06	4.532907e-06	2.433923e-08	3.200942e+01	1.595456e+03
2.170000e-06	4.404401e-06	2.420772e-08	3.110197e+01	1.586768e+03
2.180000e-06	4.274321e-06	2.408060e-08	3.018340e+01	1.577704e+03
2.190000e-06	4.142766e-06	2.393853e-08	2.925442e+01	1.568261e+03
2.200000e-06	4.009688e-06	2.380025e-08	2.831468e+01	1.558466e+03
2.210000e-06	3.875117e-06	2.364573e-08	2.736439e+01	1.548365e+03
2.220000e-06	3.739002e-06	2.349442e-08	2.640321e+01	1.538004e+03
2.230000e-06	3.601434e-06	2.333199e-08	2.543177e+01	1.527414e+03
2.240000e-06	3.462541e-06	2.316961e-08	2.445096e+01	1.516594e+03
2.250000e-06	3.322329e-06	2.299785e-08	2.346085e+01	1.505508e+03
2.260000e-06	3.180838e-06	2.281887e-08	2.246170e+01	1.494091e+03
2.270000e-06	3.038061e-06	2.263394e-08	2.145347e+01	1.482263e+03
2.280000e-06	2.894124e-06	2.244776e-08	2.043705e+01	1.469952e+03
2.290000e-06	2.749147e-06	2.226207e-08	1.941329e+01	1.457111e+03
2.300000e-06	2.603212e-06	2.206492e-08	1.838276e+01	1.443726e+03
2.310000e-06	2.456386e-06	2.185761e-08	1.734593e+01	1.429822e+03
2.320000e-06	2.308670e-06	2.164003e-08	1.630283e+01	1.415441e+03
2.330000e-06	2.160166e-06	2.141660e-08	1.525416e+01	1.400632e+03
2.340000e-06	2.010953e-06	2.118295e-08	1.420048e+01	1.385421e+03
2.350000e-06	1.861074e-06	2.094102e-08	1.314210e+01	1.369797e+03
2.360000e-06	1.710695e-06	2.069242e-08	1.208019e+01	1.353705e+03
2.370000e-06	1.559798e-06	2.043545e-08	1.101462e+01	1.337054e+03
2.380000e-06	1.408281e-06	2.017100e-08	9.944670e+00	1.319733e+03
2.390000e-06	1.256237e-06	1.989854e-08	8.871003e+00	1.301639e+03
2.400000e-06	1.103767e-06	1.961410e-08	7.794324e+00	1.282696e+03
2.410000e-06	9.508934e-07	1.931574e-08	6.714797e+00	1.262871e+03
2.420000e-06	7.976758e-07	1.900265e-08	5.632841e+00	1.242165e+03
2.430000e-06	6.442330e-07	1.867634e-08	4.549294e+00	1.220600e+03
2.440000e-06	4.906162e-07	1.833513e-08	3.464519e+00	1.198189e+03
2.450000e-06	3.368204e-07	1.797858e-08	2.378480e+00	1.174902e+03
2.460000e-06	1.828876e-07	1.760460e-08	1.291473e+00	1.150646e+03
2.470000e-06	2.887250e-08	1.721270e-08	2.038851e-01	1.125250e+03
2.480000e-06	-1.251702e-07	1.680188e-08	-8.838974e-01	1.098482e+03
2.490000e-06	-2.791779e-07	1.636789e-08	-1.971433e+00	1.070073e+03
2.500000e-06	-4.330626e-07	1.590938e-08	-3.058101e+00	1.039748e+03
2.510000e-06	-5.868310e-07	1.542110e-08	-4.143946e+00	1.007259e+03
2.520000e-06	-7.404401e-07	1.489487e-08	-5.228667e+00	9.723876e+02
2.530000e-06	-8.938170e-07	1.432633e-08	-6.311748e+00	9.349332e+02
2.540000e-06	-1.046935e-06	1.371176e-08	-7.393001e+00	8.946615e+02
2.550000e-06	-1.199757e-06	1.304737e-08	-8.472162e+00	8.512396e+02
2.560000e-06	-1.352141e-06	1.232595e-08	-9.548232e+00	8.041668e+02
2.570000e-06	-1.503892e-06	1.153740e-08	-1.061983e+01	7.527248e+02
2.580000e-06	-1.655015e-06	1.067017e-08	-1.168700e+01	6.959711e+02
2.590000e-06	-1.805591e-06	9.707960e-09	-1.275030e+01	6.327902e+02
2.600000e-06	-1.955551e-06	8.634023e-09	-1.380925e+01	5.620073e+02
2.610000e-06	-2.104770e-06	7.432771e-09	-1.486297e+01	4.825558e+02
2.620000e-06	-2.253183e-06	6.090450e-09	-1.591100e+01	3.936717e+02
2.630000e-06	-2.400712e-06	4.600510e-09	-1.695279e+01	2.950844e+02
2.640000e-06	-2.547292e-06	2.964332e-09	-1.798787e+01	1.871633e+02
2.650000e-06	-2.693004e-06	1.193677e-09	-1.901683e+01	7.099042e+01
2.660000e-06	-2.837785e-06	-6.855580e-10	-2.003921e+01	-5.166413e+01
2.670000e-06	-2.981341e-06	-2.632971e-09	-2.105294e+01	-1.784642e+02
2.680000e-06	-3.123637e-06	-4.601633e-09	-2.205777e+01	-3.067139e+02
2.690000e-06	-3.264791e-06	-6.545293e-09	-2.305454e+01	-4.336150e+02
2.700000e-06	-3.404684e-06	-8.424532e-09	-2.404240e+01	-5.565352e+02
2.710000e-06	-3.543188e-06	-1.020620e-08	-2.502045e+01	-6.732438e+02
2.720000e-06	-3.680391e-06	-1.186741e-08	-2.598933e+01	-7.820788e+02
2.730000e-06	-3.816271e-06	-1.339684e-08	-2.694885e+01	-8.820257e+02
2.740000e-06	-3.950714e-06	-1.479028e-08	-2.789823e+01	-9.727017e+02
2.750000e-06	-4.083766e-06	-1.604946e-08	-2.883778e+01	-1.054261e+03
2.760000e-06	-4.215388e-06	-1.717834e-08	-2.976724e+01	-1.127249e+03
2.770000e-06	-4.345533e-06	-1.818755e-08	-3.068627e+01	-1.192431e+03
2.780000e-06	-4.474262e-06	-1.908732e-08	-3.159530e+01	-1.250645e+03
2.790000e-06	-4.601441e-06	-1.988867e-08	-3.249338e+01	-1.302681e+03
2.800000e-06	-4.727016e-06	-2.060318e-08	-3.338014e+01	-1.349222e+03
2.810000e-06	-4.850933e-06	-2.123938e-08	-3.425518e+01	-1.390824e+03
2.820000e-06	-4.973117e-06	-2.180478e-08	-3.511799e+01	-1.427945e+03
2.830000e-06	-5.093532e-06	-2.230638e-08	-3.596832e+01	-1.460984e+03
2.840000e-06	-5.211996e-06	-2.275468e-08	-3.680486e+01	-1.490332e+03
2.850000e-06	-5.328379e-06	-2.315839e-08	-3.762670e+01	-1.516395e+03
2.860000e-06	-5.442595e-06	-2.352311e-08	-3.843324e+01	-1.539600e+03
2.870000e-06	-5.554629e-06	-2.385105e-08	-3.922438e+01	-1.560386e+03
2.880000e-06	-5.664525e-06	-2.414518e-08	-4.000042e+01	-1.579163e+03
2.890000e-06	-5.772422e-06	-2.440923e-08	-4.076234e+01	-1.596287e+03
2.900000e-06	-5.878406e-06	-2.464901e-08	-4.151075e+01	-1.612027e+03
2.910000e-06	-5.982255e-06	-2.487012e-08	-4.224409e+01	-1.626561e+03
2.920000e-06	-6.083782e-06	-2.507186e-08	-4.296103e+01	-1.639987e+03
2.930000e-06	-6.183020e-06	-2.525713e-08	-4.366181e+01	-1.652344e+03
2.940000e-06	-6.280066e-06	-2.542969e-08	-4.434710e+01	-1.663654e+03
