# Temperatura_=_68.73
# Concentracion g/m^3_=_26700.0
# C_Vs_to_Am_M_A/Vsm_=_65563218390.804596
# pendiente_HvsI_1/m_=_3716.3
# ordenada_HvsI_A/m_=_1297.0
# frecuencia_Hz_=_301770.9271059175

Tiempo_(s)	Campo_(V.s)	Magnetizacion_(V.s)	Campo_(kA/m)	Magnetizacion_(A/m)
0.000000e+00	-5.245220e-06	-2.127724e-08	-3.830398e+01	-1.389996e+03
1.000000e-08	-5.243638e-06	-2.128265e-08	-3.829243e+01	-1.390161e+03
2.000000e-08	-5.240188e-06	-2.128098e-08	-3.826724e+01	-1.390157e+03
3.000000e-08	-5.235081e-06	-2.127577e-08	-3.822994e+01	-1.389974e+03
4.000000e-08	-5.228353e-06	-2.126771e-08	-3.818081e+01	-1.389593e+03
5.000000e-08	-5.220054e-06	-2.125559e-08	-3.812021e+01	-1.388987e+03
6.000000e-08	-5.209833e-06	-2.123922e-08	-3.804557e+01	-1.388135e+03
7.000000e-08	-5.197603e-06	-2.121735e-08	-3.795626e+01	-1.387028e+03
8.000000e-08	-5.183590e-06	-2.118302e-08	-3.785392e+01	-1.385670e+03
9.000000e-08	-5.167421e-06	-2.118768e-08	-3.773585e+01	-1.384085e+03
1.000000e-07	-5.148993e-06	-2.120183e-08	-3.760127e+01	-1.382310e+03
1.100000e-07	-5.128694e-06	-2.114373e-08	-3.745304e+01	-1.380393e+03
1.200000e-07	-5.106630e-06	-2.109572e-08	-3.729191e+01	-1.378379e+03
1.300000e-07	-5.083049e-06	-2.104657e-08	-3.711970e+01	-1.376308e+03
1.400000e-07	-5.058026e-06	-2.093313e-08	-3.693697e+01	-1.374201e+03
1.500000e-07	-5.031322e-06	-2.099144e-08	-3.674196e+01	-1.372060e+03
1.600000e-07	-5.003002e-06	-2.098911e-08	-3.653515e+01	-1.369867e+03
1.700000e-07	-4.973307e-06	-2.083011e-08	-3.631830e+01	-1.367585e+03
1.800000e-07	-4.942084e-06	-2.089418e-08	-3.609029e+01	-1.365167e+03
1.900000e-07	-4.908779e-06	-2.082616e-08	-3.584707e+01	-1.362563e+03
2.000000e-07	-4.873608e-06	-2.068130e-08	-3.559023e+01	-1.359732e+03
2.100000e-07	-4.836975e-06	-2.074782e-08	-3.532271e+01	-1.356641e+03
2.200000e-07	-4.798605e-06	-2.066102e-08	-3.504251e+01	-1.353277e+03
2.300000e-07	-4.758516e-06	-2.056943e-08	-3.474976e+01	-1.349640e+03
2.400000e-07	-4.716533e-06	-2.055357e-08	-3.444317e+01	-1.345745e+03
2.500000e-07	-4.672602e-06	-2.043106e-08	-3.412236e+01	-1.341614e+03
2.600000e-07	-4.627038e-06	-2.041205e-08	-3.378962e+01	-1.337272e+03
2.700000e-07	-4.579770e-06	-2.034883e-08	-3.344444e+01	-1.332743e+03
2.800000e-07	-4.530509e-06	-2.020823e-08	-3.308470e+01	-1.328044e+03
2.900000e-07	-4.479106e-06	-2.016251e-08	-3.270932e+01	-1.323185e+03
3.000000e-07	-4.425878e-06	-2.010963e-08	-3.232062e+01	-1.318171e+03
3.100000e-07	-4.371100e-06	-2.002598e-08	-3.192059e+01	-1.313002e+03
3.200000e-07	-4.314747e-06	-1.993774e-08	-3.150907e+01	-1.307674e+03
3.300000e-07	-4.256613e-06	-1.985416e-08	-3.108453e+01	-1.302185e+03
3.400000e-07	-4.196846e-06	-1.976117e-08	-3.064808e+01	-1.296532e+03
3.500000e-07	-4.135684e-06	-1.965923e-08	-3.020143e+01	-1.290716e+03
3.600000e-07	-4.073152e-06	-1.958353e-08	-2.974479e+01	-1.284735e+03
3.700000e-07	-4.009360e-06	-1.948833e-08	-2.927893e+01	-1.278591e+03
3.800000e-07	-3.944075e-06	-1.940001e-08	-2.880218e+01	-1.272281e+03
3.900000e-07	-3.877075e-06	-1.929575e-08	-2.831291e+01	-1.265803e+03
4.000000e-07	-3.808612e-06	-1.916423e-08	-2.781294e+01	-1.259152e+03
4.100000e-07	-3.738963e-06	-1.908238e-08	-2.730432e+01	-1.252324e+03
4.200000e-07	-3.668185e-06	-1.898199e-08	-2.678746e+01	-1.245315e+03
4.300000e-07	-3.596242e-06	-1.886448e-08	-2.626208e+01	-1.238123e+03
4.400000e-07	-3.522833e-06	-1.874737e-08	-2.572600e+01	-1.230747e+03
4.500000e-07	-3.447751e-06	-1.863249e-08	-2.517770e+01	-1.223189e+03
4.600000e-07	-3.371328e-06	-1.851502e-08	-2.461961e+01	-1.215453e+03
4.700000e-07	-3.293703e-06	-1.838905e-08	-2.405275e+01	-1.207539e+03
4.800000e-07	-3.214701e-06	-1.827237e-08	-2.347582e+01	-1.199449e+03
4.900000e-07	-3.134312e-06	-1.814739e-08	-2.288877e+01	-1.191179e+03
5.000000e-07	-3.052768e-06	-1.801686e-08	-2.229329e+01	-1.182721e+03
5.100000e-07	-2.970248e-06	-1.787601e-08	-2.169067e+01	-1.174067e+03
5.200000e-07	-2.886861e-06	-1.773612e-08	-2.108172e+01	-1.165205e+03
5.300000e-07	-2.802710e-06	-1.760116e-08	-2.046720e+01	-1.156124e+03
5.400000e-07	-2.717645e-06	-1.745948e-08	-1.984600e+01	-1.146816e+03
5.500000e-07	-2.631560e-06	-1.731086e-08	-1.921735e+01	-1.137276e+03
5.600000e-07	-2.544583e-06	-1.715958e-08	-1.858219e+01	-1.127499e+03
5.700000e-07	-2.456807e-06	-1.700571e-08	-1.794119e+01	-1.117487e+03
5.800000e-07	-2.368036e-06	-1.684587e-08	-1.729292e+01	-1.107240e+03
5.900000e-07	-2.278132e-06	-1.668145e-08	-1.663639e+01	-1.096759e+03
6.000000e-07	-2.187239e-06	-1.651642e-08	-1.597263e+01	-1.086041e+03
6.100000e-07	-2.095560e-06	-1.635147e-08	-1.530313e+01	-1.075081e+03
6.200000e-07	-2.003248e-06	-1.618135e-08	-1.462901e+01	-1.063871e+03
6.300000e-07	-1.910225e-06	-1.600356e-08	-1.394970e+01	-1.052401e+03
6.400000e-07	-1.816490e-06	-1.582174e-08	-1.326518e+01	-1.040659e+03
6.500000e-07	-1.722185e-06	-1.563820e-08	-1.257651e+01	-1.028634e+03
6.600000e-07	-1.627350e-06	-1.544857e-08	-1.188396e+01	-1.016319e+03
6.700000e-07	-1.532007e-06	-1.525374e-08	-1.118770e+01	-1.003707e+03
6.800000e-07	-1.436165e-06	-1.505567e-08	-1.048780e+01	-9.907959e+02
6.900000e-07	-1.339775e-06	-1.485370e-08	-9.783905e+00	-9.775840e+02
7.000000e-07	-1.242792e-06	-1.464641e-08	-9.075673e+00	-9.640700e+02
7.100000e-07	-1.145256e-06	-1.443406e-08	-8.363399e+00	-9.502511e+02
7.200000e-07	-1.047261e-06	-1.421880e-08	-7.647777e+00	-9.361214e+02
7.300000e-07	-9.488469e-07	-1.400035e-08	-6.929093e+00	-9.216717e+02
7.400000e-07	-8.500601e-07	-1.377700e-08	-6.207687e+00	-9.068885e+02
7.500000e-07	-7.509611e-07	-1.354615e-08	-5.484003e+00	-8.917551e+02
7.600000e-07	-6.515773e-07	-1.330769e-08	-4.758238e+00	-8.762521e+02
7.700000e-07	-5.519921e-07	-1.306301e-08	-4.031002e+00	-8.603582e+02
7.800000e-07	-4.522745e-07	-1.281252e-08	-3.302800e+00	-8.440508e+02
7.900000e-07	-3.524710e-07	-1.255824e-08	-2.573971e+00	-8.273064e+02
8.000000e-07	-2.525586e-07	-1.229855e-08	-1.844346e+00	-8.101002e+02
8.100000e-07	-1.525450e-07	-1.203092e-08	-1.113982e+00	-7.924057e+02
8.200000e-07	-5.248167e-08	-1.175458e-08	-3.832551e-01	-7.741943e+02
8.300000e-07	4.763874e-08	-1.146973e-08	3.478888e-01	-7.554349e+02
8.400000e-07	1.477779e-07	-1.117507e-08	1.079169e+00	-7.360934e+02
8.500000e-07	2.478664e-07	-1.087186e-08	1.810081e+00	-7.161332e+02
8.600000e-07	3.478902e-07	-1.056025e-08	2.540519e+00	-6.955152e+02
8.700000e-07	4.478218e-07	-1.023584e-08	3.270284e+00	-6.741977e+02
8.800000e-07	5.476397e-07	-9.899036e-09	3.999219e+00	-6.521364e+02
8.900000e-07	6.473672e-07	-9.551060e-09	4.727493e+00	-6.292840e+02
9.000000e-07	7.469604e-07	-9.191156e-09	5.454787e+00	-6.055891e+02
9.100000e-07	8.463052e-07	-8.815086e-09	6.180267e+00	-5.809954e+02
9.200000e-07	9.452975e-07	-8.423529e-09	6.903172e+00	-5.554404e+02
9.300000e-07	1.043935e-06	-8.018080e-09	7.623486e+00	-5.288553e+02
9.400000e-07	1.142154e-06	-7.596987e-09	8.340744e+00	-5.011643e+02
9.500000e-07	1.239817e-06	-7.156998e-09	9.053944e+00	-4.722851e+02
9.600000e-07	1.336855e-06	-6.698127e-09	9.762577e+00	-4.421300e+02
9.700000e-07	1.433249e-06	-6.220196e-09	1.046651e+01	-4.106067e+02
9.800000e-07	1.529052e-06	-5.718898e-09	1.116613e+01	-3.776197e+02
9.900000e-07	1.624291e-06	-5.193201e-09	1.186162e+01	-3.430717e+02
1.000000e-06	1.718946e-06	-4.641856e-09	1.255285e+01	-3.068649e+02
1.010000e-06	1.813015e-06	-4.063500e-09	1.323981e+01	-2.689035e+02
1.020000e-06	1.906477e-06	-3.454782e-09	1.392233e+01	-2.290962e+02
1.030000e-06	1.999263e-06	-2.817085e-09	1.459991e+01	-1.873616e+02
1.040000e-06	2.091434e-06	-2.153394e-09	1.527300e+01	-1.436339e+02
1.050000e-06	2.183036e-06	-1.459331e-09	1.594194e+01	-9.787223e+01
1.060000e-06	2.273828e-06	-7.321070e-10	1.660496e+01	-5.006999e+01
1.070000e-06	2.363558e-06	2.978239e-11	1.726023e+01	-2.656504e-01
1.080000e-06	2.452225e-06	8.216109e-10	1.790773e+01	5.144765e+01
1.090000e-06	2.540034e-06	1.640017e-09	1.854897e+01	1.049148e+02
1.100000e-06	2.627039e-06	2.481120e-09	1.918433e+01	1.599154e+02
1.110000e-06	2.713174e-06	3.339155e-09	1.981335e+01	2.161651e+02
1.120000e-06	2.798376e-06	4.208386e-09	2.043555e+01	2.733227e+02
1.130000e-06	2.882703e-06	5.084995e-09	2.105136e+01	3.310021e+02
1.140000e-06	2.966225e-06	5.966208e-09	2.166129e+01	3.887883e+02
1.150000e-06	3.048801e-06	6.842429e-09	2.226432e+01	4.462557e+02
1.160000e-06	3.130248e-06	7.705496e-09	2.285909e+01	5.029869e+02
1.170000e-06	3.210501e-06	8.549799e-09	2.344515e+01	5.585899e+02
1.180000e-06	3.289591e-06	9.373785e-09	2.402272e+01	6.127120e+02
1.190000e-06	3.367487e-06	1.017012e-08	2.459156e+01	6.650503e+02
1.200000e-06	3.444201e-06	1.093285e-08	2.515178e+01	7.153570e+02
1.210000e-06	3.519684e-06	1.166075e-08	2.570301e+01	7.634408e+02
1.220000e-06	3.593705e-06	1.235353e-08	2.624356e+01	8.091658e+02
1.230000e-06	3.666173e-06	1.300914e-08	2.677276e+01	8.524471e+02
1.240000e-06	3.737262e-06	1.362678e-08	2.729190e+01	8.932458e+02
1.250000e-06	3.807057e-06	1.420731e-08	2.780158e+01	9.315630e+02
1.260000e-06	3.875561e-06	1.475072e-08	2.830185e+01	9.674344e+02
1.270000e-06	3.942831e-06	1.525509e-08	2.879310e+01	1.000925e+03
1.280000e-06	4.008652e-06	1.572279e-08	2.927376e+01	1.032121e+03
1.290000e-06	4.072816e-06	1.615946e-08	2.974233e+01	1.061131e+03
1.300000e-06	4.135520e-06	1.656817e-08	3.020024e+01	1.088071e+03
1.310000e-06	4.196876e-06	1.694917e-08	3.064830e+01	1.113069e+03
1.320000e-06	4.256912e-06	1.730131e-08	3.108672e+01	1.136253e+03
1.330000e-06	4.315503e-06	1.762891e-08	3.151459e+01	1.157751e+03
1.340000e-06	4.372274e-06	1.793101e-08	3.192917e+01	1.177685e+03
1.350000e-06	4.427316e-06	1.820698e-08	3.233112e+01	1.196170e+03
1.360000e-06	4.480819e-06	1.846104e-08	3.272183e+01	1.213314e+03
1.370000e-06	4.532572e-06	1.869791e-08	3.309976e+01	1.229215e+03
1.380000e-06	4.582343e-06	1.891833e-08	3.346323e+01	1.243965e+03
1.390000e-06	4.630241e-06	1.912256e-08	3.381301e+01	1.257645e+03
1.400000e-06	4.676551e-06	1.931285e-08	3.415119e+01	1.270331e+03
1.410000e-06	4.721369e-06	1.949149e-08	3.447849e+01	1.282093e+03
1.420000e-06	4.764652e-06	1.965998e-08	3.479456e+01	1.292990e+03
1.430000e-06	4.806050e-06	1.981528e-08	3.509688e+01	1.303079e+03
1.440000e-06	4.845590e-06	1.995657e-08	3.538563e+01	1.312407e+03
1.450000e-06	4.883575e-06	2.008572e-08	3.566302e+01	1.321020e+03
1.460000e-06	4.920034e-06	2.020465e-08	3.592927e+01	1.328958e+03
1.470000e-06	4.954841e-06	2.031317e-08	3.618344e+01	1.336261e+03
1.480000e-06	4.987676e-06	2.041254e-08	3.642323e+01	1.342970e+03
1.490000e-06	5.018700e-06	2.050572e-08	3.664979e+01	1.349126e+03
1.500000e-06	5.048161e-06	2.059136e-08	3.686493e+01	1.354773e+03
1.510000e-06	5.076013e-06	2.066996e-08	3.706832e+01	1.359953e+03
1.520000e-06	5.101912e-06	2.074278e-08	3.725746e+01	1.364706e+03
1.530000e-06	5.125739e-06	2.080910e-08	3.743146e+01	1.369065e+03
1.540000e-06	5.147772e-06	2.086931e-08	3.759236e+01	1.373058e+03
1.550000e-06	5.168181e-06	2.092437e-08	3.774140e+01	1.376697e+03
1.560000e-06	5.186901e-06	2.097503e-08	3.787810e+01	1.379990e+03
1.570000e-06	5.203632e-06	2.102013e-08	3.800028e+01	1.382934e+03
1.580000e-06	5.218336e-06	2.105744e-08	3.810766e+01	1.385524e+03
1.590000e-06	5.231170e-06	2.108847e-08	3.820138e+01	1.387757e+03
1.600000e-06	5.241954e-06	2.111655e-08	3.828014e+01	1.389636e+03
1.610000e-06	5.250572e-06	2.114081e-08	3.834307e+01	1.391173e+03
1.620000e-06	5.257260e-06	2.115944e-08	3.839190e+01	1.392392e+03
1.630000e-06	5.262199e-06	2.117235e-08	3.842798e+01	1.393326e+03
1.640000e-06	5.265394e-06	2.118157e-08	3.845131e+01	1.394011e+03
1.650000e-06	5.266584e-06	2.119130e-08	3.846000e+01	1.394484e+03
1.660000e-06	5.265861e-06	2.119886e-08	3.845471e+01	1.394772e+03
1.670000e-06	5.263504e-06	2.120003e-08	3.843750e+01	1.394890e+03
1.680000e-06	5.259611e-06	2.120180e-08	3.840908e+01	1.394838e+03
1.690000e-06	5.253938e-06	2.119867e-08	3.836764e+01	1.394602e+03
1.700000e-06	5.246355e-06	2.119057e-08	3.831227e+01	1.394159e+03
1.710000e-06	5.237171e-06	2.118091e-08	3.824520e+01	1.393486e+03
1.720000e-06	5.226438e-06	2.117239e-08	3.816682e+01	1.392563e+03
1.730000e-06	5.213935e-06	2.117909e-08	3.807552e+01	1.391384e+03
1.740000e-06	5.199462e-06	2.113602e-08	3.796983e+01	1.389959e+03
1.750000e-06	5.182890e-06	2.105454e-08	3.784881e+01	1.388316e+03
1.760000e-06	5.163971e-06	2.105480e-08	3.771065e+01	1.386497e+03
1.770000e-06	5.142536e-06	2.103576e-08	3.755412e+01	1.384548e+03
1.780000e-06	5.119071e-06	2.105377e-08	3.738276e+01	1.382515e+03
1.790000e-06	5.094495e-06	2.107915e-08	3.720329e+01	1.380433e+03
1.800000e-06	5.069117e-06	2.089355e-08	3.701796e+01	1.378319e+03
1.810000e-06	5.042206e-06	2.093999e-08	3.682145e+01	1.376167e+03
1.820000e-06	5.013326e-06	2.097882e-08	3.661055e+01	1.373954e+03
1.830000e-06	4.982751e-06	2.077261e-08	3.638726e+01	1.371639e+03
1.840000e-06	4.950272e-06	2.090582e-08	3.615008e+01	1.369173e+03
1.850000e-06	4.915978e-06	2.091693e-08	3.589965e+01	1.366510e+03
1.860000e-06	4.880234e-06	2.070077e-08	3.563862e+01	1.363607e+03
1.870000e-06	4.842566e-06	2.076153e-08	3.536354e+01	1.360440e+03
1.880000e-06	4.803031e-06	2.066723e-08	3.507483e+01	1.356998e+03
1.890000e-06	4.761913e-06	2.062055e-08	3.477456e+01	1.353287e+03
1.900000e-06	4.719008e-06	2.064592e-08	3.446124e+01	1.349323e+03
1.910000e-06	4.674534e-06	2.041185e-08	3.413646e+01	1.345130e+03
1.920000e-06	4.628323e-06	2.048033e-08	3.379900e+01	1.340733e+03
1.930000e-06	4.580318e-06	2.047684e-08	3.344844e+01	1.336155e+03
1.940000e-06	4.530718e-06	2.026427e-08	3.308622e+01	1.331411e+03
1.950000e-06	4.479267e-06	2.024495e-08	3.271050e+01	1.326509e+03
1.960000e-06	4.425940e-06	2.014729e-08	3.232107e+01	1.321452e+03
1.970000e-06	4.370768e-06	2.009666e-08	3.191817e+01	1.316238e+03
1.980000e-06	4.313873e-06	2.000282e-08	3.150269e+01	1.310866e+03
1.990000e-06	4.255503e-06	1.988392e-08	3.107643e+01	1.305331e+03
2.000000e-06	4.195767e-06	1.988894e-08	3.064020e+01	1.299632e+03
2.010000e-06	4.134594e-06	1.974174e-08	3.019347e+01	1.293770e+03
2.020000e-06	4.071685e-06	1.964325e-08	2.973407e+01	1.287744e+03
2.030000e-06	4.007154e-06	1.954820e-08	2.926282e+01	1.281553e+03
2.040000e-06	3.941288e-06	1.946833e-08	2.878183e+01	1.275197e+03
2.050000e-06	3.874148e-06	1.941216e-08	2.829153e+01	1.268671e+03
2.060000e-06	3.805746e-06	1.923002e-08	2.779201e+01	1.261971e+03
2.070000e-06	3.735776e-06	1.915958e-08	2.728105e+01	1.255092e+03
2.080000e-06	3.664308e-06	1.906731e-08	2.675915e+01	1.248032e+03
2.090000e-06	3.591613e-06	1.894672e-08	2.622828e+01	1.240788e+03
2.100000e-06	3.517658e-06	1.883717e-08	2.568821e+01	1.233361e+03
2.110000e-06	3.442480e-06	1.870907e-08	2.513921e+01	1.225753e+03
2.120000e-06	3.365909e-06	1.862683e-08	2.458004e+01	1.217967e+03
2.130000e-06	3.287832e-06	1.847860e-08	2.400987e+01	1.210004e+03
2.140000e-06	3.208431e-06	1.834558e-08	2.343003e+01	1.201864e+03
2.150000e-06	3.127907e-06	1.822241e-08	2.284199e+01	1.193542e+03
2.160000e-06	3.046311e-06	1.810315e-08	2.224613e+01	1.185030e+03
2.170000e-06	2.963672e-06	1.797856e-08	2.164264e+01	1.176318e+03
2.180000e-06	2.880139e-06	1.782863e-08	2.103264e+01	1.167396e+03
2.190000e-06	2.795642e-06	1.770623e-08	2.041558e+01	1.158252e+03
2.200000e-06	2.709917e-06	1.756405e-08	1.978956e+01	1.148879e+03
2.210000e-06	2.622958e-06	1.741615e-08	1.915454e+01	1.139272e+03
2.220000e-06	2.534995e-06	1.726101e-08	1.851217e+01	1.129429e+03
2.230000e-06	2.446159e-06	1.711317e-08	1.786343e+01	1.119351e+03
2.240000e-06	2.356555e-06	1.696442e-08	1.720908e+01	1.109038e+03
2.250000e-06	2.266230e-06	1.679838e-08	1.654948e+01	1.098490e+03
2.260000e-06	2.175163e-06	1.663159e-08	1.588444e+01	1.087705e+03
2.270000e-06	2.083421e-06	1.646441e-08	1.521448e+01	1.076676e+03
2.280000e-06	1.990963e-06	1.630179e-08	1.453930e+01	1.065394e+03
2.290000e-06	1.897721e-06	1.612607e-08	1.385838e+01	1.053848e+03
2.300000e-06	1.803668e-06	1.594488e-08	1.317155e+01	1.042027e+03
2.310000e-06	1.708862e-06	1.576319e-08	1.247922e+01	1.029921e+03
2.320000e-06	1.613469e-06	1.557719e-08	1.178259e+01	1.017522e+03
2.330000e-06	1.517491e-06	1.538248e-08	1.108170e+01	1.004826e+03
2.340000e-06	1.420979e-06	1.518173e-08	1.037690e+01	9.918304e+02
2.350000e-06	1.324108e-06	1.498251e-08	9.669495e+00	9.785333e+02
2.360000e-06	1.226896e-06	1.477653e-08	8.959588e+00	9.649336e+02
2.370000e-06	1.129239e-06	1.456227e-08	8.246434e+00	9.510276e+02
2.380000e-06	1.031151e-06	1.434414e-08	7.530130e+00	9.368086e+02
2.390000e-06	9.327347e-07	1.412501e-08	6.811431e+00	9.222660e+02
2.400000e-06	8.340577e-07	1.390073e-08	6.090828e+00	9.073856e+02
2.410000e-06	7.351459e-07	1.366756e-08	5.368510e+00	8.921497e+02
2.420000e-06	6.360441e-07	1.343004e-08	4.644805e+00	8.765382e+02
2.430000e-06	5.368148e-07	1.318719e-08	3.920168e+00	8.605295e+02
2.440000e-06	4.375017e-07	1.293449e-08	3.194920e+00	8.441007e+02
2.450000e-06	3.381006e-07	1.267435e-08	2.469029e+00	8.272279e+02
2.460000e-06	2.385939e-07	1.240736e-08	1.742367e+00	8.098860e+02
2.470000e-06	1.389707e-07	1.213425e-08	1.014854e+00	7.920478e+02
2.480000e-06	3.928450e-08	1.185515e-08	2.868808e-01	7.736841e+02
2.490000e-06	-6.039174e-08	1.156651e-08	-4.410195e-01	7.547629e+02
2.500000e-06	-1.600589e-07	1.126782e-08	-1.168853e+00	7.352495e+02
2.510000e-06	-2.597025e-07	1.095866e-08	-1.896515e+00	7.151065e+02
2.520000e-06	-3.593011e-07	1.063989e-08	-2.623848e+00	6.942939e+02
2.530000e-06	-4.588154e-07	1.031100e-08	-3.350566e+00	6.727695e+02
2.540000e-06	-5.581905e-07	9.970832e-09	-4.076268e+00	6.504882e+02
2.550000e-06	-6.574267e-07	9.617529e-09	-4.800954e+00	6.274015e+02
2.560000e-06	-7.565025e-07	9.249621e-09	-5.524469e+00	6.034568e+02
2.570000e-06	-8.553559e-07	8.869871e-09	-6.246361e+00	5.785960e+02
2.580000e-06	-9.539264e-07	8.477380e-09	-6.966186e+00	5.527551e+02
2.590000e-06	-1.052142e-06	8.069884e-09	-7.683420e+00	5.258630e+02
2.600000e-06	-1.149925e-06	7.643565e-09	-8.397497e+00	4.978421e+02
2.610000e-06	-1.247269e-06	7.196100e-09	-9.108364e+00	4.686086e+02
2.620000e-06	-1.344219e-06	6.729194e-09	-9.816358e+00	4.380731e+02
2.630000e-06	-1.440766e-06	6.241228e-09	-1.052140e+01	4.061424e+02
2.640000e-06	-1.536899e-06	5.730073e-09	-1.122343e+01	3.727204e+02
2.650000e-06	-1.632517e-06	5.194274e-09	-1.192169e+01	3.377093e+02
2.660000e-06	-1.727476e-06	4.631864e-09	-1.261514e+01	3.010119e+02
2.670000e-06	-1.821653e-06	4.042048e-09	-1.330289e+01	2.625330e+02
2.680000e-06	-1.914984e-06	3.425123e-09	-1.398445e+01	2.221839e+02
2.690000e-06	-2.007485e-06	2.780926e-09	-1.465995e+01	1.798865e+02
2.700000e-06	-2.099225e-06	2.106566e-09	-1.532990e+01	1.355816e+02
2.710000e-06	-2.190274e-06	1.400838e-09	-1.599480e+01	8.923677e+01
2.720000e-06	-2.280551e-06	6.641771e-10	-1.665406e+01	4.085733e+01
2.730000e-06	-2.370045e-06	-1.033864e-10	-1.730760e+01	-9.503550e+00
2.740000e-06	-2.458814e-06	-8.994962e-10	-1.795585e+01	-6.173563e+01
2.750000e-06	-2.546805e-06	-1.722690e-09	-1.859842e+01	-1.156653e+02
2.760000e-06	-2.633917e-06	-2.569501e-09	-1.923456e+01	-1.710535e+02
2.770000e-06	-2.719944e-06	-3.434238e-09	-1.986278e+01	-2.275986e+02
2.780000e-06	-2.804823e-06	-4.309972e-09	-2.048263e+01	-2.849454e+02
2.790000e-06	-2.888744e-06	-5.189214e-09	-2.109548e+01	-3.426975e+02
2.800000e-06	-2.971772e-06	-6.068273e-09	-2.170180e+01	-4.004350e+02
2.810000e-06	-3.053780e-06	-6.943682e-09	-2.230067e+01	-4.577329e+02
2.820000e-06	-3.134744e-06	-7.809560e-09	-2.289193e+01	-5.141792e+02
2.830000e-06	-3.214748e-06	-8.656806e-09	-2.347617e+01	-5.693920e+02
2.840000e-06	-3.293585e-06	-9.477998e-09	-2.405188e+01	-6.230321e+02
2.850000e-06	-3.370991e-06	-1.027027e-08	-2.461716e+01	-6.748118e+02
2.860000e-06	-3.446983e-06	-1.103174e-08	-2.517210e+01	-7.244994e+02
2.870000e-06	-3.521616e-06	-1.175971e-08	-2.571711e+01	-7.719199e+02
2.880000e-06	-3.594917e-06	-1.245354e-08	-2.625240e+01	-8.169523e+02
2.890000e-06	-3.667050e-06	-1.310889e-08	-2.677917e+01	-8.595254e+02
2.900000e-06	-3.737925e-06	-1.372323e-08	-2.729674e+01	-8.996123e+02
2.910000e-06	-3.807226e-06	-1.429974e-08	-2.780282e+01	-9.372247e+02
2.920000e-06	-3.875069e-06	-1.484145e-08	-2.829825e+01	-9.724071e+02
2.930000e-06	-3.941621e-06	-1.534798e-08	-2.878426e+01	-1.005231e+03
2.940000e-06	-4.006857e-06	-1.581883e-08	-2.926065e+01	-1.035790e+03
