# Temperatura_=_81.09
# Concentracion g/m^3_=_41000.0
# C_Vs_to_Am_M_A/Vsm_=_65563218390.804596
# pendiente_HvsI_1/m_=_3716.3
# ordenada_HvsI_A/m_=_1297.0
# frecuencia_Hz_=_302500.6183063201

Tiempo_(s)	Campo_(V.s)	Magnetizacion_(V.s)	Campo_(kA/m)	Magnetizacion_(A/m)
0.000000e+00	-8.013532e-06	-2.371262e-08	-5.686991e+01	-1.553912e+03
1.000000e-08	-8.011391e-06	-2.371197e-08	-5.685472e+01	-1.553315e+03
2.000000e-08	-8.006521e-06	-2.370240e-08	-5.682016e+01	-1.552278e+03
3.000000e-08	-7.999150e-06	-2.368951e-08	-5.676785e+01	-1.550997e+03
4.000000e-08	-7.989030e-06	-2.367798e-08	-5.669603e+01	-1.549710e+03
5.000000e-08	-7.975973e-06	-2.366462e-08	-5.660337e+01	-1.548617e+03
6.000000e-08	-7.960020e-06	-2.364882e-08	-5.649015e+01	-1.547823e+03
7.000000e-08	-7.941451e-06	-2.363066e-08	-5.635838e+01	-1.547298e+03
8.000000e-08	-7.920550e-06	-2.361633e-08	-5.621005e+01	-1.546896e+03
9.000000e-08	-7.896999e-06	-2.364189e-08	-5.604291e+01	-1.546402e+03
1.000000e-07	-7.870297e-06	-2.362634e-08	-5.585342e+01	-1.545599e+03
1.100000e-07	-7.840415e-06	-2.357374e-08	-5.564135e+01	-1.544347e+03
1.200000e-07	-7.807671e-06	-2.354505e-08	-5.540897e+01	-1.542622e+03
1.300000e-07	-7.772216e-06	-2.352155e-08	-5.515736e+01	-1.540533e+03
1.400000e-07	-7.734265e-06	-2.347763e-08	-5.488803e+01	-1.538280e+03
1.500000e-07	-7.694082e-06	-2.340392e-08	-5.460286e+01	-1.536096e+03
1.600000e-07	-7.651565e-06	-2.342007e-08	-5.430113e+01	-1.534166e+03
1.700000e-07	-7.606466e-06	-2.340723e-08	-5.398107e+01	-1.532568e+03
1.800000e-07	-7.558648e-06	-2.332136e-08	-5.364172e+01	-1.531239e+03
1.900000e-07	-7.507912e-06	-2.333958e-08	-5.328167e+01	-1.529992e+03
2.000000e-07	-7.454168e-06	-2.329505e-08	-5.290025e+01	-1.528569e+03
2.100000e-07	-7.397612e-06	-2.324221e-08	-5.249889e+01	-1.526717e+03
2.200000e-07	-7.338372e-06	-2.321430e-08	-5.207848e+01	-1.524267e+03
2.300000e-07	-7.276498e-06	-2.314716e-08	-5.163938e+01	-1.521184e+03
2.400000e-07	-7.211983e-06	-2.311877e-08	-5.118153e+01	-1.517581e+03
2.500000e-07	-7.144725e-06	-2.305894e-08	-5.070422e+01	-1.513682e+03
2.600000e-07	-7.074687e-06	-2.302020e-08	-5.020718e+01	-1.509755e+03
2.700000e-07	-7.001863e-06	-2.295253e-08	-4.969036e+01	-1.506028e+03
2.800000e-07	-6.926273e-06	-2.290317e-08	-4.915393e+01	-1.502619e+03
2.900000e-07	-6.847960e-06	-2.284747e-08	-4.859816e+01	-1.499496e+03
3.000000e-07	-6.766939e-06	-2.277448e-08	-4.802317e+01	-1.496491e+03
3.100000e-07	-6.683383e-06	-2.273048e-08	-4.743020e+01	-1.493347e+03
3.200000e-07	-6.597543e-06	-2.266555e-08	-4.682102e+01	-1.489803e+03
3.300000e-07	-6.509440e-06	-2.260806e-08	-4.619577e+01	-1.485675e+03
3.400000e-07	-6.418989e-06	-2.252724e-08	-4.555386e+01	-1.480914e+03
3.500000e-07	-6.326186e-06	-2.245455e-08	-4.489527e+01	-1.475622e+03
3.600000e-07	-6.231065e-06	-2.238165e-08	-4.422022e+01	-1.470022e+03
3.700000e-07	-6.133667e-06	-2.230557e-08	-4.352901e+01	-1.464386e+03
3.800000e-07	-6.034021e-06	-2.222784e-08	-4.282185e+01	-1.458947e+03
3.900000e-07	-5.932203e-06	-2.214970e-08	-4.209928e+01	-1.453820e+03
4.000000e-07	-5.828275e-06	-2.207430e-08	-4.136173e+01	-1.448967e+03
4.100000e-07	-5.722272e-06	-2.198162e-08	-4.060945e+01	-1.444196e+03
4.200000e-07	-5.614273e-06	-2.189149e-08	-3.984301e+01	-1.439225e+03
4.300000e-07	-5.504330e-06	-2.179395e-08	-3.906278e+01	-1.433762e+03
4.400000e-07	-5.392358e-06	-2.169634e-08	-3.826814e+01	-1.427603e+03
4.500000e-07	-5.278332e-06	-2.159389e-08	-3.745892e+01	-1.420691e+03
4.600000e-07	-5.162312e-06	-2.149514e-08	-3.663556e+01	-1.413140e+03
4.700000e-07	-5.044329e-06	-2.138962e-08	-3.579827e+01	-1.405200e+03
4.800000e-07	-4.924481e-06	-2.127862e-08	-3.494774e+01	-1.397176e+03
4.900000e-07	-4.802871e-06	-2.116509e-08	-3.408470e+01	-1.389329e+03
5.000000e-07	-4.679547e-06	-2.104846e-08	-3.320950e+01	-1.381788e+03
5.100000e-07	-4.554480e-06	-2.092568e-08	-3.232194e+01	-1.374498e+03
5.200000e-07	-4.427712e-06	-2.079105e-08	-3.142230e+01	-1.367231e+03
5.300000e-07	-4.299359e-06	-2.065522e-08	-3.051141e+01	-1.359647e+03
5.400000e-07	-4.169467e-06	-2.051444e-08	-2.958961e+01	-1.351398e+03
5.500000e-07	-4.037968e-06	-2.037365e-08	-2.865639e+01	-1.342235e+03
5.600000e-07	-3.905033e-06	-2.022694e-08	-2.771298e+01	-1.332087e+03
5.700000e-07	-3.770650e-06	-2.007770e-08	-2.675930e+01	-1.321087e+03
5.800000e-07	-3.634725e-06	-1.991860e-08	-2.579468e+01	-1.309529e+03
5.900000e-07	-3.497397e-06	-1.974986e-08	-2.482010e+01	-1.297776e+03
6.000000e-07	-3.358721e-06	-1.957458e-08	-2.383595e+01	-1.286134e+03
6.100000e-07	-3.218604e-06	-1.939320e-08	-2.284158e+01	-1.274741e+03
6.200000e-07	-3.077031e-06	-1.920667e-08	-2.183687e+01	-1.263506e+03
6.300000e-07	-2.934237e-06	-1.901062e-08	-2.082350e+01	-1.252116e+03
6.400000e-07	-2.790331e-06	-1.880727e-08	-1.980224e+01	-1.240115e+03
6.500000e-07	-2.645428e-06	-1.859376e-08	-1.877390e+01	-1.227035e+03
6.600000e-07	-2.499655e-06	-1.837103e-08	-1.773939e+01	-1.212539e+03
6.700000e-07	-2.352991e-06	-1.813574e-08	-1.669856e+01	-1.196525e+03
6.800000e-07	-2.205503e-06	-1.788996e-08	-1.565187e+01	-1.179159e+03
6.900000e-07	-2.057265e-06	-1.763329e-08	-1.459987e+01	-1.160822e+03
7.000000e-07	-1.908380e-06	-1.736468e-08	-1.354326e+01	-1.141978e+03
7.100000e-07	-1.758986e-06	-1.708029e-08	-1.248306e+01	-1.122999e+03
7.200000e-07	-1.609077e-06	-1.677771e-08	-1.141919e+01	-1.104005e+03
7.300000e-07	-1.458573e-06	-1.646073e-08	-1.035110e+01	-1.084768e+03
7.400000e-07	-1.307503e-06	-1.612352e-08	-9.279005e+00	-1.064718e+03
7.500000e-07	-1.155922e-06	-1.576599e-08	-8.203272e+00	-1.043061e+03
7.600000e-07	-1.003893e-06	-1.538510e-08	-7.124366e+00	-1.018972e+03
7.700000e-07	-8.515764e-07	-1.497757e-08	-6.043412e+00	-9.918126e+02
7.800000e-07	-6.989872e-07	-1.453646e-08	-4.960527e+00	-9.613021e+02
7.900000e-07	-5.461605e-07	-1.405585e-08	-3.875956e+00	-9.275660e+02
8.000000e-07	-3.932032e-07	-1.353388e-08	-2.790459e+00	-8.910351e+02
8.100000e-07	-2.400954e-07	-1.296520e-08	-1.703893e+00	-8.521936e+02
8.200000e-07	-8.686035e-08	-1.234136e-08	-6.164249e-01	-8.112306e+02
8.300000e-07	6.644376e-08	-1.164992e-08	4.715338e-01	-7.676863e+02
8.400000e-07	2.197494e-07	-1.087668e-08	1.559503e+00	-7.201984e+02
8.500000e-07	3.729653e-07	-1.000336e-08	2.646836e+00	-6.664476e+02
8.600000e-07	5.261070e-07	-9.010025e-09	3.733642e+00	-6.033583e+02
8.700000e-07	6.791464e-07	-7.865009e-09	4.819722e+00	-5.275533e+02
8.800000e-07	8.319765e-07	-6.523951e-09	5.904317e+00	-4.359968e+02
8.900000e-07	9.846112e-07	-4.928061e-09	6.987525e+00	-3.267033e+02
9.000000e-07	1.137003e-06	-3.017178e-09	8.069006e+00	-1.993605e+02
9.100000e-07	1.288987e-06	-7.987229e-10	9.147600e+00	-5.572034e+01
9.200000e-07	1.440423e-06	1.604044e-09	1.022230e+01	1.003500e+02
9.300000e-07	1.591271e-06	4.054664e-09	1.129283e+01	2.631964e+02
9.400000e-07	1.741529e-06	6.506563e-09	1.235917e+01	4.260437e+02
9.500000e-07	1.891207e-06	8.929458e-09	1.342140e+01	5.818861e+02
9.600000e-07	2.040213e-06	1.118375e-08	1.447885e+01	7.244348e+02
9.700000e-07	2.188411e-06	1.307798e-08	1.553057e+01	8.489449e+02
9.800000e-07	2.335769e-06	1.456266e-08	1.657634e+01	9.527669e+02
9.900000e-07	2.482199e-06	1.571029e-08	1.761551e+01	1.035527e+03
1.000000e-06	2.627727e-06	1.660376e-08	1.864828e+01	1.098921e+03
1.010000e-06	2.772332e-06	1.730844e-08	1.967450e+01	1.146183e+03
1.020000e-06	2.915822e-06	1.787606e-08	2.069281e+01	1.181360e+03
1.030000e-06	3.058187e-06	1.834572e-08	2.170314e+01	1.208547e+03
1.040000e-06	3.199388e-06	1.874419e-08	2.270521e+01	1.231235e+03
1.050000e-06	3.339336e-06	1.909070e-08	2.369838e+01	1.251895e+03
1.060000e-06	3.478003e-06	1.939454e-08	2.468247e+01	1.271844e+03
1.070000e-06	3.615287e-06	1.966353e-08	2.565674e+01	1.291369e+03
1.080000e-06	3.751103e-06	1.990561e-08	2.662058e+01	1.310062e+03
1.090000e-06	3.885514e-06	2.012655e-08	2.757447e+01	1.327226e+03
1.100000e-06	4.018582e-06	2.033161e-08	2.851882e+01	1.342256e+03
1.110000e-06	4.150306e-06	2.052268e-08	2.945362e+01	1.354904e+03
1.120000e-06	4.280582e-06	2.069927e-08	3.037816e+01	1.365374e+03
1.130000e-06	4.409263e-06	2.086373e-08	3.129137e+01	1.374249e+03
1.140000e-06	4.536371e-06	2.101767e-08	3.219342e+01	1.382307e+03
1.150000e-06	4.661959e-06	2.116240e-08	3.308469e+01	1.390286e+03
1.160000e-06	4.786039e-06	2.130034e-08	3.396525e+01	1.398683e+03
1.170000e-06	4.908491e-06	2.143116e-08	3.483426e+01	1.407645e+03
1.180000e-06	5.029092e-06	2.155265e-08	3.569014e+01	1.416965e+03
1.190000e-06	5.147836e-06	2.166721e-08	3.653283e+01	1.426196e+03
1.200000e-06	5.264733e-06	2.177663e-08	3.736242e+01	1.434817e+03
1.210000e-06	5.379610e-06	2.188275e-08	3.817767e+01	1.442412e+03
1.220000e-06	5.492287e-06	2.198313e-08	3.897731e+01	1.448800e+03
1.230000e-06	5.602880e-06	2.207773e-08	3.976215e+01	1.454085e+03
1.240000e-06	5.711584e-06	2.216801e-08	4.053360e+01	1.458609e+03
1.250000e-06	5.818321e-06	2.225279e-08	4.129109e+01	1.462843e+03
1.260000e-06	5.922875e-06	2.233303e-08	4.203308e+01	1.467234e+03
1.270000e-06	6.025186e-06	2.241022e-08	4.275915e+01	1.472080e+03
1.280000e-06	6.125345e-06	2.248552e-08	4.346995e+01	1.477449e+03
1.290000e-06	6.223160e-06	2.255905e-08	4.416412e+01	1.483177e+03
1.300000e-06	6.318586e-06	2.262895e-08	4.484133e+01	1.488934e+03
1.310000e-06	6.411830e-06	2.269394e-08	4.550306e+01	1.494345e+03
1.320000e-06	6.502832e-06	2.275638e-08	4.614888e+01	1.499108e+03
1.330000e-06	6.591450e-06	2.281897e-08	4.677777e+01	1.503086e+03
1.340000e-06	6.677716e-06	2.288266e-08	4.738998e+01	1.506347e+03
1.350000e-06	6.761698e-06	2.294297e-08	4.798598e+01	1.509135e+03
1.360000e-06	6.843260e-06	2.299930e-08	4.856480e+01	1.511781e+03
1.370000e-06	6.922255e-06	2.305163e-08	4.912541e+01	1.514601e+03
1.380000e-06	6.998710e-06	2.310031e-08	4.966799e+01	1.517795e+03
1.390000e-06	7.072516e-06	2.314750e-08	5.019178e+01	1.521387e+03
1.400000e-06	7.143740e-06	2.319366e-08	5.069723e+01	1.525226e+03
1.410000e-06	7.212567e-06	2.324004e-08	5.118568e+01	1.529035e+03
1.420000e-06	7.278761e-06	2.328362e-08	5.165544e+01	1.532508e+03
1.430000e-06	7.342257e-06	2.332394e-08	5.210606e+01	1.535400e+03
1.440000e-06	7.403324e-06	2.336059e-08	5.253943e+01	1.537610e+03
1.450000e-06	7.461875e-06	2.339422e-08	5.295495e+01	1.539204e+03
1.460000e-06	7.517738e-06	2.342732e-08	5.335140e+01	1.540394e+03
1.470000e-06	7.570792e-06	2.345948e-08	5.372791e+01	1.541466e+03
1.480000e-06	7.620743e-06	2.348792e-08	5.408239e+01	1.542694e+03
1.490000e-06	7.667684e-06	2.351346e-08	5.441552e+01	1.544250e+03
1.500000e-06	7.711977e-06	2.353733e-08	5.472986e+01	1.546157e+03
1.510000e-06	7.753571e-06	2.355847e-08	5.502504e+01	1.548285e+03
1.520000e-06	7.792313e-06	2.357908e-08	5.529999e+01	1.550397e+03
1.530000e-06	7.828372e-06	2.359858e-08	5.555589e+01	1.552226e+03
1.540000e-06	7.861731e-06	2.361598e-08	5.579262e+01	1.553561e+03
1.550000e-06	7.892247e-06	2.363163e-08	5.600919e+01	1.554313e+03
1.560000e-06	7.919945e-06	2.364513e-08	5.620575e+01	1.554540e+03
1.570000e-06	7.944696e-06	2.365719e-08	5.638140e+01	1.554430e+03
1.580000e-06	7.966548e-06	2.366785e-08	5.653648e+01	1.554236e+03
1.590000e-06	7.985656e-06	2.367775e-08	5.667209e+01	1.554201e+03
1.600000e-06	8.001866e-06	2.368538e-08	5.678713e+01	1.554478e+03
1.610000e-06	8.015024e-06	2.368974e-08	5.688050e+01	1.555086e+03
1.620000e-06	8.025057e-06	2.369287e-08	5.695170e+01	1.555903e+03
1.630000e-06	8.032097e-06	2.369597e-08	5.700167e+01	1.556713e+03
1.640000e-06	8.036352e-06	2.369882e-08	5.703187e+01	1.557270e+03
1.650000e-06	8.037710e-06	2.370029e-08	5.704150e+01	1.557376e+03
1.660000e-06	8.036264e-06	2.369563e-08	5.703124e+01	1.556947e+03
1.670000e-06	8.032192e-06	2.369119e-08	5.700234e+01	1.556033e+03
1.680000e-06	8.025386e-06	2.368621e-08	5.695404e+01	1.554805e+03
1.690000e-06	8.015887e-06	2.367748e-08	5.688663e+01	1.553494e+03
1.700000e-06	8.003689e-06	2.366755e-08	5.680006e+01	1.552322e+03
1.710000e-06	7.988729e-06	2.366007e-08	5.669389e+01	1.551428e+03
1.720000e-06	7.971231e-06	2.365373e-08	5.656971e+01	1.550827e+03
1.730000e-06	7.951397e-06	2.362254e-08	5.642896e+01	1.550407e+03
1.740000e-06	7.928917e-06	2.355637e-08	5.626943e+01	1.549967e+03
1.750000e-06	7.903131e-06	2.355853e-08	5.608643e+01	1.549283e+03
1.760000e-06	7.873632e-06	2.356105e-08	5.587708e+01	1.548184e+03
1.770000e-06	7.840860e-06	2.352972e-08	5.564450e+01	1.546605e+03
1.780000e-06	7.805629e-06	2.351470e-08	5.539448e+01	1.544614e+03
1.790000e-06	7.768103e-06	2.355229e-08	5.512817e+01	1.542388e+03
1.800000e-06	7.728420e-06	2.349074e-08	5.484655e+01	1.540157e+03
1.810000e-06	7.686719e-06	2.345068e-08	5.455061e+01	1.538131e+03
1.820000e-06	7.642492e-06	2.350248e-08	5.423674e+01	1.536426e+03
1.830000e-06	7.595529e-06	2.341016e-08	5.390346e+01	1.535025e+03
1.840000e-06	7.545719e-06	2.343221e-08	5.354997e+01	1.533778e+03
1.850000e-06	7.492823e-06	2.338122e-08	5.317458e+01	1.532440e+03
1.860000e-06	7.437133e-06	2.333486e-08	5.277936e+01	1.530750e+03
1.870000e-06	7.378792e-06	2.334266e-08	5.236533e+01	1.528502e+03
1.880000e-06	7.317793e-06	2.324358e-08	5.193244e+01	1.525617e+03
1.890000e-06	7.254043e-06	2.325087e-08	5.148002e+01	1.522161e+03
1.900000e-06	7.187455e-06	2.318618e-08	5.100747e+01	1.518328e+03
1.910000e-06	7.118139e-06	2.314071e-08	5.051555e+01	1.514381e+03
1.920000e-06	7.046018e-06	2.309310e-08	5.000372e+01	1.510571e+03
1.930000e-06	6.971110e-06	2.302575e-08	4.947212e+01	1.507055e+03
1.940000e-06	6.893459e-06	2.301240e-08	4.892106e+01	1.503852e+03
1.950000e-06	6.813190e-06	2.292979e-08	4.835140e+01	1.500834e+03
1.960000e-06	6.730399e-06	2.288368e-08	4.776386e+01	1.497764e+03
1.970000e-06	6.645076e-06	2.280420e-08	4.715835e+01	1.494374e+03
1.980000e-06	6.557313e-06	2.274314e-08	4.653552e+01	1.490446e+03
1.990000e-06	6.467188e-06	2.268473e-08	4.589592e+01	1.485884e+03
2.000000e-06	6.374777e-06	2.261260e-08	4.524011e+01	1.480742e+03
2.010000e-06	6.280034e-06	2.255854e-08	4.456774e+01	1.475212e+03
2.020000e-06	6.183053e-06	2.247637e-08	4.387949e+01	1.469559e+03
2.030000e-06	6.083910e-06	2.239942e-08	4.317590e+01	1.464036e+03
2.040000e-06	5.982596e-06	2.230554e-08	4.245690e+01	1.458805e+03
2.050000e-06	5.879134e-06	2.223655e-08	4.172266e+01	1.453878e+03
2.060000e-06	5.773637e-06	2.215145e-08	4.097397e+01	1.449108e+03
2.070000e-06	5.666201e-06	2.206719e-08	4.021153e+01	1.444234e+03
2.080000e-06	5.556759e-06	2.197659e-08	3.943484e+01	1.438957e+03
2.090000e-06	5.445265e-06	2.188337e-08	3.864360e+01	1.433036e+03
2.100000e-06	5.331655e-06	2.178505e-08	3.783735e+01	1.426361e+03
2.110000e-06	5.216018e-06	2.168135e-08	3.701670e+01	1.418993e+03
2.120000e-06	5.098447e-06	2.158271e-08	3.618233e+01	1.411145e+03
2.130000e-06	4.978963e-06	2.147196e-08	3.533438e+01	1.403115e+03
2.140000e-06	4.857641e-06	2.136025e-08	3.447339e+01	1.395190e+03
2.150000e-06	4.734504e-06	2.123925e-08	3.359952e+01	1.387546e+03
2.160000e-06	4.609640e-06	2.112104e-08	3.271340e+01	1.380192e+03
2.170000e-06	4.483135e-06	2.099549e-08	3.181562e+01	1.372951e+03
2.180000e-06	4.355006e-06	2.087267e-08	3.090632e+01	1.365508e+03
2.190000e-06	4.225311e-06	2.074498e-08	2.998592e+01	1.357507e+03
2.200000e-06	4.094020e-06	2.061246e-08	2.905417e+01	1.348655e+03
2.210000e-06	3.961208e-06	2.046748e-08	2.811164e+01	1.338819e+03
2.220000e-06	3.826961e-06	2.031555e-08	2.715893e+01	1.328066e+03
2.230000e-06	3.691238e-06	2.015857e-08	2.619574e+01	1.316648e+03
2.240000e-06	3.554050e-06	1.999580e-08	2.522215e+01	1.304919e+03
2.250000e-06	3.415476e-06	1.982868e-08	2.423873e+01	1.293216e+03
2.260000e-06	3.275610e-06	1.965375e-08	2.324614e+01	1.281741e+03
2.270000e-06	3.134515e-06	1.947257e-08	2.224482e+01	1.270479e+03
2.280000e-06	2.992202e-06	1.928469e-08	2.123486e+01	1.259184e+03
2.290000e-06	2.848704e-06	1.909117e-08	2.021650e+01	1.247432e+03
2.300000e-06	2.704169e-06	1.888685e-08	1.919077e+01	1.234745e+03
2.310000e-06	2.558729e-06	1.867182e-08	1.815862e+01	1.220728e+03
2.320000e-06	2.412401e-06	1.844338e-08	1.712017e+01	1.205195e+03
2.330000e-06	2.265160e-06	1.820262e-08	1.607524e+01	1.188230e+03
2.340000e-06	2.117124e-06	1.795120e-08	1.502467e+01	1.170155e+03
2.350000e-06	1.968483e-06	1.768794e-08	1.396980e+01	1.151425e+03
2.360000e-06	1.819272e-06	1.741188e-08	1.291089e+01	1.132461e+03
2.370000e-06	1.669444e-06	1.712093e-08	1.184761e+01	1.113479e+03
2.380000e-06	1.519029e-06	1.681372e-08	1.078015e+01	1.094367e+03
2.390000e-06	1.368096e-06	1.648793e-08	9.709014e+00	1.074657e+03
2.400000e-06	1.216740e-06	1.613971e-08	8.634879e+00	1.053610e+03
2.410000e-06	1.064969e-06	1.576753e-08	7.557804e+00	1.030384e+03
2.420000e-06	9.128184e-07	1.536779e-08	6.478030e+00	1.004262e+03
2.430000e-06	7.603748e-07	1.493794e-08	5.396179e+00	9.748334e+02
2.440000e-06	6.076875e-07	1.447302e-08	4.312597e+00	9.420976e+02
2.450000e-06	4.548386e-07	1.396767e-08	3.227869e+00	9.064080e+02
2.460000e-06	3.018342e-07	1.341614e-08	2.142037e+00	8.682666e+02
2.470000e-06	1.486677e-07	1.281042e-08	1.055056e+00	8.279976e+02
2.480000e-06	-4.625646e-09	1.214002e-08	-3.282699e-02	7.853846e+02
2.490000e-06	-1.579206e-07	1.139334e-08	-1.120721e+00	7.393724e+02
2.500000e-06	-3.111701e-07	1.055642e-08	-2.208292e+00	6.879404e+02
2.510000e-06	-4.644020e-07	9.609694e-09	-3.295738e+00	6.282178e+02
2.520000e-06	-6.175216e-07	8.524151e-09	-4.382387e+00	5.568614e+02
2.530000e-06	-7.703877e-07	7.258898e-09	-5.467238e+00	4.706486e+02
2.540000e-06	-9.229589e-07	5.761831e-09	-6.549995e+00	3.671810e+02
2.550000e-06	-1.075230e-06	3.970006e-09	-7.630622e+00	2.455520e+02
2.560000e-06	-1.227159e-06	1.843025e-09	-8.708822e+00	1.068268e+02
2.570000e-06	-1.378675e-06	-5.462389e-10	-9.784091e+00	-4.578989e+01
2.580000e-06	-1.529665e-06	-3.042364e-09	-1.085563e+01	-2.071601e+02
2.590000e-06	-1.680053e-06	-5.557193e-09	-1.192289e+01	-3.707797e+02
2.600000e-06	-1.829756e-06	-8.062937e-09	-1.298529e+01	-5.296128e+02
2.610000e-06	-1.978767e-06	-1.044919e-08	-1.404278e+01	-6.770407e+02
2.620000e-06	-2.127116e-06	-1.251339e-08	-1.509558e+01	-8.077462e+02
2.630000e-06	-2.274654e-06	-1.415636e-08	-1.614262e+01	-9.183677e+02
2.640000e-06	-2.421281e-06	-1.542720e-08	-1.718319e+01	-1.007805e+03
2.650000e-06	-2.567066e-06	-1.641246e-08	-1.821779e+01	-1.077131e+03
2.660000e-06	-2.711877e-06	-1.718851e-08	-1.924547e+01	-1.129161e+03
2.670000e-06	-2.855638e-06	-1.781138e-08	-2.026571e+01	-1.167764e+03
2.680000e-06	-2.998302e-06	-1.832153e-08	-2.127815e+01	-1.197098e+03
2.690000e-06	-3.139740e-06	-1.874583e-08	-2.228190e+01	-1.220909e+03
2.700000e-06	-3.279908e-06	-1.910559e-08	-2.327664e+01	-1.242023e+03
2.710000e-06	-3.418755e-06	-1.941877e-08	-2.426200e+01	-1.262125e+03
2.720000e-06	-3.556319e-06	-1.969772e-08	-2.523825e+01	-1.281805e+03
2.730000e-06	-3.692594e-06	-1.994815e-08	-2.620537e+01	-1.300837e+03
2.740000e-06	-3.827553e-06	-2.017776e-08	-2.716313e+01	-1.318570e+03
2.750000e-06	-3.961112e-06	-2.039171e-08	-2.811096e+01	-1.334333e+03
2.760000e-06	-4.093188e-06	-2.058785e-08	-2.904827e+01	-1.347747e+03
2.770000e-06	-4.223789e-06	-2.076511e-08	-2.997511e+01	-1.358870e+03
2.780000e-06	-4.352966e-06	-2.092877e-08	-3.089185e+01	-1.368177e+03
2.790000e-06	-4.480742e-06	-2.108400e-08	-3.179864e+01	-1.376411e+03
2.800000e-06	-4.607004e-06	-2.123170e-08	-3.269469e+01	-1.384347e+03
2.810000e-06	-4.731591e-06	-2.137172e-08	-3.357885e+01	-1.392576e+03
2.820000e-06	-4.854440e-06	-2.150315e-08	-3.445068e+01	-1.401364e+03
2.830000e-06	-4.975626e-06	-2.162666e-08	-3.531070e+01	-1.410609e+03
2.840000e-06	-5.095069e-06	-2.174269e-08	-3.615836e+01	-1.419926e+03
2.850000e-06	-5.212478e-06	-2.185255e-08	-3.699158e+01	-1.428797e+03
2.860000e-06	-5.327749e-06	-2.195831e-08	-3.780962e+01	-1.436755e+03
2.870000e-06	-5.440932e-06	-2.205916e-08	-3.861286e+01	-1.443534e+03
2.880000e-06	-5.551912e-06	-2.215383e-08	-3.940045e+01	-1.449146e+03
2.890000e-06	-5.660792e-06	-2.224247e-08	-4.017314e+01	-1.453867e+03
2.900000e-06	-5.767801e-06	-2.232716e-08	-4.093256e+01	-1.458141e+03
2.910000e-06	-5.872807e-06	-2.241012e-08	-4.167775e+01	-1.462440e+03
2.920000e-06	-5.975605e-06	-2.248943e-08	-4.240729e+01	-1.467122e+03
2.930000e-06	-6.076105e-06	-2.256436e-08	-4.312051e+01	-1.472331e+03
2.940000e-06	-6.174364e-06	-2.263667e-08	-4.381783e+01	-1.477973e+03
