# Temperatura_=_80.27
# Concentracion g/m^3_=_41000.0
# C_Vs_to_Am_M_A/Vsm_=_65563218390.804596
# pendiente_HvsI_1/m_=_3716.3
# ordenada_HvsI_A/m_=_1297.0
# frecuencia_Hz_=_302498.87711772765

Tiempo_(s)	Campo_(V.s)	Magnetizacion_(V.s)	Campo_(kA/m)	Magnetizacion_(A/m)
0.000000e+00	-7.975465e-06	-2.356587e-08	-5.687039e+01	-1.544404e+03
1.000000e-08	-7.973120e-06	-2.356680e-08	-5.685367e+01	-1.543827e+03
2.000000e-08	-7.968056e-06	-2.355552e-08	-5.681756e+01	-1.542782e+03
3.000000e-08	-7.960460e-06	-2.354202e-08	-5.676339e+01	-1.541474e+03
4.000000e-08	-7.950135e-06	-2.353252e-08	-5.668977e+01	-1.540153e+03
5.000000e-08	-7.936933e-06	-2.352112e-08	-5.659563e+01	-1.539038e+03
6.000000e-08	-7.920864e-06	-2.350533e-08	-5.648104e+01	-1.538244e+03
7.000000e-08	-7.902197e-06	-2.348433e-08	-5.634794e+01	-1.537752e+03
8.000000e-08	-7.881246e-06	-2.346314e-08	-5.619854e+01	-1.537412e+03
9.000000e-08	-7.857562e-06	-2.351164e-08	-5.602966e+01	-1.536997e+03
1.000000e-07	-7.830672e-06	-2.350127e-08	-5.583792e+01	-1.536273e+03
1.100000e-07	-7.800702e-06	-2.342542e-08	-5.562421e+01	-1.535078e+03
1.200000e-07	-7.767844e-06	-2.339601e-08	-5.538992e+01	-1.533376e+03
1.300000e-07	-7.732263e-06	-2.338549e-08	-5.513620e+01	-1.531266e+03
1.400000e-07	-7.694216e-06	-2.333407e-08	-5.486490e+01	-1.528953e+03
1.500000e-07	-7.653978e-06	-2.323842e-08	-5.457797e+01	-1.526682e+03
1.600000e-07	-7.611511e-06	-2.330552e-08	-5.427515e+01	-1.524661e+03
1.700000e-07	-7.566432e-06	-2.328421e-08	-5.395371e+01	-1.522990e+03
1.800000e-07	-7.518643e-06	-2.314523e-08	-5.361295e+01	-1.521628e+03
1.900000e-07	-7.467959e-06	-2.320462e-08	-5.325154e+01	-1.520398e+03
2.000000e-07	-7.414292e-06	-2.314422e-08	-5.286885e+01	-1.519047e+03
2.100000e-07	-7.357853e-06	-2.309539e-08	-5.246640e+01	-1.517314e+03
2.200000e-07	-7.298700e-06	-2.310260e-08	-5.204460e+01	-1.515013e+03
2.300000e-07	-7.236923e-06	-2.302985e-08	-5.160409e+01	-1.512092e+03
2.400000e-07	-7.172461e-06	-2.300758e-08	-5.114444e+01	-1.508643e+03
2.500000e-07	-7.105258e-06	-2.292039e-08	-5.066523e+01	-1.504878e+03
2.600000e-07	-7.035377e-06	-2.288237e-08	-5.016694e+01	-1.501059e+03
2.700000e-07	-6.962667e-06	-2.281821e-08	-4.964846e+01	-1.497415e+03
2.800000e-07	-6.887192e-06	-2.277960e-08	-4.911028e+01	-1.494071e+03
2.900000e-07	-6.809064e-06	-2.272665e-08	-4.855317e+01	-1.491007e+03
3.000000e-07	-6.728199e-06	-2.264032e-08	-4.797655e+01	-1.488064e+03
3.100000e-07	-6.644851e-06	-2.260188e-08	-4.738223e+01	-1.484995e+03
3.200000e-07	-6.559279e-06	-2.252620e-08	-4.677204e+01	-1.481542e+03
3.300000e-07	-6.471425e-06	-2.248093e-08	-4.614558e+01	-1.477517e+03
3.400000e-07	-6.381195e-06	-2.240966e-08	-4.550218e+01	-1.472867e+03
3.500000e-07	-6.288637e-06	-2.234516e-08	-4.484218e+01	-1.467684e+03
3.600000e-07	-6.193822e-06	-2.227781e-08	-4.416609e+01	-1.462186e+03
3.700000e-07	-6.096708e-06	-2.219572e-08	-4.347360e+01	-1.456639e+03
3.800000e-07	-5.997348e-06	-2.211789e-08	-4.276510e+01	-1.451273e+03
3.900000e-07	-5.895872e-06	-2.204093e-08	-4.204151e+01	-1.446206e+03
4.000000e-07	-5.792251e-06	-2.197067e-08	-4.130262e+01	-1.441403e+03
4.100000e-07	-5.686529e-06	-2.187387e-08	-4.054874e+01	-1.436680e+03
4.200000e-07	-5.578870e-06	-2.178674e-08	-3.978107e+01	-1.431757e+03
4.300000e-07	-5.469335e-06	-2.169065e-08	-3.900001e+01	-1.426349e+03
4.400000e-07	-5.357757e-06	-2.159173e-08	-3.820438e+01	-1.420256e+03
4.500000e-07	-5.244124e-06	-2.148580e-08	-3.739410e+01	-1.413423e+03
4.600000e-07	-5.128523e-06	-2.138810e-08	-3.656979e+01	-1.405966e+03
4.700000e-07	-5.011004e-06	-2.128698e-08	-3.573181e+01	-1.398135e+03
4.800000e-07	-4.891618e-06	-2.117818e-08	-3.488050e+01	-1.390233e+03
4.900000e-07	-4.770414e-06	-2.106739e-08	-3.401624e+01	-1.382521e+03
5.000000e-07	-4.647506e-06	-2.095117e-08	-3.313982e+01	-1.375121e+03
5.100000e-07	-4.522905e-06	-2.083165e-08	-3.225133e+01	-1.367976e+03
5.200000e-07	-4.396705e-06	-2.069975e-08	-3.135144e+01	-1.360849e+03
5.300000e-07	-4.268863e-06	-2.056712e-08	-3.043985e+01	-1.353394e+03
5.400000e-07	-4.139445e-06	-2.042664e-08	-2.951701e+01	-1.345260e+03
5.500000e-07	-4.008525e-06	-2.028605e-08	-2.858346e+01	-1.336194e+03
5.600000e-07	-3.876014e-06	-2.013641e-08	-2.763857e+01	-1.326127e+03
5.700000e-07	-3.742046e-06	-1.998416e-08	-2.668329e+01	-1.315197e+03
5.800000e-07	-3.606718e-06	-1.982695e-08	-2.571831e+01	-1.303710e+03
5.900000e-07	-3.469970e-06	-1.966519e-08	-2.474321e+01	-1.292036e+03
6.000000e-07	-3.331848e-06	-1.949784e-08	-2.375830e+01	-1.280491e+03
6.100000e-07	-3.192378e-06	-1.932053e-08	-2.276379e+01	-1.269218e+03
6.200000e-07	-3.051528e-06	-1.913468e-08	-2.175943e+01	-1.258126e+03
6.300000e-07	-2.909361e-06	-1.893618e-08	-2.074569e+01	-1.246894e+03
6.400000e-07	-2.766047e-06	-1.873112e-08	-1.972376e+01	-1.235058e+03
6.500000e-07	-2.621732e-06	-1.851658e-08	-1.869470e+01	-1.222138e+03
6.600000e-07	-2.476434e-06	-1.829628e-08	-1.765863e+01	-1.207788e+03
6.700000e-07	-2.330263e-06	-1.806547e-08	-1.661633e+01	-1.191900e+03
6.800000e-07	-2.183364e-06	-1.782345e-08	-1.556884e+01	-1.174645e+03
6.900000e-07	-2.035798e-06	-1.756779e-08	-1.451660e+01	-1.156413e+03
7.000000e-07	-1.887572e-06	-1.729852e-08	-1.345965e+01	-1.137680e+03
7.100000e-07	-1.738730e-06	-1.701581e-08	-1.239831e+01	-1.118832e+03
7.200000e-07	-1.589349e-06	-1.671688e-08	-1.133312e+01	-1.099998e+03
7.300000e-07	-1.439535e-06	-1.640411e-08	-1.026485e+01	-1.080953e+03
7.400000e-07	-1.289361e-06	-1.606937e-08	-9.194005e+00	-1.061118e+03
7.500000e-07	-1.138709e-06	-1.571355e-08	-8.119755e+00	-1.039683e+03
7.600000e-07	-9.875843e-07	-1.533414e-08	-7.042135e+00	-1.015802e+03
7.700000e-07	-8.360502e-07	-1.492912e-08	-5.961596e+00	-9.888187e+02
7.800000e-07	-6.841738e-07	-1.449126e-08	-4.878616e+00	-9.584408e+02
7.900000e-07	-5.320554e-07	-1.401528e-08	-3.793910e+00	-9.247967e+02
8.000000e-07	-3.796775e-07	-1.349689e-08	-2.707354e+00	-8.883353e+02
8.100000e-07	-2.271437e-07	-1.292752e-08	-1.619686e+00	-8.495737e+02
8.200000e-07	-7.455259e-08	-1.230237e-08	-5.316097e-01	-8.087430e+02
8.300000e-07	7.807219e-08	-1.161038e-08	5.567068e-01	-7.654264e+02
8.400000e-07	2.307540e-07	-1.083951e-08	1.645430e+00	-7.182959e+02
8.500000e-07	3.833980e-07	-9.971917e-09	2.733884e+00	-6.650500e+02
8.600000e-07	5.358814e-07	-8.988114e-09	3.821192e+00	-6.026083e+02
8.700000e-07	6.882076e-07	-7.856017e-09	4.907379e+00	-5.275658e+02
8.800000e-07	8.403072e-07	-6.529167e-09	5.991951e+00	-4.368401e+02
8.900000e-07	9.921002e-07	-4.949871e-09	7.074337e+00	-3.283880e+02
9.000000e-07	1.143508e-06	-3.056637e-09	8.153976e+00	-2.018390e+02
9.100000e-07	1.294426e-06	-8.484607e-10	9.230120e+00	-5.889652e+01
9.200000e-07	1.444822e-06	1.550622e-09	1.030254e+01	9.660318e+01
9.300000e-07	1.594776e-06	3.999360e-09	1.137182e+01	2.590154e+02
9.400000e-07	1.744325e-06	6.451061e-09	1.243820e+01	4.215544e+02
9.500000e-07	1.893359e-06	8.874772e-09	1.350091e+01	5.771880e+02
9.600000e-07	2.041698e-06	1.112426e-08	1.455867e+01	7.195942e+02
9.700000e-07	2.189193e-06	1.300829e-08	1.561041e+01	8.439963e+02
9.800000e-07	2.335822e-06	1.448597e-08	1.665597e+01	9.477212e+02
9.900000e-07	2.481566e-06	1.563022e-08	1.769522e+01	1.030384e+03
1.000000e-06	2.626383e-06	1.652406e-08	1.872787e+01	1.093681e+03
1.010000e-06	2.770174e-06	1.723000e-08	1.975319e+01	1.140856e+03
1.020000e-06	2.912862e-06	1.779975e-08	2.077065e+01	1.175970e+03
1.030000e-06	3.054480e-06	1.827170e-08	2.178048e+01	1.203126e+03
1.040000e-06	3.194901e-06	1.867122e-08	2.278178e+01	1.225819e+03
1.050000e-06	3.334030e-06	1.901693e-08	2.377386e+01	1.246513e+03
1.060000e-06	3.471856e-06	1.931971e-08	2.475665e+01	1.266507e+03
1.070000e-06	3.608257e-06	1.958765e-08	2.572928e+01	1.286071e+03
1.080000e-06	3.743237e-06	1.982805e-08	2.669178e+01	1.304775e+03
1.090000e-06	3.876957e-06	2.004729e-08	2.764529e+01	1.321911e+03
1.100000e-06	4.009389e-06	2.025164e-08	2.858962e+01	1.336868e+03
1.110000e-06	4.140403e-06	2.044243e-08	2.952383e+01	1.349407e+03
1.120000e-06	4.269896e-06	2.061771e-08	3.044721e+01	1.359743e+03
1.130000e-06	4.397758e-06	2.077959e-08	3.135895e+01	1.368479e+03
1.140000e-06	4.524106e-06	2.093085e-08	3.225989e+01	1.376407e+03
1.150000e-06	4.649038e-06	2.107443e-08	3.315075e+01	1.384277e+03
1.160000e-06	4.772443e-06	2.121131e-08	3.403071e+01	1.392588e+03
1.170000e-06	4.894141e-06	2.133974e-08	3.489849e+01	1.401477e+03
1.180000e-06	5.014002e-06	2.145890e-08	3.575318e+01	1.410729e+03
1.190000e-06	5.132062e-06	2.157373e-08	3.659503e+01	1.419880e+03
1.200000e-06	5.248272e-06	2.168380e-08	3.742368e+01	1.428399e+03
1.210000e-06	5.362363e-06	2.178969e-08	3.823723e+01	1.435867e+03
1.220000e-06	5.474295e-06	2.188866e-08	3.903537e+01	1.442108e+03
1.230000e-06	5.584308e-06	2.198141e-08	3.981984e+01	1.447235e+03
1.240000e-06	5.692473e-06	2.206801e-08	4.059113e+01	1.451609e+03
1.250000e-06	5.798551e-06	2.214938e-08	4.134754e+01	1.455712e+03
1.260000e-06	5.902372e-06	2.222813e-08	4.208785e+01	1.460003e+03
1.270000e-06	6.004090e-06	2.230397e-08	4.281317e+01	1.464780e+03
1.280000e-06	6.103743e-06	2.237732e-08	4.352376e+01	1.470103e+03
1.290000e-06	6.200990e-06	2.244928e-08	4.421720e+01	1.475795e+03
1.300000e-06	6.295833e-06	2.251958e-08	4.489349e+01	1.481511e+03
1.310000e-06	6.388524e-06	2.258519e-08	4.555444e+01	1.486862e+03
1.320000e-06	6.478893e-06	2.264712e-08	4.619883e+01	1.491538e+03
1.330000e-06	6.566863e-06	2.270724e-08	4.682612e+01	1.495406e+03
1.340000e-06	6.652571e-06	2.276624e-08	4.743727e+01	1.498541e+03
1.350000e-06	6.736003e-06	2.282289e-08	4.803220e+01	1.501201e+03
1.360000e-06	6.816940e-06	2.287750e-08	4.860933e+01	1.503733e+03
1.370000e-06	6.895337e-06	2.293077e-08	4.916835e+01	1.506463e+03
1.380000e-06	6.971228e-06	2.298173e-08	4.970951e+01	1.509594e+03
1.390000e-06	7.044431e-06	2.302923e-08	5.023150e+01	1.513146e+03
1.400000e-06	7.115050e-06	2.307454e-08	5.073506e+01	1.516952e+03
1.410000e-06	7.183221e-06	2.311869e-08	5.122116e+01	1.520722e+03
1.420000e-06	7.248790e-06	2.316023e-08	5.168871e+01	1.524131e+03
1.430000e-06	7.311781e-06	2.319794e-08	5.213788e+01	1.526927e+03
1.440000e-06	7.372365e-06	2.323174e-08	5.256989e+01	1.529009e+03
1.450000e-06	7.430444e-06	2.326404e-08	5.298402e+01	1.530450e+03
1.460000e-06	7.485865e-06	2.329457e-08	5.337922e+01	1.531481e+03
1.470000e-06	7.538472e-06	2.332301e-08	5.375433e+01	1.532408e+03
1.480000e-06	7.587967e-06	2.334961e-08	5.410727e+01	1.533520e+03
1.490000e-06	7.634506e-06	2.337488e-08	5.443912e+01	1.535000e+03
1.500000e-06	7.678402e-06	2.339827e-08	5.475213e+01	1.536873e+03
1.510000e-06	7.719528e-06	2.341925e-08	5.504539e+01	1.538998e+03
1.520000e-06	7.757894e-06	2.343897e-08	5.531896e+01	1.541122e+03
1.530000e-06	7.793614e-06	2.345736e-08	5.557367e+01	1.542958e+03
1.540000e-06	7.826498e-06	2.347473e-08	5.580816e+01	1.544279e+03
1.550000e-06	7.856561e-06	2.348957e-08	5.602252e+01	1.544985e+03
1.560000e-06	7.883946e-06	2.350253e-08	5.621780e+01	1.545136e+03
1.570000e-06	7.908416e-06	2.351405e-08	5.639229e+01	1.544931e+03
1.580000e-06	7.929998e-06	2.352310e-08	5.654618e+01	1.544640e+03
1.590000e-06	7.948813e-06	2.353011e-08	5.668034e+01	1.544524e+03
1.600000e-06	7.964717e-06	2.353567e-08	5.679375e+01	1.544752e+03
1.610000e-06	7.977637e-06	2.354107e-08	5.688588e+01	1.545349e+03
1.620000e-06	7.987437e-06	2.354581e-08	5.695576e+01	1.546193e+03
1.630000e-06	7.994253e-06	2.354982e-08	5.700436e+01	1.547054e+03
1.640000e-06	7.998298e-06	2.355234e-08	5.703320e+01	1.547671e+03
1.650000e-06	7.999461e-06	2.355624e-08	5.704150e+01	1.547828e+03
1.660000e-06	7.997848e-06	2.355047e-08	5.702999e+01	1.547427e+03
1.670000e-06	7.993643e-06	2.354421e-08	5.700001e+01	1.546515e+03
1.680000e-06	7.986722e-06	2.354011e-08	5.695066e+01	1.545264e+03
1.690000e-06	7.977134e-06	2.353100e-08	5.688229e+01	1.543920e+03
1.700000e-06	7.964818e-06	2.351926e-08	5.679447e+01	1.542720e+03
1.710000e-06	7.949670e-06	2.351303e-08	5.668646e+01	1.541818e+03
1.720000e-06	7.932022e-06	2.351674e-08	5.656061e+01	1.541240e+03
1.730000e-06	7.912101e-06	2.349066e-08	5.641856e+01	1.540873e+03
1.740000e-06	7.889510e-06	2.339143e-08	5.625747e+01	1.540508e+03
1.750000e-06	7.863520e-06	2.340459e-08	5.607215e+01	1.539905e+03
1.760000e-06	7.833860e-06	2.342458e-08	5.586065e+01	1.538873e+03
1.770000e-06	7.801060e-06	2.337809e-08	5.562676e+01	1.537329e+03
1.780000e-06	7.765835e-06	2.336305e-08	5.537559e+01	1.535331e+03
1.790000e-06	7.728320e-06	2.343725e-08	5.510808e+01	1.533057e+03
1.800000e-06	7.688712e-06	2.333406e-08	5.482565e+01	1.530746e+03
1.810000e-06	7.647023e-06	2.327807e-08	5.452838e+01	1.528628e+03
1.820000e-06	7.602666e-06	2.339034e-08	5.421208e+01	1.526842e+03
1.830000e-06	7.555623e-06	2.324081e-08	5.387663e+01	1.525393e+03
1.840000e-06	7.505851e-06	2.330787e-08	5.352173e+01	1.524146e+03
1.850000e-06	7.453031e-06	2.324251e-08	5.314509e+01	1.522863e+03
1.860000e-06	7.397347e-06	2.314566e-08	5.274802e+01	1.521278e+03
1.870000e-06	7.338986e-06	2.318608e-08	5.233187e+01	1.519172e+03
1.880000e-06	7.277984e-06	2.305502e-08	5.189688e+01	1.516447e+03
1.890000e-06	7.214253e-06	2.312075e-08	5.144244e+01	1.513149e+03
1.900000e-06	7.147780e-06	2.306038e-08	5.096844e+01	1.509458e+03
1.910000e-06	7.078551e-06	2.300719e-08	5.047480e+01	1.505628e+03
1.920000e-06	7.006483e-06	2.297049e-08	4.996090e+01	1.501907e+03
1.930000e-06	6.931715e-06	2.286949e-08	4.942775e+01	1.498461e+03
1.940000e-06	6.854261e-06	2.288598e-08	4.887545e+01	1.495318e+03
1.950000e-06	6.774137e-06	2.278420e-08	4.830412e+01	1.492360e+03
1.960000e-06	6.691482e-06	2.276057e-08	4.771473e+01	1.489361e+03
1.970000e-06	6.606330e-06	2.268822e-08	4.710754e+01	1.486057e+03
1.980000e-06	6.518747e-06	2.261260e-08	4.648301e+01	1.482229e+03
1.990000e-06	6.428851e-06	2.256126e-08	4.584200e+01	1.477775e+03
2.000000e-06	6.336757e-06	2.247308e-08	4.518531e+01	1.472745e+03
2.010000e-06	6.242379e-06	2.243846e-08	4.451233e+01	1.467320e+03
2.020000e-06	6.145754e-06	2.234813e-08	4.382332e+01	1.461759e+03
2.030000e-06	6.047010e-06	2.227576e-08	4.311921e+01	1.456315e+03
2.040000e-06	5.946045e-06	2.217298e-08	4.239927e+01	1.451148e+03
2.050000e-06	5.842890e-06	2.210154e-08	4.166371e+01	1.446274e+03
2.060000e-06	5.737719e-06	2.201786e-08	4.091377e+01	1.441552e+03
2.070000e-06	5.630616e-06	2.193392e-08	4.015005e+01	1.436726e+03
2.080000e-06	5.521521e-06	2.185689e-08	3.937213e+01	1.431502e+03
2.090000e-06	5.410400e-06	2.176817e-08	3.857976e+01	1.425642e+03
2.100000e-06	5.297266e-06	2.167700e-08	3.777304e+01	1.419042e+03
2.110000e-06	5.182174e-06	2.156541e-08	3.695236e+01	1.411763e+03
2.120000e-06	5.065076e-06	2.146703e-08	3.611737e+01	1.404019e+03
2.130000e-06	4.945969e-06	2.135321e-08	3.526806e+01	1.396108e+03
2.140000e-06	4.825039e-06	2.124530e-08	3.440575e+01	1.388313e+03
2.150000e-06	4.702467e-06	2.112475e-08	3.353173e+01	1.380810e+03
2.160000e-06	4.578191e-06	2.101217e-08	3.264556e+01	1.373601e+03
2.170000e-06	4.452156e-06	2.089232e-08	3.174684e+01	1.366501e+03
2.180000e-06	4.324517e-06	2.077119e-08	3.083669e+01	1.359192e+03
2.190000e-06	4.195322e-06	2.064540e-08	2.991545e+01	1.351311e+03
2.200000e-06	4.064595e-06	2.051509e-08	2.898328e+01	1.342561e+03
2.210000e-06	3.932282e-06	2.037467e-08	2.803979e+01	1.332810e+03
2.220000e-06	3.798509e-06	2.022305e-08	2.708591e+01	1.322131e+03
2.230000e-06	3.663342e-06	2.006668e-08	2.612208e+01	1.310783e+03
2.240000e-06	3.526848e-06	1.990065e-08	2.514878e+01	1.299130e+03
2.250000e-06	3.389064e-06	1.973224e-08	2.416629e+01	1.287517e+03
2.260000e-06	3.249900e-06	1.955793e-08	2.317396e+01	1.276155e+03
2.270000e-06	3.109401e-06	1.938430e-08	2.217210e+01	1.265029e+03
2.280000e-06	2.967618e-06	1.920226e-08	2.116109e+01	1.253888e+03
2.290000e-06	2.824736e-06	1.901201e-08	2.014225e+01	1.242300e+03
2.300000e-06	2.680824e-06	1.880907e-08	1.911607e+01	1.229775e+03
2.310000e-06	2.535967e-06	1.859307e-08	1.808314e+01	1.215909e+03
2.320000e-06	2.390291e-06	1.836491e-08	1.704437e+01	1.200510e+03
2.330000e-06	2.243842e-06	1.812866e-08	1.600009e+01	1.183660e+03
2.340000e-06	2.096625e-06	1.788434e-08	1.495034e+01	1.165691e+03
2.350000e-06	1.948666e-06	1.762724e-08	1.389529e+01	1.147068e+03
2.360000e-06	1.800005e-06	1.735273e-08	1.283524e+01	1.128228e+03
2.370000e-06	1.650763e-06	1.706034e-08	1.177104e+01	1.109396e+03
2.380000e-06	1.501013e-06	1.675232e-08	1.070323e+01	1.090466e+03
2.390000e-06	1.350798e-06	1.642946e-08	9.632092e+00	1.070965e+03
2.400000e-06	1.200209e-06	1.608588e-08	8.558294e+00	1.050139e+03
2.410000e-06	1.049195e-06	1.571608e-08	7.481460e+00	1.027129e+03
2.420000e-06	8.977415e-07	1.531896e-08	6.401496e+00	1.001195e+03
2.430000e-06	7.459196e-07	1.488977e-08	5.318905e+00	9.719134e+02
2.440000e-06	5.938569e-07	1.442695e-08	4.234596e+00	9.392815e+02
2.450000e-06	4.416343e-07	1.392572e-08	3.149148e+00	9.036658e+02
2.460000e-06	2.892215e-07	1.337832e-08	2.062342e+00	8.655966e+02
2.470000e-06	1.366532e-07	1.277642e-08	9.744288e-01	8.254385e+02
2.480000e-06	-1.598008e-08	1.211009e-08	-1.139486e-01	7.830182e+02
2.490000e-06	-1.686993e-07	1.136859e-08	-1.202939e+00	7.373190e+02
2.500000e-06	-3.214224e-07	1.053665e-08	-2.291956e+00	6.863439e+02
2.510000e-06	-4.740263e-07	9.595436e-09	-3.380124e+00	6.272251e+02
2.520000e-06	-6.264835e-07	8.517511e-09	-4.467245e+00	5.565987e+02
2.530000e-06	-7.786438e-07	7.263142e-09	-5.552250e+00	4.712007e+02
2.540000e-06	-9.304994e-07	5.781948e-09	-6.635081e+00	3.685777e+02
2.550000e-06	-1.082043e-06	4.010867e-09	-7.715687e+00	2.477639e+02
2.560000e-06	-1.233159e-06	1.901217e-09	-8.793245e+00	1.097717e+02
2.570000e-06	-1.383840e-06	-4.791603e-10	-9.867705e+00	-4.223133e+01
2.580000e-06	-1.534084e-06	-2.972350e-09	-1.093904e+01	-2.031237e+02
2.590000e-06	-1.683810e-06	-5.486986e-09	-1.200669e+01	-3.663967e+02
2.600000e-06	-1.832849e-06	-7.993632e-09	-1.306944e+01	-5.249924e+02
2.610000e-06	-1.981107e-06	-1.037667e-08	-1.412661e+01	-6.722601e+02
2.620000e-06	-2.128514e-06	-1.243156e-08	-1.517773e+01	-8.028495e+02
2.630000e-06	-2.275083e-06	-1.406651e-08	-1.622286e+01	-9.133721e+02
2.640000e-06	-2.420914e-06	-1.533512e-08	-1.726273e+01	-1.002712e+03
2.650000e-06	-2.566028e-06	-1.632250e-08	-1.829749e+01	-1.071941e+03
2.660000e-06	-2.710276e-06	-1.710214e-08	-1.932608e+01	-1.123879e+03
2.670000e-06	-2.853423e-06	-1.772738e-08	-2.034681e+01	-1.162409e+03
2.680000e-06	-2.995394e-06	-1.823765e-08	-2.135916e+01	-1.191702e+03
2.690000e-06	-3.136115e-06	-1.866172e-08	-2.236260e+01	-1.215506e+03
2.700000e-06	-3.275461e-06	-1.902199e-08	-2.335622e+01	-1.236646e+03
2.710000e-06	-3.413482e-06	-1.933517e-08	-2.434040e+01	-1.256791e+03
2.720000e-06	-3.550297e-06	-1.961292e-08	-2.531599e+01	-1.276515e+03
2.730000e-06	-3.685845e-06	-1.986342e-08	-2.628253e+01	-1.295569e+03
2.740000e-06	-3.820045e-06	-2.009339e-08	-2.723947e+01	-1.313287e+03
2.750000e-06	-3.952835e-06	-2.030561e-08	-2.818635e+01	-1.328992e+03
2.760000e-06	-4.084171e-06	-2.050000e-08	-2.912287e+01	-1.342307e+03
2.770000e-06	-4.214093e-06	-2.067714e-08	-3.004930e+01	-1.353301e+03
2.780000e-06	-4.342622e-06	-2.084193e-08	-3.096580e+01	-1.362469e+03
2.790000e-06	-4.469660e-06	-2.099623e-08	-3.187166e+01	-1.370569e+03
2.800000e-06	-4.595115e-06	-2.114110e-08	-3.276624e+01	-1.378388e+03
2.810000e-06	-4.718945e-06	-2.127918e-08	-3.364922e+01	-1.386524e+03
2.820000e-06	-4.841165e-06	-2.140875e-08	-3.452074e+01	-1.395236e+03
2.830000e-06	-4.961721e-06	-2.152990e-08	-3.538039e+01	-1.404413e+03
2.840000e-06	-5.080326e-06	-2.164341e-08	-3.622611e+01	-1.413655e+03
2.850000e-06	-5.196817e-06	-2.175089e-08	-3.705678e+01	-1.422432e+03
2.860000e-06	-5.311258e-06	-2.185385e-08	-3.787281e+01	-1.430271e+03
2.870000e-06	-5.423581e-06	-2.195190e-08	-3.867376e+01	-1.436907e+03
2.880000e-06	-5.533811e-06	-2.204448e-08	-3.945977e+01	-1.442364e+03
2.890000e-06	-5.642107e-06	-2.213182e-08	-4.023199e+01	-1.446930e+03
2.900000e-06	-5.748450e-06	-2.221516e-08	-4.099028e+01	-1.451067e+03
2.910000e-06	-5.852726e-06	-2.229635e-08	-4.173384e+01	-1.455255e+03
2.920000e-06	-5.954760e-06	-2.237358e-08	-4.246141e+01	-1.459857e+03
2.930000e-06	-6.054557e-06	-2.244748e-08	-4.317303e+01	-1.465014e+03
2.940000e-06	-6.152287e-06	-2.252046e-08	-4.386992e+01	-1.470619e+03
