# Temperatura_=_66.73
# Concentracion g/m^3_=_41000.0
# C_Vs_to_Am_M_A/Vsm_=_65563218390.804596
# pendiente_HvsI_1/m_=_3716.3
# ordenada_HvsI_A/m_=_1297.0
# frecuencia_Hz_=_302499.89384815365

Tiempo_(s)	Campo_(V.s)	Magnetizacion_(V.s)	Campo_(kA/m)	Magnetizacion_(A/m)
0.000000e+00	-7.943186e-06	-2.314463e-08	-5.685285e+01	-1.515269e+03
1.000000e-08	-7.938696e-06	-2.313570e-08	-5.682071e+01	-1.514318e+03
2.000000e-08	-7.931724e-06	-2.312019e-08	-5.677081e+01	-1.513045e+03
3.000000e-08	-7.922057e-06	-2.311017e-08	-5.670162e+01	-1.511704e+03
4.000000e-08	-7.909513e-06	-2.309912e-08	-5.661184e+01	-1.510538e+03
5.000000e-08	-7.894097e-06	-2.308568e-08	-5.650149e+01	-1.509699e+03
6.000000e-08	-7.875960e-06	-2.306893e-08	-5.637168e+01	-1.509203e+03
7.000000e-08	-7.855517e-06	-2.304285e-08	-5.622536e+01	-1.508929e+03
8.000000e-08	-7.832592e-06	-2.306933e-08	-5.606128e+01	-1.508658e+03
9.000000e-08	-7.806531e-06	-2.310053e-08	-5.587475e+01	-1.508150e+03
1.000000e-07	-7.777233e-06	-2.303763e-08	-5.566505e+01	-1.507219e+03
1.100000e-07	-7.745112e-06	-2.298599e-08	-5.543515e+01	-1.505795e+03
1.200000e-07	-7.710280e-06	-2.297271e-08	-5.518584e+01	-1.503946e+03
1.300000e-07	-7.672902e-06	-2.293357e-08	-5.491831e+01	-1.501857e+03
1.400000e-07	-7.633367e-06	-2.284278e-08	-5.463534e+01	-1.499765e+03
1.500000e-07	-7.591611e-06	-2.285675e-08	-5.433647e+01	-1.497885e+03
1.600000e-07	-7.547277e-06	-2.293925e-08	-5.401916e+01	-1.496332e+03
1.700000e-07	-7.500316e-06	-2.278541e-08	-5.368303e+01	-1.495081e+03
1.800000e-07	-7.450547e-06	-2.280039e-08	-5.332682e+01	-1.493969e+03
1.900000e-07	-7.397700e-06	-2.278501e-08	-5.294857e+01	-1.492743e+03
2.000000e-07	-7.342017e-06	-2.266812e-08	-5.255002e+01	-1.491134e+03
2.100000e-07	-7.283614e-06	-2.268003e-08	-5.213201e+01	-1.488947e+03
2.200000e-07	-7.222538e-06	-2.260662e-08	-5.169485e+01	-1.486117e+03
2.300000e-07	-7.158939e-06	-2.260954e-08	-5.123965e+01	-1.482737e+03
2.400000e-07	-7.092590e-06	-2.255480e-08	-5.076476e+01	-1.479026e+03
2.500000e-07	-7.023512e-06	-2.250596e-08	-5.027034e+01	-1.475269e+03
2.600000e-07	-6.951762e-06	-2.245280e-08	-4.975680e+01	-1.471722e+03
2.700000e-07	-6.877207e-06	-2.239648e-08	-4.922317e+01	-1.468535e+03
2.800000e-07	-6.799935e-06	-2.236045e-08	-4.867010e+01	-1.465702e+03
2.900000e-07	-6.719930e-06	-2.228496e-08	-4.809747e+01	-1.463059e+03
3.000000e-07	-6.637336e-06	-2.224789e-08	-4.750631e+01	-1.460336e+03
3.100000e-07	-6.552547e-06	-2.218993e-08	-4.689943e+01	-1.457238e+03
3.200000e-07	-6.465532e-06	-2.212221e-08	-4.627663e+01	-1.453537e+03
3.300000e-07	-6.376106e-06	-2.205444e-08	-4.563657e+01	-1.449148e+03
3.400000e-07	-6.284337e-06	-2.197766e-08	-4.497974e+01	-1.444150e+03
3.500000e-07	-6.190327e-06	-2.192646e-08	-4.430687e+01	-1.438773e+03
3.600000e-07	-6.094043e-06	-2.185620e-08	-4.361773e+01	-1.433315e+03
3.700000e-07	-5.995431e-06	-2.177472e-08	-4.291192e+01	-1.428057e+03
3.800000e-07	-5.894722e-06	-2.170005e-08	-4.219109e+01	-1.423163e+03
3.900000e-07	-5.792017e-06	-2.162304e-08	-4.145599e+01	-1.418630e+03
4.000000e-07	-5.687273e-06	-2.153814e-08	-4.070630e+01	-1.414283e+03
4.100000e-07	-5.580476e-06	-2.144875e-08	-3.994190e+01	-1.409820e+03
4.200000e-07	-5.471681e-06	-2.137091e-08	-3.916321e+01	-1.404910e+03
4.300000e-07	-5.360948e-06	-2.128029e-08	-3.837064e+01	-1.399294e+03
4.400000e-07	-5.248261e-06	-2.118268e-08	-3.756409e+01	-1.392865e+03
4.500000e-07	-5.133537e-06	-2.108428e-08	-3.674296e+01	-1.385711e+03
4.600000e-07	-5.016743e-06	-2.098292e-08	-3.590702e+01	-1.378080e+03
4.700000e-07	-4.898166e-06	-2.088152e-08	-3.505831e+01	-1.370312e+03
4.800000e-07	-4.777906e-06	-2.077580e-08	-3.419756e+01	-1.362724e+03
4.900000e-07	-4.655895e-06	-2.066917e-08	-3.332427e+01	-1.355505e+03
5.000000e-07	-4.532056e-06	-2.055051e-08	-3.243790e+01	-1.348651e+03
5.100000e-07	-4.406509e-06	-2.042596e-08	-3.153931e+01	-1.341950e+03
5.200000e-07	-4.279367e-06	-2.029633e-08	-3.062930e+01	-1.335045e+03
5.300000e-07	-4.150745e-06	-2.016219e-08	-2.970869e+01	-1.327536e+03
5.400000e-07	-4.020653e-06	-2.002772e-08	-2.877757e+01	-1.319105e+03
5.500000e-07	-3.888965e-06	-1.989063e-08	-2.783502e+01	-1.309613e+03
5.600000e-07	-3.755800e-06	-1.974967e-08	-2.688190e+01	-1.299151e+03
5.700000e-07	-3.621229e-06	-1.959347e-08	-2.591872e+01	-1.288011e+03
5.800000e-07	-3.485297e-06	-1.943162e-08	-2.494579e+01	-1.276594e+03
5.900000e-07	-3.348066e-06	-1.926481e-08	-2.396357e+01	-1.265276e+03
6.000000e-07	-3.209472e-06	-1.909715e-08	-2.297159e+01	-1.254278e+03
6.100000e-07	-3.069434e-06	-1.892332e-08	-2.196927e+01	-1.243577e+03
6.200000e-07	-2.928112e-06	-1.873857e-08	-2.095777e+01	-1.232887e+03
6.300000e-07	-2.785698e-06	-1.854234e-08	-1.993846e+01	-1.221736e+03
6.400000e-07	-2.642217e-06	-1.833448e-08	-1.891150e+01	-1.209592e+03
6.500000e-07	-2.497708e-06	-1.811981e-08	-1.787718e+01	-1.196027e+03
6.600000e-07	-2.352225e-06	-1.789580e-08	-1.683590e+01	-1.180849e+03
6.700000e-07	-2.205889e-06	-1.766505e-08	-1.578851e+01	-1.164167e+03
6.800000e-07	-2.058883e-06	-1.742107e-08	-1.473632e+01	-1.146357e+03
6.900000e-07	-1.911292e-06	-1.716416e-08	-1.367995e+01	-1.127942e+03
7.000000e-07	-1.763095e-06	-1.688883e-08	-1.261924e+01	-1.109398e+03
7.100000e-07	-1.614353e-06	-1.659735e-08	-1.155463e+01	-1.090973e+03
7.200000e-07	-1.465192e-06	-1.629408e-08	-1.048702e+01	-1.072548e+03
7.300000e-07	-1.315594e-06	-1.597319e-08	-9.416279e+00	-1.053608e+03
7.400000e-07	-1.165481e-06	-1.563123e-08	-8.341855e+00	-1.033338e+03
7.500000e-07	-1.014926e-06	-1.526377e-08	-7.264270e+00	-1.010819e+03
7.600000e-07	-8.640245e-07	-1.487121e-08	-6.184201e+00	-9.852707e+02
7.700000e-07	-7.128184e-07	-1.444616e-08	-5.101952e+00	-9.562677e+02
7.800000e-07	-5.613947e-07	-1.398616e-08	-4.018147e+00	-9.238466e+02
7.900000e-07	-4.098086e-07	-1.348804e-08	-2.933179e+00	-8.884530e+02
8.000000e-07	-2.580496e-07	-1.294703e-08	-1.846974e+00	-8.507170e+02
8.100000e-07	-1.061893e-07	-1.235234e-08	-7.600433e-01	-8.110981e+02
8.200000e-07	4.569070e-08	-1.169327e-08	3.270282e-01	-7.694875e+02
8.300000e-07	1.976033e-07	-1.095859e-08	1.414333e+00	-7.248808e+02
8.400000e-07	3.494862e-07	-1.013156e-08	2.501425e+00	-6.752329e+02
8.500000e-07	5.013202e-07	-9.197740e-09	3.588167e+00	-6.175743e+02
8.600000e-07	6.530338e-07	-8.128483e-09	4.674048e+00	-5.484075e+02
8.700000e-07	8.045104e-07	-6.885133e-09	5.758232e+00	-4.643344e+02
8.800000e-07	9.557675e-07	-5.413524e-09	6.840845e+00	-3.628011e+02
8.900000e-07	1.106760e-06	-3.652598e-09	7.921566e+00	-2.428028e+02
9.000000e-07	1.257366e-06	-1.555436e-09	8.999519e+00	-1.053879e+02
9.100000e-07	1.407529e-06	8.031987e-10	1.007430e+01	4.616877e+01
9.200000e-07	1.557215e-06	3.250714e-09	1.114566e+01	2.065898e+02
9.300000e-07	1.706395e-06	5.703912e-09	1.221341e+01	3.691960e+02
9.400000e-07	1.855077e-06	8.141392e-09	1.327759e+01	5.267851e+02
9.500000e-07	2.003066e-06	1.043747e-08	1.433682e+01	6.726223e+02
9.600000e-07	2.150216e-06	1.239022e-08	1.539003e+01	8.013562e+02
9.700000e-07	2.296497e-06	1.393371e-08	1.643703e+01	9.096833e+02
9.800000e-07	2.441787e-06	1.513335e-08	1.747693e+01	9.966422e+02
9.900000e-07	2.586143e-06	1.606859e-08	1.851015e+01	1.063498e+03
1.000000e-06	2.729620e-06	1.680502e-08	1.953708e+01	1.113263e+03
1.010000e-06	2.872085e-06	1.739560e-08	2.055676e+01	1.149975e+03
1.020000e-06	3.013466e-06	1.788216e-08	2.156869e+01	1.177887e+03
1.030000e-06	3.153665e-06	1.829167e-08	2.257216e+01	1.200757e+03
1.040000e-06	3.292514e-06	1.864210e-08	2.356596e+01	1.221344e+03
1.050000e-06	3.430022e-06	1.894589e-08	2.455016e+01	1.241201e+03
1.060000e-06	3.566198e-06	1.921554e-08	2.552483e+01	1.260765e+03
1.070000e-06	3.700999e-06	1.945845e-08	2.648967e+01	1.279663e+03
1.080000e-06	3.834512e-06	1.967940e-08	2.744528e+01	1.297141e+03
1.090000e-06	3.966745e-06	1.988371e-08	2.839172e+01	1.312488e+03
1.100000e-06	4.097549e-06	2.007426e-08	2.932794e+01	1.325339e+03
1.110000e-06	4.226871e-06	2.024972e-08	3.025356e+01	1.335815e+03
1.120000e-06	4.354712e-06	2.041002e-08	3.116857e+01	1.344477e+03
1.130000e-06	4.481026e-06	2.055930e-08	3.207266e+01	1.352142e+03
1.140000e-06	4.605877e-06	2.069854e-08	3.296627e+01	1.359633e+03
1.150000e-06	4.729129e-06	2.083305e-08	3.384844e+01	1.367549e+03
1.160000e-06	4.850646e-06	2.096075e-08	3.471819e+01	1.376123e+03
1.170000e-06	4.970436e-06	2.108077e-08	3.557558e+01	1.385193e+03
1.180000e-06	5.088453e-06	2.119419e-08	3.642028e+01	1.394307e+03
1.190000e-06	5.204575e-06	2.130203e-08	3.725142e+01	1.402895e+03
1.200000e-06	5.318617e-06	2.140538e-08	3.806766e+01	1.410467e+03
1.210000e-06	5.430598e-06	2.150023e-08	3.886916e+01	1.416768e+03
1.220000e-06	5.540661e-06	2.158875e-08	3.965693e+01	1.421854e+03
1.230000e-06	5.648819e-06	2.167220e-08	4.043106e+01	1.426059e+03
1.240000e-06	5.754943e-06	2.175271e-08	4.119063e+01	1.429884e+03
1.250000e-06	5.858889e-06	2.182942e-08	4.193463e+01	1.433841e+03
1.260000e-06	5.960681e-06	2.190373e-08	4.266319e+01	1.438299e+03
1.270000e-06	6.060267e-06	2.197545e-08	4.337598e+01	1.443382e+03
1.280000e-06	6.157516e-06	2.204640e-08	4.407203e+01	1.448954e+03
1.290000e-06	6.252516e-06	2.211607e-08	4.475198e+01	1.454672e+03
1.300000e-06	6.345328e-06	2.218157e-08	4.541628e+01	1.460113e+03
1.310000e-06	6.435846e-06	2.224297e-08	4.606416e+01	1.464907e+03
1.320000e-06	6.524001e-06	2.230041e-08	4.669512e+01	1.468853e+03
1.330000e-06	6.609906e-06	2.235659e-08	4.730998e+01	1.471976e+03
1.340000e-06	6.693557e-06	2.241034e-08	4.790870e+01	1.474504e+03
1.350000e-06	6.774728e-06	2.246226e-08	4.848968e+01	1.476796e+03
1.360000e-06	6.853401e-06	2.251281e-08	4.905278e+01	1.479219e+03
1.370000e-06	6.929580e-06	2.256111e-08	4.959803e+01	1.482037e+03
1.380000e-06	7.003103e-06	2.260648e-08	5.012426e+01	1.485328e+03
1.390000e-06	7.074058e-06	2.264989e-08	5.063212e+01	1.488972e+03
1.400000e-06	7.142629e-06	2.269241e-08	5.112291e+01	1.492691e+03
1.410000e-06	7.208651e-06	2.273073e-08	5.159546e+01	1.496145e+03
1.420000e-06	7.272015e-06	2.276573e-08	5.204898e+01	1.499040e+03
1.430000e-06	7.332895e-06	2.279839e-08	5.248473e+01	1.501221e+03
1.440000e-06	7.391226e-06	2.282966e-08	5.290223e+01	1.502715e+03
1.450000e-06	7.446914e-06	2.285959e-08	5.330081e+01	1.503721e+03
1.460000e-06	7.499849e-06	2.288843e-08	5.367969e+01	1.504543e+03
1.470000e-06	7.549669e-06	2.291723e-08	5.403627e+01	1.505493e+03
1.480000e-06	7.596497e-06	2.294386e-08	5.437144e+01	1.506794e+03
1.490000e-06	7.640792e-06	2.296664e-08	5.468848e+01	1.508514e+03
1.500000e-06	7.682396e-06	2.298541e-08	5.498626e+01	1.510549e+03
1.510000e-06	7.721110e-06	2.300221e-08	5.526336e+01	1.512662e+03
1.520000e-06	7.757243e-06	2.301802e-08	5.552197e+01	1.514558e+03
1.530000e-06	7.790652e-06	2.303413e-08	5.576110e+01	1.515981e+03
1.540000e-06	7.821220e-06	2.304999e-08	5.597989e+01	1.516797e+03
1.550000e-06	7.849154e-06	2.306386e-08	5.617982e+01	1.517029e+03
1.560000e-06	7.874195e-06	2.307548e-08	5.635905e+01	1.516851e+03
1.570000e-06	7.896311e-06	2.308486e-08	5.651734e+01	1.516532e+03
1.580000e-06	7.915689e-06	2.309344e-08	5.665604e+01	1.516348e+03
1.590000e-06	7.932177e-06	2.310163e-08	5.677405e+01	1.516496e+03
1.600000e-06	7.945646e-06	2.310933e-08	5.687045e+01	1.517035e+03
1.610000e-06	7.955963e-06	2.311498e-08	5.694429e+01	1.517870e+03
1.620000e-06	7.963206e-06	2.311877e-08	5.699614e+01	1.518781e+03
1.630000e-06	7.967744e-06	2.312086e-08	5.702862e+01	1.519497e+03
1.640000e-06	7.969544e-06	2.312168e-08	5.704150e+01	1.519781e+03
1.650000e-06	7.968481e-06	2.311814e-08	5.703390e+01	1.519505e+03
1.660000e-06	7.964801e-06	2.310752e-08	5.700755e+01	1.518684e+03
1.670000e-06	7.958470e-06	2.310363e-08	5.696224e+01	1.517477e+03
1.680000e-06	7.949451e-06	2.309879e-08	5.689769e+01	1.516127e+03
1.690000e-06	7.937757e-06	2.309098e-08	5.681399e+01	1.514889e+03
1.700000e-06	7.923232e-06	2.308655e-08	5.671003e+01	1.513947e+03
1.710000e-06	7.906125e-06	2.308732e-08	5.658759e+01	1.513359e+03
1.720000e-06	7.886821e-06	2.308804e-08	5.644942e+01	1.513038e+03
1.730000e-06	7.864997e-06	2.298942e-08	5.629321e+01	1.512790e+03
1.740000e-06	7.839922e-06	2.295358e-08	5.611374e+01	1.512372e+03
1.750000e-06	7.811131e-06	2.299370e-08	5.590767e+01	1.511573e+03
1.760000e-06	7.778933e-06	2.297447e-08	5.567722e+01	1.510287e+03
1.770000e-06	7.744281e-06	2.294112e-08	5.542920e+01	1.508544e+03
1.780000e-06	7.707448e-06	2.301358e-08	5.516557e+01	1.506498e+03
1.790000e-06	7.668418e-06	2.299443e-08	5.488621e+01	1.504381e+03
1.800000e-06	7.627323e-06	2.283721e-08	5.459208e+01	1.502422e+03
1.810000e-06	7.583697e-06	2.296294e-08	5.427983e+01	1.500770e+03
1.820000e-06	7.537417e-06	2.287805e-08	5.394858e+01	1.499443e+03
1.830000e-06	7.488542e-06	2.285223e-08	5.359876e+01	1.498313e+03
1.840000e-06	7.436667e-06	2.291202e-08	5.322747e+01	1.497145e+03
1.850000e-06	7.381840e-06	2.276437e-08	5.283505e+01	1.495669e+03
1.860000e-06	7.324263e-06	2.283191e-08	5.242294e+01	1.493659e+03
1.870000e-06	7.264135e-06	2.270752e-08	5.199259e+01	1.491009e+03
1.880000e-06	7.201345e-06	2.266634e-08	5.154317e+01	1.487766e+03
1.890000e-06	7.135680e-06	2.267511e-08	5.107317e+01	1.484121e+03
1.900000e-06	7.067298e-06	2.257677e-08	5.058373e+01	1.480346e+03
1.910000e-06	6.996092e-06	2.261237e-08	5.007408e+01	1.476716e+03
1.920000e-06	6.922194e-06	2.251009e-08	4.954516e+01	1.473418e+03
1.930000e-06	6.845635e-06	2.249551e-08	4.899720e+01	1.470493e+03
1.940000e-06	6.766287e-06	2.242004e-08	4.842926e+01	1.467819e+03
1.950000e-06	6.684391e-06	2.233131e-08	4.784310e+01	1.465148e+03
1.960000e-06	6.600120e-06	2.232129e-08	4.723993e+01	1.462184e+03
1.970000e-06	6.513427e-06	2.223131e-08	4.661944e+01	1.458670e+03
1.980000e-06	6.424257e-06	2.221611e-08	4.598121e+01	1.454474e+03
1.990000e-06	6.332889e-06	2.211902e-08	4.532725e+01	1.449631e+03
2.000000e-06	6.239374e-06	2.206526e-08	4.465792e+01	1.444332e+03
2.010000e-06	6.143575e-06	2.199229e-08	4.397224e+01	1.438864e+03
2.020000e-06	6.045553e-06	2.191556e-08	4.327066e+01	1.433524e+03
2.030000e-06	5.945393e-06	2.185414e-08	4.255377e+01	1.428517e+03
2.040000e-06	5.843071e-06	2.177501e-08	4.182141e+01	1.423891e+03
2.050000e-06	5.738670e-06	2.170903e-08	4.107417e+01	1.419515e+03
2.060000e-06	5.632365e-06	2.160450e-08	4.031329e+01	1.415118e+03
2.070000e-06	5.524126e-06	2.153022e-08	3.953858e+01	1.410366e+03
2.080000e-06	5.413872e-06	2.143634e-08	3.874944e+01	1.404969e+03
2.090000e-06	5.301552e-06	2.135480e-08	3.794552e+01	1.398771e+03
2.100000e-06	5.187275e-06	2.125531e-08	3.712759e+01	1.391803e+03
2.110000e-06	5.071081e-06	2.116219e-08	3.629594e+01	1.384274e+03
2.120000e-06	4.952924e-06	2.105791e-08	3.545024e+01	1.376508e+03
2.130000e-06	4.832842e-06	2.094841e-08	3.459076e+01	1.368841e+03
2.140000e-06	4.710948e-06	2.084141e-08	3.371831e+01	1.361506e+03
2.150000e-06	4.587426e-06	2.072806e-08	3.283421e+01	1.354559e+03
2.160000e-06	4.462325e-06	2.061891e-08	3.193880e+01	1.347845e+03
2.170000e-06	4.335466e-06	2.049860e-08	3.103082e+01	1.341038e+03
2.180000e-06	4.206907e-06	2.037864e-08	3.011067e+01	1.333739e+03
2.190000e-06	4.076926e-06	2.024467e-08	2.918034e+01	1.325593e+03
2.200000e-06	3.945483e-06	2.011165e-08	2.823955e+01	1.316403e+03
2.210000e-06	3.812578e-06	1.997057e-08	2.728828e+01	1.306195e+03
2.220000e-06	3.678198e-06	1.982916e-08	2.632646e+01	1.295208e+03
2.230000e-06	3.542297e-06	1.967670e-08	2.535376e+01	1.283827e+03
2.240000e-06	3.405046e-06	1.951730e-08	2.437140e+01	1.272448e+03
2.250000e-06	3.266586e-06	1.934816e-08	2.338038e+01	1.261348e+03
2.260000e-06	3.126933e-06	1.917175e-08	2.238082e+01	1.250578e+03
2.270000e-06	2.985986e-06	1.899229e-08	2.137201e+01	1.239926e+03
2.280000e-06	2.843904e-06	1.880678e-08	2.035506e+01	1.228960e+03
2.290000e-06	2.700739e-06	1.861442e-08	1.933036e+01	1.217149e+03
2.300000e-06	2.556503e-06	1.840688e-08	1.829800e+01	1.204021e+03
2.310000e-06	2.411434e-06	1.818867e-08	1.725969e+01	1.189304e+03
2.320000e-06	2.265595e-06	1.795898e-08	1.621585e+01	1.173022e+03
2.330000e-06	2.118943e-06	1.772003e-08	1.516620e+01	1.155483e+03
2.340000e-06	1.971589e-06	1.746897e-08	1.411153e+01	1.137185e+03
2.350000e-06	1.823666e-06	1.720454e-08	1.305277e+01	1.118638e+03
2.360000e-06	1.675201e-06	1.692504e-08	1.199015e+01	1.100172e+03
2.370000e-06	1.526210e-06	1.662722e-08	1.092375e+01	1.081781e+03
2.380000e-06	1.376687e-06	1.631152e-08	9.853546e+00	1.063059e+03
2.390000e-06	1.226757e-06	1.597519e-08	8.780435e+00	1.043262e+03
2.400000e-06	1.076471e-06	1.561739e-08	7.704775e+00	1.021474e+03
2.410000e-06	9.257163e-07	1.523758e-08	6.625756e+00	9.968521e+02
2.420000e-06	7.745331e-07	1.483120e-08	5.543671e+00	9.688517e+02
2.430000e-06	6.230760e-07	1.439038e-08	4.459627e+00	9.373753e+02
2.440000e-06	4.714247e-07	1.390683e-08	3.374192e+00	9.027675e+02
2.450000e-06	3.196182e-07	1.337629e-08	2.287647e+00	8.656374e+02
2.460000e-06	1.675846e-07	1.279518e-08	1.199476e+00	8.265340e+02
2.470000e-06	1.539372e-08	1.215854e-08	1.101796e-01	7.855496e+02
2.480000e-06	-1.367580e-07	1.145376e-08	-9.788367e-01	7.419604e+02
2.490000e-06	-2.888339e-07	1.066486e-08	-2.067310e+00	6.940190e+02
2.500000e-06	-4.408307e-07	9.773612e-09	-3.155217e+00	6.389917e+02
2.510000e-06	-5.927586e-07	8.755868e-09	-4.242632e+00	5.734760e+02
2.520000e-06	-7.444588e-07	7.576795e-09	-5.328417e+00	4.939721e+02
2.530000e-06	-8.958408e-07	6.191673e-09	-6.411923e+00	3.976080e+02
2.540000e-06	-1.046869e-06	4.543679e-09	-7.492898e+00	2.828732e+02
2.550000e-06	-1.197518e-06	2.570435e-09	-8.571161e+00	1.501955e+02
2.560000e-06	-1.347827e-06	2.725530e-10	-9.646984e+00	2.218567e+00
2.570000e-06	-1.497668e-06	-2.204837e-09	-1.071946e+01	-1.563061e+02
2.580000e-06	-1.646892e-06	-4.718584e-09	-1.178752e+01	-3.190199e+02
2.590000e-06	-1.795423e-06	-7.231626e-09	-1.285062e+01	-4.787702e+02
2.600000e-06	-1.943262e-06	-9.651507e-09	-1.390878e+01	-6.285882e+02
2.610000e-06	-2.090388e-06	-1.177215e-08	-1.496182e+01	-7.626460e+02
2.620000e-06	-2.236738e-06	-1.347542e-08	-1.600931e+01	-8.770069e+02
2.630000e-06	-2.382297e-06	-1.480213e-08	-1.705114e+01	-9.700345e+02
2.640000e-06	-2.527101e-06	-1.583457e-08	-1.808756e+01	-1.042393e+03
2.650000e-06	-2.670989e-06	-1.664895e-08	-1.911744e+01	-1.096660e+03
2.660000e-06	-2.813713e-06	-1.729929e-08	-2.013897e+01	-1.136663e+03
2.670000e-06	-2.955240e-06	-1.782643e-08	-2.115194e+01	-1.166674e+03
2.680000e-06	-3.095537e-06	-1.826203e-08	-2.215611e+01	-1.190655e+03
2.690000e-06	-3.234566e-06	-1.863067e-08	-2.315120e+01	-1.211684e+03
2.700000e-06	-3.372384e-06	-1.894941e-08	-2.413762e+01	-1.231662e+03
2.710000e-06	-3.508978e-06	-1.923131e-08	-2.511529e+01	-1.251321e+03
2.720000e-06	-3.644234e-06	-1.948464e-08	-2.608337e+01	-1.270479e+03
2.730000e-06	-3.778110e-06	-1.971496e-08	-2.704158e+01	-1.288446e+03
2.740000e-06	-3.910625e-06	-1.992645e-08	-2.799005e+01	-1.304460e+03
2.750000e-06	-4.041810e-06	-2.012027e-08	-2.892900e+01	-1.318035e+03
2.760000e-06	-4.171618e-06	-2.029668e-08	-2.985809e+01	-1.329151e+03
2.770000e-06	-4.300016e-06	-2.046005e-08	-3.077709e+01	-1.338256e+03
2.780000e-06	-4.426920e-06	-2.061433e-08	-3.168540e+01	-1.346119e+03
2.790000e-06	-4.552235e-06	-2.075968e-08	-3.258233e+01	-1.353586e+03
2.800000e-06	-4.675974e-06	-2.089605e-08	-3.346798e+01	-1.361341e+03
2.810000e-06	-4.798103e-06	-2.102292e-08	-3.434211e+01	-1.369729e+03
2.820000e-06	-4.918527e-06	-2.114078e-08	-3.520404e+01	-1.378694e+03
2.830000e-06	-5.037067e-06	-2.125197e-08	-3.605248e+01	-1.387854e+03
2.840000e-06	-5.153559e-06	-2.135806e-08	-3.688627e+01	-1.396651e+03
2.850000e-06	-5.267962e-06	-2.145928e-08	-3.770510e+01	-1.404553e+03
2.860000e-06	-5.380268e-06	-2.155500e-08	-3.850892e+01	-1.411227e+03
2.870000e-06	-5.490485e-06	-2.164355e-08	-3.929779e+01	-1.416639e+03
2.880000e-06	-5.598752e-06	-2.172632e-08	-4.007271e+01	-1.421050e+03
2.890000e-06	-5.705128e-06	-2.180649e-08	-4.083409e+01	-1.424930e+03
2.900000e-06	-5.809514e-06	-2.188735e-08	-4.158122e+01	-1.428805e+03
2.910000e-06	-5.911673e-06	-2.196563e-08	-4.231242e+01	-1.433097e+03
2.920000e-06	-6.011602e-06	-2.203932e-08	-4.302766e+01	-1.438006e+03
2.930000e-06	-6.109442e-06	-2.210910e-08	-4.372794e+01	-1.443467e+03
2.940000e-06	-6.205111e-06	-2.217581e-08	-4.441268e+01	-1.449187e+03
