# Temperatura_=_97.3
# Concentracion g/m^3_=_41000.0
# C_Vs_to_Am_M_A/Vsm_=_65563218390.804596
# pendiente_HvsI_1/m_=_3716.3
# ordenada_HvsI_A/m_=_1297.0
# frecuencia_Hz_=_302500.87440377375

Tiempo_(s)	Campo_(V.s)	Magnetizacion_(V.s)	Campo_(kA/m)	Magnetizacion_(A/m)
0.000000e+00	-8.041195e-06	-2.462680e-08	-5.686735e+01	-1.613810e+03
1.000000e-08	-8.038878e-06	-2.462911e-08	-5.685096e+01	-1.613155e+03
2.000000e-08	-8.033836e-06	-2.461838e-08	-5.681531e+01	-1.612068e+03
3.000000e-08	-8.026215e-06	-2.460277e-08	-5.676141e+01	-1.610747e+03
4.000000e-08	-8.015807e-06	-2.458998e-08	-5.668781e+01	-1.609423e+03
5.000000e-08	-8.002482e-06	-2.457484e-08	-5.659357e+01	-1.608283e+03
6.000000e-08	-7.986271e-06	-2.455401e-08	-5.647893e+01	-1.607413e+03
7.000000e-08	-7.967466e-06	-2.452991e-08	-5.634594e+01	-1.606770e+03
8.000000e-08	-7.946364e-06	-2.450419e-08	-5.619671e+01	-1.606197e+03
9.000000e-08	-7.922530e-06	-2.455997e-08	-5.602815e+01	-1.605478e+03
1.000000e-07	-7.895407e-06	-2.455078e-08	-5.583634e+01	-1.604407e+03
1.100000e-07	-7.865157e-06	-2.445888e-08	-5.562241e+01	-1.602858e+03
1.200000e-07	-7.832102e-06	-2.442490e-08	-5.538864e+01	-1.600826e+03
1.300000e-07	-7.796299e-06	-2.441043e-08	-5.513544e+01	-1.598434e+03
1.400000e-07	-7.758017e-06	-2.435527e-08	-5.486472e+01	-1.595894e+03
1.500000e-07	-7.717512e-06	-2.425489e-08	-5.457826e+01	-1.593441e+03
1.600000e-07	-7.674688e-06	-2.430906e-08	-5.427541e+01	-1.591257e+03
1.700000e-07	-7.629284e-06	-2.429655e-08	-5.395431e+01	-1.589411e+03
1.800000e-07	-7.581139e-06	-2.414952e-08	-5.361383e+01	-1.587828e+03
1.900000e-07	-7.529955e-06	-2.420232e-08	-5.325186e+01	-1.586313e+03
2.000000e-07	-7.475721e-06	-2.413876e-08	-5.286832e+01	-1.584602e+03
2.100000e-07	-7.418777e-06	-2.408921e-08	-5.246561e+01	-1.582440e+03
2.200000e-07	-7.359164e-06	-2.407796e-08	-5.204403e+01	-1.579656e+03
2.300000e-07	-7.296904e-06	-2.395985e-08	-5.160372e+01	-1.576216e+03
2.400000e-07	-7.231991e-06	-2.395663e-08	-5.114466e+01	-1.572230e+03
2.500000e-07	-7.164312e-06	-2.388402e-08	-5.066603e+01	-1.567918e+03
2.600000e-07	-7.093891e-06	-2.383082e-08	-5.016801e+01	-1.563540e+03
2.700000e-07	-7.020630e-06	-2.374523e-08	-4.964991e+01	-1.559317e+03
2.800000e-07	-6.944610e-06	-2.369394e-08	-4.911230e+01	-1.555363e+03
2.900000e-07	-6.865847e-06	-2.363603e-08	-4.855529e+01	-1.551647e+03
3.000000e-07	-6.784239e-06	-2.353717e-08	-4.797815e+01	-1.548008e+03
3.100000e-07	-6.700227e-06	-2.349728e-08	-4.738402e+01	-1.544203e+03
3.200000e-07	-6.614037e-06	-2.341543e-08	-4.677449e+01	-1.539987e+03
3.300000e-07	-6.525507e-06	-2.336246e-08	-4.614840e+01	-1.535191e+03
3.400000e-07	-6.434585e-06	-2.326835e-08	-4.550540e+01	-1.529776e+03
3.500000e-07	-6.341353e-06	-2.317766e-08	-4.484606e+01	-1.523844e+03
3.600000e-07	-6.245824e-06	-2.310940e-08	-4.417048e+01	-1.517610e+03
3.700000e-07	-6.147930e-06	-2.302013e-08	-4.347817e+01	-1.511329e+03
3.800000e-07	-6.047805e-06	-2.292408e-08	-4.277009e+01	-1.505215e+03
3.900000e-07	-5.945590e-06	-2.282886e-08	-4.204723e+01	-1.499368e+03
4.000000e-07	-5.841203e-06	-2.274829e-08	-4.130900e+01	-1.493741e+03
4.100000e-07	-5.734647e-06	-2.264042e-08	-4.055543e+01	-1.488148e+03
4.200000e-07	-5.626151e-06	-2.254126e-08	-3.978815e+01	-1.482317e+03
4.300000e-07	-5.515796e-06	-2.243691e-08	-3.900772e+01	-1.475983e+03
4.400000e-07	-5.403305e-06	-2.232659e-08	-3.821219e+01	-1.468961e+03
4.500000e-07	-5.288610e-06	-2.220898e-08	-3.740106e+01	-1.461214e+03
4.600000e-07	-5.171946e-06	-2.209525e-08	-3.657601e+01	-1.452862e+03
4.700000e-07	-5.053463e-06	-2.197694e-08	-3.573810e+01	-1.444149e+03
4.800000e-07	-4.933139e-06	-2.185227e-08	-3.488717e+01	-1.435359e+03
4.900000e-07	-4.810946e-06	-2.172662e-08	-3.402302e+01	-1.426727e+03
5.000000e-07	-4.687019e-06	-2.159584e-08	-3.314661e+01	-1.418354e+03
5.100000e-07	-4.561445e-06	-2.146110e-08	-3.225855e+01	-1.410168e+03
5.200000e-07	-4.434247e-06	-2.131393e-08	-3.135900e+01	-1.401937e+03
5.300000e-07	-4.305347e-06	-2.116610e-08	-3.044742e+01	-1.393334e+03
5.400000e-07	-4.174828e-06	-2.100860e-08	-2.952440e+01	-1.384035e+03
5.500000e-07	-4.042799e-06	-2.084833e-08	-2.859068e+01	-1.373821e+03
5.600000e-07	-3.909294e-06	-2.068068e-08	-2.764654e+01	-1.362649e+03
5.700000e-07	-3.774374e-06	-2.051360e-08	-2.669238e+01	-1.350668e+03
5.800000e-07	-3.637878e-06	-2.034034e-08	-2.572708e+01	-1.338172e+03
5.900000e-07	-3.499826e-06	-2.016083e-08	-2.475078e+01	-1.325507e+03
6.000000e-07	-3.360442e-06	-1.997460e-08	-2.376505e+01	-1.312950e+03
6.100000e-07	-3.219699e-06	-1.977829e-08	-2.276972e+01	-1.300608e+03
6.200000e-07	-3.077529e-06	-1.957644e-08	-2.176429e+01	-1.288367e+03
6.300000e-07	-2.934079e-06	-1.936314e-08	-2.074982e+01	-1.275905e+03
6.400000e-07	-2.789546e-06	-1.914152e-08	-1.972768e+01	-1.262780e+03
6.500000e-07	-2.644095e-06	-1.890801e-08	-1.869904e+01	-1.248551e+03
6.600000e-07	-2.497790e-06	-1.866843e-08	-1.766437e+01	-1.232917e+03
6.700000e-07	-2.350655e-06	-1.841779e-08	-1.662384e+01	-1.215811e+03
6.800000e-07	-2.202761e-06	-1.815648e-08	-1.557793e+01	-1.197416e+03
6.900000e-07	-2.054113e-06	-1.788419e-08	-1.452669e+01	-1.178109e+03
7.000000e-07	-1.904796e-06	-1.760088e-08	-1.347072e+01	-1.158325e+03
7.100000e-07	-1.754958e-06	-1.730243e-08	-1.241107e+01	-1.138388e+03
7.200000e-07	-1.604562e-06	-1.698256e-08	-1.134747e+01	-1.118366e+03
7.300000e-07	-1.453571e-06	-1.664733e-08	-1.027966e+01	-1.097993e+03
7.400000e-07	-1.302002e-06	-1.628984e-08	-9.207762e+00	-1.076682e+03
7.500000e-07	-1.149849e-06	-1.590959e-08	-8.131735e+00	-1.053659e+03
7.600000e-07	-9.972784e-07	-1.550767e-08	-7.052755e+00	-1.028146e+03
7.700000e-07	-8.444268e-07	-1.508277e-08	-5.971788e+00	-9.995739e+02
7.800000e-07	-6.912618e-07	-1.462465e-08	-4.888605e+00	-9.677235e+02
7.900000e-07	-5.378174e-07	-1.412877e-08	-3.803446e+00	-9.327557e+02
8.000000e-07	-3.841498e-07	-1.359156e-08	-2.716708e+00	-8.950867e+02
8.100000e-07	-2.303159e-07	-1.300243e-08	-1.628795e+00	-8.551251e+02
8.200000e-07	-7.634987e-08	-1.235234e-08	-5.399464e-01	-8.129270e+02
8.300000e-07	7.769877e-08	-1.162970e-08	5.494859e-01	-7.678612e+02
8.400000e-07	2.317589e-07	-1.082219e-08	1.638999e+00	-7.183890e+02
8.500000e-07	3.857980e-07	-9.912841e-09	2.728364e+00	-6.620487e+02
8.600000e-07	5.397783e-07	-8.881758e-09	3.817314e+00	-5.956951e+02
8.700000e-07	6.935512e-07	-7.691841e-09	4.904796e+00	-5.159816e+02
8.800000e-07	8.470050e-07	-6.293389e-09	5.990021e+00	-4.200131e+02
8.900000e-07	1.000160e-06	-4.620970e-09	7.073133e+00	-3.060432e+02
9.000000e-07	1.152946e-06	-2.607219e-09	8.153633e+00	-1.740653e+02
9.100000e-07	1.305310e-06	-2.953732e-10	9.231158e+00	-2.615703e+01
9.200000e-07	1.457255e-06	2.143865e-09	1.030571e+01	1.335209e+02
9.300000e-07	1.608651e-06	4.595804e-09	1.137638e+01	2.990998e+02
9.400000e-07	1.759382e-06	7.047202e-09	1.244236e+01	4.637023e+02
9.500000e-07	1.909444e-06	9.482135e-09	1.350359e+01	6.203439e+02
9.600000e-07	2.058794e-06	1.175904e-08	1.455980e+01	7.628709e+02
9.700000e-07	2.207360e-06	1.365529e-08	1.561045e+01	8.867569e+02
9.800000e-07	2.355026e-06	1.511975e-08	1.665475e+01	9.896120e+02
9.900000e-07	2.501835e-06	1.624382e-08	1.769298e+01	1.071317e+03
1.000000e-06	2.647813e-06	1.711957e-08	1.872534e+01	1.133779e+03
1.010000e-06	2.792825e-06	1.781423e-08	1.975087e+01	1.180371e+03
1.020000e-06	2.936809e-06	1.838013e-08	2.076912e+01	1.215202e+03
1.030000e-06	3.079629e-06	1.885296e-08	2.177914e+01	1.242355e+03
1.040000e-06	3.221166e-06	1.925645e-08	2.278009e+01	1.265261e+03
1.050000e-06	3.361484e-06	1.960710e-08	2.377242e+01	1.286306e+03
1.060000e-06	3.500566e-06	1.991585e-08	2.475601e+01	1.306722e+03
1.070000e-06	3.638302e-06	2.018970e-08	2.573008e+01	1.326739e+03
1.080000e-06	3.774597e-06	2.043768e-08	2.669396e+01	1.345919e+03
1.090000e-06	3.909431e-06	2.066585e-08	2.764750e+01	1.363565e+03
1.100000e-06	4.042867e-06	2.088036e-08	2.859116e+01	1.379096e+03
1.110000e-06	4.174902e-06	2.108189e-08	2.952492e+01	1.392293e+03
1.120000e-06	4.305466e-06	2.126998e-08	3.044826e+01	1.403380e+03
1.130000e-06	4.434491e-06	2.144578e-08	3.136073e+01	1.412949e+03
1.140000e-06	4.561965e-06	2.160817e-08	3.226223e+01	1.421767e+03
1.150000e-06	4.687852e-06	2.176393e-08	3.315250e+01	1.430548e+03
1.160000e-06	4.812142e-06	2.191269e-08	3.403148e+01	1.439760e+03
1.170000e-06	4.934842e-06	2.205361e-08	3.489922e+01	1.449522e+03
1.180000e-06	5.055775e-06	2.218595e-08	3.575445e+01	1.459615e+03
1.190000e-06	5.174798e-06	2.231332e-08	3.659619e+01	1.469586e+03
1.200000e-06	5.291919e-06	2.243519e-08	3.742446e+01	1.478927e+03
1.210000e-06	5.407040e-06	2.255421e-08	3.823860e+01	1.487237e+03
1.220000e-06	5.520043e-06	2.266789e-08	3.903776e+01	1.494350e+03
1.230000e-06	5.630934e-06	2.277723e-08	3.982198e+01	1.500374e+03
1.240000e-06	5.739829e-06	2.288107e-08	4.059209e+01	1.505647e+03
1.250000e-06	5.846739e-06	2.297591e-08	4.134815e+01	1.510619e+03
1.260000e-06	5.951529e-06	2.306319e-08	4.208923e+01	1.515715e+03
1.270000e-06	6.054106e-06	2.314641e-08	4.281465e+01	1.521208e+03
1.280000e-06	6.154462e-06	2.322813e-08	4.352437e+01	1.527150e+03
1.290000e-06	6.252509e-06	2.331014e-08	4.421776e+01	1.533373e+03
1.300000e-06	6.348166e-06	2.338980e-08	4.489425e+01	1.539563e+03
1.310000e-06	6.441522e-06	2.346462e-08	4.555446e+01	1.545366e+03
1.320000e-06	6.532654e-06	2.353615e-08	4.619894e+01	1.550510e+03
1.330000e-06	6.621429e-06	2.360522e-08	4.682676e+01	1.554888e+03
1.340000e-06	6.707773e-06	2.367295e-08	4.743739e+01	1.558585e+03
1.350000e-06	6.791802e-06	2.373827e-08	4.803164e+01	1.561848e+03
1.360000e-06	6.873443e-06	2.380120e-08	4.860901e+01	1.565001e+03
1.370000e-06	6.952535e-06	2.386149e-08	4.916834e+01	1.568341e+03
1.380000e-06	7.029063e-06	2.391911e-08	4.970955e+01	1.572042e+03
1.390000e-06	7.102974e-06	2.397416e-08	5.023225e+01	1.576110e+03
1.400000e-06	7.174253e-06	2.402751e-08	5.073634e+01	1.580384e+03
1.410000e-06	7.243020e-06	2.407880e-08	5.122266e+01	1.584587e+03
1.420000e-06	7.309198e-06	2.412875e-08	5.169067e+01	1.588424e+03
1.430000e-06	7.372739e-06	2.417655e-08	5.214003e+01	1.591669e+03
1.440000e-06	7.433820e-06	2.421932e-08	5.257199e+01	1.594237e+03
1.450000e-06	7.492410e-06	2.425848e-08	5.298634e+01	1.596206e+03
1.460000e-06	7.548291e-06	2.429604e-08	5.338153e+01	1.597787e+03
1.470000e-06	7.601261e-06	2.433246e-08	5.375613e+01	1.599257e+03
1.480000e-06	7.651141e-06	2.436719e-08	5.410889e+01	1.600869e+03
1.490000e-06	7.698060e-06	2.439898e-08	5.444070e+01	1.602772e+03
1.500000e-06	7.742259e-06	2.442761e-08	5.475328e+01	1.604972e+03
1.510000e-06	7.783691e-06	2.445281e-08	5.504628e+01	1.607327e+03
1.520000e-06	7.822316e-06	2.447571e-08	5.531943e+01	1.609603e+03
1.530000e-06	7.858252e-06	2.449638e-08	5.557358e+01	1.611546e+03
1.540000e-06	7.891405e-06	2.451616e-08	5.580803e+01	1.612963e+03
1.550000e-06	7.921768e-06	2.453495e-08	5.602276e+01	1.613789e+03
1.560000e-06	7.949419e-06	2.455129e-08	5.621831e+01	1.614100e+03
1.570000e-06	7.974118e-06	2.456478e-08	5.639298e+01	1.614091e+03
1.580000e-06	7.995893e-06	2.457510e-08	5.654697e+01	1.614015e+03
1.590000e-06	8.014884e-06	2.458379e-08	5.668128e+01	1.614102e+03
1.600000e-06	8.030950e-06	2.459161e-08	5.679490e+01	1.614490e+03
1.610000e-06	8.043935e-06	2.459922e-08	5.688673e+01	1.615181e+03
1.620000e-06	8.053762e-06	2.460588e-08	5.695623e+01	1.616043e+03
1.630000e-06	8.060621e-06	2.461002e-08	5.700473e+01	1.616856e+03
1.640000e-06	8.064665e-06	2.461198e-08	5.703333e+01	1.617380e+03
1.650000e-06	8.065820e-06	2.461557e-08	5.704150e+01	1.617434e+03
1.660000e-06	8.064166e-06	2.460977e-08	5.702980e+01	1.616945e+03
1.670000e-06	8.059903e-06	2.460192e-08	5.699965e+01	1.615978e+03
1.680000e-06	8.052928e-06	2.459715e-08	5.695032e+01	1.614706e+03
1.690000e-06	8.043221e-06	2.458921e-08	5.688168e+01	1.613359e+03
1.700000e-06	8.030704e-06	2.457914e-08	5.679316e+01	1.612145e+03
1.710000e-06	8.015389e-06	2.457267e-08	5.668485e+01	1.611186e+03
1.720000e-06	7.997636e-06	2.457489e-08	5.655930e+01	1.610481e+03
1.730000e-06	7.977586e-06	2.455001e-08	5.641751e+01	1.609907e+03
1.740000e-06	7.954840e-06	2.442925e-08	5.625665e+01	1.609260e+03
1.750000e-06	7.928719e-06	2.444002e-08	5.607192e+01	1.608321e+03
1.760000e-06	7.898827e-06	2.446629e-08	5.586053e+01	1.606931e+03
1.770000e-06	7.865708e-06	2.441423e-08	5.562631e+01	1.605046e+03
1.780000e-06	7.830237e-06	2.439349e-08	5.537545e+01	1.602749e+03
1.790000e-06	7.792457e-06	2.447155e-08	5.510827e+01	1.600230e+03
1.800000e-06	7.752562e-06	2.437586e-08	5.482613e+01	1.597725e+03
1.810000e-06	7.710600e-06	2.427542e-08	5.452938e+01	1.595441e+03
1.820000e-06	7.665927e-06	2.440193e-08	5.421345e+01	1.593486e+03
1.830000e-06	7.618491e-06	2.425509e-08	5.387799e+01	1.591835e+03
1.840000e-06	7.568286e-06	2.431063e-08	5.352294e+01	1.590325e+03
1.850000e-06	7.514963e-06	2.425165e-08	5.314584e+01	1.588706e+03
1.860000e-06	7.458795e-06	2.413995e-08	5.274861e+01	1.586712e+03
1.870000e-06	7.400017e-06	2.423444e-08	5.233293e+01	1.584138e+03
1.880000e-06	7.338574e-06	2.407906e-08	5.189841e+01	1.580904e+03
1.890000e-06	7.274317e-06	2.409919e-08	5.144399e+01	1.577073e+03
1.900000e-06	7.207204e-06	2.402975e-08	5.096937e+01	1.572837e+03
1.910000e-06	7.137298e-06	2.396363e-08	5.047499e+01	1.568452e+03
1.920000e-06	7.064638e-06	2.393989e-08	4.996114e+01	1.564161e+03
1.930000e-06	6.989301e-06	2.381818e-08	4.942835e+01	1.560116e+03
1.940000e-06	6.911173e-06	2.384568e-08	4.887583e+01	1.556335e+03
1.950000e-06	6.830401e-06	2.372161e-08	4.830461e+01	1.552695e+03
1.960000e-06	6.747173e-06	2.367078e-08	4.771602e+01	1.548971e+03
1.970000e-06	6.661358e-06	2.358380e-08	4.710914e+01	1.544910e+03
1.980000e-06	6.573039e-06	2.350142e-08	4.648455e+01	1.540311e+03
1.990000e-06	6.482457e-06	2.347080e-08	4.584395e+01	1.535090e+03
2.000000e-06	6.389623e-06	2.335140e-08	4.518743e+01	1.529304e+03
2.010000e-06	6.294401e-06	2.330234e-08	4.451402e+01	1.523139e+03
2.020000e-06	6.196993e-06	2.319330e-08	4.382515e+01	1.516846e+03
2.030000e-06	6.097473e-06	2.311818e-08	4.312135e+01	1.510660e+03
2.040000e-06	5.995610e-06	2.300402e-08	4.240097e+01	1.504725e+03
2.050000e-06	5.891528e-06	2.292353e-08	4.166490e+01	1.499042e+03
2.060000e-06	5.785511e-06	2.283623e-08	4.091514e+01	1.493464e+03
2.070000e-06	5.677602e-06	2.273186e-08	4.015202e+01	1.487740e+03
2.080000e-06	5.567638e-06	2.263967e-08	3.937435e+01	1.481593e+03
2.090000e-06	5.455628e-06	2.252590e-08	3.858221e+01	1.474803e+03
2.100000e-06	5.341619e-06	2.242591e-08	3.777594e+01	1.467283e+03
2.110000e-06	5.225493e-06	2.229791e-08	3.695470e+01	1.459103e+03
2.120000e-06	5.107232e-06	2.218841e-08	3.611836e+01	1.450475e+03
2.130000e-06	4.987055e-06	2.205788e-08	3.526846e+01	1.441679e+03
2.140000e-06	4.865192e-06	2.193848e-08	3.440665e+01	1.432977e+03
2.150000e-06	4.741618e-06	2.180348e-08	3.353274e+01	1.424520e+03
2.160000e-06	4.616216e-06	2.167510e-08	3.264589e+01	1.416292e+03
2.170000e-06	4.489078e-06	2.153997e-08	3.174677e+01	1.408108e+03
2.180000e-06	4.360344e-06	2.140213e-08	3.083636e+01	1.399662e+03
2.190000e-06	4.230110e-06	2.126088e-08	2.991535e+01	1.390616e+03
2.200000e-06	4.098328e-06	2.110987e-08	2.898338e+01	1.380710e+03
2.210000e-06	3.964865e-06	2.095368e-08	2.803953e+01	1.369838e+03
2.220000e-06	3.829896e-06	2.078438e-08	2.708503e+01	1.358090e+03
2.230000e-06	3.693578e-06	2.061392e-08	2.612099e+01	1.345722e+03
2.240000e-06	3.555927e-06	2.043195e-08	2.514752e+01	1.333075e+03
2.250000e-06	3.416882e-06	2.025139e-08	2.416419e+01	1.320460e+03
2.260000e-06	3.276401e-06	2.006169e-08	2.317071e+01	1.308050e+03
2.270000e-06	3.134615e-06	1.986900e-08	2.216800e+01	1.295803e+03
2.280000e-06	2.991612e-06	1.966681e-08	2.115669e+01	1.283457e+03
2.290000e-06	2.847507e-06	1.945594e-08	2.013758e+01	1.270595e+03
2.300000e-06	2.702395e-06	1.923320e-08	1.911135e+01	1.256762e+03
2.310000e-06	2.556421e-06	1.900131e-08	1.807902e+01	1.241599e+03
2.320000e-06	2.409677e-06	1.875952e-08	1.704124e+01	1.224958e+03
2.330000e-06	2.262032e-06	1.850401e-08	1.599709e+01	1.206942e+03
2.340000e-06	2.113493e-06	1.823701e-08	1.494663e+01	1.187880e+03
2.350000e-06	1.964221e-06	1.795859e-08	1.389097e+01	1.168205e+03
2.360000e-06	1.814349e-06	1.766614e-08	1.283108e+01	1.148294e+03
2.370000e-06	1.663867e-06	1.735730e-08	1.176687e+01	1.128312e+03
2.380000e-06	1.512782e-06	1.703061e-08	1.069840e+01	1.108101e+03
2.390000e-06	1.361243e-06	1.668659e-08	9.626715e+00	1.087170e+03
2.400000e-06	1.209291e-06	1.632280e-08	8.552112e+00	1.064786e+03
2.410000e-06	1.056974e-06	1.593255e-08	7.474923e+00	1.040149e+03
2.420000e-06	9.043358e-07	1.551314e-08	6.395465e+00	1.012602e+03
2.430000e-06	7.513456e-07	1.506392e-08	5.313518e+00	9.818046e+02
2.440000e-06	5.980972e-07	1.458066e-08	4.229745e+00	9.478011e+02
2.450000e-06	4.447039e-07	1.405383e-08	3.144947e+00	9.109484e+02
2.460000e-06	2.911932e-07	1.347781e-08	2.059319e+00	8.716929e+02
2.470000e-06	1.375528e-07	1.284618e-08	9.727735e-01	8.302431e+02
2.480000e-06	-1.617515e-08	1.215131e-08	-1.143907e-01	7.862203e+02
2.490000e-06	-1.698909e-07	1.137882e-08	-1.201469e+00	7.383904e+02
2.500000e-06	-3.235611e-07	1.051038e-08	-2.288225e+00	6.845751e+02
2.510000e-06	-4.771905e-07	9.527482e-09	-3.374693e+00	6.218069e+02
2.520000e-06	-6.306845e-07	8.399048e-09	-4.460202e+00	5.467388e+02
2.530000e-06	-7.840027e-07	7.079754e-09	-5.544469e+00	4.562539e+02
2.540000e-06	-9.371061e-07	5.511595e-09	-6.627217e+00	3.481637e+02
2.550000e-06	-1.089868e-06	3.623936e-09	-7.707551e+00	2.218507e+02
2.560000e-06	-1.242269e-06	1.384028e-09	-8.785328e+00	7.870461e+01
2.570000e-06	-1.394284e-06	-1.077654e-09	-9.860381e+00	-7.776010e+01
2.580000e-06	-1.545777e-06	-3.589247e-09	-1.093174e+01	-2.421612e+02
2.590000e-06	-1.696694e-06	-6.105023e-09	-1.199903e+01	-4.078539e+02
2.600000e-06	-1.847001e-06	-8.618835e-09	-1.306200e+01	-5.677840e+02
2.610000e-06	-1.996553e-06	-1.103132e-08	-1.411963e+01	-7.154335e+02
2.620000e-06	-2.145296e-06	-1.311444e-08	-1.517154e+01	-8.456814e+02
2.630000e-06	-2.293270e-06	-1.474695e-08	-1.621801e+01	-9.554174e+02
2.640000e-06	-2.440375e-06	-1.599679e-08	-1.725834e+01	-1.043802e+03
2.650000e-06	-2.586525e-06	-1.696352e-08	-1.829191e+01	-1.112138e+03
2.660000e-06	-2.731722e-06	-1.772604e-08	-1.931875e+01	-1.163403e+03
2.670000e-06	-2.875917e-06	-1.834080e-08	-2.033849e+01	-1.201554e+03
2.680000e-06	-3.019012e-06	-1.884687e-08	-2.135046e+01	-1.230760e+03
2.690000e-06	-3.160876e-06	-1.927090e-08	-2.235373e+01	-1.254716e+03
2.700000e-06	-3.301456e-06	-1.963519e-08	-2.334791e+01	-1.276170e+03
2.710000e-06	-3.440746e-06	-1.995538e-08	-2.433296e+01	-1.296722e+03
2.720000e-06	-3.578689e-06	-2.024256e-08	-2.530850e+01	-1.316891e+03
2.730000e-06	-3.715301e-06	-2.050286e-08	-2.627462e+01	-1.336412e+03
2.740000e-06	-3.850583e-06	-2.074104e-08	-2.723133e+01	-1.354627e+03
2.750000e-06	-3.984484e-06	-2.096233e-08	-2.817828e+01	-1.370883e+03
2.760000e-06	-4.116956e-06	-2.116691e-08	-2.911512e+01	-1.384827e+03
2.770000e-06	-4.247961e-06	-2.135469e-08	-3.004159e+01	-1.396543e+03
2.780000e-06	-4.377466e-06	-2.152997e-08	-3.095745e+01	-1.406520e+03
2.790000e-06	-4.505462e-06	-2.169649e-08	-3.186264e+01	-1.415495e+03
2.800000e-06	-4.631973e-06	-2.185486e-08	-3.275732e+01	-1.424223e+03
2.810000e-06	-4.756852e-06	-2.200577e-08	-3.364047e+01	-1.433266e+03
2.820000e-06	-4.880066e-06	-2.214889e-08	-3.451184e+01	-1.442861e+03
2.830000e-06	-5.001583e-06	-2.228373e-08	-3.537121e+01	-1.452889e+03
2.840000e-06	-5.121275e-06	-2.241072e-08	-3.621767e+01	-1.462956e+03
2.850000e-06	-5.238988e-06	-2.253193e-08	-3.705013e+01	-1.472553e+03
2.860000e-06	-5.354542e-06	-2.264922e-08	-3.786734e+01	-1.481225e+03
2.870000e-06	-5.467946e-06	-2.276283e-08	-3.866933e+01	-1.488725e+03
2.880000e-06	-5.579197e-06	-2.286982e-08	-3.945609e+01	-1.495072e+03
2.890000e-06	-5.688355e-06	-2.296793e-08	-4.022806e+01	-1.500540e+03
2.900000e-06	-5.795557e-06	-2.306068e-08	-4.098619e+01	-1.505559e+03
2.910000e-06	-5.900771e-06	-2.315235e-08	-4.173026e+01	-1.510577e+03
2.920000e-06	-6.003831e-06	-2.324168e-08	-4.245911e+01	-1.515926e+03
2.930000e-06	-6.104568e-06	-2.332643e-08	-4.317152e+01	-1.521732e+03
2.940000e-06	-6.203046e-06	-2.340732e-08	-4.386795e+01	-1.527895e+03
