# Temperatura_=_94.23
# Concentracion g/m^3_=_41000.0
# C_Vs_to_Am_M_A/Vsm_=_65563218390.804596
# pendiente_HvsI_1/m_=_3716.3
# ordenada_HvsI_A/m_=_1297.0
# frecuencia_Hz_=_302496.2677032726

Tiempo_(s)	Campo_(V.s)	Magnetizacion_(V.s)	Campo_(kA/m)	Magnetizacion_(A/m)
0.000000e+00	-7.942891e-06	-2.437132e-08	-5.686029e+01	-1.595878e+03
1.000000e-08	-7.938711e-06	-2.436545e-08	-5.683036e+01	-1.594968e+03
2.000000e-08	-7.932069e-06	-2.435083e-08	-5.678282e+01	-1.593700e+03
3.000000e-08	-7.922744e-06	-2.433733e-08	-5.671606e+01	-1.592300e+03
4.000000e-08	-7.910487e-06	-2.432265e-08	-5.662832e+01	-1.590992e+03
5.000000e-08	-7.895304e-06	-2.430520e-08	-5.651963e+01	-1.589926e+03
6.000000e-08	-7.877469e-06	-2.428363e-08	-5.639195e+01	-1.589133e+03
7.000000e-08	-7.857314e-06	-2.425569e-08	-5.624767e+01	-1.588518e+03
8.000000e-08	-7.834654e-06	-2.425235e-08	-5.608545e+01	-1.587895e+03
9.000000e-08	-7.808956e-06	-2.429658e-08	-5.590150e+01	-1.587048e+03
1.000000e-07	-7.780050e-06	-2.426010e-08	-5.569457e+01	-1.585809e+03
1.100000e-07	-7.748221e-06	-2.419251e-08	-5.546671e+01	-1.584109e+03
1.200000e-07	-7.713661e-06	-2.416075e-08	-5.521931e+01	-1.582006e+03
1.300000e-07	-7.676549e-06	-2.412372e-08	-5.495364e+01	-1.579665e+03
1.400000e-07	-7.637207e-06	-2.403801e-08	-5.467200e+01	-1.577302e+03
1.500000e-07	-7.595706e-06	-2.398047e-08	-5.437491e+01	-1.575116e+03
1.600000e-07	-7.551636e-06	-2.408917e-08	-5.405943e+01	-1.573214e+03
1.700000e-07	-7.504876e-06	-2.397504e-08	-5.372470e+01	-1.571573e+03
1.800000e-07	-7.455463e-06	-2.393462e-08	-5.337096e+01	-1.570041e+03
1.900000e-07	-7.403029e-06	-2.396623e-08	-5.299561e+01	-1.568373e+03
2.000000e-07	-7.347639e-06	-2.382152e-08	-5.259909e+01	-1.566310e+03
2.100000e-07	-7.289618e-06	-2.380232e-08	-5.218374e+01	-1.563655e+03
2.200000e-07	-7.228925e-06	-2.372802e-08	-5.174926e+01	-1.560335e+03
2.300000e-07	-7.165584e-06	-2.367672e-08	-5.129583e+01	-1.556426e+03
2.400000e-07	-7.099504e-06	-2.365512e-08	-5.082278e+01	-1.552137e+03
2.500000e-07	-7.030710e-06	-2.359805e-08	-5.033031e+01	-1.547740e+03
2.600000e-07	-6.959312e-06	-2.353977e-08	-4.981920e+01	-1.543495e+03
2.700000e-07	-6.885195e-06	-2.346550e-08	-4.928862e+01	-1.539563e+03
2.800000e-07	-6.808293e-06	-2.342494e-08	-4.873811e+01	-1.535960e+03
2.900000e-07	-6.728606e-06	-2.334586e-08	-4.816766e+01	-1.532545e+03
3.000000e-07	-6.646333e-06	-2.327875e-08	-4.757869e+01	-1.529070e+03
3.100000e-07	-6.561771e-06	-2.323339e-08	-4.697335e+01	-1.525246e+03
3.200000e-07	-6.474991e-06	-2.314506e-08	-4.635212e+01	-1.520841e+03
3.300000e-07	-6.385920e-06	-2.307131e-08	-4.571449e+01	-1.515748e+03
3.400000e-07	-6.294484e-06	-2.296715e-08	-4.505993e+01	-1.510023e+03
3.500000e-07	-6.200773e-06	-2.289341e-08	-4.438909e+01	-1.503865e+03
3.600000e-07	-6.104784e-06	-2.282277e-08	-4.370194e+01	-1.497556e+03
3.700000e-07	-6.006489e-06	-2.273151e-08	-4.299828e+01	-1.491373e+03
3.800000e-07	-5.906082e-06	-2.264342e-08	-4.227951e+01	-1.485497e+03
3.900000e-07	-5.803617e-06	-2.254978e-08	-4.154600e+01	-1.479955e+03
4.000000e-07	-5.699081e-06	-2.245980e-08	-4.079766e+01	-1.474604e+03
4.100000e-07	-5.592563e-06	-2.234824e-08	-4.003513e+01	-1.469174e+03
4.200000e-07	-5.484092e-06	-2.225820e-08	-3.925863e+01	-1.463348e+03
4.300000e-07	-5.373603e-06	-2.215547e-08	-3.846768e+01	-1.456862e+03
4.400000e-07	-5.261066e-06	-2.205015e-08	-3.766207e+01	-1.449586e+03
4.500000e-07	-5.146600e-06	-2.193709e-08	-3.684265e+01	-1.441564e+03
4.600000e-07	-5.030204e-06	-2.181814e-08	-3.600941e+01	-1.433009e+03
4.700000e-07	-4.911833e-06	-2.169535e-08	-3.516204e+01	-1.424227e+03
4.800000e-07	-4.791654e-06	-2.156843e-08	-3.430172e+01	-1.415524e+03
4.900000e-07	-4.669799e-06	-2.144806e-08	-3.342940e+01	-1.407104e+03
5.000000e-07	-4.546233e-06	-2.131228e-08	-3.254484e+01	-1.398998e+03
5.100000e-07	-4.420894e-06	-2.117427e-08	-3.164758e+01	-1.391041e+03
5.200000e-07	-4.294009e-06	-2.102808e-08	-3.073926e+01	-1.382922e+03
5.300000e-07	-4.165651e-06	-2.087994e-08	-2.982039e+01	-1.374273e+03
5.400000e-07	-4.035772e-06	-2.072589e-08	-2.889064e+01	-1.364780e+03
5.500000e-07	-3.904376e-06	-2.057190e-08	-2.795001e+01	-1.354283e+03
5.600000e-07	-3.771425e-06	-2.041608e-08	-2.699827e+01	-1.342832e+03
5.700000e-07	-3.636973e-06	-2.024685e-08	-2.603578e+01	-1.330667e+03
5.800000e-07	-3.501152e-06	-2.006588e-08	-2.506348e+01	-1.318145e+03
5.900000e-07	-3.364053e-06	-1.987594e-08	-2.408204e+01	-1.305620e+03
6.000000e-07	-3.225682e-06	-1.968583e-08	-2.309149e+01	-1.293323e+03
6.100000e-07	-3.085944e-06	-1.948757e-08	-2.209116e+01	-1.281265e+03
6.200000e-07	-2.944826e-06	-1.928374e-08	-2.108094e+01	-1.269220e+03
6.300000e-07	-2.802565e-06	-1.907167e-08	-2.006255e+01	-1.256775e+03
6.400000e-07	-2.659300e-06	-1.885224e-08	-1.903697e+01	-1.243443e+03
6.500000e-07	-2.515083e-06	-1.862252e-08	-1.800457e+01	-1.228812e+03
6.600000e-07	-2.369920e-06	-1.838208e-08	-1.696540e+01	-1.212669e+03
6.700000e-07	-2.223743e-06	-1.813285e-08	-1.591897e+01	-1.195069e+03
6.800000e-07	-2.076789e-06	-1.787140e-08	-1.486698e+01	-1.176320e+03
6.900000e-07	-1.929277e-06	-1.759771e-08	-1.381100e+01	-1.156876e+03
7.000000e-07	-1.781187e-06	-1.730315e-08	-1.275087e+01	-1.137173e+03
7.100000e-07	-1.632512e-06	-1.699129e-08	-1.168656e+01	-1.117454e+03
7.200000e-07	-1.483223e-06	-1.666530e-08	-1.061786e+01	-1.097639e+03
7.300000e-07	-1.333424e-06	-1.632559e-08	-9.545497e+00	-1.077289e+03
7.400000e-07	-1.183242e-06	-1.596596e-08	-8.470398e+00	-1.055678e+03
7.500000e-07	-1.032673e-06	-1.558538e-08	-7.392533e+00	-1.031960e+03
7.600000e-07	-8.817942e-07	-1.518132e-08	-6.312446e+00	-1.005397e+03
7.700000e-07	-7.306941e-07	-1.474260e-08	-5.230775e+00	-9.755491e+02
7.800000e-07	-5.793805e-07	-1.426470e-08	-4.147575e+00	-9.423862e+02
7.900000e-07	-4.278842e-07	-1.374606e-08	-3.063068e+00	-9.062470e+02
8.000000e-07	-2.761869e-07	-1.318702e-08	-1.977122e+00	-8.676412e+02
8.100000e-07	-1.243330e-07	-1.257559e-08	-8.900550e-01	-8.269271e+02
8.200000e-07	2.758351e-08	-1.190067e-08	1.974604e-01	-7.839423e+02
8.300000e-07	1.794910e-07	-1.114874e-08	1.284911e+00	-7.376944e+02
8.400000e-07	3.313072e-07	-1.030447e-08	2.371708e+00	-6.862150e+02
8.500000e-07	4.830797e-07	-9.350656e-09	3.458193e+00	-6.266565e+02
8.600000e-07	6.348099e-07	-8.258445e-09	4.544375e+00	-5.556542e+02
8.700000e-07	7.863652e-07	-6.987343e-09	5.629304e+00	-4.699132e+02
8.800000e-07	9.376502e-07	-5.480793e-09	6.712299e+00	-3.669161e+02
8.900000e-07	1.088647e-06	-3.672485e-09	7.793233e+00	-2.456071e+02
9.000000e-07	1.239319e-06	-1.531321e-09	8.871835e+00	-1.068958e+02
9.100000e-07	1.389634e-06	8.441897e-10	9.947884e+00	4.614527e+01
9.200000e-07	1.539477e-06	3.294358e-09	1.102056e+01	2.084615e+02
9.300000e-07	1.688767e-06	5.749153e-09	1.208927e+01	3.735647e+02
9.400000e-07	1.837476e-06	8.197963e-09	1.315383e+01	5.343611e+02
9.500000e-07	1.985485e-06	1.055998e-08	1.421337e+01	6.841088e+02
9.600000e-07	2.132720e-06	1.263117e-08	1.526737e+01	8.173228e+02
9.700000e-07	2.279050e-06	1.428193e-08	1.631490e+01	9.304572e+02
9.800000e-07	2.424375e-06	1.555831e-08	1.735522e+01	1.022241e+03
9.900000e-07	2.568765e-06	1.654957e-08	1.838886e+01	1.093622e+03
1.000000e-06	2.712268e-06	1.732696e-08	1.941614e+01	1.147340e+03
1.010000e-06	2.854804e-06	1.795058e-08	2.043651e+01	1.187261e+03
1.020000e-06	2.996274e-06	1.846458e-08	2.144924e+01	1.217591e+03
1.030000e-06	3.136547e-06	1.889642e-08	2.245341e+01	1.242160e+03
1.040000e-06	3.275536e-06	1.926864e-08	2.344838e+01	1.263899e+03
1.050000e-06	3.413191e-06	1.959501e-08	2.443380e+01	1.284587e+03
1.060000e-06	3.549529e-06	1.988411e-08	2.540980e+01	1.304882e+03
1.070000e-06	3.684589e-06	2.014162e-08	2.637664e+01	1.324595e+03
1.080000e-06	3.818341e-06	2.037928e-08	2.733412e+01	1.343075e+03
1.090000e-06	3.950767e-06	2.060187e-08	2.828211e+01	1.359630e+03
1.100000e-06	4.081782e-06	2.080929e-08	2.922000e+01	1.373841e+03
1.110000e-06	4.211263e-06	2.099984e-08	3.014691e+01	1.385733e+03
1.120000e-06	4.339249e-06	2.117452e-08	3.106311e+01	1.395760e+03
1.130000e-06	4.465746e-06	2.133903e-08	3.196866e+01	1.404656e+03
1.140000e-06	4.590782e-06	2.149596e-08	3.286375e+01	1.413213e+03
1.150000e-06	4.714280e-06	2.164726e-08	3.374782e+01	1.422045e+03
1.160000e-06	4.835973e-06	2.179197e-08	3.461898e+01	1.431446e+03
1.170000e-06	4.955941e-06	2.192959e-08	3.547779e+01	1.441336e+03
1.180000e-06	5.074148e-06	2.206058e-08	3.632399e+01	1.451338e+03
1.190000e-06	5.190398e-06	2.218433e-08	3.715619e+01	1.460927e+03
1.200000e-06	5.304626e-06	2.230077e-08	3.797390e+01	1.469617e+03
1.210000e-06	5.416829e-06	2.241044e-08	3.877712e+01	1.477115e+03
1.220000e-06	5.527107e-06	2.251332e-08	3.956656e+01	1.483406e+03
1.230000e-06	5.635517e-06	2.261135e-08	4.034263e+01	1.488747e+03
1.240000e-06	5.741862e-06	2.270585e-08	4.110391e+01	1.493574e+03
1.250000e-06	5.845977e-06	2.279639e-08	4.184924e+01	1.498364e+03
1.260000e-06	5.947998e-06	2.288241e-08	4.257956e+01	1.503490e+03
1.270000e-06	6.047891e-06	2.296452e-08	4.329466e+01	1.509118e+03
1.280000e-06	6.145488e-06	2.304621e-08	4.399333e+01	1.515174e+03
1.290000e-06	6.240718e-06	2.312714e-08	4.467505e+01	1.521388e+03
1.300000e-06	6.333731e-06	2.320328e-08	4.534089e+01	1.527390e+03
1.310000e-06	6.424559e-06	2.327398e-08	4.599109e+01	1.532840e+03
1.320000e-06	6.513027e-06	2.334119e-08	4.662440e+01	1.537533e+03
1.330000e-06	6.599152e-06	2.340685e-08	4.724094e+01	1.541458e+03
1.340000e-06	6.683038e-06	2.347140e-08	4.784145e+01	1.544800e+03
1.350000e-06	6.764498e-06	2.353488e-08	4.842460e+01	1.547867e+03
1.360000e-06	6.843411e-06	2.359611e-08	4.898951e+01	1.550992e+03
1.370000e-06	6.919883e-06	2.365468e-08	4.953694e+01	1.554428e+03
1.380000e-06	6.993762e-06	2.370940e-08	5.006581e+01	1.558265e+03
1.390000e-06	7.065035e-06	2.376143e-08	5.057603e+01	1.562415e+03
1.400000e-06	7.133834e-06	2.381259e-08	5.106854e+01	1.566636e+03
1.410000e-06	7.200011e-06	2.386206e-08	5.154227e+01	1.570620e+03
1.420000e-06	7.263570e-06	2.390877e-08	5.199727e+01	1.574088e+03
1.430000e-06	7.324752e-06	2.395150e-08	5.243525e+01	1.576879e+03
1.440000e-06	7.383440e-06	2.399178e-08	5.285538e+01	1.578996e+03
1.450000e-06	7.439490e-06	2.402948e-08	5.325662e+01	1.580603e+03
1.460000e-06	7.492859e-06	2.406434e-08	5.363867e+01	1.581969e+03
1.470000e-06	7.543136e-06	2.409747e-08	5.399859e+01	1.583382e+03
1.480000e-06	7.590314e-06	2.413010e-08	5.433631e+01	1.585061e+03
1.490000e-06	7.634872e-06	2.415922e-08	5.465529e+01	1.587085e+03
1.500000e-06	7.676719e-06	2.418405e-08	5.495485e+01	1.589378e+03
1.510000e-06	7.715710e-06	2.420591e-08	5.523398e+01	1.591731e+03
1.520000e-06	7.752137e-06	2.422668e-08	5.549475e+01	1.593878e+03
1.530000e-06	7.785840e-06	2.424690e-08	5.573602e+01	1.595575e+03
1.540000e-06	7.816660e-06	2.426462e-08	5.595664e+01	1.596681e+03
1.550000e-06	7.844846e-06	2.428112e-08	5.615841e+01	1.597202e+03
1.560000e-06	7.870199e-06	2.429549e-08	5.633991e+01	1.597285e+03
1.570000e-06	7.892611e-06	2.430675e-08	5.650035e+01	1.597170e+03
1.580000e-06	7.912309e-06	2.431641e-08	5.664136e+01	1.597118e+03
1.590000e-06	7.929150e-06	2.432639e-08	5.676192e+01	1.597324e+03
1.600000e-06	7.942968e-06	2.433568e-08	5.686084e+01	1.597862e+03
1.610000e-06	7.953656e-06	2.434305e-08	5.693735e+01	1.598663e+03
1.620000e-06	7.961280e-06	2.434803e-08	5.699192e+01	1.599536e+03
1.630000e-06	7.966140e-06	2.435014e-08	5.702672e+01	1.600235e+03
1.640000e-06	7.968205e-06	2.435032e-08	5.704150e+01	1.600535e+03
1.650000e-06	7.967421e-06	2.435000e-08	5.703589e+01	1.600299e+03
1.660000e-06	7.964057e-06	2.434016e-08	5.701181e+01	1.599523e+03
1.670000e-06	7.958086e-06	2.433383e-08	5.696906e+01	1.598334e+03
1.680000e-06	7.949403e-06	2.432684e-08	5.690690e+01	1.596946e+03
1.690000e-06	7.938031e-06	2.431641e-08	5.682550e+01	1.595591e+03
1.700000e-06	7.923811e-06	2.430667e-08	5.672370e+01	1.594446e+03
1.710000e-06	7.907006e-06	2.430161e-08	5.660339e+01	1.593578e+03
1.720000e-06	7.887921e-06	2.430311e-08	5.646678e+01	1.592927e+03
1.730000e-06	7.866340e-06	2.423554e-08	5.631228e+01	1.592327e+03
1.740000e-06	7.841705e-06	2.415481e-08	5.613593e+01	1.591563e+03
1.750000e-06	7.813456e-06	2.417427e-08	5.593370e+01	1.590447e+03
1.760000e-06	7.781743e-06	2.417135e-08	5.570669e+01	1.588877e+03
1.770000e-06	7.747396e-06	2.413054e-08	5.546080e+01	1.586875e+03
1.780000e-06	7.710819e-06	2.416838e-08	5.519897e+01	1.584579e+03
1.790000e-06	7.672014e-06	2.420912e-08	5.492118e+01	1.582199e+03
1.800000e-06	7.631178e-06	2.404366e-08	5.462884e+01	1.579945e+03
1.810000e-06	7.587863e-06	2.410015e-08	5.431877e+01	1.577956e+03
1.820000e-06	7.541857e-06	2.409510e-08	5.398943e+01	1.576250e+03
1.830000e-06	7.493290e-06	2.397067e-08	5.364175e+01	1.574707e+03
1.840000e-06	7.441760e-06	2.407440e-08	5.327287e+01	1.573104e+03
1.850000e-06	7.387259e-06	2.394337e-08	5.288271e+01	1.571177e+03
1.860000e-06	7.330023e-06	2.396151e-08	5.247298e+01	1.568704e+03
1.870000e-06	7.270203e-06	2.393358e-08	5.204475e+01	1.565571e+03
1.880000e-06	7.207688e-06	2.380786e-08	5.159723e+01	1.561813e+03
1.890000e-06	7.142327e-06	2.382133e-08	5.112934e+01	1.557604e+03
1.900000e-06	7.074241e-06	2.369529e-08	5.064193e+01	1.553208e+03
1.910000e-06	7.003362e-06	2.369160e-08	5.013454e+01	1.548896e+03
1.920000e-06	6.929729e-06	2.362395e-08	4.960743e+01	1.544865e+03
1.930000e-06	6.853456e-06	2.356751e-08	4.906141e+01	1.541174e+03
1.940000e-06	6.774468e-06	2.353787e-08	4.849597e+01	1.537726e+03
1.950000e-06	6.692888e-06	2.339560e-08	4.791197e+01	1.534296e+03
1.960000e-06	6.608846e-06	2.336981e-08	4.731034e+01	1.530598e+03
1.970000e-06	6.522387e-06	2.327681e-08	4.669141e+01	1.526375e+03
1.980000e-06	6.433538e-06	2.323864e-08	4.605537e+01	1.521479e+03
1.990000e-06	6.342423e-06	2.316396e-08	4.540311e+01	1.515919e+03
2.000000e-06	6.249106e-06	2.306952e-08	4.473509e+01	1.509856e+03
2.010000e-06	6.153515e-06	2.299881e-08	4.405079e+01	1.503558e+03
2.020000e-06	6.055692e-06	2.288975e-08	4.335051e+01	1.497314e+03
2.030000e-06	5.955731e-06	2.281706e-08	4.263492e+01	1.491339e+03
2.040000e-06	5.853717e-06	2.272116e-08	4.190464e+01	1.485708e+03
2.050000e-06	5.749600e-06	2.265174e-08	4.115931e+01	1.480324e+03
2.060000e-06	5.643479e-06	2.254342e-08	4.039963e+01	1.474947e+03
2.070000e-06	5.535431e-06	2.244152e-08	3.962615e+01	1.469264e+03
2.080000e-06	5.425497e-06	2.233430e-08	3.883917e+01	1.462986e+03
2.090000e-06	5.313591e-06	2.222471e-08	3.803808e+01	1.455937e+03
2.100000e-06	5.199621e-06	2.211512e-08	3.722221e+01	1.448112e+03
2.110000e-06	5.083650e-06	2.200375e-08	3.639201e+01	1.439679e+03
2.120000e-06	4.965741e-06	2.189634e-08	3.554794e+01	1.430927e+03
2.130000e-06	4.845949e-06	2.176967e-08	3.469040e+01	1.422173e+03
2.140000e-06	4.724274e-06	2.164633e-08	3.381937e+01	1.413660e+03
2.150000e-06	4.600881e-06	2.151068e-08	3.293604e+01	1.405471e+03
2.160000e-06	4.475843e-06	2.138270e-08	3.204094e+01	1.397497e+03
2.170000e-06	4.349235e-06	2.124586e-08	3.113460e+01	1.389460e+03
2.180000e-06	4.220995e-06	2.110817e-08	3.021657e+01	1.380998e+03
2.190000e-06	4.091111e-06	2.095834e-08	2.928679e+01	1.371769e+03
2.200000e-06	3.959762e-06	2.080151e-08	2.834650e+01	1.361562e+03
2.210000e-06	3.826978e-06	2.064015e-08	2.739595e+01	1.350365e+03
2.220000e-06	3.692806e-06	2.047735e-08	2.643547e+01	1.338369e+03
2.230000e-06	3.557262e-06	2.031159e-08	2.546515e+01	1.325909e+03
2.240000e-06	3.420285e-06	2.013798e-08	2.448459e+01	1.313353e+03
2.250000e-06	3.281970e-06	1.995933e-08	2.349443e+01	1.300977e+03
2.260000e-06	3.142474e-06	1.976637e-08	2.249584e+01	1.288863e+03
2.270000e-06	3.001784e-06	1.956692e-08	2.148869e+01	1.276848e+03
2.280000e-06	2.859930e-06	1.935875e-08	2.047320e+01	1.264565e+03
2.290000e-06	2.716999e-06	1.914715e-08	1.945002e+01	1.251534e+03
2.300000e-06	2.573028e-06	1.892337e-08	1.841938e+01	1.237305e+03
2.310000e-06	2.428086e-06	1.868777e-08	1.738179e+01	1.221599e+03
2.320000e-06	2.282253e-06	1.844051e-08	1.633782e+01	1.204392e+03
2.330000e-06	2.135614e-06	1.818339e-08	1.528809e+01	1.185928e+03
2.340000e-06	1.988300e-06	1.791583e-08	1.423352e+01	1.166632e+03
2.350000e-06	1.840427e-06	1.763575e-08	1.317495e+01	1.146965e+03
2.360000e-06	1.692025e-06	1.734291e-08	1.211260e+01	1.127242e+03
2.370000e-06	1.543043e-06	1.703029e-08	1.104609e+01	1.107482e+03
2.380000e-06	1.393509e-06	1.669739e-08	9.975624e+00	1.087348e+03
2.390000e-06	1.243567e-06	1.634200e-08	8.902246e+00	1.066181e+03
2.400000e-06	1.093221e-06	1.596494e-08	7.825976e+00	1.043148e+03
2.410000e-06	9.425073e-07	1.556626e-08	6.747069e+00	1.017458e+03
2.420000e-06	7.915253e-07	1.514165e-08	5.666243e+00	9.885683e+02
2.430000e-06	6.403342e-07	1.468432e-08	4.583921e+00	9.563304e+02
2.440000e-06	4.889929e-07	1.418671e-08	3.500523e+00	9.209905e+02
2.450000e-06	3.374161e-07	1.364155e-08	2.415440e+00	8.830380e+02
2.460000e-06	1.856022e-07	1.304366e-08	1.328659e+00	8.429119e+02
2.470000e-06	3.363823e-08	1.238562e-08	2.408039e-01	8.006350e+02
2.480000e-06	-1.183919e-07	1.165806e-08	-8.475250e-01	7.554757e+02
2.490000e-06	-2.703554e-07	1.084827e-08	-1.935377e+00	7.057464e+02
2.500000e-06	-4.222340e-07	9.936810e-09	-3.022620e+00	6.488249e+02
2.510000e-06	-5.739821e-07	8.898684e-09	-4.108930e+00	5.814429e+02
2.520000e-06	-7.255077e-07	7.695963e-09	-5.193647e+00	5.002161e+02
2.530000e-06	-8.768044e-07	6.280957e-09	-6.276726e+00	4.023313e+02
2.540000e-06	-1.027827e-06	4.591266e-09	-7.357843e+00	2.862527e+02
2.550000e-06	-1.178489e-06	2.564054e-09	-8.436377e+00	1.522932e+02
2.560000e-06	-1.328786e-06	2.317004e-10	-9.512301e+00	2.908538e+00
2.570000e-06	-1.478657e-06	-2.250249e-09	-1.058517e+01	-1.573720e+02
2.580000e-06	-1.627864e-06	-4.762349e-09	-1.165329e+01	-3.223952e+02
2.590000e-06	-1.776356e-06	-7.277636e-09	-1.271629e+01	-4.851449e+02
2.600000e-06	-1.924294e-06	-9.746915e-09	-1.377532e+01	-6.386807e+02
2.610000e-06	-2.071626e-06	-1.198150e-08	-1.483002e+01	-7.770762e+02
2.620000e-06	-2.218213e-06	-1.380167e-08	-1.587939e+01	-8.961805e+02
2.630000e-06	-2.363988e-06	-1.521352e-08	-1.692294e+01	-9.940614e+02
2.640000e-06	-2.508867e-06	-1.630654e-08	-1.796007e+01	-1.071060e+03
2.650000e-06	-2.652718e-06	-1.716604e-08	-1.898985e+01	-1.129467e+03
2.660000e-06	-2.795463e-06	-1.785287e-08	-2.001171e+01	-1.172902e+03
2.670000e-06	-2.937060e-06	-1.841188e-08	-2.102535e+01	-1.205555e+03
2.680000e-06	-3.077430e-06	-1.887482e-08	-2.203021e+01	-1.231425e+03
2.690000e-06	-3.216604e-06	-1.926539e-08	-2.302650e+01	-1.253741e+03
2.700000e-06	-3.354602e-06	-1.960411e-08	-2.401438e+01	-1.274617e+03
2.710000e-06	-3.491371e-06	-1.990557e-08	-2.499346e+01	-1.295016e+03
2.720000e-06	-3.626843e-06	-2.017730e-08	-2.596326e+01	-1.314950e+03
2.730000e-06	-3.760898e-06	-2.042415e-08	-2.692291e+01	-1.333860e+03
2.740000e-06	-3.893579e-06	-2.065297e-08	-2.787272e+01	-1.351025e+03
2.750000e-06	-4.024965e-06	-2.086535e-08	-2.881327e+01	-1.365926e+03
2.760000e-06	-4.154983e-06	-2.106074e-08	-2.974402e+01	-1.378452e+03
2.770000e-06	-4.283573e-06	-2.124085e-08	-3.066455e+01	-1.388946e+03
2.780000e-06	-4.410608e-06	-2.141012e-08	-3.157395e+01	-1.398085e+03
2.790000e-06	-4.536088e-06	-2.157064e-08	-3.247221e+01	-1.406665e+03
2.800000e-06	-4.660084e-06	-2.172215e-08	-3.335986e+01	-1.415375e+03
2.810000e-06	-4.782414e-06	-2.186387e-08	-3.423557e+01	-1.424607e+03
2.820000e-06	-4.902957e-06	-2.199684e-08	-3.509850e+01	-1.434386e+03
2.830000e-06	-5.021648e-06	-2.212394e-08	-3.594816e+01	-1.444408e+03
2.840000e-06	-5.138369e-06	-2.224666e-08	-3.678373e+01	-1.454171e+03
2.850000e-06	-5.253043e-06	-2.236597e-08	-3.760464e+01	-1.463160e+03
2.860000e-06	-5.365593e-06	-2.248003e-08	-3.841034e+01	-1.471014e+03
2.870000e-06	-5.476080e-06	-2.258720e-08	-3.920128e+01	-1.477636e+03
2.880000e-06	-5.584606e-06	-2.268697e-08	-3.997817e+01	-1.483210e+03
2.890000e-06	-5.691218e-06	-2.278077e-08	-4.074137e+01	-1.488136e+03
2.900000e-06	-5.795875e-06	-2.287209e-08	-4.149057e+01	-1.492893e+03
2.910000e-06	-5.898300e-06	-2.295873e-08	-4.222380e+01	-1.497897e+03
2.920000e-06	-5.998510e-06	-2.304103e-08	-4.294116e+01	-1.503380e+03
2.930000e-06	-6.096615e-06	-2.312092e-08	-4.364346e+01	-1.509336e+03
2.940000e-06	-6.192533e-06	-2.319911e-08	-4.433011e+01	-1.515542e+03
