# Temperatura_=_94.91
# Concentracion g/m^3_=_41000.0
# C_Vs_to_Am_M_A/Vsm_=_65563218390.804596
# pendiente_HvsI_1/m_=_3716.3
# ordenada_HvsI_A/m_=_1297.0
# frecuencia_Hz_=_302505.8510646881

Tiempo_(s)	Campo_(V.s)	Magnetizacion_(V.s)	Campo_(kA/m)	Magnetizacion_(A/m)
0.000000e+00	-7.992704e-06	-2.445633e-08	-5.685701e+01	-1.601343e+03
1.000000e-08	-7.988387e-06	-2.444963e-08	-5.682629e+01	-1.600432e+03
2.000000e-08	-7.981508e-06	-2.444001e-08	-5.677736e+01	-1.599198e+03
3.000000e-08	-7.972009e-06	-2.442670e-08	-5.670979e+01	-1.597854e+03
4.000000e-08	-7.959636e-06	-2.441071e-08	-5.662177e+01	-1.596608e+03
5.000000e-08	-7.944326e-06	-2.439478e-08	-5.651287e+01	-1.595593e+03
6.000000e-08	-7.926326e-06	-2.437786e-08	-5.638482e+01	-1.594828e+03
7.000000e-08	-7.905991e-06	-2.436726e-08	-5.624016e+01	-1.594215e+03
8.000000e-08	-7.883113e-06	-2.434828e-08	-5.607742e+01	-1.593576e+03
9.000000e-08	-7.857141e-06	-2.432433e-08	-5.589267e+01	-1.592709e+03
1.000000e-07	-7.828001e-06	-2.432007e-08	-5.568537e+01	-1.591458e+03
1.100000e-07	-7.795980e-06	-2.428845e-08	-5.545759e+01	-1.589767e+03
1.200000e-07	-7.761138e-06	-2.424171e-08	-5.520974e+01	-1.587697e+03
1.300000e-07	-7.723711e-06	-2.420813e-08	-5.494349e+01	-1.585406e+03
1.400000e-07	-7.684069e-06	-2.416664e-08	-5.466150e+01	-1.583100e+03
1.500000e-07	-7.642204e-06	-2.411954e-08	-5.436369e+01	-1.580963e+03
1.600000e-07	-7.597799e-06	-2.408001e-08	-5.404781e+01	-1.579092e+03
1.700000e-07	-7.550630e-06	-2.408332e-08	-5.371227e+01	-1.577461e+03
1.800000e-07	-7.500649e-06	-2.403148e-08	-5.335672e+01	-1.575925e+03
1.900000e-07	-7.447637e-06	-2.399177e-08	-5.297961e+01	-1.574256e+03
2.000000e-07	-7.391762e-06	-2.395791e-08	-5.258214e+01	-1.572213e+03
2.100000e-07	-7.333260e-06	-2.388440e-08	-5.216598e+01	-1.569614e+03
2.200000e-07	-7.272109e-06	-2.386069e-08	-5.173097e+01	-1.566394e+03
2.300000e-07	-7.208340e-06	-2.380609e-08	-5.127734e+01	-1.562623e+03
2.400000e-07	-7.141835e-06	-2.374961e-08	-5.080425e+01	-1.558491e+03
2.500000e-07	-7.072527e-06	-2.369679e-08	-5.031122e+01	-1.554242e+03
2.600000e-07	-7.000474e-06	-2.364572e-08	-4.979866e+01	-1.550110e+03
2.700000e-07	-6.925664e-06	-2.357972e-08	-4.926649e+01	-1.546235e+03
2.800000e-07	-6.848132e-06	-2.349751e-08	-4.871496e+01	-1.542629e+03
2.900000e-07	-6.767884e-06	-2.344831e-08	-4.814411e+01	-1.539165e+03
3.000000e-07	-6.685051e-06	-2.338167e-08	-4.755487e+01	-1.535621e+03
3.100000e-07	-6.599914e-06	-2.331289e-08	-4.694923e+01	-1.531749e+03
3.200000e-07	-6.512473e-06	-2.325112e-08	-4.632722e+01	-1.527349e+03
3.300000e-07	-6.422701e-06	-2.317378e-08	-4.568862e+01	-1.522340e+03
3.400000e-07	-6.330615e-06	-2.309427e-08	-4.503355e+01	-1.516780e+03
3.500000e-07	-6.236214e-06	-2.300678e-08	-4.436202e+01	-1.510851e+03
3.600000e-07	-6.139494e-06	-2.292650e-08	-4.367399e+01	-1.504800e+03
3.700000e-07	-6.040552e-06	-2.284106e-08	-4.297015e+01	-1.498860e+03
3.800000e-07	-5.939483e-06	-2.275799e-08	-4.225119e+01	-1.493172e+03
3.900000e-07	-5.836249e-06	-2.267012e-08	-4.151682e+01	-1.487737e+03
4.000000e-07	-5.730959e-06	-2.257294e-08	-4.076783e+01	-1.482407e+03
4.100000e-07	-5.623657e-06	-2.247716e-08	-4.000452e+01	-1.476935e+03
4.200000e-07	-5.514378e-06	-2.237366e-08	-3.922716e+01	-1.471042e+03
4.300000e-07	-5.403127e-06	-2.226925e-08	-3.843576e+01	-1.464509e+03
4.400000e-07	-5.289824e-06	-2.215856e-08	-3.762976e+01	-1.457244e+03
4.500000e-07	-5.174524e-06	-2.204850e-08	-3.680956e+01	-1.449317e+03
4.600000e-07	-5.057272e-06	-2.193357e-08	-3.597548e+01	-1.440936e+03
4.700000e-07	-4.938126e-06	-2.181394e-08	-3.512792e+01	-1.432381e+03
4.800000e-07	-4.817168e-06	-2.169259e-08	-3.426747e+01	-1.423917e+03
4.900000e-07	-4.694470e-06	-2.157082e-08	-3.339464e+01	-1.415701e+03
5.000000e-07	-4.570032e-06	-2.144270e-08	-3.250944e+01	-1.407725e+03
5.100000e-07	-4.443888e-06	-2.130374e-08	-3.161210e+01	-1.399811e+03
5.200000e-07	-4.316174e-06	-2.115924e-08	-3.070360e+01	-1.391657e+03
5.300000e-07	-4.186949e-06	-2.100732e-08	-2.978434e+01	-1.382925e+03
5.400000e-07	-4.056195e-06	-2.084911e-08	-2.885421e+01	-1.373350e+03
5.500000e-07	-3.923869e-06	-2.069035e-08	-2.791288e+01	-1.362815e+03
5.600000e-07	-3.789964e-06	-2.053345e-08	-2.696034e+01	-1.351400e+03
5.700000e-07	-3.654571e-06	-2.036971e-08	-2.599720e+01	-1.339350e+03
5.800000e-07	-3.517852e-06	-2.019442e-08	-2.502464e+01	-1.327000e+03
5.900000e-07	-3.379851e-06	-2.001133e-08	-2.404296e+01	-1.314662e+03
6.000000e-07	-3.240411e-06	-1.982185e-08	-2.305103e+01	-1.302512e+03
6.100000e-07	-3.099500e-06	-1.962514e-08	-2.204865e+01	-1.290519e+03
6.200000e-07	-2.957343e-06	-1.941938e-08	-2.103739e+01	-1.278435e+03
6.300000e-07	-2.814083e-06	-1.920578e-08	-2.001830e+01	-1.265849e+03
6.400000e-07	-2.669753e-06	-1.898389e-08	-1.899159e+01	-1.252311e+03
6.500000e-07	-2.524457e-06	-1.875081e-08	-1.795801e+01	-1.237460e+03
6.600000e-07	-2.378266e-06	-1.850775e-08	-1.691806e+01	-1.221136e+03
6.700000e-07	-2.231227e-06	-1.825527e-08	-1.587208e+01	-1.203434e+03
6.800000e-07	-2.083488e-06	-1.799286e-08	-1.482113e+01	-1.184670e+03
6.900000e-07	-1.935094e-06	-1.771666e-08	-1.376551e+01	-1.165272e+03
7.000000e-07	-1.786086e-06	-1.742313e-08	-1.270552e+01	-1.145620e+03
7.100000e-07	-1.636580e-06	-1.711212e-08	-1.164200e+01	-1.125888e+03
7.200000e-07	-1.486584e-06	-1.678550e-08	-1.057498e+01	-1.105931e+03
7.300000e-07	-1.335999e-06	-1.644104e-08	-9.503784e+00	-1.085270e+03
7.400000e-07	-1.184873e-06	-1.607548e-08	-8.428725e+00	-1.063179e+03
7.500000e-07	-1.033349e-06	-1.568678e-08	-7.350847e+00	-1.038855e+03
7.600000e-07	-8.814893e-07	-1.527284e-08	-6.270575e+00	-1.011625e+03
7.700000e-07	-7.293928e-07	-1.482719e-08	-5.188619e+00	-9.811294e+02
7.800000e-07	-5.770936e-07	-1.434247e-08	-4.105221e+00	-9.473908e+02
7.900000e-07	-4.245853e-07	-1.381645e-08	-3.020336e+00	-9.107554e+02
8.000000e-07	-2.719183e-07	-1.324408e-08	-1.934322e+00	-8.716784e+02
8.100000e-07	-1.191132e-07	-1.261707e-08	-8.473252e-01	-8.304021e+02
8.200000e-07	3.381800e-08	-1.192433e-08	2.405682e-01	-7.866075e+02
8.300000e-07	1.867293e-07	-1.115286e-08	1.328320e+00	-7.391377e+02
8.400000e-07	3.395308e-07	-1.028655e-08	2.415291e+00	-6.858953e+02
8.500000e-07	4.922931e-07	-9.304612e-09	3.501983e+00	-6.239790e+02
8.600000e-07	6.449340e-07	-8.178958e-09	4.587811e+00	-5.500734e+02
8.700000e-07	7.973911e-07	-6.863186e-09	5.672332e+00	-4.610428e+02
8.800000e-07	9.497497e-07	-5.298861e-09	6.756153e+00	-3.546229e+02
8.900000e-07	1.101870e-06	-3.424809e-09	7.838278e+00	-2.300659e+02
9.000000e-07	1.253588e-06	-1.234612e-09	8.917543e+00	-8.859313e+01
9.100000e-07	1.404860e-06	1.157174e-09	9.993631e+00	6.646422e+01
9.200000e-07	1.555555e-06	3.607020e-09	1.106562e+01	2.298919e+02
9.300000e-07	1.705591e-06	6.059444e-09	1.213292e+01	3.951692e+02
9.400000e-07	1.855053e-06	8.498795e-09	1.319613e+01	5.552998e+02
9.500000e-07	2.003884e-06	1.083482e-08	1.425486e+01	7.037463e+02
9.600000e-07	2.151952e-06	1.287656e-08	1.530815e+01	8.352938e+02
9.700000e-07	2.299215e-06	1.450589e-08	1.635572e+01	9.466789e+02
9.800000e-07	2.445544e-06	1.576445e-08	1.739666e+01	1.036876e+03
9.900000e-07	2.590948e-06	1.674125e-08	1.843100e+01	1.107000e+03
1.000000e-06	2.735435e-06	1.750961e-08	1.945883e+01	1.159865e+03
1.010000e-06	2.878873e-06	1.812632e-08	2.047919e+01	1.199315e+03
1.020000e-06	3.021210e-06	1.863546e-08	2.149172e+01	1.229467e+03
1.030000e-06	3.162397e-06	1.906468e-08	2.249607e+01	1.254021e+03
1.040000e-06	3.302308e-06	1.943517e-08	2.349134e+01	1.275781e+03
1.050000e-06	3.440851e-06	1.976059e-08	2.447688e+01	1.296426e+03
1.060000e-06	3.578029e-06	2.004968e-08	2.545272e+01	1.316568e+03
1.070000e-06	3.713832e-06	2.030831e-08	2.641876e+01	1.336018e+03
1.080000e-06	3.848273e-06	2.054252e-08	2.737512e+01	1.354170e+03
1.090000e-06	3.981379e-06	2.075893e-08	2.832199e+01	1.370393e+03
1.100000e-06	4.113059e-06	2.096012e-08	2.925871e+01	1.384331e+03
1.110000e-06	4.243226e-06	2.114685e-08	3.018467e+01	1.396043e+03
1.120000e-06	4.371926e-06	2.132283e-08	3.110019e+01	1.405990e+03
1.130000e-06	4.499075e-06	2.148860e-08	3.200468e+01	1.414884e+03
1.140000e-06	4.624713e-06	2.164581e-08	3.289842e+01	1.423469e+03
1.150000e-06	4.748856e-06	2.179499e-08	3.378153e+01	1.432309e+03
1.160000e-06	4.871291e-06	2.193760e-08	3.465248e+01	1.441658e+03
1.170000e-06	4.991917e-06	2.207303e-08	3.551057e+01	1.451417e+03
1.180000e-06	5.110761e-06	2.219934e-08	3.635598e+01	1.461216e+03
1.190000e-06	5.227759e-06	2.231859e-08	3.718826e+01	1.470559e+03
1.200000e-06	5.342683e-06	2.243310e-08	3.800578e+01	1.479001e+03
1.210000e-06	5.455486e-06	2.254399e-08	3.880822e+01	1.486288e+03
1.220000e-06	5.566275e-06	2.264888e-08	3.959633e+01	1.492431e+03
1.230000e-06	5.675137e-06	2.274817e-08	4.037073e+01	1.497692e+03
1.240000e-06	5.782023e-06	2.284107e-08	4.113108e+01	1.502494e+03
1.250000e-06	5.886753e-06	2.292780e-08	4.187609e+01	1.507285e+03
1.260000e-06	5.989291e-06	2.301057e-08	4.260550e+01	1.512402e+03
1.270000e-06	6.089708e-06	2.309198e-08	4.331983e+01	1.517984e+03
1.280000e-06	6.187853e-06	2.317235e-08	4.401800e+01	1.523942e+03
1.290000e-06	6.283593e-06	2.325085e-08	4.469905e+01	1.530006e+03
1.300000e-06	6.377103e-06	2.332532e-08	4.536424e+01	1.535825e+03
1.310000e-06	6.468419e-06	2.339469e-08	4.601383e+01	1.541083e+03
1.320000e-06	6.557353e-06	2.346072e-08	4.664647e+01	1.545598e+03
1.330000e-06	6.643930e-06	2.352452e-08	4.726235e+01	1.549380e+03
1.340000e-06	6.728217e-06	2.358625e-08	4.786193e+01	1.552615e+03
1.350000e-06	6.810074e-06	2.364714e-08	4.844423e+01	1.555603e+03
1.360000e-06	6.889399e-06	2.370647e-08	4.900852e+01	1.558659e+03
1.370000e-06	6.966223e-06	2.376367e-08	4.955502e+01	1.562012e+03
1.380000e-06	7.040380e-06	2.381726e-08	5.008254e+01	1.565741e+03
1.390000e-06	7.111907e-06	2.386863e-08	5.059136e+01	1.569747e+03
1.400000e-06	7.181044e-06	2.391830e-08	5.108317e+01	1.573798e+03
1.410000e-06	7.247618e-06	2.396492e-08	5.155675e+01	1.577602e+03
1.420000e-06	7.311523e-06	2.400974e-08	5.201135e+01	1.580901e+03
1.430000e-06	7.372966e-06	2.405267e-08	5.244843e+01	1.583553e+03
1.440000e-06	7.431928e-06	2.409250e-08	5.286786e+01	1.585572e+03
1.450000e-06	7.488191e-06	2.412940e-08	5.326809e+01	1.587120e+03
1.460000e-06	7.541697e-06	2.416499e-08	5.364872e+01	1.588455e+03
1.470000e-06	7.592202e-06	2.419820e-08	5.400799e+01	1.589845e+03
1.480000e-06	7.639676e-06	2.422836e-08	5.434570e+01	1.591487e+03
1.490000e-06	7.684440e-06	2.425563e-08	5.466413e+01	1.593448e+03
1.500000e-06	7.726496e-06	2.428088e-08	5.496331e+01	1.595644e+03
1.510000e-06	7.765721e-06	2.430406e-08	5.524234e+01	1.597877e+03
1.520000e-06	7.802250e-06	2.432430e-08	5.550219e+01	1.599894e+03
1.530000e-06	7.836084e-06	2.434210e-08	5.574288e+01	1.601474e+03
1.540000e-06	7.867076e-06	2.435898e-08	5.596334e+01	1.602493e+03
1.550000e-06	7.895332e-06	2.437599e-08	5.616434e+01	1.602968e+03
1.560000e-06	7.920717e-06	2.439135e-08	5.634492e+01	1.603043e+03
1.570000e-06	7.943159e-06	2.440289e-08	5.650457e+01	1.602948e+03
1.580000e-06	7.962842e-06	2.441251e-08	5.664458e+01	1.602922e+03
1.590000e-06	7.979660e-06	2.442086e-08	5.676422e+01	1.603144e+03
1.600000e-06	7.993477e-06	2.442767e-08	5.686250e+01	1.603670e+03
1.610000e-06	8.004189e-06	2.443347e-08	5.693871e+01	1.604427e+03
1.620000e-06	8.011845e-06	2.443726e-08	5.699317e+01	1.605230e+03
1.630000e-06	8.016669e-06	2.443855e-08	5.702748e+01	1.605848e+03
1.640000e-06	8.018639e-06	2.443838e-08	5.704150e+01	1.606074e+03
1.650000e-06	8.017789e-06	2.443699e-08	5.703545e+01	1.605791e+03
1.660000e-06	8.014286e-06	2.443520e-08	5.701053e+01	1.605004e+03
1.670000e-06	8.008079e-06	2.442704e-08	5.696638e+01	1.603840e+03
1.680000e-06	7.999189e-06	2.441726e-08	5.690314e+01	1.602504e+03
1.690000e-06	7.987619e-06	2.440706e-08	5.682083e+01	1.601211e+03
1.700000e-06	7.973244e-06	2.439612e-08	5.671858e+01	1.600121e+03
1.710000e-06	7.956291e-06	2.438163e-08	5.659798e+01	1.599288e+03
1.720000e-06	7.937025e-06	2.435050e-08	5.646093e+01	1.598646e+03
1.730000e-06	7.915242e-06	2.433843e-08	5.630597e+01	1.598034e+03
1.740000e-06	7.890302e-06	2.430783e-08	5.612856e+01	1.597249e+03
1.750000e-06	7.861668e-06	2.427006e-08	5.592487e+01	1.596117e+03
1.760000e-06	7.829613e-06	2.426358e-08	5.569684e+01	1.594550e+03
1.770000e-06	7.794928e-06	2.425471e-08	5.545011e+01	1.592574e+03
1.780000e-06	7.758042e-06	2.423400e-08	5.518771e+01	1.590324e+03
1.790000e-06	7.719018e-06	2.421789e-08	5.491011e+01	1.588000e+03
1.800000e-06	7.677934e-06	2.423607e-08	5.461786e+01	1.585799e+03
1.810000e-06	7.634400e-06	2.418120e-08	5.430817e+01	1.583847e+03
1.820000e-06	7.588122e-06	2.416303e-08	5.397897e+01	1.582156e+03
1.830000e-06	7.539092e-06	2.414021e-08	5.363018e+01	1.580612e+03
1.840000e-06	7.487077e-06	2.408101e-08	5.326017e+01	1.579005e+03
1.850000e-06	7.432171e-06	2.409626e-08	5.286959e+01	1.577090e+03
1.860000e-06	7.374500e-06	2.402022e-08	5.245934e+01	1.574661e+03
1.870000e-06	7.314205e-06	2.398296e-08	5.203043e+01	1.571616e+03
1.880000e-06	7.251242e-06	2.394679e-08	5.158253e+01	1.567986e+03
1.890000e-06	7.185370e-06	2.388263e-08	5.111395e+01	1.563932e+03
1.900000e-06	7.116724e-06	2.383635e-08	5.062563e+01	1.559689e+03
1.910000e-06	7.045280e-06	2.375691e-08	5.011740e+01	1.555503e+03
1.920000e-06	6.971070e-06	2.375080e-08	4.958950e+01	1.551545e+03
1.930000e-06	6.894200e-06	2.367279e-08	4.904267e+01	1.547868e+03
1.940000e-06	6.814602e-06	2.361610e-08	4.847644e+01	1.544382e+03
1.950000e-06	6.732410e-06	2.355718e-08	4.789176e+01	1.540886e+03
1.960000e-06	6.647754e-06	2.345583e-08	4.728955e+01	1.537129e+03
1.970000e-06	6.560697e-06	2.340310e-08	4.667026e+01	1.532893e+03
1.980000e-06	6.471258e-06	2.331867e-08	4.603403e+01	1.528057e+03
1.990000e-06	6.379499e-06	2.327470e-08	4.538129e+01	1.522639e+03
2.000000e-06	6.285529e-06	2.318949e-08	4.471282e+01	1.516790e+03
2.010000e-06	6.189291e-06	2.311315e-08	4.402822e+01	1.510747e+03
2.020000e-06	6.090794e-06	2.301992e-08	4.332755e+01	1.504754e+03
2.030000e-06	5.990116e-06	2.292587e-08	4.261137e+01	1.498986e+03
2.040000e-06	5.887329e-06	2.285180e-08	4.188018e+01	1.493486e+03
2.050000e-06	5.782515e-06	2.275544e-08	4.113457e+01	1.488147e+03
2.060000e-06	5.675736e-06	2.267188e-08	4.037499e+01	1.482743e+03
2.070000e-06	5.566949e-06	2.256372e-08	3.960113e+01	1.476995e+03
2.080000e-06	5.456139e-06	2.246999e-08	3.881286e+01	1.470659e+03
2.090000e-06	5.343306e-06	2.235750e-08	3.801022e+01	1.463602e+03
2.100000e-06	5.228433e-06	2.225266e-08	3.719305e+01	1.455847e+03
2.110000e-06	5.111579e-06	2.213974e-08	3.636180e+01	1.447567e+03
2.120000e-06	4.992803e-06	2.202689e-08	3.551687e+01	1.439031e+03
2.130000e-06	4.872156e-06	2.190284e-08	3.465864e+01	1.430517e+03
2.140000e-06	4.749665e-06	2.177526e-08	3.378728e+01	1.422222e+03
2.150000e-06	4.625430e-06	2.165034e-08	3.290352e+01	1.414187e+03
2.160000e-06	4.499550e-06	2.151658e-08	3.200806e+01	1.406280e+03
2.170000e-06	4.372077e-06	2.138681e-08	3.110127e+01	1.398228e+03
2.180000e-06	4.243031e-06	2.125001e-08	3.018328e+01	1.389692e+03
2.190000e-06	4.112414e-06	2.111063e-08	2.925413e+01	1.380376e+03
2.200000e-06	3.980275e-06	2.095235e-08	2.831414e+01	1.370115e+03
2.210000e-06	3.846690e-06	2.079271e-08	2.736387e+01	1.358931e+03
2.220000e-06	3.711673e-06	2.062575e-08	2.640341e+01	1.347029e+03
2.230000e-06	3.575169e-06	2.045767e-08	2.543237e+01	1.334728e+03
2.240000e-06	3.437257e-06	2.028179e-08	2.445132e+01	1.322359e+03
2.250000e-06	3.298010e-06	2.010053e-08	2.346077e+01	1.310147e+03
2.260000e-06	3.157516e-06	1.990886e-08	2.246135e+01	1.298125e+03
2.270000e-06	3.015856e-06	1.970873e-08	2.145363e+01	1.286101e+03
2.280000e-06	2.873052e-06	1.950427e-08	2.043779e+01	1.273704e+03
2.290000e-06	2.729159e-06	1.929141e-08	1.941418e+01	1.260480e+03
2.300000e-06	2.584242e-06	1.906822e-08	1.838330e+01	1.246029e+03
2.310000e-06	2.438425e-06	1.883027e-08	1.734601e+01	1.230126e+03
2.320000e-06	2.291731e-06	1.858186e-08	1.630249e+01	1.212792e+03
2.330000e-06	2.144171e-06	1.832273e-08	1.525280e+01	1.194289e+03
2.340000e-06	1.995909e-06	1.805230e-08	1.419812e+01	1.175027e+03
2.350000e-06	1.847065e-06	1.776810e-08	1.313931e+01	1.155417e+03
2.360000e-06	1.697671e-06	1.747011e-08	1.207658e+01	1.135706e+03
2.370000e-06	1.547741e-06	1.715462e-08	1.101003e+01	1.115846e+03
2.380000e-06	1.397270e-06	1.681923e-08	9.939642e+00	1.095451e+03
2.390000e-06	1.246362e-06	1.646304e-08	8.866139e+00	1.073850e+03
2.400000e-06	1.095097e-06	1.608431e-08	7.790096e+00	1.050240e+03
2.410000e-06	9.434215e-07	1.567775e-08	6.711136e+00	1.023892e+03
2.420000e-06	7.913626e-07	1.524106e-08	5.629448e+00	9.943428e+02
2.430000e-06	6.390184e-07	1.477168e-08	4.545730e+00	9.615051e+02
2.440000e-06	4.864734e-07	1.426392e-08	3.460584e+00	9.256490e+02
2.450000e-06	3.337682e-07	1.370896e-08	2.374298e+00	8.872274e+02
2.460000e-06	1.808754e-07	1.309985e-08	1.286678e+00	8.465798e+02
2.470000e-06	2.783557e-08	1.243000e-08	1.980115e-01	8.035810e+02
2.480000e-06	-1.252444e-07	1.168749e-08	-8.909400e-01	7.573330e+02
2.490000e-06	-2.783118e-07	1.085806e-08	-1.979802e+00	7.060046e+02
2.500000e-06	-4.312906e-07	9.920341e-09	-3.068034e+00	6.468950e+02
2.510000e-06	-5.841223e-07	8.846949e-09	-4.155220e+00	5.767540e+02
2.520000e-06	-7.367971e-07	7.600546e-09	-5.241290e+00	4.923256e+02
2.530000e-06	-8.892114e-07	6.129962e-09	-6.325506e+00	3.910259e+02
2.540000e-06	-1.041271e-06	4.373426e-09	-7.407202e+00	2.716167e+02
2.550000e-06	-1.192934e-06	2.282699e-09	-8.486074e+00	1.347269e+02
2.560000e-06	-1.344131e-06	-8.722551e-11	-9.561630e+00	-1.690839e+01
2.570000e-06	-1.494840e-06	-2.580088e-09	-1.063372e+01	-1.785682e+02
2.580000e-06	-1.644998e-06	-5.094864e-09	-1.170188e+01	-3.440289e+02
2.590000e-06	-1.794509e-06	-7.609127e-09	-1.276544e+01	-5.063359e+02
2.600000e-06	-1.943359e-06	-1.005756e-08	-1.382431e+01	-6.587265e+02
2.610000e-06	-2.091532e-06	-1.226072e-08	-1.487835e+01	-7.955307e+02
2.620000e-06	-2.238865e-06	-1.405956e-08	-1.592642e+01	-9.128818e+02
2.630000e-06	-2.385264e-06	-1.545542e-08	-1.696785e+01	-1.009108e+03
2.640000e-06	-2.530844e-06	-1.653387e-08	-1.800345e+01	-1.084745e+03
2.650000e-06	-2.675584e-06	-1.738008e-08	-1.903307e+01	-1.142181e+03
2.660000e-06	-2.819288e-06	-1.805588e-08	-2.005532e+01	-1.185044e+03
2.670000e-06	-2.961820e-06	-1.860610e-08	-2.106924e+01	-1.217446e+03
2.680000e-06	-3.103184e-06	-1.906265e-08	-2.207485e+01	-1.243269e+03
2.690000e-06	-3.243272e-06	-1.944958e-08	-2.307139e+01	-1.265607e+03
2.700000e-06	-3.382029e-06	-1.978622e-08	-2.405844e+01	-1.286466e+03
2.710000e-06	-3.519540e-06	-2.008639e-08	-2.503665e+01	-1.306745e+03
2.720000e-06	-3.655751e-06	-2.035738e-08	-2.600560e+01	-1.326445e+03
2.730000e-06	-3.790593e-06	-2.060290e-08	-2.696482e+01	-1.345039e+03
2.740000e-06	-3.924130e-06	-2.082834e-08	-2.791474e+01	-1.361868e+03
2.750000e-06	-4.056274e-06	-2.103662e-08	-2.885477e+01	-1.376473e+03
2.760000e-06	-4.186951e-06	-2.122774e-08	-2.978435e+01	-1.388791e+03
2.770000e-06	-4.316253e-06	-2.140419e-08	-3.070416e+01	-1.399179e+03
2.780000e-06	-4.444038e-06	-2.157211e-08	-3.161317e+01	-1.408296e+03
2.790000e-06	-4.570228e-06	-2.173237e-08	-3.251083e+01	-1.416902e+03
2.800000e-06	-4.694855e-06	-2.188304e-08	-3.339738e+01	-1.425630e+03
2.810000e-06	-4.817827e-06	-2.202483e-08	-3.427216e+01	-1.434830e+03
2.820000e-06	-4.939137e-06	-2.215910e-08	-3.513511e+01	-1.444501e+03
2.830000e-06	-5.058649e-06	-2.228605e-08	-3.598528e+01	-1.454338e+03
2.840000e-06	-5.176143e-06	-2.240618e-08	-3.682108e+01	-1.463864e+03
2.850000e-06	-5.291595e-06	-2.252078e-08	-3.764236e+01	-1.472601e+03
2.860000e-06	-5.404934e-06	-2.263001e-08	-3.844861e+01	-1.480231e+03
2.870000e-06	-5.516047e-06	-2.273240e-08	-3.923903e+01	-1.486685e+03
2.880000e-06	-5.625082e-06	-2.282879e-08	-4.001466e+01	-1.492161e+03
2.890000e-06	-5.732194e-06	-2.292185e-08	-4.077661e+01	-1.497049e+03
2.900000e-06	-5.837328e-06	-2.301355e-08	-4.152450e+01	-1.501802e+03
2.910000e-06	-5.940305e-06	-2.310148e-08	-4.225703e+01	-1.506804e+03
2.920000e-06	-6.041030e-06	-2.318462e-08	-4.297355e+01	-1.512254e+03
2.930000e-06	-6.139605e-06	-2.326448e-08	-4.367478e+01	-1.518127e+03
2.940000e-06	-6.236023e-06	-2.334073e-08	-4.436066e+01	-1.524197e+03
