# Temperatura_=_94.3
# Concentracion g/m^3_=_41000.0
# C_Vs_to_Am_M_A/Vsm_=_65563218390.804596
# pendiente_HvsI_1/m_=_3716.3
# ordenada_HvsI_A/m_=_1297.0
# frecuencia_Hz_=_302502.14526991185

Tiempo_(s)	Campo_(V.s)	Magnetizacion_(V.s)	Campo_(kA/m)	Magnetizacion_(A/m)
0.000000e+00	-8.006822e-06	-2.452242e-08	-5.686983e+01	-1.606966e+03
1.000000e-08	-8.004606e-06	-2.452446e-08	-5.685409e+01	-1.606374e+03
2.000000e-08	-7.999635e-06	-2.451150e-08	-5.681879e+01	-1.605324e+03
3.000000e-08	-7.992107e-06	-2.449477e-08	-5.676532e+01	-1.604003e+03
4.000000e-08	-7.981818e-06	-2.448229e-08	-5.669224e+01	-1.602640e+03
5.000000e-08	-7.968551e-06	-2.446848e-08	-5.659801e+01	-1.601434e+03
6.000000e-08	-7.952326e-06	-2.445030e-08	-5.648276e+01	-1.600489e+03
7.000000e-08	-7.933584e-06	-2.442831e-08	-5.634965e+01	-1.599790e+03
8.000000e-08	-7.912593e-06	-2.440168e-08	-5.620056e+01	-1.599202e+03
9.000000e-08	-7.888885e-06	-2.446133e-08	-5.603217e+01	-1.598525e+03
1.000000e-07	-7.861986e-06	-2.445513e-08	-5.584111e+01	-1.597556e+03
1.100000e-07	-7.831933e-06	-2.436218e-08	-5.562765e+01	-1.596156e+03
1.200000e-07	-7.799023e-06	-2.432523e-08	-5.539391e+01	-1.594299e+03
1.300000e-07	-7.763398e-06	-2.430972e-08	-5.514087e+01	-1.592080e+03
1.400000e-07	-7.725334e-06	-2.425354e-08	-5.487052e+01	-1.589683e+03
1.500000e-07	-7.685081e-06	-2.415118e-08	-5.458461e+01	-1.587325e+03
1.600000e-07	-7.642526e-06	-2.423084e-08	-5.428236e+01	-1.585181e+03
1.700000e-07	-7.597390e-06	-2.421981e-08	-5.396177e+01	-1.583324e+03
1.800000e-07	-7.549560e-06	-2.404698e-08	-5.362205e+01	-1.581701e+03
1.900000e-07	-7.498768e-06	-2.411432e-08	-5.326129e+01	-1.580139e+03
2.000000e-07	-7.444948e-06	-2.404332e-08	-5.287903e+01	-1.578398e+03
2.100000e-07	-7.388369e-06	-2.397030e-08	-5.247717e+01	-1.576241e+03
2.200000e-07	-7.329057e-06	-2.397847e-08	-5.205589e+01	-1.573506e+03
2.300000e-07	-7.267065e-06	-2.389953e-08	-5.161559e+01	-1.570155e+03
2.400000e-07	-7.202414e-06	-2.389990e-08	-5.115639e+01	-1.566289e+03
2.500000e-07	-7.135022e-06	-2.379642e-08	-5.067772e+01	-1.562110e+03
2.600000e-07	-7.064929e-06	-2.374973e-08	-5.017988e+01	-1.557865e+03
2.700000e-07	-6.992014e-06	-2.367357e-08	-4.966199e+01	-1.553766e+03
2.800000e-07	-6.916325e-06	-2.361657e-08	-4.912439e+01	-1.549924e+03
2.900000e-07	-6.837972e-06	-2.355932e-08	-4.856788e+01	-1.546314e+03
3.000000e-07	-6.756832e-06	-2.347021e-08	-4.799156e+01	-1.542787e+03
3.100000e-07	-6.673247e-06	-2.343381e-08	-4.739789e+01	-1.539110e+03
3.200000e-07	-6.587455e-06	-2.334379e-08	-4.678853e+01	-1.535046e+03
3.300000e-07	-6.499298e-06	-2.329300e-08	-4.616238e+01	-1.530429e+03
3.400000e-07	-6.408687e-06	-2.320647e-08	-4.551881e+01	-1.525213e+03
3.500000e-07	-6.315785e-06	-2.312707e-08	-4.485895e+01	-1.519492e+03
3.600000e-07	-6.220665e-06	-2.305771e-08	-4.418334e+01	-1.513467e+03
3.700000e-07	-6.123184e-06	-2.296424e-08	-4.349097e+01	-1.507383e+03
3.800000e-07	-6.023459e-06	-2.287105e-08	-4.278265e+01	-1.501445e+03
3.900000e-07	-5.921639e-06	-2.278314e-08	-4.205947e+01	-1.495756e+03
4.000000e-07	-5.817709e-06	-2.270774e-08	-4.132128e+01	-1.490274e+03
4.100000e-07	-5.711685e-06	-2.260018e-08	-4.056823e+01	-1.484821e+03
4.200000e-07	-5.603672e-06	-2.250312e-08	-3.980105e+01	-1.479140e+03
4.300000e-07	-5.493752e-06	-2.240013e-08	-3.902032e+01	-1.472969e+03
4.400000e-07	-5.381838e-06	-2.229247e-08	-3.822543e+01	-1.466129e+03
4.500000e-07	-5.267812e-06	-2.217290e-08	-3.741554e+01	-1.458579e+03
4.600000e-07	-5.151752e-06	-2.206077e-08	-3.659120e+01	-1.450433e+03
4.700000e-07	-5.033782e-06	-2.194897e-08	-3.575331e+01	-1.441925e+03
4.800000e-07	-4.913992e-06	-2.183152e-08	-3.490247e+01	-1.433333e+03
4.900000e-07	-4.792431e-06	-2.171008e-08	-3.403906e+01	-1.424890e+03
5.000000e-07	-4.669061e-06	-2.158195e-08	-3.316281e+01	-1.416698e+03
5.100000e-07	-4.543968e-06	-2.145031e-08	-3.227431e+01	-1.408693e+03
5.200000e-07	-4.417280e-06	-2.130443e-08	-3.137449e+01	-1.400650e+03
5.300000e-07	-4.289008e-06	-2.115732e-08	-3.046342e+01	-1.392250e+03
5.400000e-07	-4.159181e-06	-2.100093e-08	-2.954130e+01	-1.383172e+03
5.500000e-07	-4.027796e-06	-2.084623e-08	-2.860811e+01	-1.373194e+03
5.600000e-07	-3.894873e-06	-2.068428e-08	-2.766401e+01	-1.362267e+03
5.700000e-07	-3.760504e-06	-2.051929e-08	-2.670963e+01	-1.350528e+03
5.800000e-07	-3.624718e-06	-2.034622e-08	-2.574519e+01	-1.338264e+03
5.900000e-07	-3.487502e-06	-2.017071e-08	-2.477059e+01	-1.325814e+03
6.000000e-07	-3.348890e-06	-1.998968e-08	-2.378607e+01	-1.313455e+03
6.100000e-07	-3.208865e-06	-1.979876e-08	-2.279152e+01	-1.301302e+03
6.200000e-07	-3.067449e-06	-1.960140e-08	-2.178709e+01	-1.289249e+03
6.300000e-07	-2.924773e-06	-1.939101e-08	-2.077370e+01	-1.276985e+03
6.400000e-07	-2.780909e-06	-1.917290e-08	-1.975188e+01	-1.264072e+03
6.500000e-07	-2.635979e-06	-1.894122e-08	-1.872250e+01	-1.250071e+03
6.600000e-07	-2.490160e-06	-1.870367e-08	-1.768679e+01	-1.234675e+03
6.700000e-07	-2.343518e-06	-1.845547e-08	-1.664524e+01	-1.217802e+03
6.800000e-07	-2.196135e-06	-1.819789e-08	-1.559843e+01	-1.199624e+03
6.900000e-07	-2.048089e-06	-1.792831e-08	-1.454690e+01	-1.180510e+03
7.000000e-07	-1.899384e-06	-1.764475e-08	-1.349071e+01	-1.160892e+03
7.100000e-07	-1.750121e-06	-1.734651e-08	-1.243054e+01	-1.141104e+03
7.200000e-07	-1.600343e-06	-1.702888e-08	-1.136671e+01	-1.121233e+03
7.300000e-07	-1.450007e-06	-1.669879e-08	-1.029893e+01	-1.101031e+03
7.400000e-07	-1.299151e-06	-1.634748e-08	-9.227442e+00	-1.079930e+03
7.500000e-07	-1.147801e-06	-1.597361e-08	-8.152452e+00	-1.057162e+03
7.600000e-07	-9.959630e-07	-1.557559e-08	-7.073999e+00	-1.031943e+03
7.700000e-07	-8.437009e-07	-1.515193e-08	-5.992531e+00	-1.003683e+03
7.800000e-07	-6.911122e-07	-1.469455e-08	-4.908744e+00	-9.721324e+02
7.900000e-07	-5.383172e-07	-1.419958e-08	-3.823491e+00	-9.374250e+02
8.000000e-07	-3.853758e-07	-1.366380e-08	-2.737198e+00	-8.999613e+02
8.100000e-07	-2.323229e-07	-1.307755e-08	-1.650113e+00	-8.601583e+02
8.200000e-07	-7.916023e-08	-1.243198e-08	-5.622492e-01	-8.181098e+02
8.300000e-07	7.409349e-08	-1.171506e-08	5.262618e-01	-7.732501e+02
8.400000e-07	2.273191e-07	-1.091658e-08	1.614573e+00	-7.241227e+02
8.500000e-07	3.804606e-07	-1.001723e-08	2.702287e+00	-6.683485e+02
8.600000e-07	5.335109e-07	-8.996241e-09	3.789353e+00	-6.028422e+02
8.700000e-07	6.864567e-07	-7.819750e-09	4.875677e+00	-5.242753e+02
8.800000e-07	8.392245e-07	-6.439258e-09	5.960737e+00	-4.297132e+02
8.900000e-07	9.917481e-07	-4.790572e-09	7.044062e+00	-3.173096e+02
9.000000e-07	1.143951e-06	-2.807483e-09	8.125108e+00	-1.869059e+02
9.100000e-07	1.295684e-06	-5.202728e-10	9.202819e+00	-4.039711e+01
9.200000e-07	1.446875e-06	1.912061e-09	1.027668e+01	1.182400e+02
9.300000e-07	1.597477e-06	4.365289e-09	1.134635e+01	2.832895e+02
9.400000e-07	1.747499e-06	6.818116e-09	1.241191e+01	4.479667e+02
9.500000e-07	1.897018e-06	9.256589e-09	1.347390e+01	6.053016e+02
9.600000e-07	2.045900e-06	1.154937e-08	1.453135e+01	7.490725e+02
9.700000e-07	2.193986e-06	1.347861e-08	1.558316e+01	8.746140e+02
9.800000e-07	2.341248e-06	1.498003e-08	1.662912e+01	9.793496e+02
9.900000e-07	2.487617e-06	1.613521e-08	1.766873e+01	1.062959e+03
1.000000e-06	2.633042e-06	1.703471e-08	1.870163e+01	1.127167e+03
1.010000e-06	2.777498e-06	1.774662e-08	1.972766e+01	1.175210e+03
1.020000e-06	2.920831e-06	1.832350e-08	2.074571e+01	1.211125e+03
1.030000e-06	3.063014e-06	1.880269e-08	2.175558e+01	1.238990e+03
1.040000e-06	3.204025e-06	1.921021e-08	2.275714e+01	1.262287e+03
1.050000e-06	3.343690e-06	1.956552e-08	2.374913e+01	1.283491e+03
1.060000e-06	3.482035e-06	1.987969e-08	2.473175e+01	1.303933e+03
1.070000e-06	3.619116e-06	2.015778e-08	2.570540e+01	1.323933e+03
1.080000e-06	3.754800e-06	2.040808e-08	2.666911e+01	1.343114e+03
1.090000e-06	3.889075e-06	2.063805e-08	2.762282e+01	1.360805e+03
1.100000e-06	4.021998e-06	2.085259e-08	2.856693e+01	1.376418e+03
1.110000e-06	4.153470e-06	2.105115e-08	2.950074e+01	1.389703e+03
1.120000e-06	4.283469e-06	2.123395e-08	3.042408e+01	1.400847e+03
1.130000e-06	4.411960e-06	2.140629e-08	3.133670e+01	1.410408e+03
1.140000e-06	4.538890e-06	2.156934e-08	3.223825e+01	1.419139e+03
1.150000e-06	4.664315e-06	2.172559e-08	3.312910e+01	1.427757e+03
1.160000e-06	4.788184e-06	2.187525e-08	3.400890e+01	1.436754e+03
1.170000e-06	4.910371e-06	2.201622e-08	3.487676e+01	1.446282e+03
1.180000e-06	5.030756e-06	2.214673e-08	3.573181e+01	1.456154e+03
1.190000e-06	5.149291e-06	2.227137e-08	3.657373e+01	1.465942e+03
1.200000e-06	5.265962e-06	2.239106e-08	3.740240e+01	1.475145e+03
1.210000e-06	5.380598e-06	2.250819e-08	3.821663e+01	1.483355e+03
1.220000e-06	5.493106e-06	2.261922e-08	3.901573e+01	1.490388e+03
1.230000e-06	5.603591e-06	2.272376e-08	3.980047e+01	1.496328e+03
1.240000e-06	5.712126e-06	2.282114e-08	4.057136e+01	1.501492e+03
1.250000e-06	5.818643e-06	2.291197e-08	4.132792e+01	1.506322e+03
1.260000e-06	5.922986e-06	2.299883e-08	4.206903e+01	1.511243e+03
1.270000e-06	6.025152e-06	2.308244e-08	4.279468e+01	1.516543e+03
1.280000e-06	6.125144e-06	2.316398e-08	4.350489e+01	1.522296e+03
1.290000e-06	6.222797e-06	2.324394e-08	4.419849e+01	1.528354e+03
1.300000e-06	6.318099e-06	2.332229e-08	4.487539e+01	1.534418e+03
1.310000e-06	6.411160e-06	2.339584e-08	4.553637e+01	1.540141e+03
1.320000e-06	6.502009e-06	2.346487e-08	4.618164e+01	1.545241e+03
1.330000e-06	6.590484e-06	2.353149e-08	4.681005e+01	1.549598e+03
1.340000e-06	6.676575e-06	2.359755e-08	4.742153e+01	1.553276e+03
1.350000e-06	6.760379e-06	2.366201e-08	4.801676e+01	1.556507e+03
1.360000e-06	6.841696e-06	2.372343e-08	4.859433e+01	1.559602e+03
1.370000e-06	6.920498e-06	2.378195e-08	4.915403e+01	1.562858e+03
1.380000e-06	6.996790e-06	2.383884e-08	4.969591e+01	1.566457e+03
1.390000e-06	7.070364e-06	2.389370e-08	5.021848e+01	1.570419e+03
1.400000e-06	7.141322e-06	2.394675e-08	5.072247e+01	1.574592e+03
1.410000e-06	7.209830e-06	2.399868e-08	5.120906e+01	1.578714e+03
1.420000e-06	7.275749e-06	2.404681e-08	5.167726e+01	1.582488e+03
1.430000e-06	7.339053e-06	2.409000e-08	5.212689e+01	1.585685e+03
1.440000e-06	7.399937e-06	2.412828e-08	5.255933e+01	1.588207e+03
1.450000e-06	7.458290e-06	2.416625e-08	5.297379e+01	1.590119e+03
1.460000e-06	7.513979e-06	2.420506e-08	5.336933e+01	1.591623e+03
1.470000e-06	7.566902e-06	2.424220e-08	5.374522e+01	1.592991e+03
1.480000e-06	7.616707e-06	2.427686e-08	5.409897e+01	1.594482e+03
1.490000e-06	7.663523e-06	2.430789e-08	5.443150e+01	1.596258e+03
1.500000e-06	7.707675e-06	2.433612e-08	5.474509e+01	1.598337e+03
1.510000e-06	7.749054e-06	2.436019e-08	5.503899e+01	1.600594e+03
1.520000e-06	7.787642e-06	2.438171e-08	5.531307e+01	1.602803e+03
1.530000e-06	7.823505e-06	2.440040e-08	5.556779e+01	1.604710e+03
1.540000e-06	7.856549e-06	2.441668e-08	5.580249e+01	1.606116e+03
1.550000e-06	7.886831e-06	2.443300e-08	5.601758e+01	1.606943e+03
1.560000e-06	7.914431e-06	2.444823e-08	5.621361e+01	1.607252e+03
1.570000e-06	7.939090e-06	2.446252e-08	5.638876e+01	1.607228e+03
1.580000e-06	7.960802e-06	2.447444e-08	5.654297e+01	1.607119e+03
1.590000e-06	7.979833e-06	2.448411e-08	5.667814e+01	1.607160e+03
1.600000e-06	7.995962e-06	2.449257e-08	5.679270e+01	1.607500e+03
1.610000e-06	8.008984e-06	2.450030e-08	5.688519e+01	1.608155e+03
1.620000e-06	8.018878e-06	2.450542e-08	5.695547e+01	1.609006e+03
1.630000e-06	8.025721e-06	2.450783e-08	5.700406e+01	1.609841e+03
1.640000e-06	8.029782e-06	2.450916e-08	5.703291e+01	1.610417e+03
1.650000e-06	8.030991e-06	2.451169e-08	5.704150e+01	1.610538e+03
1.660000e-06	8.029370e-06	2.450389e-08	5.702999e+01	1.610117e+03
1.670000e-06	8.025130e-06	2.449585e-08	5.699987e+01	1.609198e+03
1.680000e-06	8.018201e-06	2.449267e-08	5.695066e+01	1.607939e+03
1.690000e-06	8.008653e-06	2.448610e-08	5.688284e+01	1.606565e+03
1.700000e-06	7.996363e-06	2.447648e-08	5.679555e+01	1.605291e+03
1.710000e-06	7.981216e-06	2.447090e-08	5.668796e+01	1.604258e+03
1.720000e-06	7.963572e-06	2.447176e-08	5.656264e+01	1.603489e+03
1.730000e-06	7.943638e-06	2.444150e-08	5.642106e+01	1.602885e+03
1.740000e-06	7.921071e-06	2.431159e-08	5.626077e+01	1.602260e+03
1.750000e-06	7.895172e-06	2.432603e-08	5.607682e+01	1.601404e+03
1.760000e-06	7.865517e-06	2.435846e-08	5.586619e+01	1.600151e+03
1.770000e-06	7.832588e-06	2.430943e-08	5.563230e+01	1.598436e+03
1.780000e-06	7.797245e-06	2.429500e-08	5.538128e+01	1.596316e+03
1.790000e-06	7.759604e-06	2.438495e-08	5.511392e+01	1.593953e+03
1.800000e-06	7.719844e-06	2.426966e-08	5.483152e+01	1.591559e+03
1.810000e-06	7.678054e-06	2.417565e-08	5.453470e+01	1.589332e+03
1.820000e-06	7.633627e-06	2.432317e-08	5.421915e+01	1.587382e+03
1.830000e-06	7.586523e-06	2.414970e-08	5.388459e+01	1.585698e+03
1.840000e-06	7.536698e-06	2.422584e-08	5.353069e+01	1.584140e+03
1.850000e-06	7.483785e-06	2.417567e-08	5.315487e+01	1.582484e+03
1.860000e-06	7.427979e-06	2.405710e-08	5.275850e+01	1.580483e+03
1.870000e-06	7.369542e-06	2.412049e-08	5.234344e+01	1.577944e+03
1.880000e-06	7.308538e-06	2.393845e-08	5.191015e+01	1.574786e+03
1.890000e-06	7.244770e-06	2.400088e-08	5.145723e+01	1.571067e+03
1.900000e-06	7.178168e-06	2.393570e-08	5.098418e+01	1.566961e+03
1.910000e-06	7.108765e-06	2.387224e-08	5.049123e+01	1.562711e+03
1.920000e-06	7.036441e-06	2.385788e-08	4.997754e+01	1.558547e+03
1.930000e-06	6.961403e-06	2.372674e-08	4.944456e+01	1.554618e+03
1.940000e-06	6.883692e-06	2.374602e-08	4.889261e+01	1.550944e+03
1.950000e-06	6.803305e-06	2.361675e-08	4.832164e+01	1.547413e+03
1.960000e-06	6.720394e-06	2.358412e-08	4.773276e+01	1.543811e+03
1.970000e-06	6.634896e-06	2.351021e-08	4.712549e+01	1.539894e+03
1.980000e-06	6.546901e-06	2.342740e-08	4.650050e+01	1.535466e+03
1.990000e-06	6.456663e-06	2.338454e-08	4.585956e+01	1.530439e+03
2.000000e-06	6.364247e-06	2.326822e-08	4.520316e+01	1.524862e+03
2.010000e-06	6.269527e-06	2.323185e-08	4.453039e+01	1.518908e+03
2.020000e-06	6.172597e-06	2.312792e-08	4.384194e+01	1.512817e+03
2.030000e-06	6.073531e-06	2.305424e-08	4.313830e+01	1.506814e+03
2.040000e-06	5.972213e-06	2.294107e-08	4.241867e+01	1.501043e+03
2.050000e-06	5.868704e-06	2.286138e-08	4.168348e+01	1.495507e+03
2.060000e-06	5.763195e-06	2.276971e-08	4.093409e+01	1.490070e+03
2.070000e-06	5.655833e-06	2.266724e-08	4.017153e+01	1.484492e+03
2.080000e-06	5.546494e-06	2.258049e-08	3.939493e+01	1.478503e+03
2.090000e-06	5.435101e-06	2.247785e-08	3.860374e+01	1.471890e+03
2.100000e-06	5.321634e-06	2.238324e-08	3.779782e+01	1.464562e+03
2.110000e-06	5.206125e-06	2.225660e-08	3.697740e+01	1.456587e+03
2.120000e-06	5.088553e-06	2.214711e-08	3.614232e+01	1.448165e+03
2.130000e-06	4.969005e-06	2.201671e-08	3.529321e+01	1.439571e+03
2.140000e-06	4.847703e-06	2.189730e-08	3.443164e+01	1.431060e+03
2.150000e-06	4.724711e-06	2.176375e-08	3.355808e+01	1.422786e+03
2.160000e-06	4.599951e-06	2.164037e-08	3.267194e+01	1.414738e+03
2.170000e-06	4.473425e-06	2.151032e-08	3.177327e+01	1.406739e+03
2.180000e-06	4.345290e-06	2.137650e-08	3.086317e+01	1.398491e+03
2.190000e-06	4.215624e-06	2.123671e-08	2.994219e+01	1.389661e+03
2.200000e-06	4.084457e-06	2.109106e-08	2.901056e+01	1.379987e+03
2.210000e-06	3.951735e-06	2.094132e-08	2.806788e+01	1.369358e+03
2.220000e-06	3.817516e-06	2.077774e-08	2.711457e+01	1.357854e+03
2.230000e-06	3.681869e-06	2.060911e-08	2.615111e+01	1.345722e+03
2.240000e-06	3.544859e-06	2.042801e-08	2.517797e+01	1.333295e+03
2.250000e-06	3.406468e-06	2.024659e-08	2.419503e+01	1.320885e+03
2.260000e-06	3.266746e-06	2.005614e-08	2.320262e+01	1.308666e+03
2.270000e-06	3.125754e-06	1.986642e-08	2.220121e+01	1.296606e+03
2.280000e-06	2.983482e-06	1.967015e-08	2.119069e+01	1.284453e+03
2.290000e-06	2.840010e-06	1.946732e-08	2.017166e+01	1.271799e+03
2.300000e-06	2.695426e-06	1.925171e-08	1.914473e+01	1.258190e+03
2.310000e-06	2.549968e-06	1.902259e-08	1.811159e+01	1.243263e+03
2.320000e-06	2.403782e-06	1.877888e-08	1.707328e+01	1.226857e+03
2.330000e-06	2.256817e-06	1.852353e-08	1.602943e+01	1.209066e+03
2.340000e-06	2.109048e-06	1.826080e-08	1.497988e+01	1.190205e+03
2.350000e-06	1.960525e-06	1.798792e-08	1.392496e+01	1.170704e+03
2.360000e-06	1.811344e-06	1.769974e-08	1.286538e+01	1.150947e+03
2.370000e-06	1.661560e-06	1.739517e-08	1.180152e+01	1.131113e+03
2.380000e-06	1.511233e-06	1.707239e-08	1.073379e+01	1.111064e+03
2.390000e-06	1.360467e-06	1.673110e-08	9.662949e+00	1.090329e+03
2.400000e-06	1.209271e-06	1.636976e-08	8.589058e+00	1.068186e+03
2.410000e-06	1.057599e-06	1.598495e-08	7.511780e+00	1.043832e+03
2.420000e-06	9.055009e-07	1.557228e-08	6.431476e+00	1.016595e+03
2.430000e-06	7.531089e-07	1.512565e-08	5.349086e+00	9.861046e+02
2.440000e-06	6.004591e-07	1.464268e-08	4.264864e+00	9.523769e+02
2.450000e-06	4.475876e-07	1.411812e-08	3.179068e+00	9.157478e+02
2.460000e-06	2.945182e-07	1.354815e-08	2.091866e+00	8.766634e+02
2.470000e-06	1.412790e-07	1.292314e-08	1.003458e+00	8.353603e+02
2.480000e-06	-1.201278e-08	1.223435e-08	-8.532286e-02	7.915171e+02
2.490000e-06	-1.653041e-07	1.146877e-08	-1.174101e+00	7.439783e+02
2.500000e-06	-3.185718e-07	1.060775e-08	-2.262711e+00	6.906500e+02
2.510000e-06	-4.717784e-07	9.632793e-09	-3.350887e+00	6.286345e+02
2.520000e-06	-6.248491e-07	8.514586e-09	-4.438099e+00	5.546183e+02
2.530000e-06	-7.776734e-07	7.211186e-09	-5.523559e+00	4.654644e+02
2.540000e-06	-9.302058e-07	5.666420e-09	-6.606947e+00	3.589038e+02
2.550000e-06	-1.082439e-06	3.808482e-09	-7.688209e+00	2.341815e+02
2.560000e-06	-1.234223e-06	1.601331e-09	-8.766281e+00	9.251193e+01
2.570000e-06	-1.385496e-06	-8.407636e-10	-9.840721e+00	-6.277775e+01
2.580000e-06	-1.536248e-06	-3.348479e-09	-1.091147e+01	-2.264714e+02
2.590000e-06	-1.686455e-06	-5.862799e-09	-1.197834e+01	-3.920389e+02
2.600000e-06	-1.836087e-06	-8.376126e-09	-1.304112e+01	-5.524667e+02
2.610000e-06	-1.985011e-06	-1.079472e-08	-1.409888e+01	-7.011952e+02
2.620000e-06	-2.133149e-06	-1.290149e-08	-1.515106e+01	-8.329848e+02
2.630000e-06	-2.280417e-06	-1.457084e-08	-1.619705e+01	-9.445508e+02
2.640000e-06	-2.426780e-06	-1.585715e-08	-1.723662e+01	-1.034853e+03
2.650000e-06	-2.572367e-06	-1.685486e-08	-1.827068e+01	-1.105004e+03
2.660000e-06	-2.717150e-06	-1.764066e-08	-1.929903e+01	-1.157826e+03
2.670000e-06	-2.860864e-06	-1.827049e-08	-2.031978e+01	-1.197182e+03
2.680000e-06	-3.003357e-06	-1.878523e-08	-2.133186e+01	-1.227216e+03
2.690000e-06	-3.144668e-06	-1.921494e-08	-2.233554e+01	-1.251658e+03
2.700000e-06	-3.284721e-06	-1.958134e-08	-2.333030e+01	-1.273335e+03
2.710000e-06	-3.423400e-06	-1.990162e-08	-2.431529e+01	-1.293943e+03
2.720000e-06	-3.560820e-06	-2.018907e-08	-2.529134e+01	-1.314101e+03
2.730000e-06	-3.696957e-06	-2.045120e-08	-2.625828e+01	-1.333613e+03
2.740000e-06	-3.831653e-06	-2.069303e-08	-2.721498e+01	-1.351859e+03
2.750000e-06	-3.964952e-06	-2.091711e-08	-2.816175e+01	-1.368187e+03
2.760000e-06	-4.096852e-06	-2.112441e-08	-2.909860e+01	-1.382221e+03
2.770000e-06	-4.227324e-06	-2.131243e-08	-3.002529e+01	-1.394008e+03
2.780000e-06	-4.356436e-06	-2.148598e-08	-3.094234e+01	-1.404001e+03
2.790000e-06	-4.484051e-06	-2.164963e-08	-3.184875e+01	-1.412914e+03
2.800000e-06	-4.610083e-06	-2.180324e-08	-3.274391e+01	-1.421501e+03
2.810000e-06	-4.734490e-06	-2.194933e-08	-3.362753e+01	-1.430343e+03
2.820000e-06	-4.857190e-06	-2.208769e-08	-3.449903e+01	-1.439706e+03
2.830000e-06	-4.978224e-06	-2.222126e-08	-3.535869e+01	-1.449505e+03
2.840000e-06	-5.097449e-06	-2.234846e-08	-3.620551e+01	-1.459375e+03
2.850000e-06	-5.214604e-06	-2.247007e-08	-3.703763e+01	-1.468818e+03
2.860000e-06	-5.329639e-06	-2.258550e-08	-3.785468e+01	-1.477381e+03
2.870000e-06	-5.442534e-06	-2.269455e-08	-3.865654e+01	-1.484796e+03
2.880000e-06	-5.553248e-06	-2.279629e-08	-3.944290e+01	-1.491063e+03
2.890000e-06	-5.661943e-06	-2.289230e-08	-4.021492e+01	-1.496432e+03
2.900000e-06	-5.768757e-06	-2.298579e-08	-4.097359e+01	-1.501319e+03
2.910000e-06	-5.873594e-06	-2.307711e-08	-4.171822e+01	-1.506171e+03
2.920000e-06	-5.976173e-06	-2.316485e-08	-4.244680e+01	-1.511331e+03
2.930000e-06	-6.076418e-06	-2.324701e-08	-4.315881e+01	-1.516945e+03
2.940000e-06	-6.174550e-06	-2.332668e-08	-4.385581e+01	-1.522932e+03
