# Temperatura_=_59.82
# Concentracion g/m^3_=_41000.0
# C_Vs_to_Am_M_A/Vsm_=_65563218390.804596
# pendiente_HvsI_1/m_=_3716.3
# ordenada_HvsI_A/m_=_1297.0
# frecuencia_Hz_=_302499.0705378157

Tiempo_(s)	Campo_(V.s)	Magnetizacion_(V.s)	Campo_(kA/m)	Magnetizacion_(A/m)
0.000000e+00	-7.986229e-06	-2.239669e-08	-5.685355e+01	-1.467309e+03
1.000000e-08	-7.981728e-06	-2.238944e-08	-5.682151e+01	-1.466359e+03
2.000000e-08	-7.974715e-06	-2.237583e-08	-5.677159e+01	-1.465056e+03
3.000000e-08	-7.964983e-06	-2.236728e-08	-5.670230e+01	-1.463687e+03
4.000000e-08	-7.952369e-06	-2.235742e-08	-5.661250e+01	-1.462527e+03
5.000000e-08	-7.936781e-06	-2.234398e-08	-5.650153e+01	-1.461752e+03
6.000000e-08	-7.918505e-06	-2.232896e-08	-5.637143e+01	-1.461384e+03
7.000000e-08	-7.898019e-06	-2.230693e-08	-5.622559e+01	-1.461290e+03
8.000000e-08	-7.875021e-06	-2.233731e-08	-5.606187e+01	-1.461223e+03
9.000000e-08	-7.848873e-06	-2.236758e-08	-5.587572e+01	-1.460909e+03
1.000000e-07	-7.819479e-06	-2.230127e-08	-5.566647e+01	-1.460130e+03
1.100000e-07	-7.787225e-06	-2.225274e-08	-5.543685e+01	-1.458800e+03
1.200000e-07	-7.752196e-06	-2.224553e-08	-5.518748e+01	-1.456988e+03
1.300000e-07	-7.714559e-06	-2.221060e-08	-5.491955e+01	-1.454901e+03
1.400000e-07	-7.674775e-06	-2.212971e-08	-5.463633e+01	-1.452811e+03
1.500000e-07	-7.632810e-06	-2.213849e-08	-5.433758e+01	-1.450970e+03
1.600000e-07	-7.588238e-06	-2.220954e-08	-5.402028e+01	-1.449523e+03
1.700000e-07	-7.540990e-06	-2.206871e-08	-5.368392e+01	-1.448459e+03
1.800000e-07	-7.490860e-06	-2.208486e-08	-5.332704e+01	-1.447613e+03
1.900000e-07	-7.437671e-06	-2.208592e-08	-5.294840e+01	-1.446707e+03
2.000000e-07	-7.381729e-06	-2.198657e-08	-5.255015e+01	-1.445443e+03
2.100000e-07	-7.323068e-06	-2.200117e-08	-5.213254e+01	-1.443589e+03
2.200000e-07	-7.261724e-06	-2.192635e-08	-5.169584e+01	-1.441058e+03
2.300000e-07	-7.197833e-06	-2.190798e-08	-5.124100e+01	-1.437934e+03
2.400000e-07	-7.131206e-06	-2.185868e-08	-5.076669e+01	-1.434447e+03
2.500000e-07	-7.061835e-06	-2.183530e-08	-5.027284e+01	-1.430901e+03
2.600000e-07	-6.989735e-06	-2.179254e-08	-4.975956e+01	-1.427582e+03
2.700000e-07	-6.914816e-06	-2.173281e-08	-4.922622e+01	-1.424664e+03
2.800000e-07	-6.837174e-06	-2.170170e-08	-4.867349e+01	-1.422150e+03
2.900000e-07	-6.756710e-06	-2.162266e-08	-4.810067e+01	-1.419874e+03
3.000000e-07	-6.673626e-06	-2.157762e-08	-4.750920e+01	-1.417545e+03
3.100000e-07	-6.588386e-06	-2.153280e-08	-4.690238e+01	-1.414842e+03
3.200000e-07	-6.500943e-06	-2.148635e-08	-4.627987e+01	-1.411512e+03
3.300000e-07	-6.411065e-06	-2.143011e-08	-4.564004e+01	-1.407450e+03
3.400000e-07	-6.318823e-06	-2.135394e-08	-4.498338e+01	-1.402737e+03
3.500000e-07	-6.224377e-06	-2.129557e-08	-4.431102e+01	-1.397616e+03
3.600000e-07	-6.127649e-06	-2.122400e-08	-4.362241e+01	-1.392415e+03
3.700000e-07	-6.028599e-06	-2.115606e-08	-4.291728e+01	-1.387443e+03
3.800000e-07	-5.927420e-06	-2.109467e-08	-4.219700e+01	-1.382894e+03
3.900000e-07	-5.824207e-06	-2.102872e-08	-4.146223e+01	-1.378773e+03
4.000000e-07	-5.718893e-06	-2.095210e-08	-4.071250e+01	-1.374897e+03
4.100000e-07	-5.611502e-06	-2.086588e-08	-3.994799e+01	-1.370942e+03
4.200000e-07	-5.502244e-06	-2.078845e-08	-3.917019e+01	-1.366543e+03
4.300000e-07	-5.391035e-06	-2.070304e-08	-3.837850e+01	-1.361408e+03
4.400000e-07	-5.277701e-06	-2.061553e-08	-3.757168e+01	-1.355408e+03
4.500000e-07	-5.162314e-06	-2.052606e-08	-3.675024e+01	-1.348625e+03
4.600000e-07	-5.044954e-06	-2.043170e-08	-3.591477e+01	-1.341325e+03
4.700000e-07	-4.925765e-06	-2.033067e-08	-3.506626e+01	-1.333877e+03
4.800000e-07	-4.804776e-06	-2.022656e-08	-3.420496e+01	-1.326632e+03
4.900000e-07	-4.682041e-06	-2.012637e-08	-3.333121e+01	-1.319812e+03
5.000000e-07	-4.557562e-06	-2.001765e-08	-3.244505e+01	-1.313425e+03
5.100000e-07	-4.431399e-06	-1.990479e-08	-3.154690e+01	-1.307255e+03
5.200000e-07	-4.303619e-06	-1.978510e-08	-3.063724e+01	-1.300919e+03
5.300000e-07	-4.174279e-06	-1.965977e-08	-2.971648e+01	-1.293979e+03
5.400000e-07	-4.043463e-06	-1.953201e-08	-2.878521e+01	-1.286079e+03
5.500000e-07	-3.911063e-06	-1.939840e-08	-2.784265e+01	-1.277056e+03
5.600000e-07	-3.777220e-06	-1.926424e-08	-2.688983e+01	-1.266995e+03
5.700000e-07	-3.641974e-06	-1.912100e-08	-2.592703e+01	-1.256206e+03
5.800000e-07	-3.505253e-06	-1.897025e-08	-2.495372e+01	-1.245126e+03
5.900000e-07	-3.367226e-06	-1.881017e-08	-2.397111e+01	-1.234178e+03
6.000000e-07	-3.227875e-06	-1.864682e-08	-2.297908e+01	-1.223620e+03
6.100000e-07	-3.087075e-06	-1.847761e-08	-2.197673e+01	-1.213448e+03
6.200000e-07	-2.944946e-06	-1.829900e-08	-2.096492e+01	-1.203374e+03
6.300000e-07	-2.801682e-06	-1.811239e-08	-1.994503e+01	-1.192894e+03
6.400000e-07	-2.657330e-06	-1.791560e-08	-1.891739e+01	-1.181430e+03
6.500000e-07	-2.512038e-06	-1.770989e-08	-1.788307e+01	-1.168505e+03
6.600000e-07	-2.365869e-06	-1.749248e-08	-1.684250e+01	-1.153893e+03
6.700000e-07	-2.218867e-06	-1.726703e-08	-1.579600e+01	-1.137697e+03
6.800000e-07	-2.071170e-06	-1.703187e-08	-1.474456e+01	-1.120316e+03
6.900000e-07	-1.922837e-06	-1.678616e-08	-1.368858e+01	-1.102324e+03
7.000000e-07	-1.773912e-06	-1.652331e-08	-1.262839e+01	-1.084263e+03
7.100000e-07	-1.624448e-06	-1.624427e-08	-1.156436e+01	-1.066436e+03
7.200000e-07	-1.474533e-06	-1.595071e-08	-1.049712e+01	-1.048760e+03
7.300000e-07	-1.324151e-06	-1.563789e-08	-9.426563e+00	-1.030718e+03
7.400000e-07	-1.173205e-06	-1.530513e-08	-8.351988e+00	-1.011454e+03
7.500000e-07	-1.021759e-06	-1.495048e-08	-7.273852e+00	-9.899832e+02
7.600000e-07	-8.699365e-07	-1.457478e-08	-6.193033e+00	-9.654533e+02
7.700000e-07	-7.178142e-07	-1.416924e-08	-5.110082e+00	-9.373904e+02
7.800000e-07	-5.654917e-07	-1.372878e-08	-4.025706e+00	-9.058301e+02
7.900000e-07	-4.129829e-07	-1.324999e-08	-2.940004e+00	-8.712799e+02
8.000000e-07	-2.603075e-07	-1.272740e-08	-1.853116e+00	-8.344957e+02
8.100000e-07	-1.075465e-07	-1.215343e-08	-7.656183e-01	-7.961097e+02
8.200000e-07	4.522365e-08	-1.152049e-08	3.219449e-01	-7.562020e+02
8.300000e-07	1.979731e-07	-1.081881e-08	1.409360e+00	-7.139334e+02
8.400000e-07	3.506567e-07	-1.003161e-08	2.496307e+00	-6.673621e+02
8.500000e-07	5.032821e-07	-9.144344e-09	3.582839e+00	-6.135304e+02
8.600000e-07	6.558241e-07	-8.131154e-09	4.668778e+00	-5.488495e+02
8.700000e-07	8.081928e-07	-6.957418e-09	5.753483e+00	-4.697354e+02
8.800000e-07	9.603408e-07	-5.572608e-09	6.836616e+00	-3.733809e+02
8.900000e-07	1.112202e-06	-3.918165e-09	7.917712e+00	-2.585011e+02
9.000000e-07	1.263684e-06	-1.934246e-09	8.996101e+00	-1.258827e+02
9.100000e-07	1.414735e-06	3.563635e-10	1.007143e+01	2.140492e+01
9.200000e-07	1.565282e-06	2.790751e-09	1.114316e+01	1.782070e+02
9.300000e-07	1.715230e-06	5.244539e-09	1.221063e+01	3.378781e+02
9.400000e-07	1.864593e-06	7.672897e-09	1.327394e+01	4.931717e+02
9.500000e-07	2.013265e-06	9.930616e-09	1.433233e+01	6.372566e+02
9.600000e-07	2.161144e-06	1.183212e-08	1.538507e+01	7.646645e+02
9.700000e-07	2.308194e-06	1.334112e-08	1.643192e+01	8.719843e+02
9.800000e-07	2.454276e-06	1.452412e-08	1.747186e+01	9.581780e+02
9.900000e-07	2.599379e-06	1.545417e-08	1.850484e+01	1.024472e+03
1.000000e-06	2.743618e-06	1.619368e-08	1.953168e+01	1.073874e+03
1.010000e-06	2.886862e-06	1.679129e-08	2.055142e+01	1.110430e+03
1.020000e-06	3.028956e-06	1.728411e-08	2.156298e+01	1.138402e+03
1.030000e-06	3.169846e-06	1.770101e-08	2.256597e+01	1.161534e+03
1.040000e-06	3.309426e-06	1.805994e-08	2.355963e+01	1.182540e+03
1.050000e-06	3.447663e-06	1.837149e-08	2.454374e+01	1.202902e+03
1.060000e-06	3.584650e-06	1.864313e-08	2.551894e+01	1.222966e+03
1.070000e-06	3.720346e-06	1.888464e-08	2.648495e+01	1.242272e+03
1.080000e-06	3.854636e-06	1.910432e-08	2.744095e+01	1.259999e+03
1.090000e-06	3.987537e-06	1.930790e-08	2.838707e+01	1.275403e+03
1.100000e-06	4.118986e-06	1.949636e-08	2.932285e+01	1.288125e+03
1.110000e-06	4.248953e-06	1.967098e-08	3.024808e+01	1.298332e+03
1.120000e-06	4.377528e-06	1.983308e-08	3.116340e+01	1.306648e+03
1.130000e-06	4.504599e-06	1.998235e-08	3.206801e+01	1.313960e+03
1.140000e-06	4.630082e-06	2.012064e-08	3.296132e+01	1.321144e+03
1.150000e-06	4.753964e-06	2.025250e-08	3.384322e+01	1.328826e+03
1.160000e-06	4.876163e-06	2.037620e-08	3.471316e+01	1.337231e+03
1.170000e-06	4.996650e-06	2.049005e-08	3.557090e+01	1.346168e+03
1.180000e-06	5.115325e-06	2.059606e-08	3.641573e+01	1.355140e+03
1.190000e-06	5.232081e-06	2.069607e-08	3.724691e+01	1.363536e+03
1.200000e-06	5.346833e-06	2.079282e-08	3.806383e+01	1.370839e+03
1.210000e-06	5.459503e-06	2.088395e-08	3.886592e+01	1.376795e+03
1.220000e-06	5.570147e-06	2.097159e-08	3.965359e+01	1.381483e+03
1.230000e-06	5.678832e-06	2.105389e-08	4.042731e+01	1.385279e+03
1.240000e-06	5.785478e-06	2.113174e-08	4.118652e+01	1.388731e+03
1.250000e-06	5.890033e-06	2.120564e-08	4.193084e+01	1.392384e+03
1.260000e-06	5.992398e-06	2.127589e-08	4.265958e+01	1.396622e+03
1.270000e-06	6.092466e-06	2.134349e-08	4.337195e+01	1.401556e+03
1.280000e-06	6.190237e-06	2.141052e-08	4.406798e+01	1.407018e+03
1.290000e-06	6.285733e-06	2.147647e-08	4.474781e+01	1.412619e+03
1.300000e-06	6.378991e-06	2.153781e-08	4.541171e+01	1.417892e+03
1.310000e-06	6.469961e-06	2.159521e-08	4.605932e+01	1.422439e+03
1.320000e-06	6.558590e-06	2.164893e-08	4.669026e+01	1.426053e+03
1.330000e-06	6.644938e-06	2.170094e-08	4.730497e+01	1.428776e+03
1.340000e-06	6.729002e-06	2.175044e-08	4.790342e+01	1.430875e+03
1.350000e-06	6.810666e-06	2.179766e-08	4.848478e+01	1.432753e+03
1.360000e-06	6.889795e-06	2.184392e-08	4.904810e+01	1.434817e+03
1.370000e-06	6.966330e-06	2.188746e-08	4.959295e+01	1.437349e+03
1.380000e-06	7.040306e-06	2.192872e-08	5.011957e+01	1.440428e+03
1.390000e-06	7.111717e-06	2.196763e-08	5.062795e+01	1.443909e+03
1.400000e-06	7.180644e-06	2.200507e-08	5.111863e+01	1.447476e+03
1.410000e-06	7.247005e-06	2.204029e-08	5.159106e+01	1.450752e+03
1.420000e-06	7.310723e-06	2.207222e-08	5.204466e+01	1.453412e+03
1.430000e-06	7.372006e-06	2.210036e-08	5.248093e+01	1.455293e+03
1.440000e-06	7.430734e-06	2.212715e-08	5.289901e+01	1.456435e+03
1.450000e-06	7.486762e-06	2.215543e-08	5.329787e+01	1.457071e+03
1.460000e-06	7.540078e-06	2.218340e-08	5.367742e+01	1.457547e+03
1.470000e-06	7.590346e-06	2.220760e-08	5.403528e+01	1.458212e+03
1.480000e-06	7.637570e-06	2.222965e-08	5.437146e+01	1.459315e+03
1.490000e-06	7.682094e-06	2.224787e-08	5.468843e+01	1.460927e+03
1.500000e-06	7.723858e-06	2.226259e-08	5.498574e+01	1.462923e+03
1.510000e-06	7.762780e-06	2.227783e-08	5.526283e+01	1.465029e+03
1.520000e-06	7.799044e-06	2.229393e-08	5.552099e+01	1.466909e+03
1.530000e-06	7.832619e-06	2.231238e-08	5.576001e+01	1.468274e+03
1.540000e-06	7.863406e-06	2.232757e-08	5.597918e+01	1.468969e+03
1.550000e-06	7.891505e-06	2.234012e-08	5.617921e+01	1.469024e+03
1.560000e-06	7.916750e-06	2.235137e-08	5.635893e+01	1.468638e+03
1.570000e-06	7.939077e-06	2.235925e-08	5.651788e+01	1.468117e+03
1.580000e-06	7.958569e-06	2.236657e-08	5.665664e+01	1.467778e+03
1.590000e-06	7.975081e-06	2.237357e-08	5.677419e+01	1.467847e+03
1.600000e-06	7.988585e-06	2.238054e-08	5.687032e+01	1.468394e+03
1.610000e-06	7.998994e-06	2.238638e-08	5.694443e+01	1.469313e+03
1.620000e-06	8.006342e-06	2.239079e-08	5.699674e+01	1.470356e+03
1.630000e-06	8.010904e-06	2.239462e-08	5.702921e+01	1.471213e+03
1.640000e-06	8.012630e-06	2.239825e-08	5.704150e+01	1.471613e+03
1.650000e-06	8.011563e-06	2.239701e-08	5.703390e+01	1.471403e+03
1.660000e-06	8.007944e-06	2.238931e-08	5.700814e+01	1.470597e+03
1.670000e-06	8.001606e-06	2.238695e-08	5.696302e+01	1.469366e+03
1.680000e-06	7.992552e-06	2.238232e-08	5.689857e+01	1.467984e+03
1.690000e-06	7.980795e-06	2.237293e-08	5.681486e+01	1.466739e+03
1.700000e-06	7.966170e-06	2.236723e-08	5.671075e+01	1.465843e+03
1.710000e-06	7.948947e-06	2.236923e-08	5.658814e+01	1.465365e+03
1.720000e-06	7.929526e-06	2.236887e-08	5.644989e+01	1.465212e+03
1.730000e-06	7.907589e-06	2.227204e-08	5.629372e+01	1.465165e+03
1.740000e-06	7.882390e-06	2.224318e-08	5.611433e+01	1.464946e+03
1.750000e-06	7.853534e-06	2.228902e-08	5.590890e+01	1.464314e+03
1.760000e-06	7.821301e-06	2.226926e-08	5.567944e+01	1.463140e+03
1.770000e-06	7.786524e-06	2.223434e-08	5.543186e+01	1.461449e+03
1.780000e-06	7.749413e-06	2.229693e-08	5.516767e+01	1.459412e+03
1.790000e-06	7.710134e-06	2.228287e-08	5.488805e+01	1.457294e+03
1.800000e-06	7.668892e-06	2.214135e-08	5.459445e+01	1.455359e+03
1.810000e-06	7.625072e-06	2.225803e-08	5.428250e+01	1.453791e+03
1.820000e-06	7.578485e-06	2.218226e-08	5.395084e+01	1.452628e+03
1.830000e-06	7.529288e-06	2.214241e-08	5.360061e+01	1.451743e+03
1.840000e-06	7.477054e-06	2.218562e-08	5.322876e+01	1.450884e+03
1.850000e-06	7.421856e-06	2.204468e-08	5.283581e+01	1.449749e+03
1.860000e-06	7.363988e-06	2.211344e-08	5.242385e+01	1.448078e+03
1.870000e-06	7.303543e-06	2.202479e-08	5.199354e+01	1.445739e+03
1.880000e-06	7.240360e-06	2.200978e-08	5.154375e+01	1.442764e+03
1.890000e-06	7.174301e-06	2.200651e-08	5.107348e+01	1.439350e+03
1.900000e-06	7.105536e-06	2.189344e-08	5.058394e+01	1.435788e+03
1.910000e-06	7.033921e-06	2.192167e-08	5.007412e+01	1.432379e+03
1.920000e-06	6.959612e-06	2.182034e-08	4.954512e+01	1.429336e+03
1.930000e-06	6.882593e-06	2.183020e-08	4.899682e+01	1.426715e+03
1.940000e-06	6.802856e-06	2.178651e-08	4.842918e+01	1.424395e+03
1.950000e-06	6.720708e-06	2.170690e-08	4.784437e+01	1.422113e+03
1.960000e-06	6.636089e-06	2.167338e-08	4.724197e+01	1.419547e+03
1.970000e-06	6.548910e-06	2.156776e-08	4.662135e+01	1.416413e+03
1.980000e-06	6.459338e-06	2.155658e-08	4.598369e+01	1.412558e+03
1.990000e-06	6.367556e-06	2.147956e-08	4.533030e+01	1.408011e+03
2.000000e-06	6.273425e-06	2.145113e-08	4.466019e+01	1.402974e+03
2.010000e-06	6.176994e-06	2.138025e-08	4.397370e+01	1.397760e+03
2.020000e-06	6.078485e-06	2.129838e-08	4.327242e+01	1.392695e+03
2.030000e-06	5.977827e-06	2.122427e-08	4.255584e+01	1.388014e+03
2.040000e-06	5.874924e-06	2.114363e-08	4.182328e+01	1.383780e+03
2.050000e-06	5.769954e-06	2.109147e-08	4.107601e+01	1.379861e+03
2.060000e-06	5.663137e-06	2.100564e-08	4.031558e+01	1.375965e+03
2.070000e-06	5.554355e-06	2.094386e-08	3.954117e+01	1.371727e+03
2.080000e-06	5.443473e-06	2.085052e-08	3.875181e+01	1.366822e+03
2.090000e-06	5.330562e-06	2.076888e-08	3.794800e+01	1.361069e+03
2.100000e-06	5.215726e-06	2.067046e-08	3.713049e+01	1.354488e+03
2.110000e-06	5.098881e-06	2.058880e-08	3.629867e+01	1.347299e+03
2.120000e-06	4.980010e-06	2.049844e-08	3.545244e+01	1.339853e+03
2.130000e-06	4.859280e-06	2.040086e-08	3.459296e+01	1.332519e+03
2.140000e-06	4.736813e-06	2.029774e-08	3.372113e+01	1.325565e+03
2.150000e-06	4.612623e-06	2.018589e-08	3.283702e+01	1.319065e+03
2.160000e-06	4.486788e-06	2.007950e-08	3.194121e+01	1.312866e+03
2.170000e-06	4.359358e-06	1.996535e-08	3.103405e+01	1.306620e+03
2.180000e-06	4.230332e-06	1.985376e-08	3.011551e+01	1.299894e+03
2.190000e-06	4.099728e-06	1.972938e-08	2.918575e+01	1.292294e+03
2.200000e-06	3.967516e-06	1.960273e-08	2.824454e+01	1.283592e+03
2.210000e-06	3.833889e-06	1.946284e-08	2.729326e+01	1.273803e+03
2.220000e-06	3.698789e-06	1.932498e-08	2.633149e+01	1.263179e+03
2.230000e-06	3.562183e-06	1.918014e-08	2.535899e+01	1.252134e+03
2.240000e-06	3.424253e-06	1.903206e-08	2.437708e+01	1.241111e+03
2.250000e-06	3.285013e-06	1.887378e-08	2.338584e+01	1.230428e+03
2.260000e-06	3.144476e-06	1.870688e-08	2.238536e+01	1.220162e+03
2.270000e-06	3.002731e-06	1.853304e-08	2.137629e+01	1.210103e+03
2.280000e-06	2.859871e-06	1.835058e-08	2.035927e+01	1.199796e+03
2.290000e-06	2.715882e-06	1.816209e-08	1.933423e+01	1.188668e+03
2.300000e-06	2.570911e-06	1.796410e-08	1.830218e+01	1.176196e+03
2.310000e-06	2.425212e-06	1.775879e-08	1.726496e+01	1.162069e+03
2.320000e-06	2.278730e-06	1.754144e-08	1.622216e+01	1.146294e+03
2.330000e-06	2.131376e-06	1.731172e-08	1.517316e+01	1.129197e+03
2.340000e-06	1.983223e-06	1.706844e-08	1.411846e+01	1.111317e+03
2.350000e-06	1.834396e-06	1.681165e-08	1.305897e+01	1.093229e+03
2.360000e-06	1.685001e-06	1.653959e-08	1.199544e+01	1.075324e+03
2.370000e-06	1.535071e-06	1.625275e-08	1.092809e+01	1.057638e+03
2.380000e-06	1.384696e-06	1.595171e-08	9.857579e+00	1.039774e+03
2.390000e-06	1.233978e-06	1.562848e-08	8.784629e+00	1.020958e+03
2.400000e-06	1.082939e-06	1.527919e-08	7.709387e+00	1.000214e+03
2.410000e-06	9.314844e-07	1.490524e-08	6.631189e+00	9.766252e+02
2.420000e-06	7.796215e-07	1.450839e-08	5.550085e+00	9.495899e+02
2.430000e-06	6.274329e-07	1.408459e-08	4.466663e+00	9.189937e+02
2.440000e-06	4.750005e-07	1.362393e-08	3.381504e+00	8.852242e+02
2.450000e-06	3.223811e-07	1.311845e-08	2.295014e+00	8.489990e+02
2.460000e-06	1.695957e-07	1.255977e-08	1.207343e+00	8.110290e+02
2.470000e-06	1.661589e-08	1.194558e-08	1.182877e-01	7.715947e+02
2.480000e-06	-1.364103e-07	1.126797e-08	-9.710977e-01	7.301482e+02
2.490000e-06	-2.893299e-07	1.051363e-08	-2.059725e+00	6.850670e+02
2.500000e-06	-4.421801e-07	9.667736e-09	-3.147857e+00	6.336570e+02
2.510000e-06	-5.949087e-07	8.707153e-09	-4.235124e+00	5.724543e+02
2.520000e-06	-7.474694e-07	7.597151e-09	-5.321196e+00	4.977978e+02
2.530000e-06	-8.996860e-07	6.292742e-09	-6.404818e+00	4.065780e+02
2.540000e-06	-1.051497e-06	4.740615e-09	-7.485553e+00	2.970075e+02
2.550000e-06	-1.202875e-06	2.878387e-09	-8.563207e+00	1.692424e+02
2.560000e-06	-1.353799e-06	6.756299e-10	-9.637629e+00	2.570176e+01
2.570000e-06	-1.504392e-06	-1.761937e-09	-1.070969e+01	-1.290109e+02
2.580000e-06	-1.654434e-06	-4.272144e-09	-1.177783e+01	-2.885955e+02
2.590000e-06	-1.803756e-06	-6.779817e-09	-1.284085e+01	-4.458755e+02
2.600000e-06	-1.952427e-06	-9.165870e-09	-1.389923e+01	-5.937977e+02
2.610000e-06	-2.100443e-06	-1.122886e-08	-1.495295e+01	-7.264194e+02
2.620000e-06	-2.247678e-06	-1.288721e-08	-1.600111e+01	-8.396914e+02
2.630000e-06	-2.393992e-06	-1.419160e-08	-1.704270e+01	-9.318901e+02
2.640000e-06	-2.539480e-06	-1.521724e-08	-1.807843e+01	-1.003630e+03
2.650000e-06	-2.684091e-06	-1.603346e-08	-1.910790e+01	-1.057477e+03
2.660000e-06	-2.827556e-06	-1.669140e-08	-2.012922e+01	-1.097263e+03
2.670000e-06	-2.969848e-06	-1.722840e-08	-2.114220e+01	-1.127273e+03
2.680000e-06	-3.111012e-06	-1.767186e-08	-2.214714e+01	-1.151460e+03
2.690000e-06	-3.250994e-06	-1.804486e-08	-2.314366e+01	-1.172870e+03
2.700000e-06	-3.389674e-06	-1.836632e-08	-2.413092e+01	-1.193337e+03
2.710000e-06	-3.526979e-06	-1.865104e-08	-2.510838e+01	-1.213507e+03
2.720000e-06	-3.662904e-06	-1.890724e-08	-2.607603e+01	-1.233108e+03
2.730000e-06	-3.797467e-06	-1.914040e-08	-2.703397e+01	-1.251374e+03
2.740000e-06	-3.930721e-06	-1.935225e-08	-2.798260e+01	-1.267500e+03
2.750000e-06	-4.062589e-06	-1.954342e-08	-2.892136e+01	-1.280997e+03
2.760000e-06	-4.193006e-06	-1.971701e-08	-2.984980e+01	-1.291877e+03
2.770000e-06	-4.322045e-06	-1.987805e-08	-3.076841e+01	-1.300651e+03
2.780000e-06	-4.449609e-06	-2.002920e-08	-3.167654e+01	-1.308156e+03
2.790000e-06	-4.575640e-06	-2.017249e-08	-3.257374e+01	-1.315299e+03
2.800000e-06	-4.700088e-06	-2.030714e-08	-3.345969e+01	-1.322798e+03
2.810000e-06	-4.822808e-06	-2.042990e-08	-3.433332e+01	-1.331000e+03
2.820000e-06	-4.943821e-06	-2.054287e-08	-3.519480e+01	-1.339828e+03
2.830000e-06	-5.063033e-06	-2.064801e-08	-3.604347e+01	-1.348853e+03
2.840000e-06	-5.180310e-06	-2.074827e-08	-3.687836e+01	-1.357475e+03
2.850000e-06	-5.295467e-06	-2.084580e-08	-3.769815e+01	-1.365131e+03
2.860000e-06	-5.408437e-06	-2.093877e-08	-3.850238e+01	-1.371480e+03
2.870000e-06	-5.519337e-06	-2.102449e-08	-3.929187e+01	-1.376505e+03
2.880000e-06	-5.628258e-06	-2.110353e-08	-4.006728e+01	-1.380506e+03
2.890000e-06	-5.735239e-06	-2.117933e-08	-4.082887e+01	-1.383998e+03
2.900000e-06	-5.840179e-06	-2.125534e-08	-4.157593e+01	-1.387547e+03
2.910000e-06	-5.942904e-06	-2.132927e-08	-4.230722e+01	-1.391594e+03
2.920000e-06	-6.043367e-06	-2.139938e-08	-4.302242e+01	-1.396337e+03
2.930000e-06	-6.141656e-06	-2.146581e-08	-4.372213e+01	-1.401681e+03
2.940000e-06	-6.237794e-06	-2.152921e-08	-4.440654e+01	-1.407290e+03
