# Temperatura_=_58.96
# Concentracion g/m^3_=_41000.0
# C_Vs_to_Am_M_A/Vsm_=_65563218390.804596
# pendiente_HvsI_1/m_=_3716.3
# ordenada_HvsI_A/m_=_1297.0
# frecuencia_Hz_=_302502.2951435515

Tiempo_(s)	Campo_(V.s)	Magnetizacion_(V.s)	Campo_(kA/m)	Magnetizacion_(A/m)
0.000000e+00	-8.015174e-06	-2.357823e-08	-5.685134e+01	-1.544261e+03
1.000000e-08	-8.010568e-06	-2.357046e-08	-5.681868e+01	-1.543465e+03
2.000000e-08	-8.003350e-06	-2.355871e-08	-5.676748e+01	-1.542291e+03
3.000000e-08	-7.993432e-06	-2.354769e-08	-5.669713e+01	-1.540979e+03
4.000000e-08	-7.980655e-06	-2.353633e-08	-5.660650e+01	-1.539781e+03
5.000000e-08	-7.964919e-06	-2.352328e-08	-5.649489e+01	-1.538881e+03
6.000000e-08	-7.946559e-06	-2.350836e-08	-5.636466e+01	-1.538339e+03
7.000000e-08	-7.925924e-06	-2.349667e-08	-5.621830e+01	-1.538071e+03
8.000000e-08	-7.902652e-06	-2.352077e-08	-5.605323e+01	-1.537881e+03
9.000000e-08	-7.876229e-06	-2.350935e-08	-5.586581e+01	-1.537521e+03
1.000000e-07	-7.846647e-06	-2.346230e-08	-5.565599e+01	-1.536773e+03
1.100000e-07	-7.814186e-06	-2.343355e-08	-5.542574e+01	-1.535523e+03
1.200000e-07	-7.778908e-06	-2.341228e-08	-5.517552e+01	-1.533790e+03
1.300000e-07	-7.741110e-06	-2.337483e-08	-5.490742e+01	-1.531729e+03
1.400000e-07	-7.701164e-06	-2.331709e-08	-5.462409e+01	-1.529576e+03
1.500000e-07	-7.658930e-06	-2.333486e-08	-5.432452e+01	-1.527577e+03
1.600000e-07	-7.614089e-06	-2.330552e-08	-5.400646e+01	-1.525903e+03
1.700000e-07	-7.566529e-06	-2.324214e-08	-5.366912e+01	-1.524598e+03
1.800000e-07	-7.516054e-06	-2.325517e-08	-5.331111e+01	-1.523556e+03
1.900000e-07	-7.462600e-06	-2.321273e-08	-5.293196e+01	-1.522557e+03
2.000000e-07	-7.406382e-06	-2.319103e-08	-5.253321e+01	-1.521325e+03
2.100000e-07	-7.347414e-06	-2.316972e-08	-5.211495e+01	-1.519617e+03
2.200000e-07	-7.285780e-06	-2.311014e-08	-5.167778e+01	-1.517296e+03
2.300000e-07	-7.221512e-06	-2.307386e-08	-5.122193e+01	-1.514373e+03
2.400000e-07	-7.154476e-06	-2.301416e-08	-5.074645e+01	-1.511000e+03
2.500000e-07	-7.084726e-06	-2.298426e-08	-5.025171e+01	-1.507428e+03
2.600000e-07	-7.012149e-06	-2.293738e-08	-4.973693e+01	-1.503925e+03
2.700000e-07	-6.936773e-06	-2.289309e-08	-4.920229e+01	-1.500690e+03
2.800000e-07	-6.858713e-06	-2.283616e-08	-4.864861e+01	-1.497793e+03
2.900000e-07	-6.777818e-06	-2.277054e-08	-4.807482e+01	-1.495153e+03
3.000000e-07	-6.694431e-06	-2.272821e-08	-4.748336e+01	-1.492560e+03
3.100000e-07	-6.608865e-06	-2.267042e-08	-4.687645e+01	-1.489742e+03
3.200000e-07	-6.520955e-06	-2.263072e-08	-4.625290e+01	-1.486453e+03
3.300000e-07	-6.430643e-06	-2.256671e-08	-4.561232e+01	-1.482546e+03
3.400000e-07	-6.338040e-06	-2.250263e-08	-4.495550e+01	-1.478027e+03
3.500000e-07	-6.243174e-06	-2.243472e-08	-4.428261e+01	-1.473046e+03
3.600000e-07	-6.145880e-06	-2.236576e-08	-4.359251e+01	-1.467855e+03
3.700000e-07	-6.046311e-06	-2.229994e-08	-4.288627e+01	-1.462723e+03
3.800000e-07	-5.944691e-06	-2.223155e-08	-4.216548e+01	-1.457849e+03
3.900000e-07	-5.840949e-06	-2.216549e-08	-4.142964e+01	-1.453296e+03
4.000000e-07	-5.735148e-06	-2.208107e-08	-4.067920e+01	-1.448962e+03
4.100000e-07	-5.627374e-06	-2.199980e-08	-3.991476e+01	-1.444615e+03
4.200000e-07	-5.517606e-06	-2.190880e-08	-3.913619e+01	-1.439954e+03
4.300000e-07	-5.405826e-06	-2.181969e-08	-3.834334e+01	-1.434710e+03
4.400000e-07	-5.291938e-06	-2.172706e-08	-3.753553e+01	-1.428728e+03
4.500000e-07	-5.176029e-06	-2.163668e-08	-3.671339e+01	-1.422018e+03
4.600000e-07	-5.058270e-06	-2.154126e-08	-3.587813e+01	-1.414753e+03
4.700000e-07	-4.938662e-06	-2.143919e-08	-3.502975e+01	-1.407218e+03
4.800000e-07	-4.817111e-06	-2.133531e-08	-3.416760e+01	-1.399712e+03
4.900000e-07	-4.693802e-06	-2.122807e-08	-3.329297e+01	-1.392452e+03
5.000000e-07	-4.568852e-06	-2.111661e-08	-3.240670e+01	-1.385492e+03
5.100000e-07	-4.442292e-06	-2.099320e-08	-3.150902e+01	-1.378701e+03
5.200000e-07	-4.314122e-06	-2.086571e-08	-3.059991e+01	-1.371787e+03
5.300000e-07	-4.184303e-06	-2.073114e-08	-2.967911e+01	-1.364388e+03
5.400000e-07	-4.052988e-06	-2.059554e-08	-2.874770e+01	-1.356178e+03
5.500000e-07	-3.920105e-06	-2.045554e-08	-2.780517e+01	-1.346969e+03
5.600000e-07	-3.785757e-06	-2.031421e-08	-2.685224e+01	-1.336779e+03
5.700000e-07	-3.650033e-06	-2.016503e-08	-2.588955e+01	-1.325820e+03
5.800000e-07	-3.512786e-06	-2.000840e-08	-2.491607e+01	-1.314437e+03
5.900000e-07	-3.374062e-06	-1.984585e-08	-2.393210e+01	-1.302994e+03
6.000000e-07	-3.233996e-06	-1.967447e-08	-2.293862e+01	-1.291744e+03
6.100000e-07	-3.092573e-06	-1.949480e-08	-2.193551e+01	-1.280732e+03
6.200000e-07	-2.949808e-06	-1.930338e-08	-2.092289e+01	-1.269760e+03
6.300000e-07	-2.805869e-06	-1.910625e-08	-1.990193e+01	-1.258427e+03
6.400000e-07	-2.660951e-06	-1.889996e-08	-1.887403e+01	-1.246236e+03
6.500000e-07	-2.515202e-06	-1.868335e-08	-1.784024e+01	-1.232738e+03
6.600000e-07	-2.368594e-06	-1.845460e-08	-1.680035e+01	-1.217672e+03
6.700000e-07	-2.221197e-06	-1.821624e-08	-1.575487e+01	-1.201049e+03
6.800000e-07	-2.073073e-06	-1.796799e-08	-1.470423e+01	-1.183147e+03
6.900000e-07	-1.924225e-06	-1.770606e-08	-1.364846e+01	-1.164420e+03
7.000000e-07	-1.774782e-06	-1.742876e-08	-1.258847e+01	-1.145341e+03
7.100000e-07	-1.624786e-06	-1.713259e-08	-1.152455e+01	-1.126213e+03
7.200000e-07	-1.474232e-06	-1.682146e-08	-1.045668e+01	-1.107028e+03
7.300000e-07	-1.323167e-06	-1.649176e-08	-9.385175e+00	-1.087403e+03
7.400000e-07	-1.171599e-06	-1.614272e-08	-8.310112e+00	-1.066634e+03
7.500000e-07	-1.019590e-06	-1.577183e-08	-7.231915e+00	-1.043851e+03
7.600000e-07	-8.672419e-07	-1.537551e-08	-6.151316e+00	-1.018247e+03
7.700000e-07	-7.145873e-07	-1.494733e-08	-5.068542e+00	-9.892918e+02
7.800000e-07	-5.616833e-07	-1.448172e-08	-3.984000e+00	-9.568701e+02
7.900000e-07	-4.085632e-07	-1.397725e-08	-2.897925e+00	-9.212831e+02
8.000000e-07	-2.552852e-07	-1.342957e-08	-1.810729e+00	-8.830813e+02
8.100000e-07	-1.019019e-07	-1.283169e-08	-7.227868e-01	-8.427597e+02
8.200000e-07	5.158929e-08	-1.217084e-08	3.659210e-01	-8.003817e+02
8.300000e-07	2.051086e-07	-1.143694e-08	1.454828e+00	-7.552363e+02
8.400000e-07	3.585061e-07	-1.061590e-08	2.542871e+00	-7.056374e+02
8.500000e-07	5.118205e-07	-9.694575e-09	3.630324e+00	-6.489533e+02
8.600000e-07	6.650514e-07	-8.649534e-09	4.717186e+00	-5.819050e+02
8.700000e-07	8.180603e-07	-7.441373e-09	5.802473e+00	-5.011070e+02
8.800000e-07	9.707817e-07	-6.023692e-09	6.885721e+00	-4.037606e+02
8.900000e-07	1.123132e-06	-4.334396e-09	7.966334e+00	-2.883604e+02
9.000000e-07	1.275056e-06	-2.314385e-09	9.043924e+00	-1.552570e+02
9.100000e-07	1.426572e-06	-5.942079e-12	1.011862e+01	-6.938452e+00
9.200000e-07	1.577609e-06	2.429239e-09	1.118992e+01	1.520560e+02
9.300000e-07	1.728060e-06	4.880535e-09	1.225707e+01	3.155989e+02
9.400000e-07	1.877887e-06	7.327547e-09	1.331978e+01	4.767437e+02
9.500000e-07	2.027028e-06	9.705016e-09	1.437764e+01	6.286599e+02
9.600000e-07	2.175372e-06	1.182662e-08	1.542984e+01	7.655590e+02
9.700000e-07	2.322890e-06	1.355416e-08	1.647618e+01	8.834335e+02
9.800000e-07	2.469560e-06	1.491368e-08	1.751650e+01	9.804740e+02
9.900000e-07	2.615275e-06	1.598398e-08	1.855006e+01	1.057099e+03
1.000000e-06	2.760029e-06	1.683232e-08	1.957679e+01	1.115612e+03
1.010000e-06	2.903753e-06	1.751483e-08	2.059621e+01	1.159578e+03
1.020000e-06	3.046351e-06	1.807436e-08	2.160766e+01	1.193070e+03
1.030000e-06	3.187754e-06	1.854159e-08	2.261063e+01	1.219931e+03
1.040000e-06	3.327886e-06	1.893998e-08	2.360458e+01	1.243216e+03
1.050000e-06	3.466715e-06	1.928460e-08	2.458928e+01	1.264887e+03
1.060000e-06	3.604188e-06	1.958460e-08	2.556438e+01	1.285792e+03
1.070000e-06	3.740263e-06	1.984979e-08	2.652955e+01	1.305892e+03
1.080000e-06	3.874945e-06	2.009000e-08	2.748485e+01	1.324632e+03
1.090000e-06	4.008210e-06	2.031322e-08	2.843009e+01	1.341348e+03
1.100000e-06	4.140057e-06	2.051823e-08	2.936528e+01	1.355607e+03
1.110000e-06	4.270461e-06	2.070467e-08	3.029023e+01	1.367392e+03
1.120000e-06	4.399368e-06	2.087556e-08	3.120456e+01	1.377121e+03
1.130000e-06	4.526765e-06	2.103270e-08	3.210819e+01	1.385514e+03
1.140000e-06	4.652617e-06	2.118048e-08	3.300085e+01	1.393377e+03
1.150000e-06	4.776899e-06	2.132028e-08	3.388238e+01	1.401371e+03
1.160000e-06	4.899509e-06	2.145315e-08	3.475204e+01	1.409845e+03
1.170000e-06	5.020327e-06	2.157811e-08	3.560900e+01	1.418778e+03
1.180000e-06	5.139305e-06	2.169528e-08	3.645291e+01	1.427834e+03
1.190000e-06	5.256373e-06	2.180478e-08	3.728327e+01	1.436508e+03
1.200000e-06	5.371441e-06	2.190776e-08	3.809944e+01	1.444311e+03
1.210000e-06	5.484404e-06	2.200185e-08	3.890069e+01	1.450929e+03
1.220000e-06	5.595315e-06	2.208984e-08	3.968737e+01	1.456326e+03
1.230000e-06	5.704294e-06	2.217428e-08	4.046036e+01	1.460745e+03
1.240000e-06	5.811234e-06	2.225581e-08	4.121888e+01	1.464622e+03
1.250000e-06	5.916035e-06	2.233275e-08	4.196223e+01	1.468452e+03
1.260000e-06	6.018723e-06	2.240580e-08	4.269059e+01	1.472637e+03
1.270000e-06	6.119213e-06	2.247778e-08	4.340336e+01	1.477372e+03
1.280000e-06	6.217357e-06	2.254749e-08	4.409949e+01	1.482604e+03
1.290000e-06	6.313159e-06	2.261426e-08	4.477901e+01	1.488064e+03
1.300000e-06	6.406658e-06	2.267670e-08	4.544220e+01	1.493366e+03
1.310000e-06	6.497861e-06	2.273488e-08	4.608910e+01	1.498133e+03
1.320000e-06	6.586738e-06	2.278992e-08	4.671950e+01	1.502123e+03
1.330000e-06	6.673262e-06	2.284455e-08	4.733321e+01	1.505289e+03
1.340000e-06	6.757457e-06	2.289816e-08	4.793040e+01	1.507796e+03
1.350000e-06	6.839251e-06	2.294953e-08	4.851056e+01	1.509956e+03
1.360000e-06	6.918554e-06	2.299845e-08	4.907306e+01	1.512123e+03
1.370000e-06	6.995316e-06	2.304498e-08	4.961753e+01	1.514585e+03
1.380000e-06	7.069418e-06	2.308877e-08	5.014314e+01	1.517475e+03
1.390000e-06	7.140923e-06	2.312924e-08	5.065032e+01	1.520735e+03
1.400000e-06	7.209972e-06	2.316714e-08	5.114008e+01	1.524142e+03
1.410000e-06	7.276418e-06	2.320281e-08	5.161137e+01	1.527384e+03
1.420000e-06	7.340216e-06	2.323578e-08	5.206389e+01	1.530164e+03
1.430000e-06	7.401571e-06	2.326592e-08	5.249908e+01	1.532292e+03
1.440000e-06	7.460384e-06	2.329580e-08	5.291624e+01	1.533746e+03
1.450000e-06	7.516499e-06	2.332498e-08	5.331426e+01	1.534676e+03
1.460000e-06	7.569794e-06	2.335199e-08	5.369228e+01	1.535352e+03
1.470000e-06	7.620026e-06	2.337706e-08	5.404857e+01	1.536080e+03
1.480000e-06	7.667306e-06	2.340014e-08	5.438393e+01	1.537104e+03
1.490000e-06	7.711892e-06	2.342099e-08	5.470018e+01	1.538536e+03
1.500000e-06	7.753712e-06	2.343944e-08	5.499681e+01	1.540317e+03
1.510000e-06	7.792714e-06	2.345535e-08	5.527344e+01	1.542248e+03
1.520000e-06	7.829027e-06	2.347028e-08	5.553101e+01	1.544050e+03
1.530000e-06	7.862577e-06	2.348460e-08	5.576898e+01	1.545456e+03
1.540000e-06	7.893311e-06	2.349715e-08	5.598698e+01	1.546296e+03
1.550000e-06	7.921289e-06	2.350950e-08	5.618543e+01	1.546547e+03
1.560000e-06	7.946391e-06	2.352196e-08	5.636347e+01	1.546344e+03
1.570000e-06	7.968624e-06	2.353136e-08	5.652117e+01	1.545930e+03
1.580000e-06	7.988048e-06	2.353833e-08	5.665894e+01	1.545585e+03
1.590000e-06	8.004543e-06	2.354403e-08	5.677594e+01	1.545534e+03
1.600000e-06	8.018057e-06	2.354952e-08	5.687180e+01	1.545880e+03
1.610000e-06	8.028452e-06	2.355494e-08	5.694553e+01	1.546573e+03
1.620000e-06	8.035771e-06	2.355765e-08	5.699744e+01	1.547428e+03
1.630000e-06	8.040303e-06	2.355880e-08	5.702958e+01	1.548187e+03
1.640000e-06	8.041983e-06	2.356084e-08	5.704150e+01	1.548594e+03
1.650000e-06	8.040786e-06	2.355686e-08	5.703301e+01	1.548485e+03
1.660000e-06	8.036994e-06	2.355280e-08	5.700612e+01	1.547828e+03
1.670000e-06	8.030539e-06	2.354917e-08	5.696033e+01	1.546739e+03
1.680000e-06	8.021350e-06	2.354372e-08	5.689515e+01	1.545439e+03
1.690000e-06	8.009348e-06	2.353702e-08	5.681002e+01	1.544184e+03
1.700000e-06	7.994497e-06	2.353038e-08	5.670469e+01	1.543186e+03
1.710000e-06	7.977152e-06	2.352487e-08	5.658166e+01	1.542543e+03
1.720000e-06	7.957563e-06	2.350244e-08	5.644271e+01	1.542212e+03
1.730000e-06	7.935347e-06	2.344507e-08	5.628514e+01	1.542023e+03
1.740000e-06	7.909820e-06	2.344269e-08	5.610408e+01	1.541735e+03
1.750000e-06	7.880658e-06	2.344885e-08	5.589723e+01	1.541115e+03
1.760000e-06	7.848153e-06	2.342494e-08	5.566667e+01	1.540011e+03
1.770000e-06	7.813127e-06	2.340964e-08	5.541823e+01	1.538404e+03
1.780000e-06	7.775835e-06	2.343949e-08	5.515372e+01	1.536414e+03
1.790000e-06	7.736364e-06	2.339729e-08	5.487376e+01	1.534261e+03
1.800000e-06	7.694834e-06	2.338296e-08	5.457918e+01	1.532195e+03
1.810000e-06	7.650725e-06	2.341983e-08	5.426632e+01	1.530416e+03
1.820000e-06	7.603877e-06	2.333546e-08	5.393403e+01	1.529008e+03
1.830000e-06	7.554331e-06	2.334848e-08	5.358260e+01	1.527909e+03
1.840000e-06	7.501712e-06	2.329187e-08	5.320938e+01	1.526924e+03
1.850000e-06	7.446148e-06	2.325380e-08	5.281526e+01	1.525785e+03
1.860000e-06	7.387953e-06	2.326612e-08	5.240249e+01	1.524232e+03
1.870000e-06	7.327164e-06	2.319699e-08	5.197132e+01	1.522091e+03
1.880000e-06	7.263640e-06	2.321455e-08	5.152074e+01	1.519329e+03
1.890000e-06	7.197262e-06	2.315244e-08	5.104992e+01	1.516061e+03
1.900000e-06	7.128077e-06	2.310241e-08	5.055920e+01	1.512517e+03
1.910000e-06	7.056067e-06	2.306905e-08	5.004844e+01	1.508968e+03
1.920000e-06	6.981346e-06	2.301254e-08	4.951844e+01	1.505641e+03
1.930000e-06	6.903898e-06	2.300126e-08	4.896911e+01	1.502649e+03
1.940000e-06	6.823788e-06	2.293447e-08	4.840089e+01	1.499952e+03
1.950000e-06	6.741211e-06	2.289513e-08	4.781517e+01	1.497371e+03
1.960000e-06	6.656060e-06	2.282024e-08	4.721120e+01	1.494644e+03
1.970000e-06	6.568398e-06	2.275920e-08	4.658942e+01	1.491508e+03
1.980000e-06	6.478427e-06	2.271406e-08	4.595125e+01	1.487784e+03
1.990000e-06	6.386190e-06	2.265566e-08	4.529702e+01	1.483429e+03
2.000000e-06	6.291625e-06	2.261074e-08	4.462627e+01	1.478556e+03
2.010000e-06	6.194796e-06	2.253185e-08	4.393947e+01	1.473396e+03
2.020000e-06	6.095868e-06	2.245918e-08	4.323778e+01	1.468221e+03
2.030000e-06	5.994756e-06	2.237314e-08	4.252059e+01	1.463259e+03
2.040000e-06	5.891420e-06	2.230760e-08	4.178763e+01	1.458616e+03
2.050000e-06	5.785998e-06	2.223504e-08	4.103988e+01	1.454238e+03
2.060000e-06	5.678675e-06	2.216419e-08	4.027864e+01	1.449923e+03
2.070000e-06	5.569395e-06	2.208915e-08	3.950352e+01	1.445381e+03
2.080000e-06	5.458057e-06	2.200266e-08	3.871381e+01	1.440325e+03
2.090000e-06	5.344676e-06	2.191216e-08	3.790960e+01	1.434559e+03
2.100000e-06	5.229314e-06	2.181445e-08	3.709134e+01	1.428045e+03
2.110000e-06	5.111881e-06	2.172415e-08	3.625839e+01	1.420912e+03
2.120000e-06	4.992453e-06	2.162551e-08	3.541129e+01	1.413422e+03
2.130000e-06	4.871264e-06	2.152613e-08	3.455171e+01	1.405879e+03
2.140000e-06	4.748333e-06	2.141770e-08	3.367976e+01	1.398534e+03
2.150000e-06	4.623572e-06	2.131055e-08	3.279483e+01	1.391493e+03
2.160000e-06	4.497079e-06	2.119764e-08	3.189762e+01	1.384676e+03
2.170000e-06	4.369047e-06	2.108252e-08	3.098950e+01	1.377832e+03
2.180000e-06	4.239450e-06	2.096051e-08	3.007027e+01	1.370608e+03
2.190000e-06	4.108366e-06	2.083398e-08	2.914050e+01	1.362655e+03
2.200000e-06	3.975711e-06	2.069762e-08	2.819957e+01	1.353738e+03
2.210000e-06	3.841413e-06	2.055300e-08	2.724701e+01	1.343814e+03
2.220000e-06	3.705680e-06	2.040434e-08	2.628426e+01	1.333042e+03
2.230000e-06	3.568689e-06	2.025109e-08	2.531258e+01	1.321741e+03
2.240000e-06	3.430346e-06	2.009613e-08	2.433132e+01	1.310281e+03
2.250000e-06	3.290577e-06	1.993174e-08	2.333995e+01	1.298959e+03
2.260000e-06	3.149428e-06	1.975962e-08	2.233878e+01	1.287888e+03
2.270000e-06	3.007010e-06	1.957789e-08	2.132861e+01	1.276937e+03
2.280000e-06	2.863530e-06	1.938809e-08	2.031092e+01	1.265755e+03
2.290000e-06	2.719058e-06	1.918913e-08	1.928618e+01	1.253859e+03
2.300000e-06	2.573602e-06	1.897990e-08	1.825447e+01	1.240770e+03
2.310000e-06	2.427294e-06	1.876051e-08	1.721671e+01	1.226163e+03
2.320000e-06	2.280237e-06	1.853152e-08	1.617364e+01	1.209967e+03
2.330000e-06	2.132369e-06	1.828958e-08	1.512482e+01	1.192388e+03
2.340000e-06	1.983716e-06	1.803386e-08	1.407043e+01	1.173845e+03
2.350000e-06	1.834374e-06	1.776399e-08	1.301115e+01	1.154823e+03
2.360000e-06	1.684365e-06	1.747923e-08	1.194714e+01	1.135693e+03
2.370000e-06	1.533797e-06	1.717672e-08	1.087917e+01	1.116546e+03
2.380000e-06	1.382747e-06	1.685574e-08	9.807776e+00	1.097106e+03
2.390000e-06	1.231280e-06	1.651381e-08	8.733424e+00	1.076748e+03
2.400000e-06	1.079456e-06	1.614782e-08	7.656544e+00	1.054629e+03
2.410000e-06	9.273324e-07	1.575751e-08	6.577536e+00	1.029900e+03
2.420000e-06	7.749827e-07	1.533961e-08	5.496925e+00	1.001932e+03
2.430000e-06	6.223712e-07	1.489213e-08	4.414457e+00	9.704858e+02
2.440000e-06	4.695267e-07	1.440737e-08	3.330336e+00	9.357522e+02
2.450000e-06	3.164989e-07	1.387456e-08	2.244916e+00	8.982368e+02
2.460000e-06	1.633008e-07	1.328940e-08	1.158287e+00	8.584873e+02
2.470000e-06	9.962254e-09	1.264742e-08	7.066191e-02	8.167291e+02
2.480000e-06	-1.434068e-07	1.193909e-08	-1.017179e+00	7.725011e+02
2.490000e-06	-2.966842e-07	1.115156e-08	-2.104370e+00	7.244040e+02
2.500000e-06	-4.498392e-07	1.026972e-08	-3.190693e+00	6.700579e+02
2.510000e-06	-6.028529e-07	9.272413e-09	-4.276014e+00	6.063227e+02
2.520000e-06	-7.556823e-07	8.126757e-09	-5.360028e+00	5.297771e+02
2.530000e-06	-9.082556e-07	6.790322e-09	-6.442225e+00	4.373804e+02
2.540000e-06	-1.060531e-06	5.207081e-09	-7.522307e+00	3.271909e+02
2.550000e-06	-1.212522e-06	3.309654e-09	-8.600374e+00	1.989858e+02
2.560000e-06	-1.364161e-06	1.075108e-09	-9.675946e+00	5.463437e+01
2.570000e-06	-1.515333e-06	-1.376804e-09	-1.074821e+01	-1.018789e+02
2.580000e-06	-1.665904e-06	-3.889828e-09	-1.181620e+01	-2.648131e+02
2.590000e-06	-1.815854e-06	-6.408567e-09	-1.287979e+01	-4.273642e+02
2.600000e-06	-1.965150e-06	-8.888611e-09	-1.393874e+01	-5.825705e+02
2.610000e-06	-2.113667e-06	-1.116244e-08	-1.499216e+01	-7.242590e+02
2.620000e-06	-2.261349e-06	-1.305489e-08	-1.603967e+01	-8.478549e+02
2.630000e-06	-2.408131e-06	-1.455271e-08	-1.708079e+01	-9.509002e+02
2.640000e-06	-2.554033e-06	-1.572887e-08	-1.811567e+01	-1.033197e+03
2.650000e-06	-2.699039e-06	-1.666145e-08	-1.914419e+01	-1.096563e+03
2.660000e-06	-2.843012e-06	-1.741071e-08	-2.016539e+01	-1.144279e+03
2.670000e-06	-2.985843e-06	-1.802022e-08	-2.117848e+01	-1.180350e+03
2.680000e-06	-3.127492e-06	-1.852149e-08	-2.218319e+01	-1.208752e+03
2.690000e-06	-3.267896e-06	-1.894163e-08	-2.317907e+01	-1.232809e+03
2.700000e-06	-3.407001e-06	-1.930270e-08	-2.416574e+01	-1.254809e+03
2.710000e-06	-3.544771e-06	-1.961860e-08	-2.514293e+01	-1.275905e+03
2.720000e-06	-3.681195e-06	-1.989939e-08	-2.611059e+01	-1.296278e+03
2.730000e-06	-3.816324e-06	-2.015156e-08	-2.706905e+01	-1.315478e+03
2.740000e-06	-3.950123e-06	-2.038120e-08	-2.801808e+01	-1.332833e+03
2.750000e-06	-4.082472e-06	-2.059092e-08	-2.895683e+01	-1.347817e+03
2.760000e-06	-4.213369e-06	-2.078103e-08	-2.988528e+01	-1.360285e+03
2.770000e-06	-4.342822e-06	-2.095508e-08	-3.080348e+01	-1.370538e+03
2.780000e-06	-4.470784e-06	-2.111756e-08	-3.171111e+01	-1.379231e+03
2.790000e-06	-4.597221e-06	-2.126992e-08	-3.260793e+01	-1.387169e+03
2.800000e-06	-4.722040e-06	-2.141231e-08	-3.349326e+01	-1.395075e+03
2.810000e-06	-4.845208e-06	-2.154414e-08	-3.436689e+01	-1.403398e+03
2.820000e-06	-4.966646e-06	-2.166520e-08	-3.522825e+01	-1.412224e+03
2.830000e-06	-5.086208e-06	-2.177724e-08	-3.607629e+01	-1.421293e+03
2.840000e-06	-5.203839e-06	-2.188395e-08	-3.691065e+01	-1.430132e+03
2.850000e-06	-5.319365e-06	-2.198664e-08	-3.773007e+01	-1.438227e+03
2.860000e-06	-5.432694e-06	-2.208398e-08	-3.853391e+01	-1.445201e+03
2.870000e-06	-5.543838e-06	-2.217412e-08	-3.932225e+01	-1.450935e+03
2.880000e-06	-5.652891e-06	-2.225676e-08	-4.009576e+01	-1.455596e+03
2.890000e-06	-5.760082e-06	-2.233580e-08	-4.085606e+01	-1.459578e+03
2.900000e-06	-5.865331e-06	-2.241462e-08	-4.160259e+01	-1.463375e+03
2.910000e-06	-5.968395e-06	-2.249161e-08	-4.233361e+01	-1.467429e+03
2.920000e-06	-6.069163e-06	-2.256505e-08	-4.304836e+01	-1.472002e+03
2.930000e-06	-6.167750e-06	-2.263514e-08	-4.374763e+01	-1.477113e+03
2.940000e-06	-6.264173e-06	-2.270133e-08	-4.443156e+01	-1.482546e+03
