# Temperatura_=_54.92
# Concentracion g/m^3_=_41000.0
# C_Vs_to_Am_M_A/Vsm_=_65563218390.804596
# pendiente_HvsI_1/m_=_3716.3
# ordenada_HvsI_A/m_=_1297.0
# frecuencia_Hz_=_302499.3981493877

Tiempo_(s)	Campo_(V.s)	Magnetizacion_(V.s)	Campo_(kA/m)	Magnetizacion_(A/m)
0.000000e+00	-7.973897e-06	-2.584585e-08	-5.685440e+01	-1.692226e+03
1.000000e-08	-7.969380e-06	-2.584022e-08	-5.682219e+01	-1.691851e+03
2.000000e-08	-7.962409e-06	-2.582877e-08	-5.677248e+01	-1.691092e+03
3.000000e-08	-7.952782e-06	-2.581835e-08	-5.670385e+01	-1.690048e+03
4.000000e-08	-7.940275e-06	-2.580593e-08	-5.661467e+01	-1.688872e+03
5.000000e-08	-7.924847e-06	-2.579018e-08	-5.650467e+01	-1.687725e+03
6.000000e-08	-7.906702e-06	-2.577199e-08	-5.637529e+01	-1.686724e+03
7.000000e-08	-7.886265e-06	-2.575111e-08	-5.622958e+01	-1.685911e+03
8.000000e-08	-7.863298e-06	-2.576569e-08	-5.606582e+01	-1.685238e+03
9.000000e-08	-7.837167e-06	-2.578168e-08	-5.587950e+01	-1.684590e+03
1.000000e-07	-7.807846e-06	-2.573205e-08	-5.567044e+01	-1.683818e+03
1.100000e-07	-7.775699e-06	-2.568848e-08	-5.544124e+01	-1.682796e+03
1.200000e-07	-7.740810e-06	-2.566952e-08	-5.519247e+01	-1.681454e+03
1.300000e-07	-7.703392e-06	-2.563069e-08	-5.492568e+01	-1.679803e+03
1.400000e-07	-7.663740e-06	-2.555746e-08	-5.464295e+01	-1.677931e+03
1.500000e-07	-7.621819e-06	-2.555859e-08	-5.434406e+01	-1.675968e+03
1.600000e-07	-7.577338e-06	-2.560579e-08	-5.402690e+01	-1.674040e+03
1.700000e-07	-7.530148e-06	-2.549589e-08	-5.369044e+01	-1.672228e+03
1.800000e-07	-7.480164e-06	-2.549803e-08	-5.333405e+01	-1.670537e+03
1.900000e-07	-7.427138e-06	-2.548207e-08	-5.295597e+01	-1.668885e+03
2.000000e-07	-7.371255e-06	-2.538830e-08	-5.255752e+01	-1.667135e+03
2.100000e-07	-7.312720e-06	-2.537839e-08	-5.214016e+01	-1.665127e+03
2.200000e-07	-7.251518e-06	-2.531425e-08	-5.170379e+01	-1.662738e+03
2.300000e-07	-7.187670e-06	-2.529580e-08	-5.124854e+01	-1.659914e+03
2.400000e-07	-7.121092e-06	-2.525219e-08	-5.077384e+01	-1.656693e+03
2.500000e-07	-7.051844e-06	-2.520508e-08	-5.028010e+01	-1.653196e+03
2.600000e-07	-6.979870e-06	-2.515449e-08	-4.976692e+01	-1.649583e+03
2.700000e-07	-6.905040e-06	-2.510089e-08	-4.923338e+01	-1.646013e+03
2.800000e-07	-6.827453e-06	-2.505320e-08	-4.868017e+01	-1.642582e+03
2.900000e-07	-6.747195e-06	-2.497991e-08	-4.810793e+01	-1.639299e+03
3.000000e-07	-6.664379e-06	-2.493519e-08	-4.751745e+01	-1.636077e+03
3.100000e-07	-6.579278e-06	-2.487797e-08	-4.691067e+01	-1.632759e+03
3.200000e-07	-6.491957e-06	-2.481059e-08	-4.628807e+01	-1.629164e+03
3.300000e-07	-6.402264e-06	-2.474552e-08	-4.564855e+01	-1.625146e+03
3.400000e-07	-6.310207e-06	-2.466659e-08	-4.499218e+01	-1.620637e+03
3.500000e-07	-6.215934e-06	-2.460208e-08	-4.432000e+01	-1.615671e+03
3.600000e-07	-6.119397e-06	-2.453017e-08	-4.363169e+01	-1.610372e+03
3.700000e-07	-6.020553e-06	-2.444993e-08	-4.292693e+01	-1.604914e+03
3.800000e-07	-5.919580e-06	-2.437333e-08	-4.220698e+01	-1.599468e+03
3.900000e-07	-5.816516e-06	-2.429501e-08	-4.147213e+01	-1.594142e+03
4.000000e-07	-5.711342e-06	-2.420897e-08	-4.072224e+01	-1.588943e+03
4.100000e-07	-5.604164e-06	-2.411707e-08	-3.995805e+01	-1.583771e+03
4.200000e-07	-5.495067e-06	-2.403229e-08	-3.918018e+01	-1.578446e+03
4.300000e-07	-5.383981e-06	-2.393637e-08	-3.838813e+01	-1.572762e+03
4.400000e-07	-5.270808e-06	-2.383560e-08	-3.758120e+01	-1.566547e+03
4.500000e-07	-5.155626e-06	-2.373244e-08	-3.675994e+01	-1.559718e+03
4.600000e-07	-5.038515e-06	-2.362371e-08	-3.592494e+01	-1.552306e+03
4.700000e-07	-4.919574e-06	-2.351183e-08	-3.507688e+01	-1.544448e+03
4.800000e-07	-4.798832e-06	-2.339667e-08	-3.421598e+01	-1.536339e+03
4.900000e-07	-4.676265e-06	-2.328082e-08	-3.334207e+01	-1.528169e+03
5.000000e-07	-4.551988e-06	-2.315495e-08	-3.245597e+01	-1.520055e+03
5.100000e-07	-4.426037e-06	-2.302122e-08	-3.155793e+01	-1.512001e+03
5.200000e-07	-4.298510e-06	-2.288111e-08	-3.064865e+01	-1.503884e+03
5.300000e-07	-4.169412e-06	-2.273810e-08	-2.972817e+01	-1.495486e+03
5.400000e-07	-4.038787e-06	-2.259256e-08	-2.879681e+01	-1.486555e+03
5.500000e-07	-3.906649e-06	-2.244249e-08	-2.785466e+01	-1.476882e+03
5.600000e-07	-3.772996e-06	-2.228668e-08	-2.690170e+01	-1.466364e+03
5.700000e-07	-3.637921e-06	-2.211860e-08	-2.593861e+01	-1.455031e+03
5.800000e-07	-3.501450e-06	-2.194219e-08	-2.496556e+01	-1.443039e+03
5.900000e-07	-3.363583e-06	-2.175825e-08	-2.398256e+01	-1.430616e+03
6.000000e-07	-3.224361e-06	-2.156862e-08	-2.298990e+01	-1.417976e+03
6.100000e-07	-3.083783e-06	-2.136952e-08	-2.198757e+01	-1.405246e+03
6.200000e-07	-2.941897e-06	-2.116304e-08	-2.097592e+01	-1.392402e+03
6.300000e-07	-2.798792e-06	-2.094925e-08	-1.995557e+01	-1.379262e+03
6.400000e-07	-2.654628e-06	-2.072477e-08	-1.892766e+01	-1.365525e+03
6.500000e-07	-2.509641e-06	-2.048967e-08	-1.789390e+01	-1.350848e+03
6.600000e-07	-2.363693e-06	-2.024250e-08	-1.685328e+01	-1.334948e+03
6.700000e-07	-2.216867e-06	-1.998570e-08	-1.580641e+01	-1.317678e+03
6.800000e-07	-2.069421e-06	-1.971384e-08	-1.475510e+01	-1.299071e+03
6.900000e-07	-1.921342e-06	-1.942483e-08	-1.369929e+01	-1.279318e+03
7.000000e-07	-1.772633e-06	-1.911731e-08	-1.263899e+01	-1.258691e+03
7.100000e-07	-1.623418e-06	-1.879225e-08	-1.157507e+01	-1.237427e+03
7.200000e-07	-1.473661e-06	-1.845304e-08	-1.050730e+01	-1.215615e+03
7.300000e-07	-1.323260e-06	-1.809614e-08	-9.434926e+00	-1.193111e+03
7.400000e-07	-1.172409e-06	-1.771763e-08	-8.359350e+00	-1.169525e+03
7.500000e-07	-1.021281e-06	-1.731563e-08	-7.281797e+00	-1.144283e+03
7.600000e-07	-8.698338e-07	-1.688627e-08	-6.201970e+00	-1.116750e+03
7.700000e-07	-7.181016e-07	-1.642161e-08	-5.120110e+00	-1.086386e+03
7.800000e-07	-5.661847e-07	-1.592078e-08	-4.036933e+00	-1.052866e+03
7.900000e-07	-4.140521e-07	-1.538267e-08	-2.952218e+00	-1.016136e+03
8.000000e-07	-2.617246e-07	-1.480187e-08	-1.866113e+00	-9.763559e+02
8.100000e-07	-1.092980e-07	-1.416751e-08	-7.793016e-01	-9.337298e+02
8.200000e-07	4.321381e-08	-1.347129e-08	3.081172e-01	-8.882549e+02
8.300000e-07	1.957344e-07	-1.270484e-08	1.395599e+00	-8.394517e+02
8.400000e-07	3.481645e-07	-1.185406e-08	2.482435e+00	-7.861543e+02
8.500000e-07	5.004827e-07	-1.090648e-08	3.568474e+00	-7.264389e+02
8.600000e-07	6.527087e-07	-9.839884e-09	4.653855e+00	-6.577461e+02
8.700000e-07	8.047638e-07	-8.622742e-09	5.738018e+00	-5.772075e+02
8.800000e-07	9.565590e-07	-7.210654e-09	6.820327e+00	-4.821412e+02
8.900000e-07	1.108119e-06	-5.547884e-09	7.900957e+00	-3.706304e+02
9.000000e-07	1.259384e-06	-3.570891e-09	8.979490e+00	-2.420700e+02
9.100000e-07	1.410231e-06	-1.293112e-09	1.005504e+01	-9.756064e+01
9.200000e-07	1.560613e-06	1.134811e-09	1.112727e+01	5.995028e+01
9.300000e-07	1.710393e-06	3.587651e-09	1.219522e+01	2.258337e+02
9.400000e-07	1.859474e-06	6.039199e-09	1.325817e+01	3.942421e+02
9.500000e-07	2.007928e-06	8.486983e-09	1.431666e+01	5.587996e+02
9.600000e-07	2.155680e-06	1.089758e-08	1.537014e+01	7.134010e+02
9.700000e-07	2.302579e-06	1.310907e-08	1.641753e+01	8.529739e+02
9.800000e-07	2.448566e-06	1.494476e-08	1.745844e+01	9.740672e+02
9.900000e-07	2.593545e-06	1.639788e-08	1.849214e+01	1.075165e+03
1.000000e-06	2.737593e-06	1.754543e-08	1.951921e+01	1.156679e+03
1.010000e-06	2.880656e-06	1.846194e-08	2.053926e+01	1.220643e+03
1.020000e-06	3.022526e-06	1.920885e-08	2.155080e+01	1.270182e+03
1.030000e-06	3.163216e-06	1.982731e-08	2.255393e+01	1.308886e+03
1.040000e-06	3.302691e-06	2.034669e-08	2.354840e+01	1.340196e+03
1.050000e-06	3.440836e-06	2.078700e-08	2.453338e+01	1.366939e+03
1.060000e-06	3.577636e-06	2.116852e-08	2.550877e+01	1.391061e+03
1.070000e-06	3.713136e-06	2.150587e-08	2.647490e+01	1.413588e+03
1.080000e-06	3.847287e-06	2.180709e-08	2.743140e+01	1.434790e+03
1.090000e-06	3.980079e-06	2.207853e-08	2.837822e+01	1.454455e+03
1.100000e-06	4.111429e-06	2.232391e-08	2.931475e+01	1.472210e+03
1.110000e-06	4.241214e-06	2.254681e-08	3.024013e+01	1.487788e+03
1.120000e-06	4.369534e-06	2.275106e-08	3.115505e+01	1.501188e+03
1.130000e-06	4.496341e-06	2.293967e-08	3.205920e+01	1.512714e+03
1.140000e-06	4.621636e-06	2.311445e-08	3.295256e+01	1.522892e+03
1.150000e-06	4.745402e-06	2.327865e-08	3.383502e+01	1.532324e+03
1.160000e-06	4.867435e-06	2.343427e-08	3.470512e+01	1.541524e+03
1.170000e-06	4.987735e-06	2.358193e-08	3.556287e+01	1.550794e+03
1.180000e-06	5.106244e-06	2.371950e-08	3.640785e+01	1.560172e+03
1.190000e-06	5.222815e-06	2.384702e-08	3.723900e+01	1.569468e+03
1.200000e-06	5.337369e-06	2.396585e-08	3.805578e+01	1.578356e+03
1.210000e-06	5.449853e-06	2.407629e-08	3.885780e+01	1.586504e+03
1.220000e-06	5.560278e-06	2.418225e-08	3.964514e+01	1.593691e+03
1.230000e-06	5.668761e-06	2.428376e-08	4.041863e+01	1.599880e+03
1.240000e-06	5.775248e-06	2.437877e-08	4.117789e+01	1.605226e+03
1.250000e-06	5.879615e-06	2.446586e-08	4.192203e+01	1.610025e+03
1.260000e-06	5.981852e-06	2.454720e-08	4.265099e+01	1.614622e+03
1.270000e-06	6.081854e-06	2.462555e-08	4.336401e+01	1.619307e+03
1.280000e-06	6.179557e-06	2.470180e-08	4.406064e+01	1.624240e+03
1.290000e-06	6.274951e-06	2.477563e-08	4.474080e+01	1.629411e+03
1.300000e-06	6.368148e-06	2.484500e-08	4.540530e+01	1.634666e+03
1.310000e-06	6.459052e-06	2.490965e-08	4.605346e+01	1.639762e+03
1.320000e-06	6.547574e-06	2.497091e-08	4.668462e+01	1.644457e+03
1.330000e-06	6.633819e-06	2.503024e-08	4.729955e+01	1.648588e+03
1.340000e-06	6.717760e-06	2.508714e-08	4.789806e+01	1.652118e+03
1.350000e-06	6.799273e-06	2.514161e-08	4.847925e+01	1.655148e+03
1.360000e-06	6.878246e-06	2.519424e-08	4.904233e+01	1.657874e+03
1.370000e-06	6.954693e-06	2.524508e-08	4.958740e+01	1.660526e+03
1.380000e-06	7.028554e-06	2.529257e-08	5.011404e+01	1.663290e+03
1.390000e-06	7.099835e-06	2.533701e-08	5.062228e+01	1.666255e+03
1.400000e-06	7.168628e-06	2.538032e-08	5.111278e+01	1.669388e+03
1.410000e-06	7.234858e-06	2.542194e-08	5.158500e+01	1.672549e+03
1.420000e-06	7.298465e-06	2.545978e-08	5.203852e+01	1.675540e+03
1.430000e-06	7.359589e-06	2.549352e-08	5.247434e+01	1.678174e+03
1.440000e-06	7.418190e-06	2.552613e-08	5.289217e+01	1.680332e+03
1.450000e-06	7.474182e-06	2.555742e-08	5.329139e+01	1.682004e+03
1.460000e-06	7.527404e-06	2.558755e-08	5.367087e+01	1.683287e+03
1.470000e-06	7.577537e-06	2.561517e-08	5.402832e+01	1.684358e+03
1.480000e-06	7.624707e-06	2.564008e-08	5.436465e+01	1.685414e+03
1.490000e-06	7.669233e-06	2.566326e-08	5.468212e+01	1.686611e+03
1.500000e-06	7.711040e-06	2.568282e-08	5.498021e+01	1.688019e+03
1.510000e-06	7.750002e-06	2.570216e-08	5.525801e+01	1.689601e+03
1.520000e-06	7.786295e-06	2.572100e-08	5.551679e+01	1.691227e+03
1.530000e-06	7.819879e-06	2.573745e-08	5.575624e+01	1.692719e+03
1.540000e-06	7.850617e-06	2.575228e-08	5.597540e+01	1.693910e+03
1.550000e-06	7.878661e-06	2.576462e-08	5.617535e+01	1.694694e+03
1.560000e-06	7.903830e-06	2.577559e-08	5.635481e+01	1.695064e+03
1.570000e-06	7.926058e-06	2.578423e-08	5.651330e+01	1.695109e+03
1.580000e-06	7.945539e-06	2.579265e-08	5.665220e+01	1.694989e+03
1.590000e-06	7.962138e-06	2.580194e-08	5.677056e+01	1.694882e+03
1.600000e-06	7.975757e-06	2.580993e-08	5.686765e+01	1.694931e+03
1.610000e-06	7.986271e-06	2.581625e-08	5.694262e+01	1.695196e+03
1.620000e-06	7.993711e-06	2.582019e-08	5.699567e+01	1.695642e+03
1.630000e-06	7.998354e-06	2.582290e-08	5.702877e+01	1.696145e+03
1.640000e-06	8.000139e-06	2.582610e-08	5.704150e+01	1.696538e+03
1.650000e-06	7.999112e-06	2.582628e-08	5.703418e+01	1.696657e+03
1.660000e-06	7.995476e-06	2.582047e-08	5.700826e+01	1.696398e+03
1.670000e-06	7.989136e-06	2.581643e-08	5.696305e+01	1.695743e+03
1.680000e-06	7.980152e-06	2.580923e-08	5.689899e+01	1.694766e+03
1.690000e-06	7.968458e-06	2.579946e-08	5.681561e+01	1.693610e+03
1.700000e-06	7.953895e-06	2.579317e-08	5.671178e+01	1.692440e+03
1.710000e-06	7.936735e-06	2.579102e-08	5.658943e+01	1.691389e+03
1.720000e-06	7.917322e-06	2.578318e-08	5.645102e+01	1.690523e+03
1.730000e-06	7.895405e-06	2.571431e-08	5.629474e+01	1.689820e+03
1.740000e-06	7.870238e-06	2.568322e-08	5.611530e+01	1.689179e+03
1.750000e-06	7.841411e-06	2.570450e-08	5.590976e+01	1.688457e+03
1.760000e-06	7.809199e-06	2.568508e-08	5.568009e+01	1.687516e+03
1.770000e-06	7.774480e-06	2.566032e-08	5.543254e+01	1.686268e+03
1.780000e-06	7.737561e-06	2.570737e-08	5.516930e+01	1.684700e+03
1.790000e-06	7.698433e-06	2.569462e-08	5.489032e+01	1.682879e+03
1.800000e-06	7.657293e-06	2.559370e-08	5.459699e+01	1.680927e+03
1.810000e-06	7.613646e-06	2.565581e-08	5.428578e+01	1.678978e+03
1.820000e-06	7.567260e-06	2.558025e-08	5.395505e+01	1.677129e+03
1.830000e-06	7.518173e-06	2.554480e-08	5.360505e+01	1.675408e+03
1.840000e-06	7.466061e-06	2.558947e-08	5.323349e+01	1.673757e+03
1.850000e-06	7.411000e-06	2.549759e-08	5.284091e+01	1.672051e+03
1.860000e-06	7.353259e-06	2.553129e-08	5.242921e+01	1.670131e+03
1.870000e-06	7.292975e-06	2.544730e-08	5.199938e+01	1.667860e+03
1.880000e-06	7.229946e-06	2.539339e-08	5.154998e+01	1.665160e+03
1.890000e-06	7.164060e-06	2.537962e-08	5.108021e+01	1.662044e+03
1.900000e-06	7.095448e-06	2.529355e-08	5.059100e+01	1.658610e+03
1.910000e-06	7.023974e-06	2.529314e-08	5.008138e+01	1.655013e+03
1.920000e-06	6.949770e-06	2.522680e-08	4.955231e+01	1.651417e+03
1.930000e-06	6.872920e-06	2.520422e-08	4.900436e+01	1.647940e+03
1.940000e-06	6.793347e-06	2.514200e-08	4.843700e+01	1.644620e+03
1.950000e-06	6.711230e-06	2.505829e-08	4.785150e+01	1.641394e+03
1.960000e-06	6.626642e-06	2.502613e-08	4.724838e+01	1.638122e+03
1.970000e-06	6.539585e-06	2.494419e-08	4.662766e+01	1.634624e+03
1.980000e-06	6.450119e-06	2.490812e-08	4.598976e+01	1.630737e+03
1.990000e-06	6.358405e-06	2.483115e-08	4.533583e+01	1.626370e+03
2.000000e-06	6.264474e-06	2.477034e-08	4.466610e+01	1.621525e+03
2.010000e-06	6.168314e-06	2.469922e-08	4.398048e+01	1.616304e+03
2.020000e-06	6.070003e-06	2.461690e-08	4.327951e+01	1.610873e+03
2.030000e-06	5.969501e-06	2.454781e-08	4.256292e+01	1.605409e+03
2.040000e-06	5.866835e-06	2.446882e-08	4.183091e+01	1.600043e+03
2.050000e-06	5.762129e-06	2.439610e-08	4.108435e+01	1.594813e+03
2.060000e-06	5.655507e-06	2.429798e-08	4.032413e+01	1.589648e+03
2.070000e-06	5.546904e-06	2.421299e-08	3.954978e+01	1.584388e+03
2.080000e-06	5.436318e-06	2.411618e-08	3.876130e+01	1.578827e+03
2.090000e-06	5.323690e-06	2.402233e-08	3.795825e+01	1.572776e+03
2.100000e-06	5.208998e-06	2.392199e-08	3.714049e+01	1.566125e+03
2.110000e-06	5.092322e-06	2.382375e-08	3.630858e+01	1.558870e+03
2.120000e-06	4.973658e-06	2.371921e-08	3.546250e+01	1.551121e+03
2.130000e-06	4.853110e-06	2.360478e-08	3.460299e+01	1.543062e+03
2.140000e-06	4.730788e-06	2.348814e-08	3.373082e+01	1.534893e+03
2.150000e-06	4.606821e-06	2.336683e-08	3.284693e+01	1.526757e+03
2.160000e-06	4.481166e-06	2.324780e-08	3.195100e+01	1.518693e+03
2.170000e-06	4.353940e-06	2.311778e-08	3.104387e+01	1.510613e+03
2.180000e-06	4.225162e-06	2.298326e-08	3.012568e+01	1.502321e+03
2.190000e-06	4.094734e-06	2.284007e-08	2.919572e+01	1.493566e+03
2.200000e-06	3.962773e-06	2.269277e-08	2.825483e+01	1.484122e+03
2.210000e-06	3.829357e-06	2.254034e-08	2.730356e+01	1.473848e+03
2.220000e-06	3.694520e-06	2.238559e-08	2.634217e+01	1.462736e+03
2.230000e-06	3.558256e-06	2.222107e-08	2.537059e+01	1.450911e+03
2.240000e-06	3.420559e-06	2.204757e-08	2.438880e+01	1.438587e+03
2.250000e-06	3.281550e-06	2.186427e-08	2.339766e+01	1.425991e+03
2.260000e-06	3.141336e-06	2.167133e-08	2.239793e+01	1.413282e+03
2.270000e-06	2.999837e-06	2.147369e-08	2.138903e+01	1.400482e+03
2.280000e-06	2.857173e-06	2.126772e-08	2.037183e+01	1.387453e+03
2.290000e-06	2.713529e-06	2.105328e-08	1.934763e+01	1.373921e+03
2.300000e-06	2.568885e-06	2.082491e-08	1.831631e+01	1.359546e+03
2.310000e-06	2.423295e-06	2.058300e-08	1.727825e+01	1.344018e+03
2.320000e-06	2.276909e-06	2.032811e-08	1.623451e+01	1.327144e+03
2.330000e-06	2.129730e-06	2.006313e-08	1.518511e+01	1.308905e+03
2.340000e-06	1.981853e-06	1.978699e-08	1.413074e+01	1.289453e+03
2.350000e-06	1.833447e-06	1.949572e-08	1.307259e+01	1.269047e+03
2.360000e-06	1.684409e-06	1.918705e-08	1.200994e+01	1.247948e+03
2.370000e-06	1.534670e-06	1.885704e-08	1.094229e+01	1.226296e+03
2.380000e-06	1.384360e-06	1.850552e-08	9.870576e+00	1.204019e+03
2.390000e-06	1.233669e-06	1.813294e-08	8.796141e+00	1.180795e+03
2.400000e-06	1.082662e-06	1.773877e-08	7.719448e+00	1.156090e+03
2.410000e-06	9.313000e-07	1.731955e-08	6.640229e+00	1.129274e+03
2.420000e-06	7.796153e-07	1.687036e-08	5.558707e+00	1.099763e+03
2.430000e-06	6.277234e-07	1.638529e-08	4.475708e+00	1.067161e+03
2.440000e-06	4.756838e-07	1.585970e-08	3.391656e+00	1.031339e+03
2.450000e-06	3.234191e-07	1.528940e-08	2.305999e+00	9.924077e+02
2.460000e-06	1.709221e-07	1.467064e-08	1.218686e+00	9.505807e+02
2.470000e-06	1.831651e-08	1.399548e-08	1.305979e-01	9.059429e+02
2.480000e-06	-1.342914e-07	1.325462e-08	-9.575066e-01	8.581767e+02
2.490000e-06	-2.868761e-07	1.243664e-08	-2.045445e+00	8.063269e+02
2.500000e-06	-4.393837e-07	1.152560e-08	-3.132834e+00	7.486829e+02
2.510000e-06	-5.917270e-07	1.050500e-08	-4.219052e+00	6.828422e+02
2.520000e-06	-7.438579e-07	9.345813e-09	-5.303755e+00	6.059803e+02
2.530000e-06	-8.957507e-07	8.011359e-09	-6.386760e+00	5.153047e+02
2.540000e-06	-1.047361e-06	6.450579e-09	-7.467753e+00	4.086205e+02
2.550000e-06	-1.198620e-06	4.594584e-09	-8.546237e+00	2.848986e+02
2.560000e-06	-1.349487e-06	2.403654e-09	-9.621931e+00	1.447256e+02
2.570000e-06	-1.499914e-06	-2.778014e-11	-1.069448e+01	-9.475810e+00
2.580000e-06	-1.649776e-06	-2.538139e-09	-1.176301e+01	-1.735220e+02
2.590000e-06	-1.798919e-06	-5.056110e-09	-1.282641e+01	-3.418512e+02
2.600000e-06	-1.947331e-06	-7.574637e-09	-1.388459e+01	-5.081590e+02
2.610000e-06	-2.095062e-06	-1.007458e-08	-1.493793e+01	-6.661810e+02
2.620000e-06	-2.242036e-06	-1.242519e-08	-1.598586e+01	-8.104794e+02
2.630000e-06	-2.388198e-06	-1.442663e-08	-1.702800e+01	-9.370947e+02
2.640000e-06	-2.533474e-06	-1.602212e-08	-1.806384e+01	-1.043945e+03
2.650000e-06	-2.677762e-06	-1.728581e-08	-1.909262e+01	-1.130909e+03
2.660000e-06	-2.821012e-06	-1.829387e-08	-2.011399e+01	-1.199605e+03
2.670000e-06	-2.963086e-06	-1.910788e-08	-2.112699e+01	-1.252907e+03
2.680000e-06	-3.103933e-06	-1.977276e-08	-2.213124e+01	-1.294339e+03
2.690000e-06	-3.243608e-06	-2.032478e-08	-2.312713e+01	-1.327440e+03
2.700000e-06	-3.382094e-06	-2.079193e-08	-2.411455e+01	-1.355249e+03
2.710000e-06	-3.519266e-06	-2.119445e-08	-2.509259e+01	-1.379975e+03
2.720000e-06	-3.655111e-06	-2.154736e-08	-2.606117e+01	-1.402902e+03
2.730000e-06	-3.789599e-06	-2.185993e-08	-2.702008e+01	-1.424489e+03
2.740000e-06	-3.922715e-06	-2.214106e-08	-2.796921e+01	-1.444630e+03
2.750000e-06	-4.054485e-06	-2.239458e-08	-2.890874e+01	-1.462968e+03
2.760000e-06	-4.184817e-06	-2.262414e-08	-2.983802e+01	-1.479181e+03
2.770000e-06	-4.313703e-06	-2.283658e-08	-3.075698e+01	-1.493185e+03
2.780000e-06	-4.441103e-06	-2.303387e-08	-3.166535e+01	-1.505200e+03
2.790000e-06	-4.566923e-06	-2.321532e-08	-3.256245e+01	-1.515702e+03
2.800000e-06	-4.691150e-06	-2.338120e-08	-3.344820e+01	-1.525289e+03
2.810000e-06	-4.813733e-06	-2.353319e-08	-3.432223e+01	-1.534513e+03
2.820000e-06	-4.934591e-06	-2.367491e-08	-3.518395e+01	-1.543748e+03
2.830000e-06	-5.053588e-06	-2.380946e-08	-3.603240e+01	-1.553106e+03
2.840000e-06	-5.170613e-06	-2.393797e-08	-3.686680e+01	-1.562455e+03
2.850000e-06	-5.285612e-06	-2.406009e-08	-3.768675e+01	-1.571496e+03
2.860000e-06	-5.398456e-06	-2.417454e-08	-3.849134e+01	-1.579885e+03
2.870000e-06	-5.509203e-06	-2.427943e-08	-3.928097e+01	-1.587359e+03
2.880000e-06	-5.617952e-06	-2.437635e-08	-4.005636e+01	-1.593826e+03
2.890000e-06	-5.724779e-06	-2.446679e-08	-4.081804e+01	-1.599387e+03
2.900000e-06	-5.829621e-06	-2.455447e-08	-4.156557e+01	-1.604308e+03
2.910000e-06	-5.932245e-06	-2.463882e-08	-4.229729e+01	-1.608928e+03
2.920000e-06	-6.032648e-06	-2.471827e-08	-4.301316e+01	-1.613565e+03
2.930000e-06	-6.130910e-06	-2.479381e-08	-4.371378e+01	-1.618420e+03
2.940000e-06	-6.226958e-06	-2.486632e-08	-4.439861e+01	-1.623534e+03
