# Temperatura_=_49.52
# Concentracion g/m^3_=_41000.0
# C_Vs_to_Am_M_A/Vsm_=_65563218390.804596
# pendiente_HvsI_1/m_=_3716.3
# ordenada_HvsI_A/m_=_1297.0
# frecuencia_Hz_=_302499.05166712264

Tiempo_(s)	Campo_(V.s)	Magnetizacion_(V.s)	Campo_(kA/m)	Magnetizacion_(A/m)
0.000000e+00	-7.908119e-06	-2.575828e-08	-5.685420e+01	-1.686052e+03
1.000000e-08	-7.903752e-06	-2.575065e-08	-5.682280e+01	-1.685758e+03
2.000000e-08	-7.896861e-06	-2.573774e-08	-5.677326e+01	-1.685050e+03
3.000000e-08	-7.887301e-06	-2.572617e-08	-5.670453e+01	-1.684009e+03
4.000000e-08	-7.874863e-06	-2.571390e-08	-5.661510e+01	-1.682784e+03
5.000000e-08	-7.859527e-06	-2.569943e-08	-5.650485e+01	-1.681551e+03
6.000000e-08	-7.841553e-06	-2.568212e-08	-5.637563e+01	-1.680452e+03
7.000000e-08	-7.821299e-06	-2.565995e-08	-5.623002e+01	-1.679556e+03
8.000000e-08	-7.798507e-06	-2.566206e-08	-5.606615e+01	-1.678839e+03
9.000000e-08	-7.772635e-06	-2.567922e-08	-5.588015e+01	-1.678195e+03
1.000000e-07	-7.743575e-06	-2.564251e-08	-5.567123e+01	-1.677471e+03
1.100000e-07	-7.711723e-06	-2.559638e-08	-5.544224e+01	-1.676520e+03
1.200000e-07	-7.677176e-06	-2.557474e-08	-5.519386e+01	-1.675249e+03
1.300000e-07	-7.640076e-06	-2.553848e-08	-5.492714e+01	-1.673646e+03
1.400000e-07	-7.600821e-06	-2.547137e-08	-5.464492e+01	-1.671789e+03
1.500000e-07	-7.559365e-06	-2.546777e-08	-5.434688e+01	-1.669809e+03
1.600000e-07	-7.515323e-06	-2.549722e-08	-5.403025e+01	-1.667855e+03
1.700000e-07	-7.468577e-06	-2.538947e-08	-5.369417e+01	-1.666033e+03
1.800000e-07	-7.419108e-06	-2.538352e-08	-5.333852e+01	-1.664372e+03
1.900000e-07	-7.366625e-06	-2.537724e-08	-5.296120e+01	-1.662810e+03
2.000000e-07	-7.311336e-06	-2.530749e-08	-5.256372e+01	-1.661205e+03
2.100000e-07	-7.253398e-06	-2.531559e-08	-5.214718e+01	-1.659380e+03
2.200000e-07	-7.192752e-06	-2.526407e-08	-5.171117e+01	-1.657178e+03
2.300000e-07	-7.129491e-06	-2.521036e-08	-5.125637e+01	-1.654505e+03
2.400000e-07	-7.063502e-06	-2.514389e-08	-5.078195e+01	-1.651367e+03
2.500000e-07	-6.994849e-06	-2.510350e-08	-5.028838e+01	-1.647866e+03
2.600000e-07	-6.923497e-06	-2.507015e-08	-4.977540e+01	-1.644171e+03
2.700000e-07	-6.849349e-06	-2.501382e-08	-4.924233e+01	-1.640463e+03
2.800000e-07	-6.772551e-06	-2.496083e-08	-4.869020e+01	-1.636881e+03
2.900000e-07	-6.693059e-06	-2.488985e-08	-4.811870e+01	-1.633478e+03
3.000000e-07	-6.610916e-06	-2.483065e-08	-4.752815e+01	-1.630199e+03
3.100000e-07	-6.526522e-06	-2.477288e-08	-4.692141e+01	-1.626902e+03
3.200000e-07	-6.439966e-06	-2.471784e-08	-4.629913e+01	-1.623398e+03
3.300000e-07	-6.351062e-06	-2.466469e-08	-4.565998e+01	-1.619511e+03
3.400000e-07	-6.259794e-06	-2.458764e-08	-4.500382e+01	-1.615130e+03
3.500000e-07	-6.166289e-06	-2.451552e-08	-4.433158e+01	-1.610249e+03
3.600000e-07	-6.070560e-06	-2.443996e-08	-4.364335e+01	-1.604965e+03
3.700000e-07	-5.972542e-06	-2.436223e-08	-4.293866e+01	-1.599446e+03
3.800000e-07	-5.872384e-06	-2.428993e-08	-4.221859e+01	-1.593879e+03
3.900000e-07	-5.770215e-06	-2.421165e-08	-4.148406e+01	-1.588407e+03
4.000000e-07	-5.666012e-06	-2.412668e-08	-4.073491e+01	-1.583079e+03
4.100000e-07	-5.559739e-06	-2.403257e-08	-3.997088e+01	-1.577833e+03
4.200000e-07	-5.451497e-06	-2.394124e-08	-3.919269e+01	-1.572509e+03
4.300000e-07	-5.341342e-06	-2.383916e-08	-3.840075e+01	-1.566898e+03
4.400000e-07	-5.229270e-06	-2.373335e-08	-3.759502e+01	-1.560805e+03
4.500000e-07	-5.115277e-06	-2.363038e-08	-3.677549e+01	-1.554110e+03
4.600000e-07	-4.999250e-06	-2.352749e-08	-3.594133e+01	-1.546806e+03
4.700000e-07	-4.881287e-06	-2.342061e-08	-3.509325e+01	-1.539000e+03
4.800000e-07	-4.761541e-06	-2.330687e-08	-3.423236e+01	-1.530882e+03
4.900000e-07	-4.640074e-06	-2.319342e-08	-3.335909e+01	-1.522655e+03
5.000000e-07	-4.516857e-06	-2.306976e-08	-3.247324e+01	-1.514470e+03
5.100000e-07	-4.391997e-06	-2.293778e-08	-3.157558e+01	-1.506369e+03
5.200000e-07	-4.265588e-06	-2.279856e-08	-3.066678e+01	-1.498263e+03
5.300000e-07	-4.137632e-06	-2.265448e-08	-2.974687e+01	-1.489948e+03
5.400000e-07	-4.008212e-06	-2.250487e-08	-2.881642e+01	-1.481166e+03
5.500000e-07	-3.877195e-06	-2.235057e-08	-2.787449e+01	-1.471676e+03
5.600000e-07	-3.744619e-06	-2.219370e-08	-2.692136e+01	-1.461332e+03
5.700000e-07	-3.610642e-06	-2.203005e-08	-2.595815e+01	-1.450126e+03
5.800000e-07	-3.475351e-06	-2.186189e-08	-2.498549e+01	-1.438188e+03
5.900000e-07	-3.338799e-06	-2.168415e-08	-2.400378e+01	-1.425745e+03
6.000000e-07	-3.200933e-06	-2.149812e-08	-2.301261e+01	-1.413039e+03
6.100000e-07	-3.061669e-06	-2.130159e-08	-2.201139e+01	-1.400244e+03
6.200000e-07	-2.921091e-06	-2.109420e-08	-2.100073e+01	-1.387391e+03
6.300000e-07	-2.779324e-06	-2.087756e-08	-1.998152e+01	-1.374342e+03
6.400000e-07	-2.636526e-06	-2.065247e-08	-1.895490e+01	-1.360812e+03
6.500000e-07	-2.492785e-06	-2.041916e-08	-1.792149e+01	-1.346448e+03
6.600000e-07	-2.347985e-06	-2.017554e-08	-1.688048e+01	-1.330921e+03
6.700000e-07	-2.202256e-06	-1.992077e-08	-1.583277e+01	-1.314029e+03
6.800000e-07	-2.055866e-06	-1.965215e-08	-1.478033e+01	-1.295750e+03
6.900000e-07	-1.908870e-06	-1.936996e-08	-1.372353e+01	-1.276245e+03
7.000000e-07	-1.761246e-06	-1.907104e-08	-1.266221e+01	-1.255792e+03
7.100000e-07	-1.613096e-06	-1.875473e-08	-1.159710e+01	-1.234676e+03
7.200000e-07	-1.464498e-06	-1.842213e-08	-1.052878e+01	-1.213060e+03
7.300000e-07	-1.315483e-06	-1.807080e-08	-9.457464e+00	-1.190883e+03
7.400000e-07	-1.166072e-06	-1.769569e-08	-8.383291e+00	-1.167821e+03
7.500000e-07	-1.016289e-06	-1.729663e-08	-7.306454e+00	-1.143325e+03
7.600000e-07	-8.661943e-07	-1.687489e-08	-6.227369e+00	-1.116736e+03
7.700000e-07	-7.157668e-07	-1.642357e-08	-5.145894e+00	-1.087440e+03
7.800000e-07	-5.650159e-07	-1.593931e-08	-4.062094e+00	-1.055022e+03
7.900000e-07	-4.141097e-07	-1.541797e-08	-2.977177e+00	-1.019350e+03
8.000000e-07	-2.630914e-07	-1.485570e-08	-1.891455e+00	-9.805627e+02
8.100000e-07	-1.119670e-07	-1.424328e-08	-8.049692e-01	-9.389306e+02
8.200000e-07	3.921581e-08	-1.357139e-08	2.819360e-01	-8.946149e+02
8.300000e-07	1.904665e-07	-1.283291e-08	1.369329e+00	-8.473833e+02
8.400000e-07	3.417015e-07	-1.201606e-08	2.456610e+00	-7.963561e+02
8.500000e-07	4.928986e-07	-1.111107e-08	3.543618e+00	-7.398707e+02
8.600000e-07	6.439703e-07	-1.009809e-08	4.629725e+00	-6.755305e+02
8.700000e-07	7.947942e-07	-8.949683e-09	5.714049e+00	-6.004680e+02
8.800000e-07	9.453402e-07	-7.627407e-09	6.796377e+00	-5.118013e+02
8.900000e-07	1.095551e-06	-6.082230e-09	7.876292e+00	-4.072122e+02
9.000000e-07	1.245378e-06	-4.248518e-09	8.953454e+00	-2.855328e+02
9.100000e-07	1.394773e-06	-2.088901e-09	1.002750e+01	-1.472180e+02
9.200000e-07	1.543784e-06	2.944699e-10	1.109879e+01	5.413775e+00
9.300000e-07	1.692370e-06	2.744590e-09	1.216703e+01	1.682415e+02
9.400000e-07	1.840465e-06	5.196613e-09	1.323174e+01	3.357178e+02
9.500000e-07	1.987907e-06	7.645520e-09	1.429175e+01	5.015096e+02
9.600000e-07	2.134493e-06	1.007654e-08	1.534560e+01	6.592910e+02
9.700000e-07	2.280199e-06	1.235764e-08	1.639314e+01	8.035483e+02
9.800000e-07	2.424977e-06	1.429395e-08	1.743400e+01	9.302476e+02
9.900000e-07	2.568782e-06	1.584198e-08	1.846786e+01	1.037248e+03
1.000000e-06	2.711600e-06	1.707144e-08	1.949463e+01	1.124397e+03
1.010000e-06	2.853397e-06	1.805564e-08	2.051405e+01	1.193299e+03
1.020000e-06	2.994132e-06	1.885585e-08	2.152585e+01	1.246837e+03
1.030000e-06	3.133665e-06	1.951502e-08	2.252900e+01	1.288549e+03
1.040000e-06	3.271846e-06	2.006724e-08	2.352243e+01	1.321984e+03
1.050000e-06	3.408758e-06	2.053469e-08	2.450674e+01	1.350180e+03
1.060000e-06	3.544419e-06	2.093620e-08	2.548205e+01	1.375331e+03
1.070000e-06	3.678734e-06	2.128754e-08	2.644769e+01	1.398688e+03
1.080000e-06	3.811787e-06	2.159853e-08	2.740425e+01	1.420675e+03
1.090000e-06	3.943583e-06	2.187766e-08	2.835178e+01	1.441153e+03
1.100000e-06	4.073839e-06	2.213290e-08	2.928823e+01	1.459742e+03
1.110000e-06	4.202548e-06	2.236727e-08	3.021357e+01	1.476116e+03
1.120000e-06	4.329848e-06	2.258058e-08	3.112877e+01	1.490205e+03
1.130000e-06	4.455666e-06	2.277537e-08	3.203332e+01	1.502256e+03
1.140000e-06	4.580064e-06	2.295620e-08	3.292765e+01	1.512781e+03
1.150000e-06	4.702880e-06	2.312525e-08	3.381063e+01	1.522409e+03
1.160000e-06	4.823963e-06	2.328271e-08	3.468113e+01	1.531714e+03
1.170000e-06	4.943392e-06	2.343088e-08	3.553975e+01	1.541072e+03
1.180000e-06	5.061056e-06	2.357054e-08	3.638568e+01	1.550586e+03
1.190000e-06	5.176732e-06	2.370296e-08	3.721731e+01	1.560100e+03
1.200000e-06	5.290278e-06	2.382744e-08	3.803363e+01	1.569287e+03
1.210000e-06	5.401785e-06	2.394317e-08	3.883529e+01	1.577779e+03
1.220000e-06	5.511413e-06	2.405074e-08	3.962345e+01	1.585303e+03
1.230000e-06	5.619132e-06	2.415158e-08	4.039788e+01	1.591766e+03
1.240000e-06	5.724780e-06	2.424590e-08	4.115742e+01	1.597286e+03
1.250000e-06	5.828280e-06	2.433337e-08	4.190152e+01	1.602151e+03
1.260000e-06	5.929733e-06	2.441815e-08	4.263089e+01	1.606728e+03
1.270000e-06	6.029058e-06	2.449950e-08	4.334497e+01	1.611355e+03
1.280000e-06	6.126060e-06	2.457723e-08	4.404236e+01	1.616242e+03
1.290000e-06	6.220782e-06	2.465257e-08	4.472335e+01	1.621428e+03
1.300000e-06	6.313355e-06	2.472304e-08	4.538888e+01	1.626779e+03
1.310000e-06	6.403601e-06	2.478935e-08	4.603770e+01	1.632047e+03
1.320000e-06	6.491430e-06	2.485335e-08	4.666913e+01	1.636962e+03
1.330000e-06	6.577017e-06	2.491613e-08	4.728444e+01	1.641314e+03
1.340000e-06	6.660327e-06	2.497550e-08	4.788339e+01	1.645024e+03
1.350000e-06	6.741231e-06	2.503129e-08	4.846503e+01	1.648162e+03
1.360000e-06	6.819666e-06	2.508508e-08	4.902893e+01	1.650917e+03
1.370000e-06	6.895592e-06	2.513577e-08	4.957479e+01	1.653538e+03
1.380000e-06	6.968902e-06	2.518317e-08	5.010183e+01	1.656247e+03
1.390000e-06	7.039629e-06	2.522905e-08	5.061032e+01	1.659176e+03
1.400000e-06	7.107928e-06	2.527309e-08	5.110135e+01	1.662329e+03
1.410000e-06	7.173720e-06	2.531453e-08	5.157435e+01	1.665584e+03
1.420000e-06	7.236934e-06	2.535305e-08	5.202881e+01	1.668738e+03
1.430000e-06	7.297729e-06	2.538718e-08	5.246589e+01	1.671574e+03
1.440000e-06	7.356022e-06	2.541879e-08	5.288498e+01	1.673936e+03
1.450000e-06	7.411676e-06	2.545033e-08	5.328509e+01	1.675771e+03
1.460000e-06	7.464522e-06	2.548193e-08	5.366502e+01	1.677150e+03
1.470000e-06	7.514249e-06	2.551107e-08	5.402252e+01	1.678239e+03
1.480000e-06	7.561036e-06	2.553686e-08	5.435889e+01	1.679248e+03
1.490000e-06	7.605242e-06	2.555979e-08	5.467670e+01	1.680366e+03
1.500000e-06	7.646729e-06	2.557998e-08	5.497497e+01	1.681700e+03
1.510000e-06	7.685426e-06	2.559710e-08	5.525318e+01	1.683246e+03
1.520000e-06	7.721538e-06	2.561331e-08	5.551280e+01	1.684892e+03
1.530000e-06	7.754872e-06	2.562975e-08	5.575245e+01	1.686461e+03
1.540000e-06	7.785396e-06	2.564525e-08	5.597190e+01	1.687763e+03
1.550000e-06	7.813303e-06	2.565971e-08	5.617253e+01	1.688662e+03
1.560000e-06	7.838312e-06	2.567295e-08	5.635233e+01	1.689115e+03
1.570000e-06	7.860433e-06	2.568413e-08	5.651136e+01	1.689188e+03
1.580000e-06	7.879838e-06	2.569242e-08	5.665087e+01	1.689032e+03
1.590000e-06	7.896345e-06	2.569843e-08	5.676955e+01	1.688837e+03
1.600000e-06	7.909881e-06	2.570400e-08	5.686686e+01	1.688772e+03
1.610000e-06	7.920316e-06	2.570855e-08	5.694188e+01	1.688931e+03
1.620000e-06	7.927713e-06	2.571087e-08	5.699506e+01	1.689307e+03
1.630000e-06	7.932359e-06	2.571221e-08	5.702846e+01	1.689797e+03
1.640000e-06	7.934172e-06	2.571365e-08	5.704150e+01	1.690229e+03
1.650000e-06	7.933163e-06	2.571409e-08	5.703424e+01	1.690424e+03
1.660000e-06	7.929582e-06	2.571005e-08	5.700850e+01	1.690249e+03
1.670000e-06	7.923329e-06	2.570768e-08	5.696354e+01	1.689656e+03
1.680000e-06	7.914432e-06	2.570319e-08	5.689958e+01	1.688697e+03
1.690000e-06	7.902888e-06	2.569511e-08	5.681659e+01	1.687507e+03
1.700000e-06	7.888456e-06	2.568652e-08	5.671283e+01	1.686259e+03
1.710000e-06	7.871431e-06	2.568043e-08	5.659043e+01	1.685111e+03
1.720000e-06	7.852213e-06	2.567476e-08	5.645227e+01	1.684155e+03
1.730000e-06	7.830569e-06	2.561820e-08	5.629666e+01	1.683395e+03
1.740000e-06	7.805733e-06	2.557863e-08	5.611811e+01	1.682745e+03
1.750000e-06	7.777256e-06	2.559409e-08	5.591338e+01	1.682060e+03
1.760000e-06	7.745391e-06	2.558340e-08	5.568428e+01	1.681187e+03
1.770000e-06	7.710949e-06	2.555692e-08	5.543667e+01	1.680012e+03
1.780000e-06	7.674311e-06	2.558834e-08	5.517327e+01	1.678500e+03
1.790000e-06	7.635474e-06	2.557576e-08	5.489406e+01	1.676703e+03
1.800000e-06	7.594630e-06	2.550087e-08	5.460041e+01	1.674744e+03
1.810000e-06	7.551375e-06	2.556645e-08	5.428943e+01	1.672768e+03
1.820000e-06	7.505456e-06	2.551004e-08	5.395931e+01	1.670902e+03
1.830000e-06	7.456897e-06	2.547557e-08	5.361020e+01	1.669197e+03
1.840000e-06	7.405393e-06	2.549913e-08	5.323992e+01	1.667619e+03
1.850000e-06	7.350947e-06	2.538538e-08	5.284849e+01	1.666043e+03
1.860000e-06	7.293735e-06	2.539208e-08	5.243717e+01	1.664300e+03
1.870000e-06	7.233988e-06	2.534118e-08	5.200763e+01	1.662218e+03
1.880000e-06	7.171568e-06	2.532274e-08	5.155887e+01	1.659684e+03
1.890000e-06	7.106276e-06	2.531834e-08	5.108947e+01	1.656672e+03
1.900000e-06	7.038313e-06	2.521464e-08	5.060086e+01	1.653260e+03
1.910000e-06	6.967578e-06	2.519784e-08	5.009232e+01	1.649602e+03
1.920000e-06	6.894120e-06	2.513528e-08	4.956421e+01	1.645881e+03
1.930000e-06	6.817995e-06	2.510398e-08	4.901691e+01	1.642253e+03
1.940000e-06	6.739091e-06	2.506648e-08	4.844965e+01	1.638800e+03
1.950000e-06	6.657661e-06	2.499400e-08	4.786422e+01	1.635497e+03
1.960000e-06	6.573855e-06	2.495495e-08	4.726171e+01	1.632224e+03
1.970000e-06	6.487639e-06	2.485743e-08	4.664187e+01	1.628799e+03
1.980000e-06	6.398971e-06	2.480849e-08	4.600441e+01	1.625035e+03
1.990000e-06	6.308076e-06	2.474400e-08	4.535093e+01	1.620801e+03
2.000000e-06	6.215017e-06	2.468611e-08	4.468190e+01	1.616058e+03
2.010000e-06	6.119622e-06	2.462291e-08	4.399607e+01	1.610874e+03
2.020000e-06	6.022073e-06	2.453339e-08	4.329476e+01	1.605403e+03
2.030000e-06	5.922525e-06	2.445628e-08	4.257907e+01	1.599833e+03
2.040000e-06	5.820805e-06	2.436774e-08	4.184777e+01	1.594324e+03
2.050000e-06	5.716890e-06	2.429486e-08	4.110069e+01	1.588956e+03
2.060000e-06	5.611035e-06	2.420527e-08	4.033967e+01	1.583699e+03
2.070000e-06	5.503306e-06	2.412715e-08	3.956517e+01	1.578418e+03
2.080000e-06	5.393685e-06	2.404230e-08	3.877706e+01	1.572911e+03
2.090000e-06	5.282002e-06	2.394835e-08	3.797413e+01	1.566972e+03
2.100000e-06	5.168325e-06	2.384383e-08	3.715687e+01	1.560455e+03
2.110000e-06	5.052790e-06	2.373864e-08	3.632625e+01	1.553318e+03
2.120000e-06	4.935261e-06	2.363389e-08	3.548129e+01	1.545640e+03
2.130000e-06	4.815761e-06	2.351776e-08	3.462216e+01	1.537589e+03
2.140000e-06	4.694486e-06	2.340174e-08	3.375028e+01	1.529374e+03
2.150000e-06	4.571585e-06	2.328019e-08	3.286670e+01	1.521168e+03
2.160000e-06	4.447049e-06	2.316073e-08	3.197137e+01	1.513047e+03
2.170000e-06	4.320863e-06	2.303365e-08	3.106417e+01	1.504959e+03
2.180000e-06	4.193008e-06	2.290459e-08	3.014498e+01	1.496729e+03
2.190000e-06	4.063631e-06	2.276943e-08	2.921484e+01	1.488107e+03
2.200000e-06	3.932797e-06	2.262640e-08	2.827424e+01	1.478839e+03
2.210000e-06	3.800488e-06	2.247019e-08	2.732302e+01	1.468747e+03
2.220000e-06	3.666785e-06	2.230590e-08	2.636178e+01	1.457780e+03
2.230000e-06	3.531658e-06	2.213537e-08	2.539031e+01	1.446031e+03
2.240000e-06	3.395178e-06	2.196075e-08	2.440910e+01	1.433706e+03
2.250000e-06	3.257511e-06	2.178196e-08	2.341937e+01	1.421053e+03
2.260000e-06	3.118647e-06	2.159645e-08	2.242103e+01	1.408274e+03
2.270000e-06	2.978534e-06	2.140413e-08	2.141371e+01	1.395444e+03
2.280000e-06	2.837262e-06	2.119922e-08	2.039806e+01	1.382474e+03
2.290000e-06	2.694874e-06	2.098345e-08	1.937438e+01	1.369117e+03
2.300000e-06	2.551340e-06	2.075433e-08	1.834246e+01	1.355028e+03
2.310000e-06	2.406860e-06	2.051589e-08	1.730375e+01	1.339861e+03
2.320000e-06	2.261630e-06	2.026681e-08	1.625964e+01	1.323370e+03
2.330000e-06	2.115614e-06	2.000765e-08	1.520988e+01	1.305478e+03
2.340000e-06	1.968893e-06	1.973619e-08	1.415505e+01	1.286299e+03
2.350000e-06	1.821617e-06	1.944796e-08	1.309623e+01	1.266085e+03
2.360000e-06	1.673765e-06	1.914236e-08	1.203328e+01	1.245135e+03
2.370000e-06	1.525340e-06	1.881859e-08	1.096620e+01	1.223656e+03
2.380000e-06	1.376482e-06	1.847594e-08	9.896002e+00	1.201661e+03
2.390000e-06	1.227264e-06	1.811355e-08	8.823222e+00	1.178900e+03
2.400000e-06	1.077675e-06	1.772876e-08	7.747776e+00	1.154880e+03
2.410000e-06	9.276922e-07	1.731694e-08	6.669499e+00	1.128956e+03
2.420000e-06	7.773430e-07	1.687569e-08	5.588586e+00	1.100487e+03
2.430000e-06	6.267147e-07	1.640323e-08	4.505668e+00	1.068987e+03
2.440000e-06	4.758449e-07	1.589465e-08	3.421013e+00	1.034241e+03
2.450000e-06	3.247400e-07	1.534351e-08	2.334667e+00	9.963186e+02
2.460000e-06	1.733882e-07	1.474574e-08	1.246548e+00	9.554731e+02
2.470000e-06	2.192582e-08	1.409422e-08	1.576323e-01	9.119254e+02
2.480000e-06	-1.295448e-07	1.338131e-08	-9.313419e-01	8.655846e+02
2.490000e-06	-2.809768e-07	1.259701e-08	-2.020039e+00	8.157765e+02
2.500000e-06	-4.323449e-07	1.172787e-08	-3.108276e+00	7.610663e+02
2.510000e-06	-5.836087e-07	1.075637e-08	-4.195764e+00	6.992495e+02
2.520000e-06	-7.346104e-07	9.658002e-09	-5.281367e+00	6.275542e+02
2.530000e-06	-8.853089e-07	8.403028e-09	-6.364790e+00	5.430471e+02
2.540000e-06	-1.035646e-06	6.945864e-09	-7.445617e+00	4.431871e+02
2.550000e-06	-1.185581e-06	5.225676e-09	-8.523554e+00	3.264222e+02
2.560000e-06	-1.335070e-06	3.178485e-09	-9.598276e+00	1.927071e+02
2.570000e-06	-1.484117e-06	8.307097e-10	-1.066983e+01	4.381980e+01
2.580000e-06	-1.632665e-06	-1.662628e-09	-1.173779e+01	-1.166084e+02
2.590000e-06	-1.780599e-06	-4.179965e-09	-1.280134e+01	-2.833825e+02
2.600000e-06	-1.927929e-06	-6.698144e-09	-1.386054e+01	-4.503168e+02
2.610000e-06	-2.074485e-06	-9.207909e-09	-1.491419e+01	-6.109992e+02
2.620000e-06	-2.220211e-06	-1.161530e-08	-1.596186e+01	-7.596070e+02
2.630000e-06	-2.365185e-06	-1.371995e-08	-1.700413e+01	-8.916286e+02
2.640000e-06	-2.509349e-06	-1.542080e-08	-1.804057e+01	-1.004358e+03
2.650000e-06	-2.652556e-06	-1.677257e-08	-1.907014e+01	-1.097085e+03
2.660000e-06	-2.794607e-06	-1.785116e-08	-2.009139e+01	-1.170950e+03
2.670000e-06	-2.935465e-06	-1.872198e-08	-2.110407e+01	-1.228534e+03
2.680000e-06	-3.075200e-06	-1.943393e-08	-2.210867e+01	-1.273251e+03
2.690000e-06	-3.213704e-06	-2.002440e-08	-2.310443e+01	-1.308710e+03
2.700000e-06	-3.351008e-06	-2.052137e-08	-2.409155e+01	-1.338139e+03
2.710000e-06	-3.487164e-06	-2.094663e-08	-2.507042e+01	-1.363991e+03
2.720000e-06	-3.621938e-06	-2.131773e-08	-2.603936e+01	-1.387785e+03
2.730000e-06	-3.755282e-06	-2.164603e-08	-2.699802e+01	-1.410159e+03
2.740000e-06	-3.887290e-06	-2.193967e-08	-2.794707e+01	-1.431103e+03
2.750000e-06	-4.017910e-06	-2.220361e-08	-2.888614e+01	-1.450271e+03
2.760000e-06	-4.147203e-06	-2.244136e-08	-2.981567e+01	-1.467299e+03
2.770000e-06	-4.275240e-06	-2.265913e-08	-3.073617e+01	-1.482029e+03
2.780000e-06	-4.401689e-06	-2.286203e-08	-3.164526e+01	-1.494620e+03
2.790000e-06	-4.526558e-06	-2.305112e-08	-3.254299e+01	-1.505519e+03
2.800000e-06	-4.649959e-06	-2.322574e-08	-3.343016e+01	-1.515338e+03
2.810000e-06	-4.771684e-06	-2.338497e-08	-3.430528e+01	-1.524686e+03
2.820000e-06	-4.891674e-06	-2.353175e-08	-3.516793e+01	-1.534006e+03
2.830000e-06	-5.009742e-06	-2.366992e-08	-3.601676e+01	-1.543481e+03
2.840000e-06	-5.125799e-06	-2.379985e-08	-3.685114e+01	-1.553023e+03
2.850000e-06	-5.239846e-06	-2.392404e-08	-3.767106e+01	-1.562342e+03
2.860000e-06	-5.351695e-06	-2.404219e-08	-3.847518e+01	-1.571067e+03
2.870000e-06	-5.461480e-06	-2.415124e-08	-3.926446e+01	-1.578886e+03
2.880000e-06	-5.569429e-06	-2.425180e-08	-4.004055e+01	-1.585649e+03
2.890000e-06	-5.675498e-06	-2.434569e-08	-4.080311e+01	-1.591415e+03
2.900000e-06	-5.779536e-06	-2.443600e-08	-4.155107e+01	-1.596431e+03
2.910000e-06	-5.881349e-06	-2.452108e-08	-4.228305e+01	-1.601052e+03
2.920000e-06	-5.980939e-06	-2.460180e-08	-4.299903e+01	-1.605636e+03
2.930000e-06	-6.078409e-06	-2.467960e-08	-4.369978e+01	-1.610437e+03
2.940000e-06	-6.173724e-06	-2.475354e-08	-4.438503e+01	-1.615545e+03
