# Temperatura_=_53.69
# Concentracion g/m^3_=_41000.0
# C_Vs_to_Am_M_A/Vsm_=_65563218390.804596
# pendiente_HvsI_1/m_=_3716.3
# ordenada_HvsI_A/m_=_1297.0
# frecuencia_Hz_=_302496.0493623134

Tiempo_(s)	Campo_(V.s)	Magnetizacion_(V.s)	Campo_(kA/m)	Magnetizacion_(A/m)
0.000000e+00	-7.938397e-06	-2.585309e-08	-5.685694e+01	-1.691772e+03
1.000000e-08	-7.933876e-06	-2.584641e-08	-5.682456e+01	-1.691444e+03
2.000000e-08	-7.926755e-06	-2.583586e-08	-5.677356e+01	-1.690741e+03
3.000000e-08	-7.916939e-06	-2.582449e-08	-5.670325e+01	-1.689749e+03
4.000000e-08	-7.904311e-06	-2.581196e-08	-5.661281e+01	-1.688611e+03
5.000000e-08	-7.888807e-06	-2.579830e-08	-5.650177e+01	-1.687478e+03
6.000000e-08	-7.870657e-06	-2.578172e-08	-5.637177e+01	-1.686470e+03
7.000000e-08	-7.850230e-06	-2.576547e-08	-5.622546e+01	-1.685631e+03
8.000000e-08	-7.827198e-06	-2.576388e-08	-5.606051e+01	-1.684923e+03
9.000000e-08	-7.801014e-06	-2.576048e-08	-5.587297e+01	-1.684242e+03
1.000000e-07	-7.771738e-06	-2.573593e-08	-5.566329e+01	-1.683451e+03
1.100000e-07	-7.739639e-06	-2.570110e-08	-5.543339e+01	-1.682428e+03
1.200000e-07	-7.704780e-06	-2.566981e-08	-5.518371e+01	-1.681109e+03
1.300000e-07	-7.667399e-06	-2.562946e-08	-5.491598e+01	-1.679503e+03
1.400000e-07	-7.627862e-06	-2.557947e-08	-5.463281e+01	-1.677691e+03
1.500000e-07	-7.586112e-06	-2.557329e-08	-5.433378e+01	-1.675796e+03
1.600000e-07	-7.541784e-06	-2.555526e-08	-5.401629e+01	-1.673939e+03
1.700000e-07	-7.494744e-06	-2.551411e-08	-5.367938e+01	-1.672198e+03
1.800000e-07	-7.444880e-06	-2.549606e-08	-5.332224e+01	-1.670572e+03
1.900000e-07	-7.391988e-06	-2.546081e-08	-5.294341e+01	-1.668982e+03
2.000000e-07	-7.336257e-06	-2.541103e-08	-5.254425e+01	-1.667288e+03
2.100000e-07	-7.277849e-06	-2.537644e-08	-5.212592e+01	-1.665331e+03
2.200000e-07	-7.216770e-06	-2.534311e-08	-5.168845e+01	-1.662982e+03
2.300000e-07	-7.153114e-06	-2.529715e-08	-5.123253e+01	-1.660186e+03
2.400000e-07	-7.086806e-06	-2.525142e-08	-5.075762e+01	-1.656976e+03
2.500000e-07	-7.017820e-06	-2.520225e-08	-5.026352e+01	-1.653469e+03
2.600000e-07	-6.946082e-06	-2.515267e-08	-4.974972e+01	-1.649829e+03
2.700000e-07	-6.871548e-06	-2.509967e-08	-4.921588e+01	-1.646217e+03
2.800000e-07	-6.794337e-06	-2.503967e-08	-4.866288e+01	-1.642739e+03
2.900000e-07	-6.714426e-06	-2.498265e-08	-4.809053e+01	-1.639416e+03
3.000000e-07	-6.631929e-06	-2.493094e-08	-4.749966e+01	-1.636172e+03
3.100000e-07	-6.547142e-06	-2.487310e-08	-4.689240e+01	-1.632856e+03
3.200000e-07	-6.460104e-06	-2.481046e-08	-4.626901e+01	-1.629292e+03
3.300000e-07	-6.370690e-06	-2.474504e-08	-4.562860e+01	-1.625328e+03
3.400000e-07	-6.278910e-06	-2.467556e-08	-4.497125e+01	-1.620888e+03
3.500000e-07	-6.184889e-06	-2.460442e-08	-4.429785e+01	-1.615991e+03
3.600000e-07	-6.088671e-06	-2.453189e-08	-4.360871e+01	-1.610746e+03
3.700000e-07	-5.990230e-06	-2.445563e-08	-4.290364e+01	-1.605318e+03
3.800000e-07	-5.889652e-06	-2.437972e-08	-4.218328e+01	-1.599872e+03
3.900000e-07	-5.786972e-06	-2.430035e-08	-4.144786e+01	-1.594518e+03
4.000000e-07	-5.682201e-06	-2.421139e-08	-4.069746e+01	-1.589274e+03
4.100000e-07	-5.575429e-06	-2.412077e-08	-3.993273e+01	-1.584053e+03
4.200000e-07	-5.466764e-06	-2.402871e-08	-3.915444e+01	-1.578692e+03
4.300000e-07	-5.356141e-06	-2.393157e-08	-3.836213e+01	-1.572994e+03
4.400000e-07	-5.243421e-06	-2.383024e-08	-3.755479e+01	-1.566793e+03
4.500000e-07	-5.128697e-06	-2.372875e-08	-3.673311e+01	-1.560007e+03
4.600000e-07	-5.012039e-06	-2.362418e-08	-3.589757e+01	-1.552657e+03
4.700000e-07	-4.893492e-06	-2.351384e-08	-3.504851e+01	-1.544867e+03
4.800000e-07	-4.773181e-06	-2.339984e-08	-3.418681e+01	-1.536818e+03
4.900000e-07	-4.651153e-06	-2.328266e-08	-3.331281e+01	-1.528689e+03
5.000000e-07	-4.527386e-06	-2.315828e-08	-3.242636e+01	-1.520592e+03
5.100000e-07	-4.401932e-06	-2.302443e-08	-3.152782e+01	-1.512532e+03
5.200000e-07	-4.274941e-06	-2.288470e-08	-3.061828e+01	-1.504392e+03
5.300000e-07	-4.146428e-06	-2.274075e-08	-2.969784e+01	-1.495966e+03
5.400000e-07	-4.016404e-06	-2.259165e-08	-2.876657e+01	-1.487012e+03
5.500000e-07	-3.884848e-06	-2.243940e-08	-2.782433e+01	-1.477333e+03
5.600000e-07	-3.751728e-06	-2.228374e-08	-2.687089e+01	-1.466826e+03
5.700000e-07	-3.617236e-06	-2.211884e-08	-2.590762e+01	-1.455526e+03
5.800000e-07	-3.481436e-06	-2.194413e-08	-2.493499e+01	-1.443582e+03
5.900000e-07	-3.344268e-06	-2.176409e-08	-2.395255e+01	-1.431214e+03
6.000000e-07	-3.205757e-06	-2.157711e-08	-2.296050e+01	-1.418632e+03
6.100000e-07	-3.065824e-06	-2.138135e-08	-2.195826e+01	-1.405954e+03
6.200000e-07	-2.924527e-06	-2.117463e-08	-2.094625e+01	-1.393154e+03
6.300000e-07	-2.782069e-06	-2.095947e-08	-1.992593e+01	-1.380051e+03
6.400000e-07	-2.638599e-06	-2.073561e-08	-1.889836e+01	-1.366344e+03
6.500000e-07	-2.494194e-06	-2.049862e-08	-1.786409e+01	-1.351695e+03
6.600000e-07	-2.348850e-06	-2.025048e-08	-1.682310e+01	-1.335820e+03
6.700000e-07	-2.202664e-06	-1.999034e-08	-1.577608e+01	-1.318577e+03
6.800000e-07	-2.055740e-06	-1.971856e-08	-1.472376e+01	-1.300000e+03
6.900000e-07	-1.908205e-06	-1.943265e-08	-1.366708e+01	-1.280283e+03
7.000000e-07	-1.760130e-06	-1.913045e-08	-1.260653e+01	-1.259705e+03
7.100000e-07	-1.611460e-06	-1.881050e-08	-1.154171e+01	-1.238510e+03
7.200000e-07	-1.462231e-06	-1.847272e-08	-1.047290e+01	-1.216795e+03
7.300000e-07	-1.312540e-06	-1.811645e-08	-9.400764e+00	-1.194422e+03
7.400000e-07	-1.162498e-06	-1.773730e-08	-8.326127e+00	-1.171006e+03
7.500000e-07	-1.012106e-06	-1.733481e-08	-7.248975e+00	-1.145967e+03
7.600000e-07	-8.613453e-07	-1.690681e-08	-6.169188e+00	-1.118663e+03
7.700000e-07	-7.102454e-07	-1.644698e-08	-5.086970e+00	-1.088534e+03
7.800000e-07	-5.588795e-07	-1.595024e-08	-4.002846e+00	-1.055239e+03
7.900000e-07	-4.073401e-07	-1.541501e-08	-2.917480e+00	-1.018713e+03
8.000000e-07	-2.556529e-07	-1.483652e-08	-1.831055e+00	-9.791166e+02
8.100000e-07	-1.038563e-07	-1.420571e-08	-7.438469e-01	-9.366756e+02
8.200000e-07	4.800745e-08	-1.351379e-08	3.438423e-01	-8.914300e+02
8.300000e-07	1.998767e-07	-1.275190e-08	1.431571e+00	-8.429623e+02
8.400000e-07	3.517132e-07	-1.191010e-08	2.519065e+00	-7.901784e+02
8.500000e-07	5.034837e-07	-1.097272e-08	3.606086e+00	-7.312221e+02
8.600000e-07	6.551569e-07	-9.919238e-09	4.692410e+00	-6.635800e+02
8.700000e-07	8.065883e-07	-8.718716e-09	5.777003e+00	-5.843928e+02
8.800000e-07	9.577305e-07	-7.330830e-09	6.859524e+00	-4.909378e+02
8.900000e-07	1.108605e-06	-5.700945e-09	7.940130e+00	-3.812050e+02
9.000000e-07	1.259104e-06	-3.760379e-09	9.018040e+00	-2.544495e+02
9.100000e-07	1.409192e-06	-1.512697e-09	1.009301e+01	-1.116026e+02
9.200000e-07	1.558802e-06	9.039784e-10	1.116456e+01	4.456405e+01
9.300000e-07	1.707823e-06	3.356138e-09	1.223189e+01	2.095755e+02
9.400000e-07	1.856256e-06	5.807735e-09	1.329501e+01	3.776909e+02
9.500000e-07	2.004095e-06	8.255843e-09	1.435387e+01	5.425756e+02
9.600000e-07	2.151178e-06	1.067175e-08	1.540732e+01	6.980914e+02
9.700000e-07	2.297389e-06	1.290226e-08	1.645452e+01	8.390642e+02
9.800000e-07	2.442668e-06	1.476700e-08	1.749505e+01	9.618889e+02
9.900000e-07	2.586944e-06	1.624812e-08	1.852839e+01	1.064869e+03
1.000000e-06	2.730285e-06	1.742229e-08	1.955504e+01	1.148236e+03
1.010000e-06	2.872673e-06	1.836510e-08	2.057486e+01	1.213874e+03
1.020000e-06	3.013889e-06	1.913214e-08	2.158629e+01	1.264807e+03
1.030000e-06	3.153852e-06	1.976485e-08	2.258874e+01	1.304578e+03
1.040000e-06	3.292535e-06	2.029544e-08	2.358202e+01	1.336642e+03
1.050000e-06	3.429883e-06	2.074417e-08	2.456575e+01	1.363877e+03
1.060000e-06	3.565990e-06	2.113010e-08	2.554058e+01	1.388307e+03
1.070000e-06	3.700823e-06	2.146893e-08	2.650630e+01	1.411045e+03
1.080000e-06	3.834292e-06	2.177112e-08	2.746223e+01	1.432426e+03
1.090000e-06	3.966440e-06	2.204335e-08	2.840871e+01	1.452286e+03
1.100000e-06	4.097155e-06	2.229267e-08	2.934493e+01	1.470266e+03
1.110000e-06	4.226299e-06	2.252107e-08	3.026989e+01	1.486089e+03
1.120000e-06	4.353995e-06	2.272927e-08	3.118449e+01	1.499732e+03
1.130000e-06	4.480242e-06	2.292083e-08	3.208870e+01	1.511471e+03
1.140000e-06	4.604971e-06	2.309891e-08	3.298204e+01	1.521810e+03
1.150000e-06	4.728081e-06	2.326374e-08	3.386379e+01	1.531342e+03
1.160000e-06	4.849449e-06	2.341709e-08	3.473306e+01	1.540588e+03
1.170000e-06	4.969134e-06	2.356082e-08	3.559028e+01	1.549867e+03
1.180000e-06	5.087040e-06	2.369604e-08	3.643475e+01	1.559242e+03
1.190000e-06	5.202981e-06	2.382492e-08	3.726515e+01	1.568542e+03
1.200000e-06	5.316884e-06	2.394768e-08	3.808096e+01	1.577454e+03
1.210000e-06	5.428821e-06	2.406190e-08	3.888268e+01	1.585649e+03
1.220000e-06	5.538804e-06	2.416758e-08	3.967041e+01	1.592897e+03
1.230000e-06	5.646814e-06	2.426640e-08	4.044400e+01	1.599146e+03
1.240000e-06	5.752787e-06	2.435809e-08	4.120301e+01	1.604535e+03
1.250000e-06	5.856644e-06	2.444369e-08	4.194686e+01	1.609350e+03
1.260000e-06	5.958353e-06	2.452443e-08	4.267533e+01	1.613933e+03
1.270000e-06	6.057810e-06	2.460160e-08	4.338767e+01	1.618582e+03
1.280000e-06	6.154972e-06	2.467778e-08	4.408357e+01	1.623470e+03
1.290000e-06	6.249871e-06	2.475199e-08	4.476326e+01	1.628608e+03
1.300000e-06	6.342545e-06	2.482168e-08	4.542702e+01	1.633854e+03
1.310000e-06	6.432912e-06	2.488716e-08	4.607425e+01	1.638974e+03
1.320000e-06	6.520952e-06	2.495067e-08	4.670482e+01	1.643725e+03
1.330000e-06	6.606728e-06	2.501285e-08	4.731917e+01	1.647933e+03
1.340000e-06	6.690216e-06	2.507139e-08	4.791714e+01	1.651549e+03
1.350000e-06	6.771306e-06	2.512598e-08	4.849792e+01	1.654654e+03
1.360000e-06	6.849916e-06	2.517703e-08	4.906095e+01	1.657433e+03
1.370000e-06	6.925984e-06	2.522620e-08	4.960577e+01	1.660109e+03
1.380000e-06	6.999421e-06	2.527392e-08	5.013174e+01	1.662871e+03
1.390000e-06	7.070278e-06	2.531954e-08	5.063924e+01	1.665820e+03
1.400000e-06	7.138670e-06	2.536426e-08	5.112908e+01	1.668934e+03
1.410000e-06	7.204535e-06	2.540736e-08	5.160082e+01	1.672087e+03
1.420000e-06	7.267841e-06	2.544677e-08	5.205424e+01	1.675092e+03
1.430000e-06	7.328653e-06	2.548104e-08	5.248979e+01	1.677761e+03
1.440000e-06	7.386913e-06	2.551031e-08	5.290707e+01	1.679971e+03
1.450000e-06	7.442552e-06	2.553866e-08	5.330557e+01	1.681699e+03
1.460000e-06	7.495415e-06	2.556751e-08	5.368419e+01	1.683031e+03
1.470000e-06	7.545240e-06	2.559517e-08	5.404105e+01	1.684132e+03
1.480000e-06	7.592122e-06	2.562193e-08	5.437682e+01	1.685193e+03
1.490000e-06	7.636363e-06	2.564519e-08	5.469369e+01	1.686373e+03
1.500000e-06	7.677861e-06	2.566596e-08	5.499091e+01	1.687747e+03
1.510000e-06	7.716545e-06	2.568471e-08	5.526798e+01	1.689289e+03
1.520000e-06	7.752622e-06	2.570170e-08	5.552637e+01	1.690881e+03
1.530000e-06	7.785981e-06	2.571796e-08	5.576530e+01	1.692354e+03
1.540000e-06	7.816484e-06	2.573152e-08	5.598377e+01	1.693542e+03
1.550000e-06	7.844282e-06	2.574344e-08	5.618286e+01	1.694338e+03
1.560000e-06	7.869228e-06	2.575426e-08	5.636153e+01	1.694724e+03
1.570000e-06	7.891231e-06	2.576389e-08	5.651913e+01	1.694781e+03
1.580000e-06	7.910504e-06	2.577271e-08	5.665717e+01	1.694660e+03
1.590000e-06	7.926949e-06	2.578147e-08	5.677495e+01	1.694535e+03
1.600000e-06	7.940410e-06	2.578982e-08	5.687136e+01	1.694550e+03
1.610000e-06	7.950739e-06	2.579586e-08	5.694534e+01	1.694773e+03
1.620000e-06	7.958001e-06	2.579918e-08	5.699735e+01	1.695179e+03
1.630000e-06	7.962490e-06	2.580130e-08	5.702950e+01	1.695656e+03
1.640000e-06	7.964165e-06	2.580207e-08	5.704150e+01	1.696045e+03
1.650000e-06	7.963043e-06	2.579907e-08	5.703346e+01	1.696185e+03
1.660000e-06	7.959288e-06	2.579492e-08	5.700657e+01	1.695968e+03
1.670000e-06	7.952812e-06	2.579046e-08	5.696019e+01	1.695367e+03
1.680000e-06	7.943669e-06	2.578589e-08	5.689470e+01	1.694445e+03
1.690000e-06	7.931869e-06	2.577991e-08	5.681019e+01	1.693332e+03
1.700000e-06	7.917268e-06	2.577411e-08	5.670561e+01	1.692184e+03
1.710000e-06	7.900134e-06	2.576878e-08	5.658289e+01	1.691132e+03
1.720000e-06	7.880769e-06	2.575052e-08	5.644419e+01	1.690244e+03
1.730000e-06	7.858852e-06	2.571570e-08	5.628722e+01	1.689507e+03
1.740000e-06	7.833712e-06	2.568524e-08	5.610716e+01	1.688832e+03
1.750000e-06	7.804934e-06	2.567673e-08	5.590104e+01	1.688086e+03
1.760000e-06	7.772818e-06	2.566456e-08	5.567102e+01	1.687139e+03
1.770000e-06	7.738204e-06	2.565642e-08	5.542311e+01	1.685907e+03
1.780000e-06	7.701302e-06	2.566893e-08	5.515881e+01	1.684378e+03
1.790000e-06	7.662198e-06	2.564782e-08	5.487873e+01	1.682613e+03
1.800000e-06	7.621098e-06	2.564353e-08	5.458436e+01	1.680728e+03
1.810000e-06	7.577515e-06	2.563862e-08	5.427221e+01	1.678850e+03
1.820000e-06	7.531249e-06	2.559530e-08	5.394084e+01	1.677072e+03
1.830000e-06	7.482353e-06	2.558278e-08	5.359063e+01	1.675418e+03
1.840000e-06	7.430484e-06	2.556263e-08	5.321913e+01	1.673830e+03
1.850000e-06	7.375627e-06	2.553399e-08	5.282623e+01	1.672182e+03
1.860000e-06	7.318030e-06	2.549887e-08	5.241371e+01	1.670315e+03
1.870000e-06	7.257857e-06	2.545342e-08	5.198273e+01	1.668087e+03
1.880000e-06	7.194993e-06	2.542176e-08	5.153248e+01	1.665420e+03
1.890000e-06	7.129298e-06	2.537825e-08	5.106196e+01	1.662319e+03
1.900000e-06	7.060856e-06	2.532547e-08	5.057176e+01	1.658882e+03
1.910000e-06	6.989627e-06	2.528842e-08	5.006160e+01	1.655262e+03
1.920000e-06	6.915728e-06	2.525858e-08	4.953231e+01	1.651628e+03
1.930000e-06	6.839102e-06	2.520730e-08	4.898350e+01	1.648105e+03
1.940000e-06	6.759733e-06	2.514931e-08	4.841503e+01	1.644742e+03
1.950000e-06	6.677891e-06	2.508730e-08	4.782886e+01	1.641488e+03
1.960000e-06	6.593641e-06	2.502678e-08	4.722543e+01	1.638210e+03
1.970000e-06	6.506932e-06	2.496606e-08	4.660440e+01	1.634734e+03
1.980000e-06	6.417887e-06	2.490566e-08	4.596664e+01	1.630897e+03
1.990000e-06	6.326639e-06	2.485537e-08	4.531310e+01	1.626595e+03
2.000000e-06	6.233049e-06	2.478626e-08	4.464278e+01	1.621821e+03
2.010000e-06	6.137180e-06	2.471370e-08	4.395614e+01	1.616660e+03
2.020000e-06	6.039219e-06	2.463138e-08	4.325452e+01	1.611266e+03
2.030000e-06	5.939177e-06	2.455629e-08	4.253799e+01	1.605811e+03
2.040000e-06	5.836966e-06	2.448416e-08	4.180593e+01	1.600424e+03
2.050000e-06	5.732559e-06	2.440326e-08	4.105814e+01	1.595153e+03
2.060000e-06	5.626184e-06	2.432055e-08	4.029625e+01	1.589940e+03
2.070000e-06	5.517951e-06	2.423077e-08	3.952105e+01	1.584638e+03
2.080000e-06	5.407782e-06	2.413986e-08	3.873200e+01	1.579055e+03
2.090000e-06	5.295618e-06	2.403737e-08	3.792865e+01	1.573011e+03
2.100000e-06	5.181461e-06	2.393860e-08	3.711102e+01	1.566395e+03
2.110000e-06	5.065376e-06	2.383857e-08	3.627959e+01	1.559198e+03
2.120000e-06	4.947299e-06	2.373630e-08	3.543389e+01	1.551516e+03
2.130000e-06	4.827239e-06	2.362294e-08	3.457399e+01	1.543522e+03
2.140000e-06	4.705424e-06	2.350504e-08	3.370152e+01	1.535400e+03
2.150000e-06	4.581999e-06	2.338524e-08	3.281751e+01	1.527288e+03
2.160000e-06	4.456916e-06	2.326176e-08	3.192164e+01	1.519224e+03
2.170000e-06	4.330156e-06	2.313469e-08	3.101374e+01	1.511125e+03
2.180000e-06	4.201761e-06	2.300331e-08	3.009414e+01	1.502805e+03
2.190000e-06	4.071855e-06	2.286669e-08	2.916373e+01	1.494025e+03
2.200000e-06	3.940493e-06	2.271732e-08	2.822287e+01	1.484569e+03
2.210000e-06	3.807696e-06	2.256247e-08	2.727174e+01	1.474301e+03
2.220000e-06	3.673439e-06	2.240016e-08	2.631016e+01	1.463216e+03
2.230000e-06	3.537768e-06	2.223450e-08	2.533845e+01	1.451435e+03
2.240000e-06	3.400789e-06	2.206109e-08	2.435737e+01	1.439166e+03
2.250000e-06	3.262462e-06	2.188063e-08	2.336663e+01	1.426627e+03
2.260000e-06	3.122888e-06	2.169055e-08	2.236696e+01	1.413972e+03
2.270000e-06	2.982112e-06	2.149337e-08	2.135869e+01	1.401219e+03
2.280000e-06	2.840158e-06	2.128913e-08	2.034198e+01	1.388229e+03
2.290000e-06	2.697108e-06	2.107489e-08	1.931741e+01	1.374730e+03
2.300000e-06	2.553048e-06	2.084823e-08	1.828562e+01	1.360383e+03
2.310000e-06	2.408068e-06	2.060706e-08	1.724723e+01	1.344880e+03
2.320000e-06	2.262264e-06	2.035324e-08	1.620295e+01	1.328032e+03
2.330000e-06	2.115714e-06	2.008683e-08	1.515331e+01	1.309822e+03
2.340000e-06	1.968463e-06	1.980875e-08	1.409866e+01	1.290405e+03
2.350000e-06	1.820607e-06	1.951747e-08	1.303968e+01	1.270044e+03
2.360000e-06	1.672182e-06	1.921107e-08	1.197662e+01	1.249007e+03
2.370000e-06	1.523213e-06	1.888496e-08	1.090966e+01	1.227443e+03
2.380000e-06	1.373752e-06	1.853735e-08	9.839180e+00	1.205287e+03
2.390000e-06	1.223834e-06	1.816813e-08	8.765430e+00	1.182221e+03
2.400000e-06	1.073493e-06	1.777519e-08	7.688647e+00	1.157712e+03
2.410000e-06	9.228070e-07	1.735592e-08	6.609393e+00	1.131118e+03
2.420000e-06	7.718246e-07	1.690831e-08	5.528016e+00	1.101842e+03
2.430000e-06	6.206188e-07	1.642783e-08	4.445039e+00	1.069470e+03
2.440000e-06	4.692151e-07	1.590952e-08	3.360645e+00	1.033859e+03
2.450000e-06	3.176270e-07	1.534378e-08	2.274931e+00	9.951156e+02
2.460000e-06	1.658004e-07	1.472584e-08	1.187507e+00	9.534700e+02
2.470000e-06	1.383405e-08	1.405324e-08	9.908322e-02	9.090434e+02
2.480000e-06	-1.381344e-07	1.331776e-08	-9.893562e-01	8.615753e+02
2.490000e-06	-2.901148e-07	1.250744e-08	-2.077880e+00	8.101808e+02
2.500000e-06	-4.419696e-07	1.160690e-08	-3.165505e+00	7.532198e+02
2.510000e-06	-5.936731e-07	1.059906e-08	-4.252047e+00	6.883438e+02
2.520000e-06	-7.451463e-07	9.455297e-09	-5.336939e+00	6.127493e+02
2.530000e-06	-8.963241e-07	8.139514e-09	-6.419715e+00	5.236181e+02
2.540000e-06	-1.047210e-06	6.604424e-09	-7.500398e+00	4.186767e+02
2.550000e-06	-1.197744e-06	4.784376e-09	-8.578567e+00	2.967687e+02
2.560000e-06	-1.347865e-06	2.630212e-09	-9.653771e+00	1.583171e+02
2.570000e-06	-1.497513e-06	2.194127e-10	-1.072559e+01	5.568061e+00
2.580000e-06	-1.646594e-06	-2.286504e-09	-1.179335e+01	-1.574577e+02
2.590000e-06	-1.795064e-06	-4.804395e-09	-1.285673e+01	-3.253211e+02
2.600000e-06	-1.942901e-06	-7.322760e-09	-1.391558e+01	-4.917790e+02
2.610000e-06	-2.089993e-06	-9.824783e-09	-1.496909e+01	-6.505550e+02
2.620000e-06	-2.236282e-06	-1.218980e-08	-1.601685e+01	-7.961284e+02
2.630000e-06	-2.381769e-06	-1.422239e-08	-1.705888e+01	-9.243982e+02
2.640000e-06	-2.526395e-06	-1.585421e-08	-1.809472e+01	-1.033106e+03
2.650000e-06	-2.670001e-06	-1.714894e-08	-1.912327e+01	-1.121949e+03
2.660000e-06	-2.812522e-06	-1.818208e-08	-2.014404e+01	-1.192382e+03
2.670000e-06	-2.953908e-06	-1.901638e-08	-2.115669e+01	-1.247166e+03
2.680000e-06	-3.094104e-06	-1.969893e-08	-2.216081e+01	-1.289760e+03
2.690000e-06	-3.233086e-06	-2.026492e-08	-2.315624e+01	-1.323699e+03
2.700000e-06	-3.370843e-06	-2.074017e-08	-2.414289e+01	-1.352067e+03
2.710000e-06	-3.507335e-06	-2.114725e-08	-2.512048e+01	-1.377147e+03
2.720000e-06	-3.642511e-06	-2.150456e-08	-2.608865e+01	-1.400304e+03
2.730000e-06	-3.776354e-06	-2.182285e-08	-2.704727e+01	-1.422073e+03
2.740000e-06	-3.908896e-06	-2.210858e-08	-2.799656e+01	-1.442402e+03
2.750000e-06	-4.040090e-06	-2.236493e-08	-2.893621e+01	-1.460955e+03
2.760000e-06	-4.169883e-06	-2.259736e-08	-2.986583e+01	-1.477410e+03
2.770000e-06	-4.298216e-06	-2.281217e-08	-3.078499e+01	-1.491661e+03
2.780000e-06	-4.424991e-06	-2.301201e-08	-3.169298e+01	-1.503900e+03
2.790000e-06	-4.550268e-06	-2.319665e-08	-3.259025e+01	-1.514579e+03
2.800000e-06	-4.674044e-06	-2.336698e-08	-3.347677e+01	-1.524282e+03
2.810000e-06	-4.796145e-06	-2.352301e-08	-3.435129e+01	-1.533567e+03
2.820000e-06	-4.916495e-06	-2.366612e-08	-3.521326e+01	-1.542819e+03
2.830000e-06	-5.034923e-06	-2.380113e-08	-3.606147e+01	-1.552175e+03
2.840000e-06	-5.151285e-06	-2.392954e-08	-3.689489e+01	-1.561524e+03
2.850000e-06	-5.265593e-06	-2.405203e-08	-3.771360e+01	-1.570582e+03
2.860000e-06	-5.377838e-06	-2.416698e-08	-3.851753e+01	-1.579012e+03
2.870000e-06	-5.488069e-06	-2.427226e-08	-3.930704e+01	-1.586545e+03
2.880000e-06	-5.596350e-06	-2.436971e-08	-4.008257e+01	-1.593073e+03
2.890000e-06	-5.702701e-06	-2.446232e-08	-4.084428e+01	-1.598684e+03
2.900000e-06	-5.807004e-06	-2.455109e-08	-4.159133e+01	-1.603628e+03
2.910000e-06	-5.909060e-06	-2.463588e-08	-4.232228e+01	-1.608243e+03
2.920000e-06	-6.008939e-06	-2.471706e-08	-4.303764e+01	-1.612849e+03
2.930000e-06	-6.106761e-06	-2.479352e-08	-4.373827e+01	-1.617661e+03
2.940000e-06	-6.202368e-06	-2.486622e-08	-4.442303e+01	-1.622736e+03
