# Temperatura_=_37.03
# Concentracion g/m^3_=_28200.0
# C_Vs_to_Am_M_A/Vsm_=_65563218390.804596
# pendiente_HvsI_1/m_=_3716.3
# ordenada_HvsI_A/m_=_1297.0
# frecuencia_Hz_=_301750.06515713566

Tiempo_(s)	Campo_(V.s)	Magnetizacion_(V.s)	Campo_(kA/m)	Magnetizacion_(A/m)
0.000000e+00	-5.339621e-06	-1.964660e-08	-3.829796e+01	-1.284383e+03
1.000000e-08	-5.337386e-06	-1.964567e-08	-3.828193e+01	-1.284090e+03
2.000000e-08	-5.333344e-06	-1.963597e-08	-3.825294e+01	-1.283669e+03
3.000000e-08	-5.327740e-06	-1.962446e-08	-3.821274e+01	-1.283112e+03
4.000000e-08	-5.320517e-06	-1.961355e-08	-3.816094e+01	-1.282403e+03
5.000000e-08	-5.311542e-06	-1.959658e-08	-3.809656e+01	-1.281525e+03
6.000000e-08	-5.300561e-06	-1.957463e-08	-3.801780e+01	-1.280463e+03
7.000000e-08	-5.287648e-06	-1.954241e-08	-3.792519e+01	-1.279207e+03
8.000000e-08	-5.272824e-06	-1.951967e-08	-3.781887e+01	-1.277760e+03
9.000000e-08	-5.255768e-06	-1.957287e-08	-3.769654e+01	-1.276137e+03
1.000000e-07	-5.236529e-06	-1.956222e-08	-3.755854e+01	-1.274367e+03
1.100000e-07	-5.215347e-06	-1.947271e-08	-3.740662e+01	-1.272483e+03
1.200000e-07	-5.192435e-06	-1.943682e-08	-3.724228e+01	-1.270524e+03
1.300000e-07	-5.168001e-06	-1.932451e-08	-3.706703e+01	-1.268520e+03
1.400000e-07	-5.141990e-06	-1.926402e-08	-3.688047e+01	-1.266490e+03
1.500000e-07	-5.114310e-06	-1.941835e-08	-3.668193e+01	-1.264434e+03
1.600000e-07	-5.085091e-06	-1.927310e-08	-3.647236e+01	-1.262337e+03
1.700000e-07	-5.054515e-06	-1.919835e-08	-3.625306e+01	-1.260166e+03
1.800000e-07	-5.022128e-06	-1.933129e-08	-3.602077e+01	-1.257878e+03
1.900000e-07	-4.987598e-06	-1.910349e-08	-3.577310e+01	-1.255425e+03
2.000000e-07	-4.951480e-06	-1.905014e-08	-3.551406e+01	-1.252762e+03
2.100000e-07	-4.913777e-06	-1.912507e-08	-3.524363e+01	-1.249854e+03
2.200000e-07	-4.874264e-06	-1.896284e-08	-3.496023e+01	-1.246678e+03
2.300000e-07	-4.832920e-06	-1.892838e-08	-3.466369e+01	-1.243228e+03
2.400000e-07	-4.789592e-06	-1.890058e-08	-3.435293e+01	-1.239508e+03
2.500000e-07	-4.744404e-06	-1.879756e-08	-3.402882e+01	-1.235533e+03
2.600000e-07	-4.697467e-06	-1.879474e-08	-3.369217e+01	-1.231321e+03
2.700000e-07	-4.648654e-06	-1.868472e-08	-3.334206e+01	-1.226887e+03
2.800000e-07	-4.597723e-06	-1.859283e-08	-3.297676e+01	-1.222242e+03
2.900000e-07	-4.544804e-06	-1.852327e-08	-3.259721e+01	-1.217389e+03
3.000000e-07	-4.490219e-06	-1.844777e-08	-3.220570e+01	-1.212324e+03
3.100000e-07	-4.434056e-06	-1.839481e-08	-3.180288e+01	-1.207037e+03
3.200000e-07	-4.376079e-06	-1.830055e-08	-3.138704e+01	-1.201515e+03
3.300000e-07	-4.316390e-06	-1.821764e-08	-3.095892e+01	-1.195745e+03
3.400000e-07	-4.255263e-06	-1.810470e-08	-3.052049e+01	-1.189717e+03
3.500000e-07	-4.192666e-06	-1.800059e-08	-3.007153e+01	-1.183426e+03
3.600000e-07	-4.128703e-06	-1.790633e-08	-2.961276e+01	-1.176869e+03
3.700000e-07	-4.063158e-06	-1.780963e-08	-2.914264e+01	-1.170045e+03
3.800000e-07	-3.995994e-06	-1.772955e-08	-2.866091e+01	-1.162956e+03
3.900000e-07	-3.927433e-06	-1.759280e-08	-2.816917e+01	-1.155599e+03
4.000000e-07	-3.857529e-06	-1.745480e-08	-2.766779e+01	-1.147970e+03
4.100000e-07	-3.786398e-06	-1.734886e-08	-2.715761e+01	-1.140062e+03
4.200000e-07	-3.714042e-06	-1.722425e-08	-2.663863e+01	-1.131861e+03
4.300000e-07	-3.640194e-06	-1.710115e-08	-2.610897e+01	-1.123353e+03
4.400000e-07	-3.564740e-06	-1.696464e-08	-2.556779e+01	-1.114523e+03
4.500000e-07	-3.487862e-06	-1.682335e-08	-2.501638e+01	-1.105354e+03
4.600000e-07	-3.409645e-06	-1.666916e-08	-2.445538e+01	-1.095830e+03
4.700000e-07	-3.330008e-06	-1.651755e-08	-2.388419e+01	-1.085939e+03
4.800000e-07	-3.249049e-06	-1.637496e-08	-2.330351e+01	-1.075665e+03
4.900000e-07	-3.166976e-06	-1.620656e-08	-2.271486e+01	-1.064995e+03
5.000000e-07	-3.083880e-06	-1.603464e-08	-2.211885e+01	-1.053911e+03
5.100000e-07	-2.999889e-06	-1.585595e-08	-2.151644e+01	-1.042394e+03
5.200000e-07	-2.915016e-06	-1.567293e-08	-2.090770e+01	-1.030422e+03
5.300000e-07	-2.829164e-06	-1.548062e-08	-2.029193e+01	-1.017969e+03
5.400000e-07	-2.742336e-06	-1.528313e-08	-1.966916e+01	-1.005006e+03
5.500000e-07	-2.654731e-06	-1.508327e-08	-1.904082e+01	-9.915016e+02
5.600000e-07	-2.566176e-06	-1.486674e-08	-1.840567e+01	-9.774242e+02
5.700000e-07	-2.476320e-06	-1.464322e-08	-1.776119e+01	-9.627415e+02
5.800000e-07	-2.385318e-06	-1.440824e-08	-1.710848e+01	-9.474213e+02
5.900000e-07	-2.293492e-06	-1.416327e-08	-1.644987e+01	-9.314311e+02
6.000000e-07	-2.200953e-06	-1.390383e-08	-1.578614e+01	-9.147378e+02
6.100000e-07	-2.107665e-06	-1.363451e-08	-1.511704e+01	-8.973068e+02
6.200000e-07	-2.013597e-06	-1.335688e-08	-1.444235e+01	-8.791006e+02
6.300000e-07	-1.918803e-06	-1.306712e-08	-1.376245e+01	-8.600784e+02
6.400000e-07	-1.823453e-06	-1.276576e-08	-1.307856e+01	-8.401947e+02
6.500000e-07	-1.727550e-06	-1.244668e-08	-1.239070e+01	-8.193987e+02
6.600000e-07	-1.630903e-06	-1.211144e-08	-1.169751e+01	-7.976344e+02
6.700000e-07	-1.533450e-06	-1.176166e-08	-1.099853e+01	-7.748397e+02
6.800000e-07	-1.435259e-06	-1.139864e-08	-1.029427e+01	-7.509478e+02
6.900000e-07	-1.336480e-06	-1.101706e-08	-9.585787e+00	-7.258877e+02
7.000000e-07	-1.237296e-06	-1.061521e-08	-8.874395e+00	-6.995874e+02
7.100000e-07	-1.137743e-06	-1.019196e-08	-8.160365e+00	-6.719771e+02
7.200000e-07	-1.037824e-06	-9.748402e-09	-7.443700e+00	-6.429947e+02
7.300000e-07	-9.376391e-07	-9.284386e-09	-6.725134e+00	-6.125926e+02
7.400000e-07	-8.371828e-07	-8.798624e-09	-6.004620e+00	-5.807454e+02
7.500000e-07	-7.364773e-07	-8.294061e-09	-5.282319e+00	-5.474576e+02
7.600000e-07	-6.355514e-07	-7.764831e-09	-4.558436e+00	-5.127701e+02
7.700000e-07	-5.344159e-07	-7.213633e-09	-3.833051e+00	-4.767648e+02
7.800000e-07	-4.331858e-07	-6.647455e-09	-3.106987e+00	-4.395651e+02
7.900000e-07	-3.318790e-07	-6.067922e-09	-2.380373e+00	-4.013315e+02
8.000000e-07	-2.303809e-07	-5.474285e-09	-1.652386e+00	-3.622525e+02
8.100000e-07	-1.286831e-07	-4.871892e-09	-9.229679e-01	-3.225301e+02
8.200000e-07	-2.688815e-08	-4.264573e-09	-1.928529e-01	-2.823626e+02
8.300000e-07	7.493957e-08	-3.651577e-09	5.374975e-01	-2.419249e+02
8.400000e-07	1.767613e-07	-3.035576e-09	1.267805e+00	-2.013502e+02
8.500000e-07	2.785274e-07	-2.417524e-09	1.997713e+00	-1.607155e+02
8.600000e-07	3.802009e-07	-1.798897e-09	2.726958e+00	-1.200329e+02
8.700000e-07	4.817451e-07	-1.177030e-09	3.455274e+00	-7.924979e+01
8.800000e-07	5.831408e-07	-5.534067e-10	4.182526e+00	-3.825692e+01
8.900000e-07	6.843768e-07	7.595708e-11	4.908632e+00	3.093845e+00
9.000000e-07	7.854103e-07	7.138127e-10	5.633286e+00	4.496574e+01
9.100000e-07	8.861806e-07	1.359998e-09	6.356052e+00	8.750911e+01
9.200000e-07	9.866811e-07	2.017067e-09	7.076883e+00	1.308331e+02
9.300000e-07	1.086881e-06	2.685427e-09	7.795557e+00	1.749809e+02
9.400000e-07	1.186725e-06	3.368047e-09	8.511683e+00	2.199120e+02
9.500000e-07	1.286172e-06	4.061756e-09	9.224957e+00	2.654941e+02
9.600000e-07	1.385112e-06	4.761698e-09	9.934595e+00	3.115055e+02
9.700000e-07	1.483503e-06	5.462809e-09	1.064029e+01	3.576492e+02
9.800000e-07	1.581244e-06	6.161678e-09	1.134133e+01	4.035744e+02
9.900000e-07	1.678218e-06	6.850801e-09	1.203687e+01	4.489051e+02
1.000000e-06	1.774390e-06	7.522976e-09	1.272666e+01	4.932702e+02
1.010000e-06	1.869838e-06	8.175436e-09	1.341125e+01	5.363324e+02
1.020000e-06	1.964671e-06	8.804825e-09	1.409143e+01	5.778108e+02
1.030000e-06	2.058855e-06	9.407718e-09	1.476695e+01	6.174968e+02
1.040000e-06	2.152295e-06	9.982616e-09	1.543714e+01	6.552603e+02
1.050000e-06	2.245050e-06	1.052870e-08	1.610243e+01	6.910469e+02
1.060000e-06	2.337167e-06	1.104167e-08	1.676312e+01	7.248684e+02
1.070000e-06	2.428498e-06	1.152609e-08	1.741819e+01	7.567873e+02
1.080000e-06	2.518890e-06	1.198204e-08	1.806652e+01	7.868995e+02
1.090000e-06	2.608194e-06	1.241166e-08	1.870704e+01	8.153181e+02
1.100000e-06	2.696425e-06	1.281812e-08	1.933987e+01	8.421592e+02
1.110000e-06	2.783725e-06	1.320475e-08	1.996602e+01	8.675320e+02
1.120000e-06	2.870126e-06	1.357079e-08	2.058573e+01	8.915342e+02
1.130000e-06	2.955585e-06	1.391711e-08	2.119867e+01	9.142509e+02
1.140000e-06	3.040135e-06	1.424437e-08	2.180510e+01	9.357563e+02
1.150000e-06	3.123794e-06	1.455193e-08	2.240514e+01	9.561175e+02
1.160000e-06	3.206395e-06	1.484388e-08	2.299759e+01	9.753977e+02
1.170000e-06	3.287803e-06	1.512042e-08	2.358148e+01	9.936591e+02
1.180000e-06	3.368045e-06	1.538295e-08	2.415700e+01	1.010964e+03
1.190000e-06	3.447106e-06	1.563124e-08	2.472406e+01	1.027373e+03
1.200000e-06	3.524941e-06	1.586745e-08	2.528233e+01	1.042945e+03
1.210000e-06	3.601556e-06	1.609102e-08	2.583184e+01	1.057735e+03
1.220000e-06	3.676772e-06	1.630178e-08	2.637132e+01	1.071793e+03
1.230000e-06	3.750390e-06	1.650302e-08	2.689934e+01	1.085161e+03
1.240000e-06	3.822473e-06	1.669566e-08	2.741635e+01	1.097875e+03
1.250000e-06	3.893166e-06	1.687867e-08	2.792339e+01	1.109968e+03
1.260000e-06	3.962528e-06	1.705261e-08	2.842088e+01	1.121466e+03
1.270000e-06	4.030628e-06	1.721764e-08	2.890932e+01	1.132396e+03
1.280000e-06	4.097281e-06	1.737477e-08	2.938738e+01	1.142782e+03
1.290000e-06	4.162217e-06	1.752516e-08	2.985313e+01	1.152647e+03
1.300000e-06	4.225594e-06	1.766855e-08	3.030770e+01	1.162014e+03
1.310000e-06	4.287523e-06	1.780418e-08	3.075188e+01	1.170900e+03
1.320000e-06	4.348086e-06	1.793396e-08	3.118626e+01	1.179324e+03
1.330000e-06	4.407332e-06	1.805743e-08	3.161120e+01	1.187300e+03
1.340000e-06	4.464849e-06	1.817227e-08	3.202374e+01	1.194840e+03
1.350000e-06	4.520547e-06	1.827818e-08	3.242323e+01	1.201958e+03
1.360000e-06	4.574654e-06	1.837819e-08	3.281130e+01	1.208669e+03
1.370000e-06	4.627043e-06	1.847342e-08	3.318706e+01	1.214993e+03
1.380000e-06	4.677424e-06	1.856305e-08	3.354841e+01	1.220953e+03
1.390000e-06	4.725857e-06	1.864723e-08	3.389579e+01	1.226578e+03
1.400000e-06	4.772599e-06	1.872824e-08	3.423105e+01	1.231899e+03
1.410000e-06	4.817713e-06	1.880654e-08	3.455462e+01	1.236947e+03
1.420000e-06	4.861260e-06	1.888019e-08	3.486696e+01	1.241748e+03
1.430000e-06	4.903001e-06	1.895083e-08	3.516634e+01	1.246322e+03
1.440000e-06	4.942887e-06	1.901840e-08	3.545242e+01	1.250676e+03
1.450000e-06	4.981154e-06	1.908057e-08	3.572689e+01	1.254810e+03
1.460000e-06	5.017856e-06	1.913586e-08	3.599013e+01	1.258714e+03
1.470000e-06	5.052871e-06	1.918688e-08	3.624127e+01	1.262373e+03
1.480000e-06	5.085924e-06	1.923778e-08	3.647834e+01	1.265771e+03
1.490000e-06	5.117102e-06	1.928633e-08	3.670196e+01	1.268896e+03
1.500000e-06	5.146608e-06	1.933122e-08	3.691359e+01	1.271743e+03
1.510000e-06	5.174495e-06	1.937097e-08	3.711361e+01	1.274316e+03
1.520000e-06	5.200463e-06	1.940515e-08	3.729986e+01	1.276627e+03
1.530000e-06	5.224356e-06	1.943592e-08	3.747123e+01	1.278698e+03
1.540000e-06	5.246408e-06	1.946393e-08	3.762940e+01	1.280547e+03
1.550000e-06	5.266779e-06	1.948886e-08	3.777551e+01	1.282197e+03
1.560000e-06	5.285339e-06	1.951009e-08	3.790863e+01	1.283663e+03
1.570000e-06	5.301906e-06	1.952837e-08	3.802745e+01	1.284953e+03
1.580000e-06	5.316482e-06	1.954363e-08	3.813199e+01	1.286070e+03
1.590000e-06	5.329047e-06	1.955807e-08	3.822212e+01	1.287012e+03
1.600000e-06	5.339461e-06	1.957129e-08	3.829681e+01	1.287774e+03
1.610000e-06	5.347711e-06	1.958247e-08	3.835598e+01	1.288357e+03
1.620000e-06	5.354074e-06	1.959052e-08	3.840163e+01	1.288761e+03
1.630000e-06	5.358716e-06	1.959375e-08	3.843492e+01	1.288995e+03
1.640000e-06	5.361475e-06	1.959441e-08	3.845470e+01	1.289071e+03
1.650000e-06	5.362213e-06	1.959673e-08	3.846000e+01	1.289002e+03
1.660000e-06	5.361057e-06	1.959368e-08	3.845171e+01	1.288799e+03
1.670000e-06	5.358186e-06	1.958631e-08	3.843111e+01	1.288469e+03
1.680000e-06	5.353780e-06	1.958335e-08	3.839952e+01	1.288010e+03
1.690000e-06	5.347554e-06	1.957659e-08	3.835486e+01	1.287410e+03
1.700000e-06	5.339390e-06	1.956603e-08	3.829630e+01	1.286654e+03
1.710000e-06	5.329648e-06	1.955386e-08	3.822643e+01	1.285725e+03
1.720000e-06	5.318285e-06	1.954965e-08	3.814493e+01	1.284607e+03
1.730000e-06	5.304979e-06	1.955151e-08	3.804949e+01	1.283294e+03
1.740000e-06	5.289651e-06	1.943761e-08	3.793956e+01	1.281794e+03
1.750000e-06	5.272185e-06	1.938271e-08	3.781428e+01	1.280125e+03
1.760000e-06	5.252149e-06	1.941915e-08	3.767057e+01	1.278318e+03
1.770000e-06	5.229575e-06	1.940239e-08	3.750866e+01	1.276409e+03
1.780000e-06	5.205280e-06	1.951248e-08	3.733441e+01	1.274434e+03
1.790000e-06	5.180160e-06	1.940793e-08	3.715424e+01	1.272420e+03
1.800000e-06	5.154115e-06	1.919590e-08	3.696743e+01	1.270382e+03
1.810000e-06	5.126110e-06	1.937167e-08	3.676657e+01	1.268317e+03
1.820000e-06	5.096018e-06	1.925055e-08	3.655074e+01	1.266202e+03
1.830000e-06	5.064293e-06	1.913670e-08	3.632319e+01	1.264002e+03
1.840000e-06	5.030663e-06	1.939032e-08	3.608199e+01	1.261671e+03
1.850000e-06	4.995322e-06	1.919446e-08	3.582851e+01	1.259161e+03
1.860000e-06	4.958434e-06	1.910752e-08	3.556393e+01	1.256430e+03
1.870000e-06	4.919598e-06	1.922601e-08	3.528539e+01	1.253446e+03
1.880000e-06	4.879043e-06	1.902378e-08	3.499450e+01	1.250192e+03
1.890000e-06	4.836758e-06	1.906996e-08	3.469122e+01	1.246663e+03
1.900000e-06	4.792759e-06	1.899037e-08	3.437564e+01	1.242868e+03
1.910000e-06	4.747121e-06	1.882316e-08	3.404830e+01	1.238823e+03
1.920000e-06	4.699449e-06	1.895960e-08	3.370638e+01	1.234545e+03
1.930000e-06	4.650060e-06	1.879404e-08	3.335215e+01	1.230049e+03
1.940000e-06	4.598994e-06	1.873270e-08	3.298588e+01	1.225344e+03
1.950000e-06	4.545812e-06	1.868876e-08	3.260444e+01	1.220431e+03
1.960000e-06	4.490736e-06	1.853521e-08	3.220940e+01	1.215303e+03
1.970000e-06	4.433959e-06	1.854024e-08	3.180218e+01	1.209949e+03
1.980000e-06	4.375605e-06	1.835772e-08	3.138364e+01	1.204356e+03
1.990000e-06	4.315876e-06	1.832062e-08	3.095524e+01	1.198513e+03
2.000000e-06	4.254653e-06	1.828542e-08	3.051612e+01	1.192410e+03
2.010000e-06	4.191742e-06	1.812016e-08	3.006490e+01	1.186042e+03
2.020000e-06	4.127124e-06	1.804771e-08	2.960143e+01	1.179408e+03
2.030000e-06	4.061045e-06	1.788086e-08	2.912749e+01	1.172508e+03
2.040000e-06	3.993695e-06	1.784427e-08	2.864442e+01	1.165342e+03
2.050000e-06	3.924964e-06	1.773403e-08	2.815146e+01	1.157907e+03
2.060000e-06	3.854614e-06	1.757958e-08	2.764688e+01	1.150199e+03
2.070000e-06	3.782823e-06	1.750854e-08	2.713196e+01	1.142207e+03
2.080000e-06	3.709848e-06	1.733397e-08	2.660856e+01	1.133920e+03
2.090000e-06	3.635529e-06	1.721762e-08	2.607551e+01	1.125321e+03
2.100000e-06	3.559818e-06	1.706606e-08	2.553248e+01	1.116394e+03
2.110000e-06	3.482559e-06	1.694530e-08	2.497835e+01	1.107125e+03
2.120000e-06	3.403788e-06	1.681191e-08	2.441337e+01	1.097497e+03
2.130000e-06	3.323835e-06	1.663162e-08	2.383992e+01	1.087497e+03
2.140000e-06	3.242781e-06	1.649568e-08	2.325856e+01	1.077111e+03
2.150000e-06	3.160653e-06	1.631600e-08	2.266950e+01	1.066323e+03
2.160000e-06	3.077514e-06	1.615866e-08	2.207320e+01	1.055117e+03
2.170000e-06	2.993390e-06	1.597923e-08	2.146982e+01	1.043472e+03
2.180000e-06	2.908022e-06	1.579723e-08	2.085753e+01	1.031365e+03
2.190000e-06	2.821335e-06	1.560613e-08	2.023578e+01	1.018769e+03
2.200000e-06	2.733624e-06	1.539536e-08	1.960668e+01	1.005653e+03
2.210000e-06	2.644966e-06	1.519575e-08	1.897079e+01	9.919877e+02
2.220000e-06	2.555373e-06	1.497253e-08	1.832819e+01	9.777400e+02
2.230000e-06	2.464909e-06	1.474867e-08	1.767934e+01	9.628778e+02
2.240000e-06	2.373719e-06	1.450792e-08	1.702529e+01	9.473688e+02
2.250000e-06	2.281869e-06	1.427212e-08	1.636651e+01	9.311804e+02
2.260000e-06	2.189217e-06	1.401944e-08	1.570197e+01	9.142793e+02
2.270000e-06	2.095593e-06	1.374771e-08	1.503046e+01	8.966300e+02
2.280000e-06	2.000965e-06	1.346779e-08	1.435175e+01	8.781944e+02
2.290000e-06	1.905503e-06	1.317270e-08	1.366705e+01	8.589302e+02
2.300000e-06	1.809428e-06	1.286660e-08	1.297796e+01	8.387905e+02
2.310000e-06	1.712843e-06	1.254359e-08	1.228522e+01	8.177232e+02
2.320000e-06	1.615744e-06	1.221079e-08	1.158878e+01	7.956703e+02
2.330000e-06	1.518071e-06	1.185963e-08	1.088823e+01	7.725685e+02
2.340000e-06	1.419833e-06	1.148984e-08	1.018363e+01	7.483494e+02
2.350000e-06	1.321153e-06	1.109986e-08	9.475856e+00	7.229416e+02
2.360000e-06	1.222104e-06	1.069613e-08	8.765430e+00	6.962732e+02
2.370000e-06	1.122795e-06	1.027551e-08	8.053150e+00	6.682760e+02
2.380000e-06	1.023336e-06	9.831066e-09	7.339786e+00	6.388913e+02
2.390000e-06	9.236331e-07	9.361635e-09	6.624677e+00	6.080771e+02
2.400000e-06	8.235648e-07	8.865687e-09	5.906946e+00	5.758157e+02
2.410000e-06	7.231788e-07	8.349348e-09	5.186936e+00	5.421213e+02
2.420000e-06	6.224884e-07	7.810976e-09	4.464743e+00	5.070464e+02
2.430000e-06	5.214393e-07	7.252106e-09	3.739978e+00	4.706848e+02
2.440000e-06	4.201613e-07	6.680522e-09	3.013570e+00	4.331712e+02
2.450000e-06	3.187587e-07	6.097356e-09	2.286269e+00	3.946753e+02
2.460000e-06	2.171681e-07	5.497025e-09	1.557619e+00	3.553909e+02
2.470000e-06	1.154805e-07	4.883020e-09	8.282738e-01	3.155210e+02
2.480000e-06	1.376712e-08	4.265155e-09	9.874343e-02	2.752593e+02
2.490000e-06	-8.799957e-08	3.644283e-09	-6.311691e-01	2.347704e+02
2.500000e-06	-1.897625e-07	3.019552e-09	-1.361055e+00	1.941727e+02
2.510000e-06	-2.914302e-07	2.394885e-09	-2.090257e+00	1.535253e+02
2.520000e-06	-3.929786e-07	1.772258e-09	-2.818604e+00	1.128214e+02
2.530000e-06	-4.943709e-07	1.148378e-09	-3.545832e+00	7.199091e+01
2.540000e-06	-5.955399e-07	5.207127e-10	-4.271457e+00	3.091136e+01
2.550000e-06	-6.965011e-07	-1.126563e-10	-4.995593e+00	-1.057236e+01
2.560000e-06	-7.971779e-07	-7.539103e-10	-5.717688e+00	-5.262275e+01
2.570000e-06	-8.974093e-07	-1.407465e-09	-6.436589e+00	-9.538118e+01
2.580000e-06	-9.972877e-07	-2.075328e-09	-7.152958e+00	-1.389402e+02
2.590000e-06	-1.096871e-06	-2.755704e-09	-7.867209e+00	-1.833206e+02
2.600000e-06	-1.196124e-06	-3.449483e-09	-8.579091e+00	-2.284560e+02
2.610000e-06	-1.295094e-06	-4.151647e-09	-9.288950e+00	-2.741877e+02
2.620000e-06	-1.393639e-06	-4.856866e-09	-9.995750e+00	-3.202708e+02
2.630000e-06	-1.491562e-06	-5.562095e-09	-1.069810e+01	-3.663902e+02
2.640000e-06	-1.588889e-06	-6.262947e-09	-1.139617e+01	-4.121849e+02
2.650000e-06	-1.685706e-06	-6.954320e-09	-1.209058e+01	-4.572773e+02
2.660000e-06	-1.782022e-06	-7.628597e-09	-1.278140e+01	-5.013032e+02
2.670000e-06	-1.877835e-06	-8.281925e-09	-1.346861e+01	-5.439393e+02
2.680000e-06	-1.973015e-06	-8.910862e-09	-1.415128e+01	-5.849241e+02
2.690000e-06	-2.067393e-06	-9.509208e-09	-1.482819e+01	-6.240714e+02
2.700000e-06	-2.160814e-06	-1.007901e-08	-1.549825e+01	-6.612732e+02
2.710000e-06	-2.253286e-06	-1.062175e-08	-1.616149e+01	-6.964954e+02
2.720000e-06	-2.344940e-06	-1.113314e-08	-1.681888e+01	-7.297658e+02
2.730000e-06	-2.435781e-06	-1.161258e-08	-1.747043e+01	-7.611583e+02
2.740000e-06	-2.525754e-06	-1.206433e-08	-1.811575e+01	-7.907754e+02
2.750000e-06	-2.614833e-06	-1.249223e-08	-1.875466e+01	-8.187323e+02
2.760000e-06	-2.703048e-06	-1.289887e-08	-1.938737e+01	-8.451439e+02
2.770000e-06	-2.790468e-06	-1.328439e-08	-2.001438e+01	-8.701164e+02
2.780000e-06	-2.876941e-06	-1.364724e-08	-2.063460e+01	-8.937439e+02
2.790000e-06	-2.962209e-06	-1.398658e-08	-2.124619e+01	-9.161080e+02
2.800000e-06	-3.046339e-06	-1.430740e-08	-2.184959e+01	-9.372805e+02
2.810000e-06	-3.129496e-06	-1.461451e-08	-2.244604e+01	-9.573272e+02
2.820000e-06	-3.211635e-06	-1.490780e-08	-2.303517e+01	-9.763107e+02
2.830000e-06	-3.292670e-06	-1.518557e-08	-2.361638e+01	-9.942931e+02
2.840000e-06	-3.372650e-06	-1.544568e-08	-2.419004e+01	-1.011336e+03
2.850000e-06	-3.451389e-06	-1.569364e-08	-2.475478e+01	-1.027501e+03
2.860000e-06	-3.528613e-06	-1.593078e-08	-2.530866e+01	-1.042845e+03
2.870000e-06	-3.604384e-06	-1.615527e-08	-2.585212e+01	-1.057422e+03
2.880000e-06	-3.678742e-06	-1.636957e-08	-2.638545e+01	-1.071280e+03
2.890000e-06	-3.751745e-06	-1.657285e-08	-2.690906e+01	-1.084458e+03
2.900000e-06	-3.823480e-06	-1.676677e-08	-2.742357e+01	-1.096992e+03
2.910000e-06	-3.893745e-06	-1.695076e-08	-2.792754e+01	-1.108913e+03
2.920000e-06	-3.962462e-06	-1.712343e-08	-2.842041e+01	-1.120247e+03
2.930000e-06	-4.029779e-06	-1.728767e-08	-2.890323e+01	-1.131020e+03
2.940000e-06	-4.095713e-06	-1.744233e-08	-2.937614e+01	-1.141255e+03
