# Temperatura_=_56.32
# Concentracion g/m^3_=_28200.0
# C_Vs_to_Am_M_A/Vsm_=_65563218390.804596
# pendiente_HvsI_1/m_=_3716.3
# ordenada_HvsI_A/m_=_1297.0
# frecuencia_Hz_=_301749.96477325325

Tiempo_(s)	Campo_(V.s)	Magnetizacion_(V.s)	Campo_(kA/m)	Magnetizacion_(A/m)
0.000000e+00	-5.321312e-06	-2.148460e-08	-3.830374e+01	-1.405035e+03
1.000000e-08	-5.319117e-06	-2.148319e-08	-3.828794e+01	-1.404695e+03
2.000000e-08	-5.315099e-06	-2.147420e-08	-3.825902e+01	-1.404215e+03
3.000000e-08	-5.309495e-06	-2.146328e-08	-3.821868e+01	-1.403588e+03
4.000000e-08	-5.302291e-06	-2.145088e-08	-3.816682e+01	-1.402797e+03
5.000000e-08	-5.293405e-06	-2.143222e-08	-3.810286e+01	-1.401820e+03
6.000000e-08	-5.282526e-06	-2.140821e-08	-3.802455e+01	-1.400640e+03
7.000000e-08	-5.269715e-06	-2.137240e-08	-3.793233e+01	-1.399249e+03
8.000000e-08	-5.254962e-06	-2.134883e-08	-3.782614e+01	-1.397650e+03
9.000000e-08	-5.237967e-06	-2.139356e-08	-3.770381e+01	-1.395861e+03
1.000000e-07	-5.218856e-06	-2.137506e-08	-3.756624e+01	-1.393916e+03
1.100000e-07	-5.197825e-06	-2.129172e-08	-3.741486e+01	-1.391853e+03
1.200000e-07	-5.174998e-06	-2.125465e-08	-3.725054e+01	-1.389712e+03
1.300000e-07	-5.150608e-06	-2.112909e-08	-3.707498e+01	-1.387525e+03
1.400000e-07	-5.124658e-06	-2.109450e-08	-3.688819e+01	-1.385310e+03
1.500000e-07	-5.097066e-06	-2.123676e-08	-3.668957e+01	-1.383064e+03
1.600000e-07	-5.067999e-06	-2.106421e-08	-3.648035e+01	-1.380765e+03
1.700000e-07	-5.037480e-06	-2.101486e-08	-3.626067e+01	-1.378372e+03
1.800000e-07	-5.005152e-06	-2.112027e-08	-3.602796e+01	-1.375836e+03
1.900000e-07	-4.970799e-06	-2.087361e-08	-3.578069e+01	-1.373102e+03
2.000000e-07	-4.934849e-06	-2.084708e-08	-3.552191e+01	-1.370121e+03
2.100000e-07	-4.897278e-06	-2.090421e-08	-3.525147e+01	-1.366856e+03
2.200000e-07	-4.857899e-06	-2.073390e-08	-3.496801e+01	-1.363286e+03
2.300000e-07	-4.816705e-06	-2.071216e-08	-3.467149e+01	-1.359407e+03
2.400000e-07	-4.773530e-06	-2.066342e-08	-3.436071e+01	-1.355231e+03
2.500000e-07	-4.728543e-06	-2.053466e-08	-3.403689e+01	-1.350775e+03
2.600000e-07	-4.681822e-06	-2.052949e-08	-3.370058e+01	-1.346066e+03
2.700000e-07	-4.633228e-06	-2.043118e-08	-3.335079e+01	-1.341122e+03
2.800000e-07	-4.582562e-06	-2.031955e-08	-3.298609e+01	-1.335959e+03
2.900000e-07	-4.529847e-06	-2.025660e-08	-3.260663e+01	-1.330580e+03
3.000000e-07	-4.475403e-06	-2.018261e-08	-3.221474e+01	-1.324980e+03
3.100000e-07	-4.419374e-06	-2.008487e-08	-3.181143e+01	-1.319147e+03
3.200000e-07	-4.361608e-06	-1.998635e-08	-3.139562e+01	-1.313064e+03
3.300000e-07	-4.302126e-06	-1.990849e-08	-3.096746e+01	-1.306715e+03
3.400000e-07	-4.241135e-06	-1.977395e-08	-3.052844e+01	-1.300088e+03
3.500000e-07	-4.178744e-06	-1.966664e-08	-3.007934e+01	-1.293176e+03
3.600000e-07	-4.114995e-06	-1.956912e-08	-2.962046e+01	-1.285975e+03
3.700000e-07	-4.049817e-06	-1.945102e-08	-2.915129e+01	-1.278487e+03
3.800000e-07	-3.983042e-06	-1.935461e-08	-2.867064e+01	-1.270716e+03
3.900000e-07	-3.914658e-06	-1.921512e-08	-2.817840e+01	-1.262661e+03
4.000000e-07	-3.844939e-06	-1.906957e-08	-2.767654e+01	-1.254321e+03
4.100000e-07	-3.774104e-06	-1.894989e-08	-2.716666e+01	-1.245685e+03
4.200000e-07	-3.702071e-06	-1.881756e-08	-2.664816e+01	-1.236741e+03
4.300000e-07	-3.628612e-06	-1.867735e-08	-2.611939e+01	-1.227469e+03
4.400000e-07	-3.553560e-06	-1.853015e-08	-2.557915e+01	-1.217849e+03
4.500000e-07	-3.477035e-06	-1.837739e-08	-2.502831e+01	-1.207861e+03
4.600000e-07	-3.399167e-06	-1.820916e-08	-2.446780e+01	-1.197485e+03
4.700000e-07	-3.319890e-06	-1.804550e-08	-2.389715e+01	-1.186706e+03
4.800000e-07	-3.239293e-06	-1.788606e-08	-2.331700e+01	-1.175510e+03
4.900000e-07	-3.157507e-06	-1.770436e-08	-2.272829e+01	-1.163885e+03
5.000000e-07	-3.074679e-06	-1.751768e-08	-2.213208e+01	-1.151817e+03
5.100000e-07	-2.990893e-06	-1.732289e-08	-2.152897e+01	-1.139292e+03
5.200000e-07	-2.906210e-06	-1.712161e-08	-2.091941e+01	-1.126289e+03
5.300000e-07	-2.820564e-06	-1.691431e-08	-2.030291e+01	-1.112782e+03
5.400000e-07	-2.733978e-06	-1.670069e-08	-1.967965e+01	-1.098740e+03
5.500000e-07	-2.646572e-06	-1.648418e-08	-1.905049e+01	-1.084130e+03
5.600000e-07	-2.558188e-06	-1.625071e-08	-1.841428e+01	-1.068913e+03
5.700000e-07	-2.468744e-06	-1.600482e-08	-1.777045e+01	-1.053052e+03
5.800000e-07	-2.378182e-06	-1.574926e-08	-1.711857e+01	-1.036510e+03
5.900000e-07	-2.286623e-06	-1.548729e-08	-1.645951e+01	-1.019251e+03
6.000000e-07	-2.194322e-06	-1.521071e-08	-1.579512e+01	-1.001241e+03
6.100000e-07	-2.101314e-06	-1.492206e-08	-1.512563e+01	-9.824445e+02
6.200000e-07	-2.007602e-06	-1.462501e-08	-1.445107e+01	-9.628224e+02
6.300000e-07	-1.913189e-06	-1.431105e-08	-1.377147e+01	-9.423317e+02
6.400000e-07	-1.818092e-06	-1.398250e-08	-1.308694e+01	-9.209219e+02
6.500000e-07	-1.722324e-06	-1.363899e-08	-1.239759e+01	-8.985336e+02
6.600000e-07	-1.625936e-06	-1.328199e-08	-1.170377e+01	-8.750983e+02
6.700000e-07	-1.528962e-06	-1.290817e-08	-1.100574e+01	-8.505394e+02
6.800000e-07	-1.431382e-06	-1.251560e-08	-1.030334e+01	-8.247737e+02
6.900000e-07	-1.333224e-06	-1.210204e-08	-9.596784e+00	-7.977142e+02
7.000000e-07	-1.234524e-06	-1.166598e-08	-8.886318e+00	-7.692743e+02
7.100000e-07	-1.135303e-06	-1.120639e-08	-8.172114e+00	-7.393720e+02
7.200000e-07	-1.035627e-06	-1.072514e-08	-7.454623e+00	-7.079355e+02
7.300000e-07	-9.356294e-07	-1.022422e-08	-6.734825e+00	-6.749094e+02
7.400000e-07	-8.354367e-07	-9.698044e-09	-6.013620e+00	-6.402618e+02
7.500000e-07	-7.350745e-07	-9.147052e-09	-5.291196e+00	-6.039910e+02
7.600000e-07	-6.345221e-07	-8.569022e-09	-4.567402e+00	-5.661320e+02
7.700000e-07	-5.337690e-07	-7.966804e-09	-3.842163e+00	-5.267617e+02
7.800000e-07	-4.328436e-07	-7.345274e-09	-3.115684e+00	-4.860005e+02
7.900000e-07	-3.318365e-07	-6.705875e-09	-2.388617e+00	-4.440099e+02
8.000000e-07	-2.306860e-07	-6.050930e-09	-1.660519e+00	-4.009855e+02
8.100000e-07	-1.293578e-07	-5.384239e-09	-9.311405e-01	-3.571433e+02
8.200000e-07	-2.791492e-08	-4.710616e-09	-2.009365e-01	-3.127024e+02
8.300000e-07	7.359831e-08	-4.031773e-09	5.297736e-01	-2.678631e+02
8.400000e-07	1.750735e-07	-3.348714e-09	1.260210e+00	-2.227857e+02
8.500000e-07	2.764568e-07	-2.663175e-09	1.989985e+00	-1.775714e+02
8.600000e-07	3.777411e-07	-1.976538e-09	2.719047e+00	-1.322494e+02
8.700000e-07	4.789064e-07	-1.286264e-09	3.447253e+00	-8.677342e+01
8.800000e-07	5.799305e-07	-5.911818e-10	4.174442e+00	-4.102960e+01
8.900000e-07	6.807854e-07	1.128660e-10	4.900413e+00	5.144993e+00
9.000000e-07	7.814679e-07	8.264884e-10	5.625143e+00	5.193379e+01
9.100000e-07	8.819438e-07	1.550121e-09	6.348386e+00	9.950622e+01
9.200000e-07	9.821428e-07	2.286152e-09	7.069637e+00	1.479820e+02
9.300000e-07	1.082069e-06	3.034386e-09	7.788919e+00	1.973997e+02
9.400000e-07	1.181643e-06	3.797810e-09	8.505676e+00	2.476941e+02
9.500000e-07	1.280748e-06	4.574129e-09	9.219050e+00	2.986871e+02
9.600000e-07	1.379356e-06	5.358266e-09	9.928845e+00	3.500933e+02
9.700000e-07	1.477354e-06	6.145159e-09	1.063425e+01	4.015392e+02
9.800000e-07	1.574599e-06	6.927527e-09	1.133424e+01	4.525948e+02
9.900000e-07	1.671115e-06	7.693550e-09	1.202898e+01	5.028112e+02
1.000000e-06	1.766940e-06	8.435600e-09	1.271875e+01	5.517598e+02
1.010000e-06	1.862118e-06	9.152223e-09	1.340385e+01	5.990670e+02
1.020000e-06	1.956669e-06	9.838805e-09	1.408444e+01	6.444395e+02
1.030000e-06	2.050528e-06	1.049391e-08	1.476006e+01	6.876787e+02
1.040000e-06	2.143675e-06	1.111554e-08	1.543055e+01	7.286813e+02
1.050000e-06	2.236114e-06	1.170267e-08	1.609594e+01	7.674304e+02
1.060000e-06	2.327937e-06	1.225658e-08	1.675690e+01	8.039772e+02
1.070000e-06	2.419150e-06	1.277978e-08	1.741347e+01	8.384196e+02
1.080000e-06	2.509408e-06	1.327360e-08	1.806316e+01	8.708806e+02
1.090000e-06	2.598433e-06	1.374061e-08	1.870397e+01	9.014902e+02
1.100000e-06	2.686350e-06	1.418028e-08	1.933682e+01	9.303731e+02
1.110000e-06	2.773383e-06	1.459293e-08	1.996330e+01	9.576421e+02
1.120000e-06	2.859525e-06	1.498216e-08	2.058336e+01	9.833975e+02
1.130000e-06	2.944718e-06	1.535110e-08	2.119660e+01	1.007730e+03
1.140000e-06	3.029016e-06	1.570061e-08	2.180339e+01	1.030724e+03
1.150000e-06	3.112437e-06	1.603049e-08	2.240387e+01	1.052462e+03
1.160000e-06	3.194803e-06	1.634360e-08	2.299675e+01	1.073026e+03
1.170000e-06	3.275944e-06	1.664021e-08	2.358082e+01	1.092499e+03
1.180000e-06	3.355874e-06	1.692241e-08	2.415617e+01	1.110957e+03
1.190000e-06	3.434613e-06	1.718984e-08	2.472295e+01	1.128474e+03
1.200000e-06	3.512155e-06	1.744173e-08	2.528111e+01	1.145112e+03
1.210000e-06	3.588484e-06	1.767989e-08	2.583054e+01	1.160925e+03
1.220000e-06	3.663441e-06	1.790611e-08	2.637009e+01	1.175957e+03
1.230000e-06	3.736806e-06	1.812179e-08	2.689819e+01	1.190245e+03
1.240000e-06	3.808653e-06	1.832629e-08	2.741535e+01	1.203822e+03
1.250000e-06	3.879133e-06	1.852176e-08	2.792268e+01	1.216722e+03
1.260000e-06	3.948257e-06	1.870803e-08	2.842025e+01	1.228980e+03
1.270000e-06	4.016056e-06	1.888484e-08	2.890827e+01	1.240632e+03
1.280000e-06	4.082404e-06	1.905416e-08	2.938586e+01	1.251717e+03
1.290000e-06	4.147083e-06	1.921536e-08	2.985143e+01	1.262271e+03
1.300000e-06	4.210234e-06	1.936891e-08	3.030600e+01	1.272323e+03
1.310000e-06	4.271980e-06	1.951465e-08	3.075046e+01	1.281894e+03
1.320000e-06	4.332371e-06	1.965369e-08	3.118517e+01	1.290995e+03
1.330000e-06	4.391392e-06	1.978647e-08	3.161001e+01	1.299631e+03
1.340000e-06	4.448614e-06	1.991196e-08	3.202191e+01	1.307800e+03
1.350000e-06	4.504034e-06	2.002844e-08	3.242083e+01	1.315503e+03
1.360000e-06	4.557927e-06	2.013779e-08	3.280876e+01	1.322746e+03
1.370000e-06	4.610136e-06	2.024140e-08	3.318457e+01	1.329547e+03
1.380000e-06	4.660310e-06	2.033815e-08	3.354573e+01	1.335933e+03
1.390000e-06	4.708531e-06	2.042854e-08	3.389283e+01	1.341944e+03
1.400000e-06	4.755067e-06	2.051412e-08	3.422781e+01	1.347626e+03
1.410000e-06	4.800065e-06	2.059595e-08	3.455171e+01	1.353022e+03
1.420000e-06	4.843611e-06	2.067411e-08	3.486516e+01	1.358171e+03
1.430000e-06	4.885311e-06	2.074970e-08	3.516533e+01	1.363099e+03
1.440000e-06	4.925131e-06	2.082172e-08	3.545196e+01	1.367814e+03
1.450000e-06	4.963315e-06	2.088914e-08	3.572681e+01	1.372311e+03
1.460000e-06	4.999894e-06	2.095235e-08	3.599011e+01	1.376571e+03
1.470000e-06	5.034743e-06	2.101176e-08	3.624096e+01	1.380570e+03
1.480000e-06	5.067636e-06	2.106846e-08	3.647774e+01	1.384284e+03
1.490000e-06	5.098708e-06	2.112005e-08	3.670140e+01	1.387696e+03
1.500000e-06	5.128128e-06	2.116620e-08	3.691316e+01	1.390803e+03
1.510000e-06	5.155928e-06	2.120904e-08	3.711327e+01	1.393613e+03
1.520000e-06	5.181814e-06	2.124891e-08	3.729961e+01	1.396145e+03
1.530000e-06	5.205623e-06	2.128498e-08	3.747099e+01	1.398425e+03
1.540000e-06	5.227613e-06	2.131657e-08	3.762927e+01	1.400481e+03
1.550000e-06	5.247936e-06	2.134375e-08	3.777557e+01	1.402335e+03
1.560000e-06	5.266436e-06	2.136776e-08	3.790873e+01	1.404001e+03
1.570000e-06	5.282892e-06	2.138921e-08	3.802718e+01	1.405483e+03
1.580000e-06	5.297394e-06	2.140685e-08	3.813157e+01	1.406775e+03
1.590000e-06	5.309983e-06	2.142147e-08	3.822219e+01	1.407867e+03
1.600000e-06	5.320387e-06	2.143518e-08	3.829708e+01	1.408750e+03
1.610000e-06	5.328601e-06	2.144779e-08	3.835621e+01	1.409418e+03
1.620000e-06	5.334930e-06	2.145697e-08	3.840176e+01	1.409874e+03
1.630000e-06	5.339520e-06	2.146222e-08	3.843481e+01	1.410129e+03
1.640000e-06	5.342269e-06	2.146504e-08	3.845459e+01	1.410201e+03
1.650000e-06	5.343020e-06	2.146751e-08	3.846000e+01	1.410108e+03
1.660000e-06	5.341911e-06	2.146283e-08	3.845201e+01	1.409866e+03
1.670000e-06	5.339149e-06	2.145582e-08	3.843213e+01	1.409485e+03
1.680000e-06	5.334767e-06	2.145100e-08	3.840059e+01	1.408964e+03
1.690000e-06	5.328500e-06	2.144239e-08	3.835548e+01	1.408291e+03
1.700000e-06	5.320383e-06	2.142907e-08	3.829705e+01	1.407448e+03
1.710000e-06	5.310728e-06	2.141442e-08	3.822755e+01	1.406414e+03
1.720000e-06	5.299442e-06	2.141037e-08	3.814632e+01	1.405174e+03
1.730000e-06	5.286227e-06	2.140804e-08	3.805119e+01	1.403721e+03
1.740000e-06	5.271019e-06	2.129916e-08	3.794172e+01	1.402064e+03
1.750000e-06	5.253717e-06	2.124905e-08	3.781718e+01	1.400226e+03
1.760000e-06	5.233847e-06	2.127466e-08	3.767415e+01	1.398242e+03
1.770000e-06	5.211430e-06	2.125663e-08	3.751279e+01	1.396152e+03
1.780000e-06	5.187338e-06	2.136220e-08	3.733937e+01	1.393995e+03
1.790000e-06	5.162501e-06	2.123291e-08	3.716059e+01	1.391798e+03
1.800000e-06	5.136684e-06	2.104460e-08	3.697475e+01	1.389575e+03
1.810000e-06	5.108831e-06	2.120486e-08	3.677426e+01	1.387315e+03
1.820000e-06	5.078967e-06	2.105663e-08	3.655929e+01	1.384993e+03
1.830000e-06	5.047462e-06	2.096239e-08	3.633252e+01	1.382564e+03
1.840000e-06	5.014022e-06	2.117557e-08	3.609181e+01	1.379976e+03
1.850000e-06	4.978841e-06	2.096460e-08	3.583857e+01	1.377175e+03
1.860000e-06	4.942034e-06	2.089933e-08	3.557363e+01	1.374115e+03
1.870000e-06	4.903296e-06	2.099186e-08	3.529478e+01	1.370764e+03
1.880000e-06	4.862886e-06	2.078773e-08	3.500390e+01	1.367105e+03
1.890000e-06	4.820782e-06	2.082547e-08	3.470084e+01	1.363139e+03
1.900000e-06	4.776931e-06	2.073264e-08	3.438519e+01	1.358879e+03
1.910000e-06	4.731439e-06	2.057921e-08	3.405773e+01	1.354348e+03
1.920000e-06	4.684009e-06	2.068806e-08	3.371632e+01	1.349569e+03
1.930000e-06	4.634832e-06	2.052307e-08	3.336234e+01	1.344561e+03
1.940000e-06	4.583954e-06	2.043227e-08	3.299610e+01	1.339335e+03
1.950000e-06	4.531021e-06	2.038089e-08	3.261509e+01	1.333893e+03
1.960000e-06	4.476169e-06	2.026710e-08	3.222025e+01	1.328227e+03
1.970000e-06	4.419593e-06	2.022632e-08	3.181301e+01	1.322324e+03
1.980000e-06	4.361442e-06	2.004215e-08	3.139443e+01	1.316165e+03
1.990000e-06	4.301915e-06	2.000776e-08	3.096594e+01	1.309737e+03
2.000000e-06	4.240924e-06	1.993507e-08	3.052691e+01	1.303028e+03
2.010000e-06	4.178307e-06	1.977145e-08	3.007619e+01	1.296032e+03
2.020000e-06	4.114036e-06	1.968785e-08	2.961355e+01	1.288749e+03
2.030000e-06	4.048293e-06	1.952844e-08	2.914033e+01	1.281179e+03
2.040000e-06	3.981197e-06	1.947331e-08	2.865735e+01	1.273326e+03
2.050000e-06	3.912712e-06	1.934238e-08	2.816439e+01	1.265190e+03
2.060000e-06	3.842727e-06	1.918258e-08	2.766063e+01	1.256765e+03
2.070000e-06	3.771237e-06	1.908934e-08	2.714603e+01	1.248042e+03
2.080000e-06	3.698488e-06	1.891668e-08	2.662236e+01	1.239005e+03
2.090000e-06	3.624440e-06	1.878224e-08	2.608935e+01	1.229635e+03
2.100000e-06	3.548981e-06	1.862041e-08	2.554619e+01	1.219911e+03
2.110000e-06	3.472050e-06	1.848384e-08	2.499243e+01	1.209813e+03
2.120000e-06	3.393659e-06	1.833224e-08	2.442815e+01	1.199323e+03
2.130000e-06	3.313967e-06	1.814758e-08	2.385452e+01	1.188425e+03
2.140000e-06	3.233133e-06	1.799024e-08	2.327266e+01	1.177107e+03
2.150000e-06	3.151237e-06	1.780256e-08	2.268316e+01	1.165356e+03
2.160000e-06	3.068309e-06	1.763156e-08	2.208623e+01	1.153159e+03
2.170000e-06	2.984377e-06	1.743778e-08	2.148207e+01	1.140498e+03
2.180000e-06	2.899316e-06	1.723652e-08	2.086978e+01	1.127353e+03
2.190000e-06	2.813053e-06	1.702682e-08	2.024885e+01	1.113696e+03
2.200000e-06	2.725626e-06	1.680074e-08	1.961953e+01	1.099495e+03
2.210000e-06	2.637219e-06	1.658063e-08	1.898317e+01	1.084714e+03
2.220000e-06	2.547966e-06	1.634501e-08	1.834071e+01	1.069316e+03
2.230000e-06	2.457815e-06	1.610494e-08	1.769178e+01	1.053263e+03
2.240000e-06	2.366896e-06	1.584932e-08	1.703733e+01	1.036519e+03
2.250000e-06	2.275254e-06	1.559294e-08	1.637768e+01	1.019049e+03
2.260000e-06	2.182757e-06	1.531712e-08	1.571187e+01	1.000817e+03
2.270000e-06	2.089487e-06	1.502127e-08	1.504050e+01	9.817873e+02
2.280000e-06	1.995408e-06	1.471865e-08	1.436330e+01	9.619210e+02
2.290000e-06	1.900392e-06	1.440302e-08	1.367935e+01	9.411724e+02
2.300000e-06	1.804610e-06	1.407367e-08	1.298990e+01	9.194886e+02
2.310000e-06	1.708294e-06	1.372653e-08	1.229660e+01	8.968077e+02
2.320000e-06	1.611510e-06	1.336750e-08	1.159993e+01	8.730587e+02
2.330000e-06	1.514183e-06	1.298850e-08	1.089935e+01	8.481629e+02
2.340000e-06	1.416286e-06	1.258881e-08	1.019467e+01	8.220356e+02
2.350000e-06	1.317890e-06	1.216973e-08	9.486406e+00	7.945897e+02
2.360000e-06	1.219127e-06	1.173386e-08	8.775488e+00	7.657391e+02
2.370000e-06	1.120086e-06	1.127730e-08	8.062579e+00	7.354043e+02
2.380000e-06	1.020776e-06	1.079374e-08	7.347726e+00	7.035176e+02
2.390000e-06	9.211948e-07	1.028309e-08	6.630922e+00	6.700295e+02
2.400000e-06	8.213384e-07	9.744765e-09	5.912138e+00	6.349160e+02
2.410000e-06	7.212062e-07	9.182665e-09	5.191369e+00	5.981852e+02
2.420000e-06	6.208019e-07	8.595401e-09	4.468641e+00	5.598839e+02
2.430000e-06	5.201647e-07	7.985176e-09	3.744237e+00	5.201011e+02
2.440000e-06	4.194143e-07	7.359066e-09	3.019018e+00	4.789696e+02
2.450000e-06	3.185419e-07	6.717705e-09	2.292921e+00	4.366617e+02
2.460000e-06	2.175070e-07	6.057026e-09	1.565653e+00	3.933803e+02
2.470000e-06	1.163766e-07	5.381572e-09	8.376989e-01	3.493443e+02
2.480000e-06	1.513046e-08	4.700010e-09	1.089117e-01	3.047695e+02
2.490000e-06	-8.623187e-08	4.011773e-09	-6.207122e-01	2.598473e+02
2.500000e-06	-1.876027e-07	3.317238e-09	-1.350397e+00	2.147226e+02
2.510000e-06	-2.888706e-07	2.620267e-09	-2.079341e+00	1.694770e+02
2.520000e-06	-3.900287e-07	1.924166e-09	-2.807495e+00	1.241181e+02
2.530000e-06	-4.910619e-07	1.227564e-09	-3.534750e+00	7.857902e+01
2.540000e-06	-5.918476e-07	5.263559e-10	-4.260223e+00	3.272941e+01
2.550000e-06	-6.923820e-07	-1.822208e-10	-4.983888e+00	-1.360272e+01
2.560000e-06	-7.926594e-07	-9.000047e-10	-5.705701e+00	-6.060047e+01
2.570000e-06	-8.925821e-07	-1.630844e-09	-6.424963e+00	-1.084226e+02
2.580000e-06	-9.921619e-07	-2.375728e-09	-7.141756e+00	-1.571687e+02
2.590000e-06	-1.091454e-06	-3.134195e-09	-7.856478e+00	-2.068492e+02
2.600000e-06	-1.190445e-06	-3.905516e-09	-8.569035e+00	-2.573671e+02
2.610000e-06	-1.289080e-06	-4.685154e-09	-9.279023e+00	-3.085125e+02
2.620000e-06	-1.387257e-06	-5.470174e-09	-9.985716e+00	-3.599721e+02
2.630000e-06	-1.484872e-06	-6.257318e-09	-1.068837e+01	-4.113528e+02
2.640000e-06	-1.581956e-06	-7.038303e-09	-1.138720e+01	-4.622150e+02
2.650000e-06	-1.678522e-06	-7.802675e-09	-1.208230e+01	-5.121120e+02
2.660000e-06	-1.774568e-06	-8.542655e-09	-1.277366e+01	-5.606275e+02
2.670000e-06	-1.870084e-06	-9.257299e-09	-1.346119e+01	-6.074087e+02
2.680000e-06	-1.964937e-06	-9.942788e-09	-1.414396e+01	-6.521885e+02
2.690000e-06	-2.058948e-06	-1.059501e-08	-1.482067e+01	-6.947960e+02
2.700000e-06	-2.151999e-06	-1.121554e-08	-1.549047e+01	-7.351540e+02
2.710000e-06	-2.244129e-06	-1.180464e-08	-1.615364e+01	-7.732670e+02
2.720000e-06	-2.335492e-06	-1.236035e-08	-1.681128e+01	-8.092019e+02
2.730000e-06	-2.426087e-06	-1.287966e-08	-1.746340e+01	-8.430659e+02
2.740000e-06	-2.515759e-06	-1.336603e-08	-1.810888e+01	-8.749855e+02
2.750000e-06	-2.604530e-06	-1.382601e-08	-1.874786e+01	-9.050903e+02
2.760000e-06	-2.692565e-06	-1.426149e-08	-1.938156e+01	-9.335020e+02
2.770000e-06	-2.779860e-06	-1.467301e-08	-2.000992e+01	-9.603296e+02
2.780000e-06	-2.866082e-06	-1.506304e-08	-2.063056e+01	-9.856704e+02
2.790000e-06	-2.950986e-06	-1.543045e-08	-2.124172e+01	-1.009613e+03
2.800000e-06	-3.034749e-06	-1.577520e-08	-2.184466e+01	-1.032240e+03
2.810000e-06	-3.117558e-06	-1.610014e-08	-2.244073e+01	-1.053636e+03
2.820000e-06	-3.199354e-06	-1.640932e-08	-2.302951e+01	-1.073881e+03
2.830000e-06	-3.280130e-06	-1.670410e-08	-2.361095e+01	-1.093056e+03
2.840000e-06	-3.359934e-06	-1.698378e-08	-2.418540e+01	-1.111239e+03
2.850000e-06	-3.438511e-06	-1.724917e-08	-2.475101e+01	-1.128500e+03
2.860000e-06	-3.515527e-06	-1.750121e-08	-2.530538e+01	-1.144898e+03
2.870000e-06	-3.591003e-06	-1.774083e-08	-2.584867e+01	-1.160485e+03
2.880000e-06	-3.665090e-06	-1.796898e-08	-2.638196e+01	-1.175302e+03
2.890000e-06	-3.737869e-06	-1.818622e-08	-2.690584e+01	-1.189384e+03
2.900000e-06	-3.809418e-06	-1.839253e-08	-2.742086e+01	-1.202765e+03
2.910000e-06	-3.879534e-06	-1.858803e-08	-2.792557e+01	-1.215478e+03
2.920000e-06	-3.948070e-06	-1.877241e-08	-2.841890e+01	-1.227560e+03
2.930000e-06	-4.015204e-06	-1.894633e-08	-2.890215e+01	-1.239047e+03
2.940000e-06	-4.080974e-06	-1.911142e-08	-2.937557e+01	-1.249978e+03
