# Temperatura_=_32.48
# Concentracion g/m^3_=_28200.0
# C_Vs_to_Am_M_A/Vsm_=_65563218390.804596
# pendiente_HvsI_1/m_=_3716.3
# ordenada_HvsI_A/m_=_1297.0
# frecuencia_Hz_=_301746.67256038554

Tiempo_(s)	Campo_(V.s)	Magnetizacion_(V.s)	Campo_(kA/m)	Magnetizacion_(A/m)
0.000000e+00	-5.291827e-06	-1.765497e-08	-3.830251e+01	-1.153689e+03
1.000000e-08	-5.289302e-06	-1.765125e-08	-3.828423e+01	-1.153398e+03
2.000000e-08	-5.284975e-06	-1.764081e-08	-3.825291e+01	-1.152981e+03
3.000000e-08	-5.279074e-06	-1.763147e-08	-3.821020e+01	-1.152427e+03
4.000000e-08	-5.271560e-06	-1.762022e-08	-3.815581e+01	-1.151724e+03
5.000000e-08	-5.262330e-06	-1.760292e-08	-3.808901e+01	-1.150857e+03
6.000000e-08	-5.251137e-06	-1.758069e-08	-3.800799e+01	-1.149818e+03
7.000000e-08	-5.238060e-06	-1.754514e-08	-3.791334e+01	-1.148606e+03
8.000000e-08	-5.222968e-06	-1.753829e-08	-3.780410e+01	-1.147229e+03
9.000000e-08	-5.205550e-06	-1.758805e-08	-3.767803e+01	-1.145706e+03
1.000000e-07	-5.186055e-06	-1.755658e-08	-3.753692e+01	-1.144063e+03
1.100000e-07	-5.164760e-06	-1.748745e-08	-3.738279e+01	-1.142326e+03
1.200000e-07	-5.141727e-06	-1.745011e-08	-3.721608e+01	-1.140521e+03
1.300000e-07	-5.117280e-06	-1.731272e-08	-3.703913e+01	-1.138661e+03
1.400000e-07	-5.091289e-06	-1.733864e-08	-3.685101e+01	-1.136751e+03
1.500000e-07	-5.063523e-06	-1.744501e-08	-3.665003e+01	-1.134779e+03
1.600000e-07	-5.034281e-06	-1.724183e-08	-3.643837e+01	-1.132724e+03
1.700000e-07	-5.003651e-06	-1.728593e-08	-3.621667e+01	-1.130553e+03
1.800000e-07	-4.971147e-06	-1.734462e-08	-3.598141e+01	-1.128233e+03
1.900000e-07	-4.936534e-06	-1.709419e-08	-3.573088e+01	-1.125732e+03
2.000000e-07	-4.900359e-06	-1.714004e-08	-3.546904e+01	-1.123026e+03
2.100000e-07	-4.862657e-06	-1.712353e-08	-3.519616e+01	-1.120100e+03
2.200000e-07	-4.823244e-06	-1.693704e-08	-3.491088e+01	-1.116951e+03
2.300000e-07	-4.781973e-06	-1.696024e-08	-3.461216e+01	-1.113584e+03
2.400000e-07	-4.738660e-06	-1.690615e-08	-3.429866e+01	-1.110011e+03
2.500000e-07	-4.693576e-06	-1.684031e-08	-3.397234e+01	-1.106242e+03
2.600000e-07	-4.646771e-06	-1.685866e-08	-3.363356e+01	-1.102289e+03
2.700000e-07	-4.598132e-06	-1.672261e-08	-3.328151e+01	-1.098154e+03
2.800000e-07	-4.547434e-06	-1.661387e-08	-3.291456e+01	-1.093834e+03
2.900000e-07	-4.494641e-06	-1.657512e-08	-3.253243e+01	-1.089321e+03
3.000000e-07	-4.440182e-06	-1.652326e-08	-3.213826e+01	-1.084600e+03
3.100000e-07	-4.384221e-06	-1.644962e-08	-3.173321e+01	-1.079659e+03
3.200000e-07	-4.326436e-06	-1.637649e-08	-3.131496e+01	-1.074484e+03
3.300000e-07	-4.266926e-06	-1.629321e-08	-3.088422e+01	-1.069068e+03
3.400000e-07	-4.206044e-06	-1.615846e-08	-3.044356e+01	-1.063410e+03
3.500000e-07	-4.143759e-06	-1.607419e-08	-2.999274e+01	-1.057510e+03
3.600000e-07	-4.080067e-06	-1.599439e-08	-2.953173e+01	-1.051374e+03
3.700000e-07	-4.014945e-06	-1.590785e-08	-2.906037e+01	-1.045006e+03
3.800000e-07	-3.948170e-06	-1.582807e-08	-2.857705e+01	-1.038407e+03
3.900000e-07	-3.879809e-06	-1.568418e-08	-2.808225e+01	-1.031576e+03
4.000000e-07	-3.810214e-06	-1.556135e-08	-2.757852e+01	-1.024503e+03
4.100000e-07	-3.739463e-06	-1.546707e-08	-2.706642e+01	-1.017176e+03
4.200000e-07	-3.667551e-06	-1.535573e-08	-2.654592e+01	-1.009579e+03
4.300000e-07	-3.594296e-06	-1.523557e-08	-2.601569e+01	-1.001695e+03
4.400000e-07	-3.519428e-06	-1.510881e-08	-2.547379e+01	-9.935053e+02
4.500000e-07	-3.443031e-06	-1.497695e-08	-2.492083e+01	-9.849970e+02
4.600000e-07	-3.365321e-06	-1.483638e-08	-2.435836e+01	-9.761579e+02
4.700000e-07	-3.286329e-06	-1.470714e-08	-2.378662e+01	-9.669780e+02
4.800000e-07	-3.205952e-06	-1.456901e-08	-2.320484e+01	-9.574481e+02
4.900000e-07	-3.124325e-06	-1.440532e-08	-2.261402e+01	-9.475577e+02
5.000000e-07	-3.041634e-06	-1.424056e-08	-2.201550e+01	-9.372928e+02
5.100000e-07	-2.958015e-06	-1.407345e-08	-2.141026e+01	-9.266355e+02
5.200000e-07	-2.873603e-06	-1.390351e-08	-2.079928e+01	-9.155629e+02
5.300000e-07	-2.788299e-06	-1.372973e-08	-2.018185e+01	-9.040484e+02
5.400000e-07	-2.701966e-06	-1.355025e-08	-1.955697e+01	-8.920626e+02
5.500000e-07	-2.614707e-06	-1.336515e-08	-1.892538e+01	-8.795755e+02
5.600000e-07	-2.526681e-06	-1.316343e-08	-1.828825e+01	-8.665578e+02
5.700000e-07	-2.437645e-06	-1.295617e-08	-1.764380e+01	-8.529820e+02
5.800000e-07	-2.347341e-06	-1.274297e-08	-1.699017e+01	-8.388226e+02
5.900000e-07	-2.256011e-06	-1.251553e-08	-1.632912e+01	-8.240553e+02
6.000000e-07	-2.164012e-06	-1.226839e-08	-1.566323e+01	-8.086554e+02
6.100000e-07	-2.071334e-06	-1.201542e-08	-1.499242e+01	-7.925957e+02
6.200000e-07	-1.977898e-06	-1.176313e-08	-1.431613e+01	-7.758453e+02
6.300000e-07	-1.883750e-06	-1.150097e-08	-1.363468e+01	-7.583676e+02
6.400000e-07	-1.788907e-06	-1.122859e-08	-1.294819e+01	-7.401202e+02
6.500000e-07	-1.693503e-06	-1.093886e-08	-1.225766e+01	-7.210553e+02
6.600000e-07	-1.597640e-06	-1.063054e-08	-1.156380e+01	-7.011208e+02
6.700000e-07	-1.501249e-06	-1.030744e-08	-1.086611e+01	-6.802621e+02
6.800000e-07	-1.404218e-06	-9.973783e-09	-1.016380e+01	-6.584244e+02
6.900000e-07	-1.306466e-06	-9.626754e-09	-9.456265e+00	-6.355549e+02
7.000000e-07	-1.208047e-06	-9.261565e-09	-8.743901e+00	-6.116050e+02
7.100000e-07	-1.109106e-06	-8.875479e-09	-8.027764e+00	-5.865328e+02
7.200000e-07	-1.009762e-06	-8.470895e-09	-7.308707e+00	-5.603057e+02
7.300000e-07	-9.101385e-07	-8.052548e-09	-6.587628e+00	-5.329039e+02
7.400000e-07	-8.103297e-07	-7.619159e-09	-5.865207e+00	-5.043237e+02
7.500000e-07	-7.103402e-07	-7.170557e-09	-5.141478e+00	-4.745820e+02
7.600000e-07	-6.101615e-07	-6.699836e-09	-4.416379e+00	-4.437197e+02
7.700000e-07	-5.098475e-07	-6.210670e-09	-3.690302e+00	-4.118052e+02
7.800000e-07	-4.094279e-07	-5.709997e-09	-2.963459e+00	-3.789349e+02
7.900000e-07	-3.088667e-07	-5.196952e-09	-2.235593e+00	-3.452316e+02
8.000000e-07	-2.082022e-07	-4.673029e-09	-1.506978e+00	-3.108389e+02
8.100000e-07	-1.074519e-07	-4.141730e-09	-7.777421e-01	-2.759122e+02
8.200000e-07	-6.639591e-09	-3.606731e-09	-4.805769e-02	-2.406062e+02
8.300000e-07	9.419428e-08	-3.067853e-09	6.817829e-01	-2.050602e+02
8.400000e-07	1.950218e-07	-2.528316e-09	1.411578e+00	-1.693837e+02
8.500000e-07	2.957882e-07	-1.989169e-09	2.140930e+00	-1.336441e+02
8.600000e-07	3.964668e-07	-1.446656e-09	2.869646e+00	-9.785805e+01
8.700000e-07	4.970523e-07	-8.991976e-10	3.597689e+00	-6.198992e+01
8.800000e-07	5.975377e-07	-3.491444e-10	4.325008e+00	-2.595738e+01
8.900000e-07	6.978993e-07	2.045036e-10	5.051430e+00	1.035583e+01
9.000000e-07	7.981135e-07	7.634892e-10	5.776785e+00	4.708082e+01
9.100000e-07	8.981092e-07	1.328799e-09	6.500560e+00	8.434064e+01
9.200000e-07	9.978539e-07	1.902182e-09	7.222516e+00	1.222265e+02
9.300000e-07	1.097317e-06	2.485689e-09	7.942437e+00	1.607769e+02
9.400000e-07	1.196403e-06	3.081318e-09	8.659625e+00	1.999619e+02
9.500000e-07	1.294887e-06	3.684546e-09	9.372456e+00	2.396762e+02
9.600000e-07	1.392579e-06	4.292379e-09	1.007956e+01	2.797408e+02
9.700000e-07	1.489526e-06	4.902567e-09	1.078126e+01	3.199146e+02
9.800000e-07	1.585873e-06	5.511659e-09	1.147862e+01	3.599126e+02
9.900000e-07	1.681690e-06	6.111644e-09	1.217216e+01	3.994292e+02
1.000000e-06	1.776981e-06	6.698467e-09	1.286188e+01	4.381635e+02
1.010000e-06	1.871666e-06	7.270474e-09	1.354721e+01	4.758418e+02
1.020000e-06	1.965672e-06	7.821556e-09	1.422763e+01	5.122364e+02
1.030000e-06	2.059004e-06	8.350265e-09	1.490317e+01	5.471770e+02
1.040000e-06	2.151632e-06	8.855340e-09	1.557362e+01	5.805548e+02
1.050000e-06	2.243626e-06	9.337613e-09	1.623947e+01	6.123198e+02
1.060000e-06	2.334955e-06	9.793932e-09	1.690052e+01	6.424723e+02
1.070000e-06	2.425260e-06	1.022614e-08	1.755415e+01	6.710510e+02
1.080000e-06	2.514274e-06	1.063753e-08	1.819844e+01	6.981202e+02
1.090000e-06	2.602302e-06	1.102868e-08	1.883559e+01	7.237575e+02
1.100000e-06	2.689629e-06	1.139927e-08	1.946767e+01	7.480441e+02
1.110000e-06	2.776080e-06	1.174898e-08	2.009341e+01	7.710586e+02
1.120000e-06	2.861525e-06	1.208019e-08	2.071186e+01	7.928739e+02
1.130000e-06	2.946044e-06	1.239298e-08	2.132362e+01	8.135564e+02
1.140000e-06	3.029848e-06	1.268765e-08	2.193019e+01	8.331676e+02
1.150000e-06	3.112741e-06	1.296624e-08	2.253018e+01	8.517655e+02
1.160000e-06	3.194366e-06	1.323327e-08	2.312098e+01	8.694064e+02
1.170000e-06	3.274789e-06	1.348713e-08	2.370309e+01	8.861456e+02
1.180000e-06	3.354094e-06	1.372897e-08	2.427710e+01	9.020371e+02
1.190000e-06	3.432182e-06	1.395933e-08	2.484230e+01	9.171329e+02
1.200000e-06	3.509063e-06	1.417731e-08	2.539877e+01	9.314814e+02
1.210000e-06	3.584729e-06	1.438406e-08	2.594645e+01	9.451268e+02
1.220000e-06	3.658855e-06	1.457859e-08	2.648297e+01	9.581082e+02
1.230000e-06	3.731341e-06	1.476423e-08	2.700763e+01	9.704596e+02
1.240000e-06	3.802471e-06	1.494188e-08	2.752247e+01	9.822106e+02
1.250000e-06	3.872280e-06	1.511130e-08	2.802775e+01	9.933869e+02
1.260000e-06	3.940798e-06	1.527308e-08	2.852369e+01	1.004012e+03
1.270000e-06	4.008051e-06	1.542627e-08	2.901048e+01	1.014106e+03
1.280000e-06	4.073700e-06	1.557167e-08	2.948564e+01	1.023689e+03
1.290000e-06	4.137734e-06	1.571051e-08	2.994912e+01	1.032779e+03
1.300000e-06	4.200315e-06	1.584336e-08	3.040209e+01	1.041391e+03
1.310000e-06	4.261467e-06	1.596826e-08	3.084471e+01	1.049543e+03
1.320000e-06	4.321334e-06	1.608456e-08	3.127803e+01	1.057247e+03
1.330000e-06	4.379646e-06	1.619504e-08	3.170010e+01	1.064522e+03
1.340000e-06	4.436143e-06	1.629966e-08	3.210903e+01	1.071385e+03
1.350000e-06	4.491033e-06	1.639717e-08	3.250632e+01	1.077857e+03
1.360000e-06	4.544354e-06	1.648919e-08	3.289226e+01	1.083965e+03
1.370000e-06	4.595810e-06	1.657554e-08	3.326470e+01	1.089738e+03
1.380000e-06	4.645186e-06	1.665688e-08	3.362209e+01	1.095207e+03
1.390000e-06	4.692736e-06	1.673527e-08	3.396626e+01	1.100405e+03
1.400000e-06	4.738701e-06	1.681065e-08	3.429895e+01	1.105359e+03
1.410000e-06	4.783204e-06	1.688283e-08	3.462107e+01	1.110090e+03
1.420000e-06	4.826065e-06	1.695101e-08	3.493130e+01	1.114613e+03
1.430000e-06	4.867003e-06	1.701632e-08	3.522761e+01	1.118929e+03
1.440000e-06	4.906253e-06	1.707757e-08	3.551171e+01	1.123032e+03
1.450000e-06	4.943914e-06	1.713426e-08	3.578430e+01	1.126909e+03
1.460000e-06	4.979972e-06	1.718892e-08	3.604529e+01	1.130544e+03
1.470000e-06	5.014155e-06	1.723973e-08	3.629271e+01	1.133922e+03
1.480000e-06	5.046406e-06	1.728632e-08	3.652614e+01	1.137033e+03
1.490000e-06	5.076988e-06	1.732912e-08	3.674749e+01	1.139876e+03
1.500000e-06	5.105959e-06	1.736723e-08	3.695719e+01	1.142458e+03
1.510000e-06	5.133246e-06	1.740215e-08	3.715469e+01	1.144794e+03
1.520000e-06	5.158465e-06	1.743397e-08	3.733723e+01	1.146905e+03
1.530000e-06	5.181668e-06	1.746309e-08	3.750517e+01	1.148811e+03
1.540000e-06	5.203175e-06	1.748898e-08	3.766084e+01	1.150533e+03
1.550000e-06	5.223054e-06	1.751174e-08	3.780472e+01	1.152083e+03
1.560000e-06	5.241052e-06	1.753110e-08	3.793500e+01	1.153468e+03
1.570000e-06	5.257023e-06	1.754701e-08	3.805059e+01	1.154689e+03
1.580000e-06	5.271049e-06	1.756239e-08	3.815212e+01	1.155742e+03
1.590000e-06	5.283041e-06	1.757722e-08	3.823891e+01	1.156620e+03
1.600000e-06	5.292857e-06	1.758892e-08	3.830996e+01	1.157321e+03
1.610000e-06	5.300647e-06	1.759795e-08	3.836634e+01	1.157845e+03
1.620000e-06	5.306626e-06	1.760562e-08	3.840962e+01	1.158199e+03
1.630000e-06	5.310900e-06	1.761073e-08	3.844056e+01	1.158394e+03
1.640000e-06	5.313257e-06	1.761484e-08	3.845762e+01	1.158444e+03
1.650000e-06	5.313586e-06	1.761803e-08	3.846000e+01	1.158360e+03
1.660000e-06	5.312093e-06	1.761364e-08	3.844919e+01	1.158152e+03
1.670000e-06	5.308985e-06	1.760713e-08	3.842670e+01	1.157821e+03
1.680000e-06	5.304306e-06	1.760062e-08	3.839283e+01	1.157360e+03
1.690000e-06	5.297696e-06	1.759028e-08	3.834498e+01	1.156759e+03
1.700000e-06	5.289318e-06	1.757902e-08	3.828434e+01	1.156004e+03
1.710000e-06	5.279438e-06	1.757019e-08	3.821284e+01	1.155082e+03
1.720000e-06	5.267929e-06	1.757631e-08	3.812954e+01	1.153986e+03
1.730000e-06	5.254479e-06	1.756676e-08	3.803218e+01	1.152718e+03
1.740000e-06	5.238940e-06	1.745754e-08	3.791971e+01	1.151291e+03
1.750000e-06	5.221209e-06	1.743189e-08	3.779137e+01	1.149726e+03
1.760000e-06	5.200826e-06	1.744788e-08	3.764384e+01	1.148049e+03
1.770000e-06	5.177996e-06	1.744849e-08	3.747859e+01	1.146287e+03
1.780000e-06	5.153735e-06	1.754820e-08	3.730299e+01	1.144462e+03
1.790000e-06	5.128824e-06	1.737195e-08	3.712268e+01	1.142586e+03
1.800000e-06	5.102768e-06	1.727455e-08	3.693409e+01	1.140657e+03
1.810000e-06	5.074609e-06	1.741992e-08	3.673027e+01	1.138660e+03
1.820000e-06	5.044508e-06	1.719884e-08	3.651240e+01	1.136570e+03
1.830000e-06	5.012719e-06	1.719482e-08	3.628231e+01	1.134355e+03
1.840000e-06	4.979000e-06	1.737493e-08	3.603825e+01	1.131979e+03
1.850000e-06	4.943687e-06	1.713640e-08	3.578265e+01	1.129414e+03
1.860000e-06	4.906740e-06	1.716618e-08	3.551523e+01	1.126637e+03
1.870000e-06	4.867819e-06	1.722284e-08	3.523352e+01	1.123639e+03
1.880000e-06	4.827292e-06	1.703773e-08	3.494018e+01	1.120418e+03
1.890000e-06	4.785058e-06	1.709844e-08	3.463449e+01	1.116982e+03
1.900000e-06	4.741110e-06	1.692658e-08	3.431639e+01	1.113344e+03
1.910000e-06	4.695483e-06	1.683746e-08	3.398614e+01	1.109515e+03
1.920000e-06	4.647906e-06	1.697850e-08	3.364178e+01	1.105502e+03
1.930000e-06	4.598638e-06	1.681322e-08	3.328517e+01	1.101308e+03
1.940000e-06	4.547658e-06	1.675761e-08	3.291617e+01	1.096926e+03
1.950000e-06	4.494647e-06	1.668554e-08	3.253248e+01	1.092347e+03
1.960000e-06	4.439734e-06	1.658575e-08	3.213502e+01	1.087556e+03
1.970000e-06	4.383118e-06	1.653621e-08	3.172522e+01	1.082539e+03
1.980000e-06	4.324957e-06	1.637457e-08	3.130425e+01	1.077287e+03
1.990000e-06	4.265440e-06	1.639723e-08	3.087347e+01	1.071793e+03
2.000000e-06	4.204483e-06	1.632329e-08	3.043226e+01	1.066055e+03
2.010000e-06	4.141812e-06	1.617777e-08	2.997864e+01	1.060078e+03
2.020000e-06	4.077452e-06	1.608881e-08	2.951280e+01	1.053867e+03
2.030000e-06	4.011719e-06	1.595598e-08	2.903702e+01	1.047423e+03
2.040000e-06	3.944693e-06	1.594307e-08	2.855188e+01	1.040750e+03
2.050000e-06	3.876331e-06	1.581356e-08	2.805708e+01	1.033841e+03
2.060000e-06	3.806421e-06	1.568780e-08	2.755106e+01	1.026688e+03
2.070000e-06	3.735020e-06	1.560237e-08	2.703426e+01	1.019275e+03
2.080000e-06	3.662431e-06	1.544068e-08	2.650886e+01	1.011587e+03
2.090000e-06	3.588575e-06	1.533236e-08	2.597429e+01	1.003605e+03
2.100000e-06	3.513334e-06	1.519495e-08	2.542969e+01	9.953137e+02
2.110000e-06	3.436593e-06	1.508793e-08	2.487423e+01	9.866994e+02
2.120000e-06	3.358279e-06	1.495075e-08	2.430739e+01	9.777510e+02
2.130000e-06	3.278677e-06	1.479965e-08	2.373123e+01	9.684588e+02
2.140000e-06	3.198030e-06	1.466954e-08	2.314750e+01	9.588135e+02
2.150000e-06	3.116293e-06	1.450505e-08	2.255589e+01	9.488036e+02
2.160000e-06	3.033492e-06	1.436225e-08	2.195657e+01	9.384140e+02
2.170000e-06	2.949831e-06	1.419549e-08	2.135102e+01	9.276251e+02
2.180000e-06	2.865141e-06	1.402389e-08	2.073803e+01	9.164127e+02
2.190000e-06	2.779043e-06	1.383948e-08	2.011485e+01	9.047492e+02
2.200000e-06	2.691765e-06	1.365038e-08	1.948313e+01	8.926047e+02
2.210000e-06	2.603673e-06	1.346887e-08	1.884552e+01	8.799494e+02
2.220000e-06	2.514738e-06	1.326277e-08	1.820180e+01	8.667544e+02
2.230000e-06	2.424894e-06	1.305055e-08	1.755151e+01	8.529929e+02
2.240000e-06	2.334240e-06	1.283521e-08	1.689534e+01	8.386400e+02
2.250000e-06	2.242898e-06	1.262721e-08	1.623421e+01	8.236713e+02
2.260000e-06	2.150968e-06	1.239229e-08	1.556881e+01	8.080616e+02
2.270000e-06	2.058259e-06	1.213522e-08	1.489778e+01	7.917828e+02
2.280000e-06	1.964525e-06	1.187297e-08	1.421933e+01	7.748020e+02
2.290000e-06	1.869766e-06	1.159794e-08	1.353346e+01	7.570810e+02
2.300000e-06	1.774248e-06	1.131653e-08	1.284210e+01	7.385755e+02
2.310000e-06	1.678291e-06	1.102589e-08	1.214755e+01	7.192361e+02
2.320000e-06	1.581917e-06	1.072682e-08	1.144999e+01	6.990097e+02
2.330000e-06	1.484995e-06	1.040673e-08	1.074846e+01	6.778415e+02
2.340000e-06	1.387553e-06	1.006392e-08	1.004317e+01	6.556769e+02
2.350000e-06	1.289663e-06	9.706481e-09	9.334642e+00	6.324644e+02
2.360000e-06	1.191334e-06	9.341867e-09	8.622932e+00	6.081571e+02
2.370000e-06	1.092602e-06	8.963394e-09	7.908309e+00	5.827159e+02
2.380000e-06	9.935561e-07	8.560385e-09	7.191409e+00	5.561119e+02
2.390000e-06	8.942942e-07	8.131758e-09	6.472946e+00	5.283300e+02
2.400000e-06	7.948458e-07	7.682879e-09	5.753134e+00	4.993727e+02
2.410000e-06	6.952082e-07	7.221795e-09	5.031952e+00	4.692643e+02
2.420000e-06	5.954240e-07	6.746629e-09	4.309708e+00	4.380542e+02
2.430000e-06	4.955209e-07	6.258165e-09	3.586605e+00	4.058198e+02
2.440000e-06	3.955091e-07	5.758646e-09	2.862715e+00	3.726664e+02
2.450000e-06	2.953642e-07	5.243648e-09	2.137861e+00	3.387242e+02
2.460000e-06	1.951046e-07	4.710358e-09	1.412176e+00	3.041419e+02
2.470000e-06	9.474471e-08	4.166931e-09	6.857669e-01	2.690760e+02
2.480000e-06	-5.724046e-09	3.621810e-09	-4.143093e-02	2.336780e+02
2.490000e-06	-1.062489e-07	3.075081e-09	-7.690347e-01	1.980791e+02
2.500000e-06	-2.067400e-07	2.526767e-09	-1.496394e+00	1.623766e+02
2.510000e-06	-3.071683e-07	1.979898e-09	-2.223299e+00	1.266220e+02
2.520000e-06	-4.074694e-07	1.434665e-09	-2.949283e+00	9.081501e+01
2.530000e-06	-5.075431e-07	8.872650e-10	-3.673623e+00	5.490417e+01
2.540000e-06	-6.074582e-07	3.348322e-10	-4.396813e+00	1.879443e+01
2.550000e-06	-7.072559e-07	-2.245506e-10	-5.119154e+00	-1.763755e+01
2.560000e-06	-8.069194e-07	-7.913468e-10	-5.840523e+00	-5.452290e+01
2.570000e-06	-9.063691e-07	-1.366167e-09	-6.560345e+00	-9.197697e+01
2.580000e-06	-1.005550e-06	-1.948738e-09	-7.278220e+00	-1.300761e+02
2.590000e-06	-1.104392e-06	-2.541583e-09	-7.993645e+00	-1.688381e+02
2.600000e-06	-1.202823e-06	-3.146767e-09	-8.706092e+00	-2.082092e+02
2.610000e-06	-1.300876e-06	-3.758343e-09	-9.415804e+00	-2.480596e+02
2.620000e-06	-1.398479e-06	-4.372512e-09	-1.012226e+01	-2.881890e+02
2.630000e-06	-1.495482e-06	-4.986792e-09	-1.082438e+01	-3.283397e+02
2.640000e-06	-1.591893e-06	-5.596927e-09	-1.152220e+01	-3.682173e+02
2.650000e-06	-1.687876e-06	-6.198966e-09	-1.221693e+01	-4.075152e+02
2.660000e-06	-1.783489e-06	-6.789210e-09	-1.290898e+01	-4.459388e+02
2.670000e-06	-1.878554e-06	-7.364959e-09	-1.359707e+01	-4.832276e+02
2.680000e-06	-1.972777e-06	-7.919457e-09	-1.427906e+01	-5.191713e+02
2.690000e-06	-2.065929e-06	-8.447781e-09	-1.495329e+01	-5.536193e+02
2.700000e-06	-2.158115e-06	-8.950784e-09	-1.562054e+01	-5.864824e+02
2.710000e-06	-2.249540e-06	-9.430393e-09	-1.628228e+01	-6.177277e+02
2.720000e-06	-2.340244e-06	-9.884790e-09	-1.693880e+01	-6.473694e+02
2.730000e-06	-2.430164e-06	-1.031230e-08	-1.758965e+01	-6.754559e+02
2.740000e-06	-2.519108e-06	-1.071833e-08	-1.823343e+01	-7.020568e+02
2.750000e-06	-2.607203e-06	-1.110585e-08	-1.887107e+01	-7.272519e+02
2.760000e-06	-2.694673e-06	-1.147344e-08	-1.950418e+01	-7.511221e+02
2.770000e-06	-2.781303e-06	-1.182070e-08	-2.013121e+01	-7.737443e+02
2.780000e-06	-2.866674e-06	-1.214981e-08	-2.074913e+01	-7.951893e+02
2.790000e-06	-2.950828e-06	-1.246173e-08	-2.135824e+01	-8.155218e+02
2.800000e-06	-3.034104e-06	-1.275746e-08	-2.196100e+01	-8.348019e+02
2.810000e-06	-3.116415e-06	-1.303638e-08	-2.255677e+01	-8.530869e+02
2.820000e-06	-3.197602e-06	-1.330028e-08	-2.314440e+01	-8.704328e+02
2.830000e-06	-3.277733e-06	-1.355167e-08	-2.372439e+01	-8.868946e+02
2.840000e-06	-3.356871e-06	-1.379195e-08	-2.429720e+01	-9.025256e+02
2.850000e-06	-3.434634e-06	-1.402334e-08	-2.486005e+01	-9.173768e+02
2.860000e-06	-3.510824e-06	-1.424513e-08	-2.541152e+01	-9.314956e+02
2.870000e-06	-3.585586e-06	-1.445503e-08	-2.595265e+01	-9.449244e+02
2.880000e-06	-3.659034e-06	-1.465106e-08	-2.648427e+01	-9.577006e+02
2.890000e-06	-3.731242e-06	-1.483536e-08	-2.700692e+01	-9.698568e+02
2.900000e-06	-3.802096e-06	-1.501059e-08	-2.751976e+01	-9.814211e+02
2.910000e-06	-3.871413e-06	-1.517678e-08	-2.802148e+01	-9.924186e+02
2.920000e-06	-3.939278e-06	-1.533512e-08	-2.851269e+01	-1.002871e+03
2.930000e-06	-4.005869e-06	-1.548677e-08	-2.899468e+01	-1.012800e+03
2.940000e-06	-4.071054e-06	-1.563285e-08	-2.946649e+01	-1.022224e+03
