# Temperatura_=_67.68
# Concentracion g/m^3_=_28200.0
# C_Vs_to_Am_M_A/Vsm_=_65563218390.804596
# pendiente_HvsI_1/m_=_3716.3
# ordenada_HvsI_A/m_=_1297.0
# frecuencia_Hz_=_301744.4054293995

Tiempo_(s)	Campo_(V.s)	Magnetizacion_(V.s)	Campo_(kA/m)	Magnetizacion_(A/m)
0.000000e+00	-5.309996e-06	-2.287955e-08	-3.830020e+01	-1.495854e+03
1.000000e-08	-5.307594e-06	-2.287553e-08	-3.828288e+01	-1.495442e+03
2.000000e-08	-5.303408e-06	-2.286412e-08	-3.825268e+01	-1.494877e+03
3.000000e-08	-5.297677e-06	-2.285232e-08	-3.821135e+01	-1.494148e+03
4.000000e-08	-5.290361e-06	-2.283841e-08	-3.815858e+01	-1.493237e+03
5.000000e-08	-5.281311e-06	-2.281712e-08	-3.809330e+01	-1.492122e+03
6.000000e-08	-5.270229e-06	-2.279009e-08	-3.801337e+01	-1.490788e+03
7.000000e-08	-5.257275e-06	-2.274917e-08	-3.791994e+01	-1.489228e+03
8.000000e-08	-5.242453e-06	-2.272461e-08	-3.781302e+01	-1.487448e+03
9.000000e-08	-5.225337e-06	-2.278049e-08	-3.768957e+01	-1.485471e+03
1.000000e-07	-5.206027e-06	-2.275828e-08	-3.755029e+01	-1.483328e+03
1.100000e-07	-5.184809e-06	-2.266383e-08	-3.739725e+01	-1.481060e+03
1.200000e-07	-5.161781e-06	-2.262364e-08	-3.723115e+01	-1.478704e+03
1.300000e-07	-5.137330e-06	-2.248099e-08	-3.705479e+01	-1.476291e+03
1.400000e-07	-5.111461e-06	-2.245080e-08	-3.686820e+01	-1.473837e+03
1.500000e-07	-5.083846e-06	-2.260453e-08	-3.666902e+01	-1.471340e+03
1.600000e-07	-5.054652e-06	-2.238682e-08	-3.645844e+01	-1.468778e+03
1.700000e-07	-5.024037e-06	-2.234333e-08	-3.623762e+01	-1.466115e+03
1.800000e-07	-4.991547e-06	-2.245868e-08	-3.600328e+01	-1.463302e+03
1.900000e-07	-4.956950e-06	-2.218351e-08	-3.575374e+01	-1.460290e+03
2.000000e-07	-4.920811e-06	-2.218990e-08	-3.549307e+01	-1.457032e+03
2.100000e-07	-4.883083e-06	-2.224964e-08	-3.522094e+01	-1.453491e+03
2.200000e-07	-4.843573e-06	-2.205252e-08	-3.493596e+01	-1.449644e+03
2.300000e-07	-4.802277e-06	-2.203125e-08	-3.463810e+01	-1.445483e+03
2.400000e-07	-4.759011e-06	-2.195566e-08	-3.432603e+01	-1.441010e+03
2.500000e-07	-4.713988e-06	-2.183177e-08	-3.400128e+01	-1.436239e+03
2.600000e-07	-4.667241e-06	-2.184952e-08	-3.366411e+01	-1.431188e+03
2.700000e-07	-4.618599e-06	-2.171723e-08	-3.331326e+01	-1.425871e+03
2.800000e-07	-4.567857e-06	-2.159859e-08	-3.294727e+01	-1.420303e+03
2.900000e-07	-4.515071e-06	-2.152250e-08	-3.256653e+01	-1.414489e+03
3.000000e-07	-4.460599e-06	-2.143000e-08	-3.217363e+01	-1.408428e+03
3.100000e-07	-4.404598e-06	-2.135201e-08	-3.176970e+01	-1.402114e+03
3.200000e-07	-4.346832e-06	-2.125749e-08	-3.135304e+01	-1.395537e+03
3.300000e-07	-4.287297e-06	-2.116170e-08	-3.092363e+01	-1.388685e+03
3.400000e-07	-4.226319e-06	-2.101506e-08	-3.048380e+01	-1.381549e+03
3.500000e-07	-4.163931e-06	-2.089576e-08	-3.003381e+01	-1.374120e+03
3.600000e-07	-4.100172e-06	-2.077851e-08	-2.957393e+01	-1.366391e+03
3.700000e-07	-4.034963e-06	-2.066587e-08	-2.910358e+01	-1.358359e+03
3.800000e-07	-3.968140e-06	-2.058023e-08	-2.862160e+01	-1.350021e+03
3.900000e-07	-3.899802e-06	-2.041837e-08	-2.812869e+01	-1.341371e+03
4.000000e-07	-3.830130e-06	-2.025674e-08	-2.762615e+01	-1.332404e+03
4.100000e-07	-3.759224e-06	-2.012807e-08	-2.711472e+01	-1.323111e+03
4.200000e-07	-3.687130e-06	-1.997710e-08	-2.659472e+01	-1.313479e+03
4.300000e-07	-3.613681e-06	-1.982759e-08	-2.606494e+01	-1.303495e+03
4.400000e-07	-3.538649e-06	-1.967009e-08	-2.552375e+01	-1.293143e+03
4.500000e-07	-3.462183e-06	-1.950434e-08	-2.497221e+01	-1.282405e+03
4.600000e-07	-3.384459e-06	-1.932439e-08	-2.441159e+01	-1.271266e+03
4.700000e-07	-3.305397e-06	-1.915401e-08	-2.384133e+01	-1.259710e+03
4.800000e-07	-3.224946e-06	-1.898895e-08	-2.326105e+01	-1.247722e+03
4.900000e-07	-3.143216e-06	-1.879436e-08	-2.267154e+01	-1.235285e+03
5.000000e-07	-3.060384e-06	-1.859351e-08	-2.207409e+01	-1.222381e+03
5.100000e-07	-2.976625e-06	-1.838211e-08	-2.146995e+01	-1.208990e+03
5.200000e-07	-2.892045e-06	-1.816528e-08	-2.085988e+01	-1.195089e+03
5.300000e-07	-2.806524e-06	-1.794155e-08	-2.024304e+01	-1.180650e+03
5.400000e-07	-2.720010e-06	-1.771274e-08	-1.961902e+01	-1.165640e+03
5.500000e-07	-2.632682e-06	-1.748016e-08	-1.898914e+01	-1.150024e+03
5.600000e-07	-2.544525e-06	-1.722661e-08	-1.835328e+01	-1.133766e+03
5.700000e-07	-2.455243e-06	-1.696723e-08	-1.770930e+01	-1.116826e+03
5.800000e-07	-2.364752e-06	-1.670200e-08	-1.705660e+01	-1.099166e+03
5.900000e-07	-2.273289e-06	-1.642796e-08	-1.639689e+01	-1.080745e+03
6.000000e-07	-2.181060e-06	-1.613231e-08	-1.573166e+01	-1.061524e+03
6.100000e-07	-2.088149e-06	-1.582102e-08	-1.506150e+01	-1.041463e+03
6.200000e-07	-1.994489e-06	-1.549788e-08	-1.438595e+01	-1.020519e+03
6.300000e-07	-1.900086e-06	-1.515906e-08	-1.370503e+01	-9.986441e+02
6.400000e-07	-1.805041e-06	-1.481172e-08	-1.301949e+01	-9.757871e+02
6.500000e-07	-1.709399e-06	-1.444885e-08	-1.232964e+01	-9.518880e+02
6.600000e-07	-1.613190e-06	-1.406785e-08	-1.163570e+01	-9.268786e+02
6.700000e-07	-1.516392e-06	-1.366564e-08	-1.093750e+01	-9.006817e+02
6.800000e-07	-1.418944e-06	-1.324602e-08	-1.023463e+01	-8.732120e+02
6.900000e-07	-1.320877e-06	-1.280645e-08	-9.527289e+00	-8.443779e+02
7.000000e-07	-1.222251e-06	-1.234512e-08	-8.815914e+00	-8.140847e+02
7.100000e-07	-1.123116e-06	-1.185865e-08	-8.100865e+00	-7.822397e+02
7.200000e-07	-1.023584e-06	-1.134523e-08	-7.382958e+00	-7.487590e+02
7.300000e-07	-9.237632e-07	-1.080710e-08	-6.662965e+00	-7.135755e+02
7.400000e-07	-8.237094e-07	-1.024289e-08	-5.941292e+00	-6.766478e+02
7.500000e-07	-7.234452e-07	-9.656255e-09	-5.218101e+00	-6.379691e+02
7.600000e-07	-6.229720e-07	-9.041412e-09	-4.493403e+00	-5.975754e+02
7.700000e-07	-5.222912e-07	-8.398343e-09	-3.767208e+00	-5.555504e+02
7.800000e-07	-4.214813e-07	-7.734976e-09	-3.040081e+00	-5.120268e+02
7.900000e-07	-3.206034e-07	-7.053341e-09	-2.312464e+00	-4.671821e+02
8.000000e-07	-2.196033e-07	-6.353161e-09	-1.583966e+00	-4.212285e+02
8.100000e-07	-1.184602e-07	-5.640938e-09	-8.544354e-01	-3.743970e+02
8.200000e-07	-1.724353e-08	-4.921829e-09	-1.243750e-01	-3.269163e+02
8.300000e-07	8.395197e-08	-4.194756e-09	6.055329e-01	-2.789902e+02
8.400000e-07	1.851893e-07	-3.460473e-09	1.335743e+00	-2.307745e+02
8.500000e-07	2.864100e-07	-2.724191e-09	2.065832e+00	-1.823594e+02
8.600000e-07	3.875413e-07	-1.987210e-09	2.795277e+00	-1.337580e+02
8.700000e-07	4.885442e-07	-1.242581e-09	3.523796e+00	-8.490638e+01
8.800000e-07	5.893825e-07	-4.920298e-10	4.251128e+00	-3.567510e+01
8.900000e-07	6.900746e-07	2.679950e-10	4.977404e+00	1.410823e+01
9.000000e-07	7.905727e-07	1.038978e-09	5.702282e+00	6.462712e+01
9.100000e-07	8.908493e-07	1.821504e-09	6.425562e+00	1.160394e+02
9.200000e-07	9.908697e-07	2.617933e-09	7.146994e+00	1.684406e+02
9.300000e-07	1.090615e-06	3.427529e-09	7.866443e+00	2.218333e+02
9.400000e-07	1.190006e-06	4.253308e-09	8.583335e+00	2.761070e+02
9.500000e-07	1.288903e-06	5.089524e-09	9.296662e+00	3.310322e+02
9.600000e-07	1.387145e-06	5.930434e-09	1.000527e+01	3.862702e+02
9.700000e-07	1.484665e-06	6.769180e-09	1.070866e+01	4.413973e+02
9.800000e-07	1.581532e-06	7.598389e-09	1.140735e+01	4.959401e+02
9.900000e-07	1.677765e-06	8.410628e-09	1.210147e+01	5.494163e+02
1.000000e-06	1.773366e-06	9.200128e-09	1.279102e+01	6.013761e+02
1.010000e-06	1.868326e-06	9.961250e-09	1.347595e+01	6.514372e+02
1.020000e-06	1.962631e-06	1.068661e-08	1.415616e+01	6.993100e+02
1.030000e-06	2.056281e-06	1.137525e-08	1.483165e+01	7.448088e+02
1.040000e-06	2.149220e-06	1.202689e-08	1.550200e+01	7.878513e+02
1.050000e-06	2.241505e-06	1.264269e-08	1.616764e+01	8.284453e+02
1.060000e-06	2.333147e-06	1.322250e-08	1.682864e+01	8.666681e+02
1.070000e-06	2.423895e-06	1.377041e-08	1.748319e+01	9.026426e+02
1.080000e-06	2.513549e-06	1.428554e-08	1.812985e+01	9.365137e+02
1.090000e-06	2.602171e-06	1.476975e-08	1.876907e+01	9.684297e+02
1.100000e-06	2.689846e-06	1.522539e-08	1.940146e+01	9.985297e+02
1.110000e-06	2.776633e-06	1.565646e-08	2.002744e+01	1.026938e+03
1.120000e-06	2.862505e-06	1.606454e-08	2.064682e+01	1.053763e+03
1.130000e-06	2.947467e-06	1.645106e-08	2.125964e+01	1.079102e+03
1.140000e-06	3.031588e-06	1.681542e-08	2.186639e+01	1.103047e+03
1.150000e-06	3.114786e-06	1.715682e-08	2.246648e+01	1.125686e+03
1.160000e-06	3.196841e-06	1.748049e-08	2.305834e+01	1.147107e+03
1.170000e-06	3.277663e-06	1.778797e-08	2.364129e+01	1.167397e+03
1.180000e-06	3.357327e-06	1.808107e-08	2.421589e+01	1.186639e+03
1.190000e-06	3.435788e-06	1.835831e-08	2.478182e+01	1.204910e+03
1.200000e-06	3.513052e-06	1.862176e-08	2.533912e+01	1.222275e+03
1.210000e-06	3.589191e-06	1.887167e-08	2.588830e+01	1.238789e+03
1.220000e-06	3.663902e-06	1.910979e-08	2.642717e+01	1.254497e+03
1.230000e-06	3.736904e-06	1.933575e-08	2.695373e+01	1.269438e+03
1.240000e-06	3.808413e-06	1.954851e-08	2.746951e+01	1.283644e+03
1.250000e-06	3.878587e-06	1.975049e-08	2.797566e+01	1.297151e+03
1.260000e-06	3.947463e-06	1.994277e-08	2.847246e+01	1.309997e+03
1.270000e-06	4.015036e-06	2.012612e-08	2.895985e+01	1.322222e+03
1.280000e-06	4.081008e-06	2.030190e-08	2.943570e+01	1.333868e+03
1.290000e-06	4.145307e-06	2.047109e-08	2.989948e+01	1.344973e+03
1.300000e-06	4.208192e-06	2.063477e-08	3.035306e+01	1.355569e+03
1.310000e-06	4.269694e-06	2.079079e-08	3.079666e+01	1.365680e+03
1.320000e-06	4.329889e-06	2.093922e-08	3.123084e+01	1.375315e+03
1.330000e-06	4.388634e-06	2.108113e-08	3.165456e+01	1.384477e+03
1.340000e-06	4.445552e-06	2.121462e-08	3.206510e+01	1.393161e+03
1.350000e-06	4.500696e-06	2.133828e-08	3.246284e+01	1.401363e+03
1.360000e-06	4.554312e-06	2.145457e-08	3.284957e+01	1.409083e+03
1.370000e-06	4.606215e-06	2.156467e-08	3.322393e+01	1.416336e+03
1.380000e-06	4.656052e-06	2.166805e-08	3.358340e+01	1.423145e+03
1.390000e-06	4.703950e-06	2.176440e-08	3.392888e+01	1.429548e+03
1.400000e-06	4.750203e-06	2.185559e-08	3.426250e+01	1.435589e+03
1.410000e-06	4.794994e-06	2.194321e-08	3.458557e+01	1.441316e+03
1.420000e-06	4.838221e-06	2.202704e-08	3.489736e+01	1.446770e+03
1.430000e-06	4.879584e-06	2.210777e-08	3.519571e+01	1.451979e+03
1.440000e-06	4.919182e-06	2.218371e-08	3.548132e+01	1.456958e+03
1.450000e-06	4.957114e-06	2.225518e-08	3.575492e+01	1.461705e+03
1.460000e-06	4.993425e-06	2.232283e-08	3.601682e+01	1.466206e+03
1.470000e-06	5.028003e-06	2.238653e-08	3.626623e+01	1.470439e+03
1.480000e-06	5.060614e-06	2.244575e-08	3.650145e+01	1.474383e+03
1.490000e-06	5.091473e-06	2.250143e-08	3.672403e+01	1.478019e+03
1.500000e-06	5.120705e-06	2.255353e-08	3.693487e+01	1.481342e+03
1.510000e-06	5.148257e-06	2.260018e-08	3.713360e+01	1.484356e+03
1.520000e-06	5.173817e-06	2.264260e-08	3.731796e+01	1.487076e+03
1.530000e-06	5.197309e-06	2.268150e-08	3.748741e+01	1.489523e+03
1.540000e-06	5.219056e-06	2.271557e-08	3.764427e+01	1.491719e+03
1.550000e-06	5.239199e-06	2.274459e-08	3.778956e+01	1.493683e+03
1.560000e-06	5.257463e-06	2.277024e-08	3.792129e+01	1.495426e+03
1.570000e-06	5.273649e-06	2.279170e-08	3.803804e+01	1.496953e+03
1.580000e-06	5.287927e-06	2.280905e-08	3.814102e+01	1.498260e+03
1.590000e-06	5.300248e-06	2.282285e-08	3.822990e+01	1.499344e+03
1.600000e-06	5.310299e-06	2.283454e-08	3.830239e+01	1.500199e+03
1.610000e-06	5.318269e-06	2.284604e-08	3.835988e+01	1.500827e+03
1.620000e-06	5.324469e-06	2.285582e-08	3.840460e+01	1.501236e+03
1.630000e-06	5.328960e-06	2.286311e-08	3.843698e+01	1.501439e+03
1.640000e-06	5.331583e-06	2.286770e-08	3.845591e+01	1.501456e+03
1.650000e-06	5.332150e-06	2.287059e-08	3.846000e+01	1.501304e+03
1.660000e-06	5.330893e-06	2.286394e-08	3.845093e+01	1.500997e+03
1.670000e-06	5.328003e-06	2.285392e-08	3.843008e+01	1.500541e+03
1.680000e-06	5.323471e-06	2.284585e-08	3.839740e+01	1.499930e+03
1.690000e-06	5.317022e-06	2.283309e-08	3.835088e+01	1.499150e+03
1.700000e-06	5.308735e-06	2.281898e-08	3.829111e+01	1.498181e+03
1.710000e-06	5.298925e-06	2.280513e-08	3.822035e+01	1.497004e+03
1.720000e-06	5.287410e-06	2.280346e-08	3.813729e+01	1.495605e+03
1.730000e-06	5.273915e-06	2.280253e-08	3.803996e+01	1.493979e+03
1.740000e-06	5.258532e-06	2.267425e-08	3.792900e+01	1.492140e+03
1.750000e-06	5.241014e-06	2.262256e-08	3.780265e+01	1.490110e+03
1.760000e-06	5.220816e-06	2.265017e-08	3.765696e+01	1.487926e+03
1.770000e-06	5.198129e-06	2.262758e-08	3.749332e+01	1.485628e+03
1.780000e-06	5.173889e-06	2.274355e-08	3.731848e+01	1.483252e+03
1.790000e-06	5.148949e-06	2.257909e-08	3.713859e+01	1.480826e+03
1.800000e-06	5.122962e-06	2.239160e-08	3.695115e+01	1.478360e+03
1.810000e-06	5.094832e-06	2.259540e-08	3.674826e+01	1.475846e+03
1.820000e-06	5.064711e-06	2.239610e-08	3.653100e+01	1.473258e+03
1.830000e-06	5.033086e-06	2.229634e-08	3.630289e+01	1.470556e+03
1.840000e-06	4.999545e-06	2.254004e-08	3.606097e+01	1.467691e+03
1.850000e-06	4.964331e-06	2.227056e-08	3.580697e+01	1.464612e+03
1.860000e-06	4.927541e-06	2.220973e-08	3.554161e+01	1.461275e+03
1.870000e-06	4.888720e-06	2.230778e-08	3.526160e+01	1.457647e+03
1.880000e-06	4.848201e-06	2.208253e-08	3.496934e+01	1.453710e+03
1.890000e-06	4.805999e-06	2.216384e-08	3.466495e+01	1.449457e+03
1.900000e-06	4.762078e-06	2.202379e-08	3.434815e+01	1.444897e+03
1.910000e-06	4.716466e-06	2.184911e-08	3.401916e+01	1.440043e+03
1.920000e-06	4.668887e-06	2.200423e-08	3.367598e+01	1.434913e+03
1.930000e-06	4.619666e-06	2.180035e-08	3.332096e+01	1.429523e+03
1.940000e-06	4.568716e-06	2.173208e-08	3.295346e+01	1.423883e+03
1.950000e-06	4.515658e-06	2.167605e-08	3.257076e+01	1.417997e+03
1.960000e-06	4.460748e-06	2.151838e-08	3.217471e+01	1.411864e+03
1.970000e-06	4.404100e-06	2.148724e-08	3.176611e+01	1.405475e+03
1.980000e-06	4.345890e-06	2.127137e-08	3.134625e+01	1.398819e+03
1.990000e-06	4.286319e-06	2.124722e-08	3.091658e+01	1.391887e+03
2.000000e-06	4.225263e-06	2.118728e-08	3.047618e+01	1.384666e+03
2.010000e-06	4.162549e-06	2.100702e-08	3.002384e+01	1.377151e+03
2.020000e-06	4.098193e-06	2.091169e-08	2.955965e+01	1.369335e+03
2.030000e-06	4.032440e-06	2.072053e-08	2.908538e+01	1.361215e+03
2.040000e-06	3.965348e-06	2.067728e-08	2.860146e+01	1.352787e+03
2.050000e-06	3.896875e-06	2.053212e-08	2.810757e+01	1.344046e+03
2.060000e-06	3.826827e-06	2.036429e-08	2.760233e+01	1.334986e+03
2.070000e-06	3.755319e-06	2.027929e-08	2.708655e+01	1.325597e+03
2.080000e-06	3.682613e-06	2.008016e-08	2.656214e+01	1.315865e+03
2.090000e-06	3.608592e-06	1.994251e-08	2.602823e+01	1.305776e+03
2.100000e-06	3.533191e-06	1.976601e-08	2.548438e+01	1.295314e+03
2.110000e-06	3.456280e-06	1.962543e-08	2.492963e+01	1.284462e+03
2.120000e-06	3.377864e-06	1.945985e-08	2.436402e+01	1.273205e+03
2.130000e-06	3.298211e-06	1.925206e-08	2.378950e+01	1.261526e+03
2.140000e-06	3.217443e-06	1.908934e-08	2.320693e+01	1.249410e+03
2.150000e-06	3.135611e-06	1.888293e-08	2.261669e+01	1.236840e+03
2.160000e-06	3.052775e-06	1.870164e-08	2.201920e+01	1.223799e+03
2.170000e-06	2.969017e-06	1.849453e-08	2.141508e+01	1.210264e+03
2.180000e-06	2.884141e-06	1.828584e-08	2.080287e+01	1.196211e+03
2.190000e-06	2.797931e-06	1.806275e-08	2.018105e+01	1.181610e+03
2.200000e-06	2.710571e-06	1.782059e-08	1.955094e+01	1.166430e+03
2.210000e-06	2.622287e-06	1.759337e-08	1.891416e+01	1.150634e+03
2.220000e-06	2.533160e-06	1.733803e-08	1.827130e+01	1.134184e+03
2.230000e-06	2.443149e-06	1.707600e-08	1.762206e+01	1.117041e+03
2.240000e-06	2.352352e-06	1.679690e-08	1.696716e+01	1.099166e+03
2.250000e-06	2.260848e-06	1.652374e-08	1.630716e+01	1.080520e+03
2.260000e-06	2.168584e-06	1.623153e-08	1.564167e+01	1.061062e+03
2.270000e-06	2.075445e-06	1.591899e-08	1.496987e+01	1.040752e+03
2.280000e-06	1.981317e-06	1.559779e-08	1.429094e+01	1.019546e+03
2.290000e-06	1.886292e-06	1.525773e-08	1.360554e+01	9.973954e+02
2.300000e-06	1.790578e-06	1.490553e-08	1.291517e+01	9.742461e+02
2.310000e-06	1.694332e-06	1.453549e-08	1.222096e+01	9.500360e+02
2.320000e-06	1.597638e-06	1.415473e-08	1.152352e+01	9.246945e+02
2.330000e-06	1.500395e-06	1.375272e-08	1.082212e+01	8.981419e+02
2.340000e-06	1.402587e-06	1.332635e-08	1.011665e+01	8.702909e+02
2.350000e-06	1.304401e-06	1.287587e-08	9.408448e+00	8.410485e+02
2.360000e-06	1.205899e-06	1.240913e-08	8.697967e+00	8.103201e+02
2.370000e-06	1.107100e-06	1.192391e-08	7.985343e+00	7.780147e+02
2.380000e-06	1.008016e-06	1.141134e-08	7.270668e+00	7.440524e+02
2.390000e-06	9.086565e-07	1.086727e-08	6.554003e+00	7.083723e+02
2.400000e-06	8.090107e-07	1.029030e-08	5.835273e+00	6.709422e+02
2.410000e-06	7.090811e-07	9.688487e-09	5.114496e+00	6.317667e+02
2.420000e-06	6.089182e-07	9.061613e-09	4.392035e+00	5.908952e+02
2.430000e-06	5.085818e-07	8.412357e-09	3.668324e+00	5.484253e+02
2.440000e-06	4.080827e-07	7.745892e-09	2.943439e+00	5.045033e+02
2.450000e-06	3.073913e-07	7.061804e-09	2.217167e+00	4.593180e+02
2.460000e-06	2.064875e-07	6.356139e-09	1.489363e+00	4.130886e+02
2.470000e-06	1.054377e-07	5.633944e-09	7.605060e-01	3.660478e+02
2.480000e-06	4.339330e-09	4.903328e-09	3.129893e-02	3.184197e+02
2.490000e-06	-9.678724e-08	4.166816e-09	-6.981118e-01	2.703965e+02
2.500000e-06	-1.978437e-07	3.426008e-09	-1.427017e+00	2.221169e+02
2.510000e-06	-2.987273e-07	2.683289e-09	-2.154675e+00	1.736496e+02
2.520000e-06	-3.994871e-07	1.939659e-09	-2.881440e+00	1.249853e+02
2.530000e-06	-5.001310e-07	1.191265e-09	-3.607370e+00	7.603978e+01
2.540000e-06	-6.005556e-07	4.369465e-10	-4.331717e+00	2.666845e+01
2.550000e-06	-7.007853e-07	-3.260275e-10	-5.054659e+00	-2.330778e+01
2.560000e-06	-8.007754e-07	-1.100363e-09	-5.775873e+00	-7.406894e+01
2.570000e-06	-9.004866e-07	-1.889054e-09	-6.495075e+00	-1.257586e+02
2.580000e-06	-9.998925e-07	-2.693646e-09	-7.212074e+00	-1.784486e+02
2.590000e-06	-1.098953e-06	-3.512929e-09	-7.926584e+00	-2.321106e+02
2.600000e-06	-1.197685e-06	-4.347912e-09	-8.638722e+00	-2.866000e+02
2.610000e-06	-1.296069e-06	-5.190642e-09	-9.348350e+00	-3.416545e+02
2.620000e-06	-1.393995e-06	-6.035449e-09	-1.005468e+01	-3.969080e+02
2.630000e-06	-1.491342e-06	-6.879978e-09	-1.075683e+01	-4.519187e+02
2.640000e-06	-1.588154e-06	-7.712897e-09	-1.145512e+01	-5.062063e+02
2.650000e-06	-1.684463e-06	-8.523898e-09	-1.214978e+01	-5.592938e+02
2.660000e-06	-1.780308e-06	-9.309727e-09	-1.284109e+01	-6.107475e+02
2.670000e-06	-1.875673e-06	-1.006840e-08	-1.352895e+01	-6.602096e+02
2.680000e-06	-1.970296e-06	-1.079353e-08	-1.421145e+01	-7.074194e+02
2.690000e-06	-2.063954e-06	-1.147887e-08	-1.488699e+01	-7.522217e+02
2.700000e-06	-2.156637e-06	-1.212708e-08	-1.555550e+01	-7.945614e+02
2.710000e-06	-2.248456e-06	-1.274237e-08	-1.621777e+01	-8.344686e+02
2.720000e-06	-2.339536e-06	-1.332252e-08	-1.687472e+01	-8.720362e+02
2.730000e-06	-2.429825e-06	-1.386600e-08	-1.752597e+01	-9.073955e+02
2.740000e-06	-2.519140e-06	-1.437604e-08	-1.817018e+01	-9.406941e+02
2.750000e-06	-2.607573e-06	-1.485635e-08	-1.880803e+01	-9.720787e+02
2.760000e-06	-2.695349e-06	-1.530775e-08	-1.944115e+01	-1.001684e+03
2.770000e-06	-2.782369e-06	-1.573145e-08	-2.006881e+01	-1.029631e+03
2.780000e-06	-2.868233e-06	-1.613443e-08	-2.068813e+01	-1.056023e+03
2.790000e-06	-2.952846e-06	-1.651866e-08	-2.129844e+01	-1.080955e+03
2.800000e-06	-3.036439e-06	-1.688200e-08	-2.190138e+01	-1.104519e+03
2.810000e-06	-3.119042e-06	-1.722408e-08	-2.249718e+01	-1.126802e+03
2.820000e-06	-3.200554e-06	-1.754678e-08	-2.308512e+01	-1.147893e+03
2.830000e-06	-3.281029e-06	-1.785270e-08	-2.366557e+01	-1.167876e+03
2.840000e-06	-3.360526e-06	-1.814248e-08	-2.423897e+01	-1.186835e+03
2.850000e-06	-3.438731e-06	-1.841827e-08	-2.480305e+01	-1.204841e+03
2.860000e-06	-3.515371e-06	-1.868073e-08	-2.535584e+01	-1.221959e+03
2.870000e-06	-3.590551e-06	-1.893026e-08	-2.589811e+01	-1.238240e+03
2.880000e-06	-3.664377e-06	-1.916909e-08	-2.643060e+01	-1.253726e+03
2.890000e-06	-3.736884e-06	-1.939770e-08	-2.695358e+01	-1.268454e+03
2.900000e-06	-3.808190e-06	-1.961530e-08	-2.746790e+01	-1.282458e+03
2.910000e-06	-3.878035e-06	-1.982202e-08	-2.797169e+01	-1.295774e+03
2.920000e-06	-3.946291e-06	-2.001690e-08	-2.846401e+01	-1.308439e+03
2.930000e-06	-4.013187e-06	-2.020119e-08	-2.894651e+01	-1.320495e+03
2.940000e-06	-4.078733e-06	-2.037578e-08	-2.941929e+01	-1.331984e+03
