# Temperatura_=_64.05
# Concentracion g/m^3_=_28200.0
# C_Vs_to_Am_M_A/Vsm_=_65563218390.804596
# pendiente_HvsI_1/m_=_3716.3
# ordenada_HvsI_A/m_=_1297.0
# frecuencia_Hz_=_301748.02113017434

Tiempo_(s)	Campo_(V.s)	Magnetizacion_(V.s)	Campo_(kA/m)	Magnetizacion_(A/m)
0.000000e+00	-5.327255e-06	-2.202095e-08	-3.830184e+01	-1.439402e+03
1.000000e-08	-5.324478e-06	-2.201420e-08	-3.828188e+01	-1.439000e+03
2.000000e-08	-5.319963e-06	-2.200260e-08	-3.824942e+01	-1.438443e+03
3.000000e-08	-5.313842e-06	-2.199205e-08	-3.820541e+01	-1.437718e+03
4.000000e-08	-5.306127e-06	-2.197877e-08	-3.814994e+01	-1.436809e+03
5.000000e-08	-5.296645e-06	-2.195770e-08	-3.808177e+01	-1.435699e+03
6.000000e-08	-5.285101e-06	-2.193024e-08	-3.799877e+01	-1.434375e+03
7.000000e-08	-5.271682e-06	-2.188930e-08	-3.790228e+01	-1.432839e+03
8.000000e-08	-5.256196e-06	-2.188727e-08	-3.779095e+01	-1.431101e+03
9.000000e-08	-5.238460e-06	-2.193173e-08	-3.766342e+01	-1.429188e+03
1.000000e-07	-5.218740e-06	-2.187265e-08	-3.752164e+01	-1.427134e+03
1.100000e-07	-5.197156e-06	-2.179724e-08	-3.736646e+01	-1.424979e+03
1.200000e-07	-5.173849e-06	-2.175432e-08	-3.719889e+01	-1.422757e+03
1.300000e-07	-5.149088e-06	-2.160141e-08	-3.702086e+01	-1.420492e+03
1.400000e-07	-5.122713e-06	-2.166167e-08	-3.683123e+01	-1.418190e+03
1.500000e-07	-5.094630e-06	-2.174296e-08	-3.662932e+01	-1.415839e+03
1.600000e-07	-5.065124e-06	-2.150194e-08	-3.641718e+01	-1.413407e+03
1.700000e-07	-5.034182e-06	-2.158521e-08	-3.619471e+01	-1.410847e+03
1.800000e-07	-5.001221e-06	-2.158592e-08	-3.595773e+01	-1.408108e+03
1.900000e-07	-4.966258e-06	-2.131506e-08	-3.570635e+01	-1.405141e+03
2.000000e-07	-4.929850e-06	-2.140567e-08	-3.544458e+01	-1.401904e+03
2.100000e-07	-4.891759e-06	-2.134154e-08	-3.517072e+01	-1.398372e+03
2.200000e-07	-4.851910e-06	-2.117555e-08	-3.488422e+01	-1.394538e+03
2.300000e-07	-4.810169e-06	-2.121475e-08	-3.458410e+01	-1.390407e+03
2.400000e-07	-4.766407e-06	-2.110206e-08	-3.426946e+01	-1.385998e+03
2.500000e-07	-4.720928e-06	-2.103455e-08	-3.394248e+01	-1.381333e+03
2.600000e-07	-4.673637e-06	-2.102435e-08	-3.360247e+01	-1.376432e+03
2.700000e-07	-4.624326e-06	-2.087224e-08	-3.324794e+01	-1.371307e+03
2.800000e-07	-4.572927e-06	-2.078392e-08	-3.287838e+01	-1.365962e+03
2.900000e-07	-4.519625e-06	-2.071683e-08	-3.249515e+01	-1.360387e+03
3.000000e-07	-4.464694e-06	-2.062777e-08	-3.210021e+01	-1.354568e+03
3.100000e-07	-4.408137e-06	-2.053623e-08	-3.169358e+01	-1.348487e+03
3.200000e-07	-4.349786e-06	-2.045186e-08	-3.127405e+01	-1.342127e+03
3.300000e-07	-4.289852e-06	-2.034688e-08	-3.084314e+01	-1.335477e+03
3.400000e-07	-4.228505e-06	-2.019856e-08	-3.040206e+01	-1.328534e+03
3.500000e-07	-4.165667e-06	-2.010760e-08	-2.995027e+01	-1.321301e+03
3.600000e-07	-4.101434e-06	-1.998823e-08	-2.948845e+01	-1.313785e+03
3.700000e-07	-4.035631e-06	-1.987478e-08	-2.901534e+01	-1.305996e+03
3.800000e-07	-3.968196e-06	-1.977544e-08	-2.853049e+01	-1.297938e+03
3.900000e-07	-3.899345e-06	-1.960915e-08	-2.803547e+01	-1.289606e+03
4.000000e-07	-3.829230e-06	-1.947907e-08	-2.753136e+01	-1.280991e+03
4.100000e-07	-3.757939e-06	-1.935218e-08	-2.701879e+01	-1.272072e+03
4.200000e-07	-3.685450e-06	-1.920969e-08	-2.649761e+01	-1.262823e+03
4.300000e-07	-3.611395e-06	-1.906205e-08	-2.596517e+01	-1.253216e+03
4.400000e-07	-3.535667e-06	-1.891132e-08	-2.542070e+01	-1.243227e+03
4.500000e-07	-3.458609e-06	-1.875430e-08	-2.486667e+01	-1.232834e+03
4.600000e-07	-3.380238e-06	-1.858240e-08	-2.430320e+01	-1.222024e+03
4.700000e-07	-3.300502e-06	-1.841907e-08	-2.372991e+01	-1.210791e+03
4.800000e-07	-3.219490e-06	-1.823985e-08	-2.314746e+01	-1.199128e+03
4.900000e-07	-3.137348e-06	-1.804558e-08	-2.255687e+01	-1.187034e+03
5.000000e-07	-3.054176e-06	-1.785014e-08	-2.195888e+01	-1.174500e+03
5.100000e-07	-2.970107e-06	-1.764934e-08	-2.135445e+01	-1.161511e+03
5.200000e-07	-2.885143e-06	-1.744436e-08	-2.074357e+01	-1.148043e+03
5.300000e-07	-2.799201e-06	-1.723287e-08	-2.012567e+01	-1.134065e+03
5.400000e-07	-2.712318e-06	-1.701509e-08	-1.950100e+01	-1.119536e+03
5.500000e-07	-2.624564e-06	-1.679050e-08	-1.887006e+01	-1.104415e+03
5.600000e-07	-2.535925e-06	-1.654562e-08	-1.823277e+01	-1.088658e+03
5.700000e-07	-2.446055e-06	-1.629224e-08	-1.758662e+01	-1.072225e+03
5.800000e-07	-2.354947e-06	-1.603010e-08	-1.693158e+01	-1.055079e+03
5.900000e-07	-2.263058e-06	-1.575391e-08	-1.627091e+01	-1.037187e+03
6.000000e-07	-2.170488e-06	-1.546143e-08	-1.560535e+01	-1.018517e+03
6.100000e-07	-2.077120e-06	-1.516198e-08	-1.493406e+01	-9.990360e+02
6.200000e-07	-1.983003e-06	-1.485614e-08	-1.425737e+01	-9.787060e+02
6.300000e-07	-1.888212e-06	-1.453269e-08	-1.357585e+01	-9.574820e+02
6.400000e-07	-1.792766e-06	-1.419710e-08	-1.288961e+01	-9.353095e+02
6.500000e-07	-1.696733e-06	-1.384226e-08	-1.219916e+01	-9.121238e+02
6.600000e-07	-1.600110e-06	-1.346898e-08	-1.150446e+01	-8.878513e+02
6.700000e-07	-1.502787e-06	-1.307803e-08	-1.080472e+01	-8.624109e+02
6.800000e-07	-1.404742e-06	-1.266847e-08	-1.009980e+01	-8.357163e+02
6.900000e-07	-1.306093e-06	-1.223910e-08	-9.390532e+00	-8.076792e+02
7.000000e-07	-1.206951e-06	-1.178758e-08	-8.677721e+00	-7.782126e+02
7.100000e-07	-1.107406e-06	-1.131321e-08	-7.962017e+00	-7.472346e+02
7.200000e-07	-1.007558e-06	-1.081474e-08	-7.244133e+00	-7.146734e+02
7.300000e-07	-9.074929e-07	-1.029357e-08	-6.524683e+00	-6.804730e+02
7.400000e-07	-8.072591e-07	-9.746516e-09	-5.804023e+00	-6.446010e+02
7.500000e-07	-7.067455e-07	-9.174559e-09	-5.081351e+00	-6.070558e+02
7.600000e-07	-6.059342e-07	-8.573304e-09	-4.356540e+00	-5.678752e+02
7.700000e-07	-5.049671e-07	-7.948946e-09	-3.630607e+00	-5.271418e+02
7.800000e-07	-4.038892e-07	-7.307291e-09	-2.903879e+00	-4.849857e+02
7.900000e-07	-3.026594e-07	-6.646130e-09	-2.176057e+00	-4.415812e+02
8.000000e-07	-2.012493e-07	-5.969671e-09	-1.446940e+00	-3.971376e+02
8.100000e-07	-9.971926e-08	-5.283158e-09	-7.169605e-01	-3.518834e+02
8.200000e-07	1.915835e-09	-4.590649e-09	1.377445e-02	-3.060446e+02
8.300000e-07	1.035708e-07	-3.890180e-09	7.446526e-01	-2.598211e+02
8.400000e-07	2.051615e-07	-3.184947e-09	1.475068e+00	-2.133625e+02
8.500000e-07	3.066627e-07	-2.474786e-09	2.204840e+00	-1.667499e+02
8.600000e-07	4.080268e-07	-1.760721e-09	2.933627e+00	-1.199850e+02
8.700000e-07	5.092562e-07	-1.042397e-09	3.661445e+00	-7.299150e+01
8.800000e-07	6.103634e-07	-3.186748e-10	4.388385e+00	-2.562848e+01
8.900000e-07	7.113107e-07	4.111832e-10	5.114174e+00	2.228449e+01
9.000000e-07	8.119928e-07	1.150671e-09	5.838058e+00	7.093341e+01
9.100000e-07	9.124060e-07	1.901609e-09	6.560007e+00	1.204720e+02
9.200000e-07	1.012567e-06	2.667758e-09	7.280146e+00	1.709854e+02
9.300000e-07	1.112459e-06	3.451609e-09	7.998344e+00	2.224613e+02
9.400000e-07	1.211999e-06	4.252087e-09	8.714016e+00	2.747730e+02
9.500000e-07	1.311111e-06	5.060109e-09	9.426615e+00	3.276774e+02
9.600000e-07	1.409700e-06	5.870821e-09	1.013545e+01	3.808282e+02
9.700000e-07	1.507533e-06	6.679648e-09	1.083885e+01	4.338033e+02
9.800000e-07	1.604569e-06	7.479787e-09	1.153651e+01	4.861407e+02
9.900000e-07	1.700912e-06	8.259941e-09	1.222920e+01	5.373789e+02
1.000000e-06	1.796625e-06	9.013006e-09	1.291736e+01	5.870961e+02
1.010000e-06	1.891734e-06	9.738251e-09	1.360117e+01	6.349413e+02
1.020000e-06	1.986201e-06	1.042925e-08	1.428037e+01	6.806554e+02
1.030000e-06	2.079977e-06	1.108594e-08	1.495460e+01	7.240792e+02
1.040000e-06	2.173044e-06	1.170719e-08	1.562373e+01	7.651495e+02
1.050000e-06	2.265403e-06	1.229243e-08	1.628777e+01	8.038855e+02
1.060000e-06	2.357134e-06	1.284336e-08	1.694730e+01	8.403679e+02
1.070000e-06	2.448141e-06	1.336482e-08	1.760162e+01	8.747167e+02
1.080000e-06	2.538105e-06	1.385683e-08	1.824844e+01	9.070699e+02
1.090000e-06	2.626872e-06	1.431912e-08	1.888665e+01	9.375674e+02
1.100000e-06	2.714634e-06	1.475571e-08	1.951765e+01	9.663395e+02
1.110000e-06	2.801517e-06	1.516650e-08	2.014232e+01	9.935024e+02
1.120000e-06	2.887473e-06	1.555599e-08	2.076032e+01	1.019159e+03
1.130000e-06	2.972479e-06	1.592493e-08	2.137150e+01	1.043401e+03
1.140000e-06	3.056594e-06	1.627390e-08	2.197627e+01	1.066313e+03
1.150000e-06	3.139827e-06	1.660288e-08	2.257470e+01	1.087980e+03
1.160000e-06	3.221922e-06	1.691309e-08	2.316494e+01	1.108481e+03
1.170000e-06	3.302775e-06	1.720610e-08	2.374626e+01	1.127898e+03
1.180000e-06	3.382515e-06	1.748508e-08	2.431957e+01	1.146308e+03
1.190000e-06	3.461074e-06	1.775065e-08	2.488439e+01	1.163781e+03
1.200000e-06	3.538354e-06	1.800277e-08	2.544002e+01	1.180381e+03
1.210000e-06	3.614424e-06	1.824252e-08	2.598695e+01	1.196163e+03
1.220000e-06	3.689114e-06	1.846984e-08	2.652395e+01	1.211173e+03
1.230000e-06	3.762149e-06	1.868598e-08	2.704906e+01	1.225450e+03
1.240000e-06	3.833678e-06	1.889014e-08	2.756334e+01	1.239030e+03
1.250000e-06	3.903898e-06	1.908532e-08	2.806821e+01	1.251947e+03
1.260000e-06	3.972760e-06	1.927053e-08	2.856331e+01	1.264237e+03
1.270000e-06	4.040371e-06	1.944652e-08	2.904942e+01	1.275934e+03
1.280000e-06	4.106488e-06	1.961376e-08	2.952479e+01	1.287073e+03
1.290000e-06	4.170895e-06	1.977401e-08	2.998786e+01	1.297686e+03
1.300000e-06	4.233764e-06	1.992936e-08	3.043987e+01	1.307798e+03
1.310000e-06	4.295170e-06	2.007828e-08	3.088137e+01	1.317429e+03
1.320000e-06	4.355244e-06	2.022089e-08	3.131329e+01	1.326588e+03
1.330000e-06	4.413836e-06	2.035573e-08	3.173455e+01	1.335281e+03
1.340000e-06	4.470662e-06	2.048111e-08	3.214312e+01	1.343510e+03
1.350000e-06	4.525781e-06	2.059741e-08	3.253941e+01	1.351277e+03
1.360000e-06	4.579278e-06	2.070676e-08	3.292405e+01	1.358592e+03
1.370000e-06	4.630958e-06	2.081005e-08	3.329561e+01	1.365469e+03
1.380000e-06	4.680590e-06	2.090829e-08	3.365246e+01	1.371936e+03
1.390000e-06	4.728327e-06	2.100131e-08	3.399568e+01	1.378027e+03
1.400000e-06	4.774446e-06	2.108943e-08	3.432726e+01	1.383781e+03
1.410000e-06	4.819054e-06	2.117242e-08	3.464799e+01	1.389237e+03
1.420000e-06	4.862061e-06	2.125154e-08	3.495720e+01	1.394426e+03
1.430000e-06	4.903219e-06	2.132838e-08	3.525312e+01	1.399374e+03
1.440000e-06	4.942615e-06	2.140041e-08	3.553636e+01	1.404089e+03
1.450000e-06	4.980372e-06	2.146718e-08	3.580783e+01	1.408570e+03
1.460000e-06	5.016561e-06	2.153055e-08	3.606802e+01	1.412804e+03
1.470000e-06	5.050993e-06	2.159084e-08	3.631558e+01	1.416773e+03
1.480000e-06	5.083462e-06	2.164611e-08	3.654902e+01	1.420459e+03
1.490000e-06	5.114158e-06	2.169551e-08	3.676972e+01	1.423851e+03
1.500000e-06	5.143176e-06	2.174146e-08	3.697835e+01	1.426943e+03
1.510000e-06	5.170458e-06	2.178478e-08	3.717451e+01	1.429741e+03
1.520000e-06	5.195693e-06	2.182548e-08	3.735594e+01	1.432259e+03
1.530000e-06	5.218906e-06	2.186119e-08	3.752284e+01	1.434518e+03
1.540000e-06	5.240334e-06	2.189146e-08	3.767690e+01	1.436538e+03
1.550000e-06	5.260063e-06	2.191848e-08	3.781875e+01	1.438337e+03
1.560000e-06	5.277948e-06	2.194142e-08	3.794734e+01	1.439928e+03
1.570000e-06	5.293807e-06	2.196063e-08	3.806136e+01	1.441318e+03
1.580000e-06	5.307777e-06	2.197667e-08	3.816180e+01	1.442506e+03
1.590000e-06	5.319743e-06	2.199139e-08	3.824783e+01	1.443490e+03
1.600000e-06	5.329449e-06	2.200551e-08	3.831762e+01	1.444269e+03
1.610000e-06	5.337098e-06	2.201797e-08	3.837262e+01	1.444842e+03
1.620000e-06	5.342915e-06	2.202772e-08	3.841444e+01	1.445218e+03
1.630000e-06	5.346983e-06	2.203356e-08	3.844369e+01	1.445405e+03
1.640000e-06	5.349125e-06	2.203696e-08	3.845908e+01	1.445419e+03
1.650000e-06	5.349252e-06	2.203622e-08	3.846000e+01	1.445271e+03
1.660000e-06	5.347649e-06	2.202621e-08	3.844848e+01	1.444970e+03
1.670000e-06	5.344401e-06	2.201904e-08	3.842512e+01	1.444518e+03
1.680000e-06	5.339478e-06	2.201220e-08	3.838972e+01	1.443908e+03
1.690000e-06	5.332684e-06	2.200240e-08	3.834088e+01	1.443125e+03
1.700000e-06	5.324102e-06	2.199012e-08	3.827918e+01	1.442151e+03
1.710000e-06	5.313986e-06	2.197705e-08	3.820644e+01	1.440972e+03
1.720000e-06	5.302179e-06	2.197737e-08	3.812155e+01	1.439579e+03
1.730000e-06	5.288335e-06	2.194947e-08	3.802202e+01	1.437975e+03
1.740000e-06	5.272431e-06	2.182883e-08	3.790767e+01	1.436176e+03
1.750000e-06	5.254308e-06	2.182530e-08	3.777737e+01	1.434212e+03
1.760000e-06	5.233609e-06	2.183347e-08	3.762855e+01	1.432121e+03
1.770000e-06	5.210578e-06	2.183084e-08	3.746296e+01	1.429939e+03
1.780000e-06	5.186164e-06	2.192506e-08	3.728743e+01	1.427700e+03
1.790000e-06	5.161073e-06	2.169272e-08	3.710703e+01	1.425423e+03
1.800000e-06	5.134677e-06	2.164790e-08	3.691725e+01	1.423106e+03
1.810000e-06	5.106084e-06	2.177064e-08	3.671167e+01	1.420732e+03
1.820000e-06	5.075557e-06	2.147949e-08	3.649219e+01	1.418263e+03
1.830000e-06	5.043365e-06	2.153893e-08	3.626073e+01	1.415650e+03
1.840000e-06	5.009267e-06	2.164172e-08	3.601558e+01	1.412842e+03
1.850000e-06	4.973646e-06	2.134685e-08	3.575947e+01	1.409791e+03
1.860000e-06	4.936349e-06	2.145016e-08	3.549131e+01	1.406460e+03
1.870000e-06	4.897049e-06	2.141913e-08	3.520876e+01	1.402830e+03
1.880000e-06	4.856139e-06	2.123471e-08	3.491462e+01	1.398898e+03
1.890000e-06	4.813451e-06	2.132327e-08	3.460770e+01	1.394674e+03
1.900000e-06	4.769068e-06	2.108376e-08	3.428860e+01	1.390179e+03
1.910000e-06	4.722919e-06	2.106941e-08	3.395680e+01	1.385435e+03
1.920000e-06	4.674797e-06	2.114912e-08	3.361081e+01	1.380460e+03
1.930000e-06	4.625109e-06	2.091175e-08	3.325356e+01	1.375263e+03
1.940000e-06	4.573645e-06	2.090241e-08	3.288354e+01	1.369844e+03
1.950000e-06	4.520113e-06	2.079207e-08	3.249867e+01	1.364192e+03
1.960000e-06	4.464677e-06	2.069826e-08	3.210009e+01	1.358289e+03
1.970000e-06	4.407575e-06	2.061773e-08	3.168954e+01	1.352119e+03
1.980000e-06	4.349022e-06	2.043636e-08	3.126856e+01	1.345666e+03
1.990000e-06	4.289023e-06	2.045955e-08	3.083718e+01	1.338920e+03
2.000000e-06	4.227463e-06	2.031455e-08	3.039457e+01	1.331882e+03
2.010000e-06	4.164172e-06	2.018654e-08	2.993952e+01	1.324556e+03
2.020000e-06	4.099262e-06	2.007421e-08	2.947283e+01	1.316951e+03
2.030000e-06	4.033007e-06	1.992321e-08	2.899647e+01	1.309074e+03
2.040000e-06	3.965419e-06	1.989110e-08	2.851053e+01	1.300927e+03
2.050000e-06	3.896397e-06	1.969727e-08	2.801427e+01	1.292505e+03
2.060000e-06	3.825752e-06	1.958144e-08	2.750636e+01	1.283793e+03
2.070000e-06	3.753739e-06	1.945987e-08	2.698860e+01	1.274770e+03
2.080000e-06	3.680580e-06	1.927928e-08	2.646260e+01	1.265408e+03
2.090000e-06	3.606050e-06	1.914975e-08	2.592674e+01	1.255680e+03
2.100000e-06	3.530074e-06	1.897313e-08	2.538049e+01	1.245561e+03
2.110000e-06	3.452557e-06	1.885046e-08	2.482316e+01	1.235035e+03
2.120000e-06	3.373605e-06	1.866922e-08	2.425551e+01	1.224088e+03
2.130000e-06	3.293516e-06	1.849640e-08	2.367969e+01	1.212716e+03
2.140000e-06	3.212329e-06	1.832720e-08	2.309597e+01	1.200914e+03
2.150000e-06	3.130058e-06	1.813130e-08	2.250446e+01	1.188678e+03
2.160000e-06	3.046761e-06	1.795325e-08	2.190557e+01	1.175999e+03
2.170000e-06	2.962534e-06	1.774096e-08	2.130000e+01	1.162858e+03
2.180000e-06	2.877190e-06	1.754050e-08	2.068639e+01	1.149229e+03
2.190000e-06	2.790454e-06	1.731579e-08	2.006278e+01	1.135077e+03
2.200000e-06	2.702633e-06	1.709141e-08	1.943136e+01	1.120361e+03
2.210000e-06	2.613951e-06	1.686531e-08	1.879376e+01	1.105039e+03
2.220000e-06	2.524327e-06	1.661824e-08	1.814938e+01	1.089068e+03
2.230000e-06	2.433817e-06	1.636334e-08	1.749863e+01	1.072408e+03
2.240000e-06	2.342552e-06	1.609914e-08	1.684245e+01	1.055025e+03
2.250000e-06	2.250613e-06	1.583802e-08	1.618143e+01	1.036885e+03
2.260000e-06	2.157990e-06	1.554849e-08	1.551549e+01	1.017957e+03
2.270000e-06	2.064407e-06	1.524370e-08	1.484265e+01	9.982064e+02
2.280000e-06	1.969725e-06	1.492615e-08	1.416191e+01	9.775933e+02
2.290000e-06	1.874223e-06	1.459588e-08	1.347527e+01	9.560697e+02
2.300000e-06	1.778175e-06	1.425562e-08	1.278470e+01	9.335778e+02
2.310000e-06	1.681625e-06	1.390206e-08	1.209053e+01	9.100501e+02
2.320000e-06	1.584561e-06	1.353391e-08	1.139266e+01	8.854102e+02
2.330000e-06	1.486958e-06	1.313869e-08	1.069091e+01	8.595750e+02
2.340000e-06	1.388769e-06	1.272013e-08	9.984959e+00	8.324573e+02
2.350000e-06	1.290116e-06	1.228292e-08	9.275661e+00	8.039689e+02
2.360000e-06	1.191128e-06	1.183254e-08	8.563959e+00	7.740239e+02
2.370000e-06	1.091835e-06	1.136132e-08	7.850068e+00	7.425431e+02
2.380000e-06	9.923011e-07	1.086182e-08	7.134437e+00	7.094590e+02
2.390000e-06	8.925845e-07	1.033035e-08	6.417495e+00	6.747224e+02
2.400000e-06	7.926584e-07	9.771548e-09	5.699047e+00	6.383098e+02
2.410000e-06	6.924503e-07	9.190034e-09	4.978572e+00	6.002316e+02
2.420000e-06	5.919809e-07	8.581641e-09	4.256218e+00	5.605394e+02
2.430000e-06	4.913543e-07	7.951542e-09	3.532734e+00	5.193312e+02
2.440000e-06	3.905619e-07	7.304313e-09	2.808058e+00	4.767517e+02
2.450000e-06	2.895508e-07	6.639367e-09	2.081809e+00	4.329879e+02
2.460000e-06	1.883169e-07	5.956453e-09	1.353959e+00	3.882573e+02
2.470000e-06	8.691063e-08	5.259451e-09	6.248692e-01	3.427902e+02
2.480000e-06	-1.453267e-08	4.552770e-09	-1.044868e-01	2.968067e+02
2.490000e-06	-1.159851e-07	3.838696e-09	-8.339089e-01	2.504931e+02
2.500000e-06	-2.173713e-07	3.124370e-09	-1.562854e+00	2.039787e+02
2.510000e-06	-3.186273e-07	2.412535e-09	-2.290864e+00	1.573197e+02
2.520000e-06	-4.197344e-07	1.699657e-09	-3.017802e+00	1.104920e+02
2.530000e-06	-5.206739e-07	9.831948e-10	-3.743536e+00	6.339641e+01
2.540000e-06	-6.214072e-07	2.582824e-10	-4.467787e+00	1.587614e+01
2.550000e-06	-7.218566e-07	-4.779365e-10	-5.189997e+00	-3.225504e+01
2.560000e-06	-8.220474e-07	-1.227404e-09	-5.910348e+00	-8.117692e+01
2.570000e-06	-9.219873e-07	-1.991203e-09	-6.628895e+00	-1.310249e+02
2.580000e-06	-1.021598e-06	-2.766293e-09	-7.345078e+00	-1.818554e+02
2.590000e-06	-1.120860e-06	-3.554098e-09	-8.058748e+00	-2.336207e+02
2.600000e-06	-1.219809e-06	-4.355783e-09	-8.770170e+00	-2.861559e+02
2.610000e-06	-1.318394e-06	-5.164820e-09	-9.478974e+00	-3.391828e+02
2.620000e-06	-1.416503e-06	-5.976128e-09	-1.018436e+01	-3.923271e+02
2.630000e-06	-1.514062e-06	-6.784007e-09	-1.088579e+01	-4.451495e+02
2.640000e-06	-1.611091e-06	-7.579662e-09	-1.158341e+01	-4.971839e+02
2.650000e-06	-1.707587e-06	-8.355728e-09	-1.227719e+01	-5.479775e+02
2.660000e-06	-1.803584e-06	-9.108149e-09	-1.296739e+01	-5.971283e+02
2.670000e-06	-1.899115e-06	-9.833171e-09	-1.365423e+01	-6.443132e+02
2.680000e-06	-1.993970e-06	-1.052331e-08	-1.433622e+01	-6.893048e+02
2.690000e-06	-2.087860e-06	-1.117617e-08	-1.501127e+01	-7.319759e+02
2.700000e-06	-2.180704e-06	-1.179534e-08	-1.567880e+01	-7.722916e+02
2.710000e-06	-2.272694e-06	-1.238270e-08	-1.634019e+01	-8.102932e+02
2.720000e-06	-2.363969e-06	-1.293656e-08	-1.699644e+01	-8.460766e+02
2.730000e-06	-2.454407e-06	-1.345537e-08	-1.764667e+01	-8.797697e+02
2.740000e-06	-2.543915e-06	-1.394039e-08	-1.829021e+01	-9.115127e+02
2.750000e-06	-2.632535e-06	-1.439631e-08	-1.892737e+01	-9.414431e+02
2.760000e-06	-2.720399e-06	-1.482705e-08	-1.955910e+01	-9.696872e+02
2.770000e-06	-2.807509e-06	-1.523480e-08	-2.018540e+01	-9.963565e+02
2.780000e-06	-2.893475e-06	-1.562199e-08	-2.080348e+01	-1.021550e+03
2.790000e-06	-2.978143e-06	-1.598728e-08	-2.141222e+01	-1.045356e+03
2.800000e-06	-3.061760e-06	-1.633066e-08	-2.201341e+01	-1.067861e+03
2.810000e-06	-3.144367e-06	-1.665538e-08	-2.260734e+01	-1.089145e+03
2.820000e-06	-3.225998e-06	-1.696385e-08	-2.319425e+01	-1.109290e+03
2.830000e-06	-3.306655e-06	-1.725770e-08	-2.377416e+01	-1.128376e+03
2.840000e-06	-3.386241e-06	-1.753646e-08	-2.434636e+01	-1.146479e+03
2.850000e-06	-3.464372e-06	-1.780059e-08	-2.490811e+01	-1.163666e+03
2.860000e-06	-3.540942e-06	-1.805084e-08	-2.545863e+01	-1.179999e+03
2.870000e-06	-3.616158e-06	-1.828780e-08	-2.599942e+01	-1.195529e+03
2.880000e-06	-3.690054e-06	-1.851465e-08	-2.653071e+01	-1.210300e+03
2.890000e-06	-3.762650e-06	-1.873174e-08	-2.705266e+01	-1.224351e+03
2.900000e-06	-3.833935e-06	-1.894040e-08	-2.756519e+01	-1.237715e+03
2.910000e-06	-3.903668e-06	-1.913756e-08	-2.806655e+01	-1.250428e+03
2.920000e-06	-3.971826e-06	-1.932246e-08	-2.855660e+01	-1.262525e+03
2.930000e-06	-4.038695e-06	-1.949778e-08	-2.903737e+01	-1.274040e+03
2.940000e-06	-4.104208e-06	-1.966441e-08	-2.950839e+01	-1.285008e+03
