# Temperatura_=_51.4
# Concentracion g/m^3_=_28200.0
# C_Vs_to_Am_M_A/Vsm_=_65563218390.804596
# pendiente_HvsI_1/m_=_3716.3
# ordenada_HvsI_A/m_=_1297.0
# frecuencia_Hz_=_301743.7709934483

Tiempo_(s)	Campo_(V.s)	Magnetizacion_(V.s)	Campo_(kA/m)	Magnetizacion_(A/m)
0.000000e+00	-5.304969e-06	-2.061334e-08	-3.829897e+01	-1.347540e+03
1.000000e-08	-5.302358e-06	-2.060819e-08	-3.828013e+01	-1.347164e+03
2.000000e-08	-5.297976e-06	-2.059558e-08	-3.824849e+01	-1.346658e+03
3.000000e-08	-5.292010e-06	-2.058439e-08	-3.820542e+01	-1.346010e+03
4.000000e-08	-5.284474e-06	-2.057220e-08	-3.815101e+01	-1.345202e+03
5.000000e-08	-5.275178e-06	-2.055349e-08	-3.808390e+01	-1.344214e+03
6.000000e-08	-5.263851e-06	-2.052891e-08	-3.800213e+01	-1.343031e+03
7.000000e-08	-5.250651e-06	-2.048902e-08	-3.790683e+01	-1.341646e+03
8.000000e-08	-5.235351e-06	-2.048066e-08	-3.779637e+01	-1.340066e+03
9.000000e-08	-5.217782e-06	-2.053211e-08	-3.766953e+01	-1.338312e+03
1.000000e-07	-5.198249e-06	-2.048818e-08	-3.752852e+01	-1.336411e+03
1.100000e-07	-5.176840e-06	-2.040818e-08	-3.737395e+01	-1.334400e+03
1.200000e-07	-5.153745e-06	-2.037161e-08	-3.720722e+01	-1.332310e+03
1.300000e-07	-5.129246e-06	-2.022733e-08	-3.703035e+01	-1.330165e+03
1.400000e-07	-5.103117e-06	-2.025740e-08	-3.684171e+01	-1.327977e+03
1.500000e-07	-5.075261e-06	-2.036516e-08	-3.664061e+01	-1.325739e+03
1.600000e-07	-5.045926e-06	-2.013796e-08	-3.642883e+01	-1.323430e+03
1.700000e-07	-5.015155e-06	-2.018026e-08	-3.620668e+01	-1.321017e+03
1.800000e-07	-4.982458e-06	-2.023293e-08	-3.597062e+01	-1.318460e+03
1.900000e-07	-4.947710e-06	-1.996757e-08	-3.571976e+01	-1.315718e+03
2.000000e-07	-4.911453e-06	-2.002777e-08	-3.545801e+01	-1.312756e+03
2.100000e-07	-4.873578e-06	-2.002101e-08	-3.518457e+01	-1.309547e+03
2.200000e-07	-4.833985e-06	-1.984486e-08	-3.489873e+01	-1.306078e+03
2.300000e-07	-4.792616e-06	-1.985263e-08	-3.460007e+01	-1.302345e+03
2.400000e-07	-4.749253e-06	-1.976343e-08	-3.428701e+01	-1.298356e+03
2.500000e-07	-4.704123e-06	-1.968807e-08	-3.396120e+01	-1.294121e+03
2.600000e-07	-4.657205e-06	-1.968479e-08	-3.362247e+01	-1.289650e+03
2.700000e-07	-4.608307e-06	-1.955358e-08	-3.326946e+01	-1.284954e+03
2.800000e-07	-4.557308e-06	-1.947630e-08	-3.290127e+01	-1.280035e+03
2.900000e-07	-4.504357e-06	-1.941108e-08	-3.251899e+01	-1.274891e+03
3.000000e-07	-4.449767e-06	-1.933109e-08	-3.212489e+01	-1.269516e+03
3.100000e-07	-4.393585e-06	-1.925259e-08	-3.171928e+01	-1.263899e+03
3.200000e-07	-4.335630e-06	-1.915623e-08	-3.130088e+01	-1.258030e+03
3.300000e-07	-4.276003e-06	-1.906442e-08	-3.087040e+01	-1.251901e+03
3.400000e-07	-4.214987e-06	-1.893622e-08	-3.042990e+01	-1.245507e+03
3.500000e-07	-4.152545e-06	-1.884315e-08	-2.997911e+01	-1.238844e+03
3.600000e-07	-4.088753e-06	-1.874118e-08	-2.951856e+01	-1.231912e+03
3.700000e-07	-4.023482e-06	-1.864298e-08	-2.904734e+01	-1.224714e+03
3.800000e-07	-3.956494e-06	-1.854848e-08	-2.856373e+01	-1.217249e+03
3.900000e-07	-3.887997e-06	-1.838813e-08	-2.806921e+01	-1.209513e+03
4.000000e-07	-3.818239e-06	-1.826072e-08	-2.756560e+01	-1.201501e+03
4.100000e-07	-3.747297e-06	-1.814650e-08	-2.705343e+01	-1.193200e+03
4.200000e-07	-3.675192e-06	-1.801492e-08	-2.653288e+01	-1.184596e+03
4.300000e-07	-3.601659e-06	-1.788141e-08	-2.600201e+01	-1.175670e+03
4.400000e-07	-3.526449e-06	-1.773969e-08	-2.545903e+01	-1.166404e+03
4.500000e-07	-3.449793e-06	-1.759138e-08	-2.490562e+01	-1.156778e+03
4.600000e-07	-3.371893e-06	-1.743148e-08	-2.434323e+01	-1.146775e+03
4.700000e-07	-3.292643e-06	-1.728336e-08	-2.377108e+01	-1.136380e+03
4.800000e-07	-3.211959e-06	-1.712723e-08	-2.318859e+01	-1.125577e+03
4.900000e-07	-3.130050e-06	-1.694688e-08	-2.259725e+01	-1.114354e+03
5.000000e-07	-3.047154e-06	-1.676209e-08	-2.199878e+01	-1.102696e+03
5.100000e-07	-2.963375e-06	-1.657230e-08	-2.139395e+01	-1.090587e+03
5.200000e-07	-2.878774e-06	-1.637893e-08	-2.078317e+01	-1.078009e+03
5.300000e-07	-2.793295e-06	-1.617951e-08	-2.016606e+01	-1.064937e+03
5.400000e-07	-2.706874e-06	-1.597518e-08	-1.954215e+01	-1.051344e+03
5.500000e-07	-2.619496e-06	-1.576551e-08	-1.891133e+01	-1.037197e+03
5.600000e-07	-2.531176e-06	-1.553661e-08	-1.827370e+01	-1.022460e+03
5.700000e-07	-2.441856e-06	-1.530129e-08	-1.762886e+01	-1.007095e+03
5.800000e-07	-2.351417e-06	-1.505776e-08	-1.697595e+01	-9.910619e+02
5.900000e-07	-2.259970e-06	-1.480217e-08	-1.631574e+01	-9.743219e+02
6.000000e-07	-2.167762e-06	-1.452963e-08	-1.565006e+01	-9.568353e+02
6.100000e-07	-2.074884e-06	-1.424635e-08	-1.497953e+01	-9.385628e+02
6.200000e-07	-1.981239e-06	-1.395560e-08	-1.430346e+01	-9.194649e+02
6.300000e-07	-1.886865e-06	-1.365068e-08	-1.362213e+01	-8.995001e+02
6.400000e-07	-1.791876e-06	-1.333465e-08	-1.293636e+01	-8.786229e+02
6.500000e-07	-1.696259e-06	-1.300103e-08	-1.224606e+01	-8.567824e+02
6.600000e-07	-1.600090e-06	-1.265219e-08	-1.155178e+01	-8.339202e+02
6.700000e-07	-1.503394e-06	-1.228659e-08	-1.085368e+01	-8.099697e+02
6.800000e-07	-1.406029e-06	-1.190393e-08	-1.015076e+01	-7.848565e+02
6.900000e-07	-1.308056e-06	-1.150088e-08	-9.443449e+00	-7.585002e+02
7.000000e-07	-1.209534e-06	-1.107592e-08	-8.732173e+00	-7.308183e+02
7.100000e-07	-1.110456e-06	-1.062941e-08	-8.016885e+00	-7.017313e+02
7.200000e-07	-1.010961e-06	-1.016099e-08	-7.298583e+00	-6.711698e+02
7.300000e-07	-9.111776e-07	-9.673008e-09	-6.578204e+00	-6.390828e+02
7.400000e-07	-8.111679e-07	-9.163478e-09	-5.856189e+00	-6.054460e+02
7.500000e-07	-7.109682e-07	-8.633042e-09	-5.132802e+00	-5.702693e+02
7.600000e-07	-6.105731e-07	-8.074264e-09	-4.408004e+00	-5.336026e+02
7.700000e-07	-5.100110e-07	-7.492933e-09	-3.682000e+00	-4.955389e+02
7.800000e-07	-4.093478e-07	-6.895226e-09	-2.955268e+00	-4.562131e+02
7.900000e-07	-3.085603e-07	-6.281195e-09	-2.227637e+00	-4.157960e+02
8.000000e-07	-2.075963e-07	-5.652011e-09	-1.498732e+00	-3.744837e+02
8.100000e-07	-1.065299e-07	-5.011183e-09	-7.690877e-01	-3.324830e+02
8.200000e-07	-5.441032e-09	-4.365402e-09	-3.928128e-02	-2.899935e+02
8.300000e-07	9.567741e-08	-3.714056e-09	6.907386e-01	-2.471882e+02
8.400000e-07	1.967732e-07	-3.061412e-09	1.420595e+00	-2.041964e+02
8.500000e-07	2.977984e-07	-2.407205e-09	2.149942e+00	-1.610894e+02
8.600000e-07	3.987214e-07	-1.750995e-09	2.878551e+00	-1.178736e+02
8.700000e-07	4.995658e-07	-1.091976e-09	3.606592e+00	-7.449087e+01
8.800000e-07	6.003333e-07	-4.280869e-10	4.334079e+00	-3.082890e+01
8.900000e-07	7.009446e-07	2.436098e-10	5.060437e+00	1.326072e+01
9.000000e-07	8.013195e-07	9.249706e-10	5.785089e+00	5.793697e+01
9.100000e-07	9.014800e-07	1.616546e-09	6.508193e+00	1.033403e+02
9.200000e-07	1.001410e-06	2.318807e-09	7.229631e+00	1.495636e+02
9.300000e-07	1.100992e-06	3.033108e-09	7.948559e+00	1.966268e+02
9.400000e-07	1.200202e-06	3.761133e-09	8.664802e+00	2.444600e+02
9.500000e-07	1.298921e-06	4.496262e-09	9.377498e+00	2.928965e+02
9.600000e-07	1.396982e-06	5.236749e-09	1.008544e+01	3.416782e+02
9.700000e-07	1.494380e-06	5.980737e-09	1.078860e+01	3.904722e+02
9.800000e-07	1.591075e-06	6.720779e-09	1.148669e+01	4.388961e+02
9.900000e-07	1.687037e-06	7.446885e-09	1.217948e+01	4.865496e+02
1.000000e-06	1.782356e-06	8.153830e-09	1.286764e+01	5.330469e+02
1.010000e-06	1.877089e-06	8.837239e-09	1.355156e+01	5.780461e+02
1.020000e-06	1.971187e-06	9.490784e-09	1.423090e+01	6.212719e+02
1.030000e-06	2.064596e-06	1.011495e-08	1.490525e+01	6.625292e+02
1.040000e-06	2.157328e-06	1.070818e-08	1.557473e+01	7.017059e+02
1.050000e-06	2.249436e-06	1.127128e-08	1.623970e+01	7.387679e+02
1.060000e-06	2.340880e-06	1.180011e-08	1.689987e+01	7.737454e+02
1.070000e-06	2.431445e-06	1.229867e-08	1.755370e+01	8.067164e+02
1.080000e-06	2.520947e-06	1.277006e-08	1.819986e+01	8.377880e+02
1.090000e-06	2.609375e-06	1.321599e-08	1.883826e+01	8.670807e+02
1.100000e-06	2.696896e-06	1.363790e-08	1.947011e+01	8.947159e+02
1.110000e-06	2.783592e-06	1.403483e-08	2.009601e+01	9.208076e+02
1.120000e-06	2.869318e-06	1.440985e-08	2.071491e+01	9.454593e+02
1.130000e-06	2.954096e-06	1.476375e-08	2.132696e+01	9.687643e+02
1.140000e-06	3.038057e-06	1.509804e-08	2.193311e+01	9.908070e+02
1.150000e-06	3.121114e-06	1.541238e-08	2.253274e+01	1.011666e+03
1.160000e-06	3.202991e-06	1.571097e-08	2.312384e+01	1.031414e+03
1.170000e-06	3.283619e-06	1.599493e-08	2.370594e+01	1.050124e+03
1.180000e-06	3.363104e-06	1.626477e-08	2.427977e+01	1.067860e+03
1.190000e-06	3.441427e-06	1.652079e-08	2.484522e+01	1.084685e+03
1.200000e-06	3.518541e-06	1.676510e-08	2.540194e+01	1.100655e+03
1.210000e-06	3.594397e-06	1.699686e-08	2.594958e+01	1.115820e+03
1.220000e-06	3.668792e-06	1.721489e-08	2.648667e+01	1.130222e+03
1.230000e-06	3.741569e-06	1.742005e-08	2.701209e+01	1.143904e+03
1.240000e-06	3.812890e-06	1.761310e-08	2.752698e+01	1.156903e+03
1.250000e-06	3.882860e-06	1.779773e-08	2.803212e+01	1.169255e+03
1.260000e-06	3.951531e-06	1.797537e-08	2.852790e+01	1.180998e+03
1.270000e-06	4.018935e-06	1.814533e-08	2.901451e+01	1.192167e+03
1.280000e-06	4.084789e-06	1.830800e-08	2.948995e+01	1.202796e+03
1.290000e-06	4.148971e-06	1.846327e-08	2.995331e+01	1.212914e+03
1.300000e-06	4.211660e-06	1.861187e-08	3.040588e+01	1.222542e+03
1.310000e-06	4.272959e-06	1.875307e-08	3.084843e+01	1.231697e+03
1.320000e-06	4.332961e-06	1.888609e-08	3.128161e+01	1.240386e+03
1.330000e-06	4.391455e-06	1.901093e-08	3.170391e+01	1.248611e+03
1.340000e-06	4.448141e-06	1.912766e-08	3.211315e+01	1.256376e+03
1.350000e-06	4.503182e-06	1.923750e-08	3.251051e+01	1.263688e+03
1.360000e-06	4.556656e-06	1.934170e-08	3.289657e+01	1.270559e+03
1.370000e-06	4.608226e-06	1.944032e-08	3.326887e+01	1.277013e+03
1.380000e-06	4.657759e-06	1.953376e-08	3.362647e+01	1.283083e+03
1.390000e-06	4.705484e-06	1.962093e-08	3.397102e+01	1.288810e+03
1.400000e-06	4.751601e-06	1.970245e-08	3.430396e+01	1.294236e+03
1.410000e-06	4.796218e-06	1.978098e-08	3.462607e+01	1.299399e+03
1.420000e-06	4.839185e-06	1.985648e-08	3.493627e+01	1.304330e+03
1.430000e-06	4.880224e-06	1.992930e-08	3.523255e+01	1.309046e+03
1.440000e-06	4.919475e-06	1.999765e-08	3.551592e+01	1.313549e+03
1.450000e-06	4.957134e-06	2.006068e-08	3.578780e+01	1.317828e+03
1.460000e-06	4.993227e-06	2.012102e-08	3.604837e+01	1.321865e+03
1.470000e-06	5.027534e-06	2.017876e-08	3.629605e+01	1.325637e+03
1.480000e-06	5.059899e-06	2.023215e-08	3.652970e+01	1.329125e+03
1.490000e-06	5.090527e-06	2.028037e-08	3.675082e+01	1.332318e+03
1.500000e-06	5.119537e-06	2.032475e-08	3.696026e+01	1.335219e+03
1.510000e-06	5.146860e-06	2.036562e-08	3.715751e+01	1.337837e+03
1.520000e-06	5.172143e-06	2.040227e-08	3.734004e+01	1.340195e+03
1.530000e-06	5.195426e-06	2.043510e-08	3.750813e+01	1.342315e+03
1.540000e-06	5.216942e-06	2.046442e-08	3.766347e+01	1.344222e+03
1.550000e-06	5.236783e-06	2.049113e-08	3.780671e+01	1.345931e+03
1.560000e-06	5.254772e-06	2.051409e-08	3.793658e+01	1.347453e+03
1.570000e-06	5.270713e-06	2.053197e-08	3.805166e+01	1.348787e+03
1.580000e-06	5.284760e-06	2.054752e-08	3.815308e+01	1.349929e+03
1.590000e-06	5.296853e-06	2.056221e-08	3.824038e+01	1.350870e+03
1.600000e-06	5.306729e-06	2.057496e-08	3.831168e+01	1.351606e+03
1.610000e-06	5.314490e-06	2.058561e-08	3.836772e+01	1.352137e+03
1.620000e-06	5.320397e-06	2.059291e-08	3.841036e+01	1.352472e+03
1.630000e-06	5.324600e-06	2.059640e-08	3.844070e+01	1.352624e+03
1.640000e-06	5.326952e-06	2.059835e-08	3.845768e+01	1.352614e+03
1.650000e-06	5.327273e-06	2.059920e-08	3.846000e+01	1.352460e+03
1.660000e-06	5.325798e-06	2.059216e-08	3.844935e+01	1.352174e+03
1.670000e-06	5.322716e-06	2.058513e-08	3.842710e+01	1.351760e+03
1.680000e-06	5.317933e-06	2.057852e-08	3.839257e+01	1.351215e+03
1.690000e-06	5.311216e-06	2.056914e-08	3.834407e+01	1.350522e+03
1.700000e-06	5.302726e-06	2.055824e-08	3.828278e+01	1.349664e+03
1.710000e-06	5.292725e-06	2.054746e-08	3.821058e+01	1.348620e+03
1.720000e-06	5.281051e-06	2.055060e-08	3.812630e+01	1.347378e+03
1.730000e-06	5.267368e-06	2.053616e-08	3.802752e+01	1.345935e+03
1.740000e-06	5.251683e-06	2.041462e-08	3.791428e+01	1.344302e+03
1.750000e-06	5.233810e-06	2.039509e-08	3.778525e+01	1.342502e+03
1.760000e-06	5.213266e-06	2.041463e-08	3.763693e+01	1.340565e+03
1.770000e-06	5.190373e-06	2.040837e-08	3.747165e+01	1.338527e+03
1.780000e-06	5.166095e-06	2.051124e-08	3.729638e+01	1.336419e+03
1.790000e-06	5.141134e-06	2.030739e-08	3.711618e+01	1.334260e+03
1.800000e-06	5.115008e-06	2.021227e-08	3.692756e+01	1.332058e+03
1.810000e-06	5.086762e-06	2.037253e-08	3.672364e+01	1.329801e+03
1.820000e-06	5.056570e-06	2.012097e-08	3.650567e+01	1.327466e+03
1.830000e-06	5.024674e-06	2.012477e-08	3.627540e+01	1.325015e+03
1.840000e-06	4.990875e-06	2.029770e-08	3.603139e+01	1.322408e+03
1.850000e-06	4.955533e-06	2.001470e-08	3.577624e+01	1.319605e+03
1.860000e-06	4.918456e-06	2.004904e-08	3.550856e+01	1.316573e+03
1.870000e-06	4.879362e-06	2.008585e-08	3.522633e+01	1.313290e+03
1.880000e-06	4.838691e-06	1.990345e-08	3.493270e+01	1.309745e+03
1.890000e-06	4.796308e-06	1.999253e-08	3.462672e+01	1.305937e+03
1.900000e-06	4.752289e-06	1.979894e-08	3.430893e+01	1.301875e+03
1.910000e-06	4.706595e-06	1.973033e-08	3.397904e+01	1.297571e+03
1.920000e-06	4.658877e-06	1.983715e-08	3.363455e+01	1.293034e+03
1.930000e-06	4.609501e-06	1.961425e-08	3.327808e+01	1.288273e+03
1.940000e-06	4.558379e-06	1.959564e-08	3.290900e+01	1.283289e+03
1.950000e-06	4.505182e-06	1.950836e-08	3.252495e+01	1.278079e+03
1.960000e-06	4.450126e-06	1.940413e-08	3.212747e+01	1.272635e+03
1.970000e-06	4.393366e-06	1.936589e-08	3.171770e+01	1.266946e+03
1.980000e-06	4.335072e-06	1.916811e-08	3.129685e+01	1.261003e+03
1.990000e-06	4.275444e-06	1.918324e-08	3.086637e+01	1.254797e+03
2.000000e-06	4.214357e-06	1.908361e-08	3.042535e+01	1.248325e+03
2.010000e-06	4.151521e-06	1.893442e-08	2.997171e+01	1.241584e+03
2.020000e-06	4.086975e-06	1.884328e-08	2.950573e+01	1.234576e+03
2.030000e-06	4.021065e-06	1.869307e-08	2.902989e+01	1.227301e+03
2.040000e-06	3.953865e-06	1.866952e-08	2.854474e+01	1.219757e+03
2.050000e-06	3.885302e-06	1.850253e-08	2.804975e+01	1.211943e+03
2.060000e-06	3.815188e-06	1.837657e-08	2.754357e+01	1.203848e+03
2.070000e-06	3.743575e-06	1.828274e-08	2.702656e+01	1.195461e+03
2.080000e-06	3.670755e-06	1.810479e-08	2.650084e+01	1.186766e+03
2.090000e-06	3.596649e-06	1.798747e-08	2.596584e+01	1.177744e+03
2.100000e-06	3.521209e-06	1.782527e-08	2.542120e+01	1.168376e+03
2.110000e-06	3.444299e-06	1.770988e-08	2.486596e+01	1.158643e+03
2.120000e-06	3.365845e-06	1.754651e-08	2.429956e+01	1.148529e+03
2.130000e-06	3.286136e-06	1.737386e-08	2.372410e+01	1.138017e+03
2.140000e-06	3.205369e-06	1.722450e-08	2.314101e+01	1.127095e+03
2.150000e-06	3.123525e-06	1.703891e-08	2.255014e+01	1.115748e+03
2.160000e-06	3.040580e-06	1.687746e-08	2.195133e+01	1.103962e+03
2.170000e-06	2.956665e-06	1.668495e-08	2.134551e+01	1.091721e+03
2.180000e-06	2.871715e-06	1.649791e-08	2.073221e+01	1.079003e+03
2.190000e-06	2.785476e-06	1.628798e-08	2.010961e+01	1.065784e+03
2.200000e-06	2.698018e-06	1.607373e-08	1.947821e+01	1.052035e+03
2.210000e-06	2.609661e-06	1.586596e-08	1.884032e+01	1.037722e+03
2.220000e-06	2.520427e-06	1.563308e-08	1.819611e+01	1.022809e+03
2.230000e-06	2.430286e-06	1.539609e-08	1.754534e+01	1.007256e+03
2.240000e-06	2.339440e-06	1.514739e-08	1.688948e+01	9.910242e+02
2.250000e-06	2.247950e-06	1.490272e-08	1.622897e+01	9.740739e+02
2.260000e-06	2.155762e-06	1.463362e-08	1.556342e+01	9.563657e+02
2.270000e-06	2.062707e-06	1.434865e-08	1.489162e+01	9.378605e+02
2.280000e-06	1.968677e-06	1.405353e-08	1.421277e+01	9.185183e+02
2.290000e-06	1.873715e-06	1.374395e-08	1.352720e+01	8.982967e+02
2.300000e-06	1.777973e-06	1.342268e-08	1.283599e+01	8.771488e+02
2.310000e-06	1.681759e-06	1.308584e-08	1.214138e+01	8.550217e+02
2.320000e-06	1.585177e-06	1.273871e-08	1.144411e+01	8.318547e+02
2.330000e-06	1.488005e-06	1.236919e-08	1.074259e+01	8.075789e+02
2.340000e-06	1.390247e-06	1.197849e-08	1.003682e+01	7.821179e+02
2.350000e-06	1.292068e-06	1.156954e-08	9.328028e+00	7.553903e+02
2.360000e-06	1.193482e-06	1.114696e-08	8.616290e+00	7.273138e+02
2.370000e-06	1.094626e-06	1.070348e-08	7.902602e+00	6.978109e+02
2.380000e-06	9.955768e-07	1.023229e-08	7.187521e+00	6.668168e+02
2.390000e-06	8.962561e-07	9.733253e-09	6.470479e+00	6.342872e+02
2.400000e-06	7.965895e-07	9.207924e-09	5.750940e+00	6.002067e+02
2.410000e-06	6.966497e-07	8.663038e-09	5.029430e+00	5.645963e+02
2.420000e-06	5.964831e-07	8.095804e-09	4.306282e+00	5.275181e+02
2.430000e-06	4.960923e-07	7.506611e-09	3.581515e+00	4.890774e+02
2.440000e-06	3.956107e-07	6.903475e-09	2.856093e+00	4.494200e+02
2.450000e-06	2.950535e-07	6.285598e-09	2.130125e+00	4.087253e+02
2.460000e-06	1.943557e-07	5.649116e-09	1.403142e+00	3.671942e+02
2.470000e-06	9.354730e-08	5.002265e-09	6.753604e-01	3.250333e+02
2.480000e-06	-7.297745e-09	4.350910e-09	-5.268573e-02	2.824366e+02
2.490000e-06	-1.081658e-07	3.695180e-09	-7.808980e-01	2.395661e+02
2.500000e-06	-2.090789e-07	3.034386e-09	-1.509435e+00	1.965359e+02
2.510000e-06	-3.098709e-07	2.372865e-09	-2.237099e+00	1.533991e+02
2.520000e-06	-4.105054e-07	1.712514e-09	-2.963624e+00	1.101432e+02
2.530000e-06	-5.111098e-07	1.047979e-09	-3.689933e+00	6.669315e+01
2.540000e-06	-6.116044e-07	3.786019e-10	-4.415449e+00	2.292414e+01
2.550000e-06	-7.118437e-07	-2.974381e-10	-5.139122e+00	-2.131810e+01
2.560000e-06	-8.118058e-07	-9.839201e-10	-5.860794e+00	-6.619031e+01
2.570000e-06	-9.115160e-07	-1.683986e-09	-6.580647e+00	-1.118222e+02
2.580000e-06	-1.010927e-06	-2.395829e-09	-7.298344e+00	-1.582881e+02
2.590000e-06	-1.109992e-06	-3.119048e-09	-8.013538e+00	-2.055836e+02
2.600000e-06	-1.208676e-06	-3.854300e-09	-8.725980e+00	-2.536114e+02
2.610000e-06	-1.306944e-06	-4.595008e-09	-9.435421e+00	-3.021775e+02
2.620000e-06	-1.404708e-06	-5.338860e-09	-1.014123e+01	-3.510004e+02
2.630000e-06	-1.501877e-06	-6.083754e-09	-1.084273e+01	-3.997300e+02
2.640000e-06	-1.598523e-06	-6.821841e-09	-1.154046e+01	-4.479756e+02
2.650000e-06	-1.694745e-06	-7.547728e-09	-1.223513e+01	-4.953377e+02
2.660000e-06	-1.790531e-06	-8.255313e-09	-1.292665e+01	-5.414403e+02
2.670000e-06	-1.885668e-06	-8.938432e-09	-1.361350e+01	-5.859586e+02
2.680000e-06	-1.979951e-06	-9.591730e-09	-1.429417e+01	-6.286392e+02
2.690000e-06	-2.073356e-06	-1.021475e-08	-1.496850e+01	-6.693108e+02
2.700000e-06	-2.165920e-06	-1.080730e-08	-1.563676e+01	-7.078847e+02
2.710000e-06	-2.257648e-06	-1.136910e-08	-1.629898e+01	-7.443466e+02
2.720000e-06	-2.348577e-06	-1.189838e-08	-1.695544e+01	-7.787423e+02
2.730000e-06	-2.438650e-06	-1.239295e-08	-1.760572e+01	-8.111597e+02
2.740000e-06	-2.527809e-06	-1.285961e-08	-1.824940e+01	-8.417116e+02
2.750000e-06	-2.616169e-06	-1.330009e-08	-1.888731e+01	-8.705195e+02
2.760000e-06	-2.703804e-06	-1.371695e-08	-1.951999e+01	-8.977035e+02
2.770000e-06	-2.790562e-06	-1.411346e-08	-2.014633e+01	-9.233746e+02
2.780000e-06	-2.876145e-06	-1.448868e-08	-2.076419e+01	-9.476335e+02
2.790000e-06	-2.960549e-06	-1.483899e-08	-2.137354e+01	-9.705705e+02
2.800000e-06	-3.043941e-06	-1.516673e-08	-2.197559e+01	-9.922681e+02
2.810000e-06	-3.126364e-06	-1.547889e-08	-2.257064e+01	-1.012803e+03
2.820000e-06	-3.207783e-06	-1.577706e-08	-2.315844e+01	-1.032249e+03
2.830000e-06	-3.288179e-06	-1.606007e-08	-2.373886e+01	-1.050675e+03
2.840000e-06	-3.367456e-06	-1.632768e-08	-2.431119e+01	-1.068146e+03
2.850000e-06	-3.445335e-06	-1.658285e-08	-2.487343e+01	-1.084722e+03
2.860000e-06	-3.521628e-06	-1.682568e-08	-2.542423e+01	-1.100458e+03
2.870000e-06	-3.596530e-06	-1.705642e-08	-2.596498e+01	-1.115401e+03
2.880000e-06	-3.670153e-06	-1.727721e-08	-2.649650e+01	-1.129595e+03
2.890000e-06	-3.742480e-06	-1.748601e-08	-2.701866e+01	-1.143079e+03
2.900000e-06	-3.813469e-06	-1.768203e-08	-2.753116e+01	-1.155890e+03
2.910000e-06	-3.882917e-06	-1.786673e-08	-2.803254e+01	-1.168065e+03
2.920000e-06	-3.950901e-06	-1.804231e-08	-2.852335e+01	-1.179642e+03
2.930000e-06	-4.017536e-06	-1.820967e-08	-2.900441e+01	-1.190654e+03
2.940000e-06	-4.082767e-06	-1.836903e-08	-2.947534e+01	-1.201135e+03
