# Temperatura_=_66.48
# Concentracion g/m^3_=_28200.0
# C_Vs_to_Am_M_A/Vsm_=_65563218390.804596
# pendiente_HvsI_1/m_=_3716.3
# ordenada_HvsI_A/m_=_1297.0
# frecuencia_Hz_=_301748.038868163

Tiempo_(s)	Campo_(V.s)	Magnetizacion_(V.s)	Campo_(kA/m)	Magnetizacion_(A/m)
0.000000e+00	-5.316077e-06	-2.221045e-08	-3.830031e+01	-1.452088e+03
1.000000e-08	-5.313859e-06	-2.220613e-08	-3.828433e+01	-1.451728e+03
2.000000e-08	-5.309820e-06	-2.219600e-08	-3.825523e+01	-1.451222e+03
3.000000e-08	-5.304138e-06	-2.218627e-08	-3.821429e+01	-1.450556e+03
4.000000e-08	-5.296878e-06	-2.217373e-08	-3.816199e+01	-1.449711e+03
5.000000e-08	-5.287932e-06	-2.215526e-08	-3.809753e+01	-1.448664e+03
6.000000e-08	-5.276989e-06	-2.213389e-08	-3.801869e+01	-1.447398e+03
7.000000e-08	-5.264135e-06	-2.210093e-08	-3.792609e+01	-1.445903e+03
8.000000e-08	-5.249271e-06	-2.208609e-08	-3.781900e+01	-1.444188e+03
9.000000e-08	-5.232203e-06	-2.212208e-08	-3.769603e+01	-1.442273e+03
1.000000e-07	-5.213088e-06	-2.207239e-08	-3.755832e+01	-1.440194e+03
1.100000e-07	-5.192046e-06	-2.199474e-08	-3.740672e+01	-1.437993e+03
1.200000e-07	-5.169189e-06	-2.196129e-08	-3.724204e+01	-1.435712e+03
1.300000e-07	-5.144841e-06	-2.183480e-08	-3.706662e+01	-1.433386e+03
1.400000e-07	-5.119003e-06	-2.185039e-08	-3.688047e+01	-1.431035e+03
1.500000e-07	-5.091476e-06	-2.194265e-08	-3.668214e+01	-1.428657e+03
1.600000e-07	-5.062415e-06	-2.172776e-08	-3.647277e+01	-1.426232e+03
1.700000e-07	-5.031949e-06	-2.176002e-08	-3.625328e+01	-1.423717e+03
1.800000e-07	-4.999619e-06	-2.180039e-08	-3.602035e+01	-1.421062e+03
1.900000e-07	-4.965182e-06	-2.154229e-08	-3.577225e+01	-1.418208e+03
2.000000e-07	-4.929149e-06	-2.159540e-08	-3.551264e+01	-1.415101e+03
2.100000e-07	-4.891551e-06	-2.157334e-08	-3.524176e+01	-1.411699e+03
2.200000e-07	-4.852267e-06	-2.140431e-08	-3.495874e+01	-1.407975e+03
2.300000e-07	-4.811119e-06	-2.141991e-08	-3.466228e+01	-1.403920e+03
2.400000e-07	-4.767919e-06	-2.133201e-08	-3.435104e+01	-1.399540e+03
2.500000e-07	-4.722887e-06	-2.123840e-08	-3.402661e+01	-1.394856e+03
2.600000e-07	-4.676138e-06	-2.122093e-08	-3.368979e+01	-1.389893e+03
2.700000e-07	-4.627479e-06	-2.107712e-08	-3.333922e+01	-1.384676e+03
2.800000e-07	-4.576704e-06	-2.098666e-08	-3.297341e+01	-1.379224e+03
2.900000e-07	-4.523930e-06	-2.090985e-08	-3.259319e+01	-1.373549e+03
3.000000e-07	-4.469475e-06	-2.082549e-08	-3.220087e+01	-1.367650e+03
3.100000e-07	-4.413506e-06	-2.074114e-08	-3.179763e+01	-1.361520e+03
3.200000e-07	-4.355749e-06	-2.063881e-08	-3.138151e+01	-1.355145e+03
3.300000e-07	-4.296278e-06	-2.054846e-08	-3.095304e+01	-1.348506e+03
3.400000e-07	-4.235392e-06	-2.041394e-08	-3.051438e+01	-1.341588e+03
3.500000e-07	-4.173052e-06	-2.031101e-08	-3.006525e+01	-1.334379e+03
3.600000e-07	-4.109305e-06	-2.019559e-08	-2.960598e+01	-1.326872e+03
3.700000e-07	-4.044105e-06	-2.008103e-08	-2.913624e+01	-1.319063e+03
3.800000e-07	-3.977268e-06	-1.997715e-08	-2.865470e+01	-1.310952e+03
3.900000e-07	-3.908875e-06	-1.981566e-08	-2.816195e+01	-1.302541e+03
4.000000e-07	-3.839241e-06	-1.968113e-08	-2.766027e+01	-1.293826e+03
4.100000e-07	-3.768440e-06	-1.955769e-08	-2.715017e+01	-1.284802e+03
4.200000e-07	-3.696367e-06	-1.941476e-08	-2.663092e+01	-1.275459e+03
4.300000e-07	-3.622841e-06	-1.926856e-08	-2.610119e+01	-1.265780e+03
4.400000e-07	-3.547713e-06	-1.911447e-08	-2.555992e+01	-1.255749e+03
4.500000e-07	-3.471182e-06	-1.895346e-08	-2.500854e+01	-1.245344e+03
4.600000e-07	-3.393330e-06	-1.877840e-08	-2.444765e+01	-1.234547e+03
4.700000e-07	-3.314058e-06	-1.861399e-08	-2.387652e+01	-1.223339e+03
4.800000e-07	-3.233455e-06	-1.844796e-08	-2.329581e+01	-1.211705e+03
4.900000e-07	-3.151698e-06	-1.825905e-08	-2.270678e+01	-1.199630e+03
5.000000e-07	-3.068894e-06	-1.806595e-08	-2.211021e+01	-1.187099e+03
5.100000e-07	-2.985158e-06	-1.786411e-08	-2.150693e+01	-1.174094e+03
5.200000e-07	-2.900613e-06	-1.765761e-08	-2.089782e+01	-1.160597e+03
5.300000e-07	-2.815123e-06	-1.744314e-08	-2.028189e+01	-1.146581e+03
5.400000e-07	-2.728615e-06	-1.722033e-08	-1.965863e+01	-1.132016e+03
5.500000e-07	-2.641212e-06	-1.699415e-08	-1.902893e+01	-1.116868e+03
5.600000e-07	-2.552844e-06	-1.675007e-08	-1.839227e+01	-1.101097e+03
5.700000e-07	-2.463402e-06	-1.649801e-08	-1.774788e+01	-1.084666e+03
5.800000e-07	-2.372826e-06	-1.623603e-08	-1.709531e+01	-1.067533e+03
5.900000e-07	-2.281262e-06	-1.596640e-08	-1.643562e+01	-1.049662e+03
6.000000e-07	-2.189008e-06	-1.568018e-08	-1.577097e+01	-1.031014e+03
6.100000e-07	-2.096050e-06	-1.538056e-08	-1.510124e+01	-1.011552e+03
6.200000e-07	-2.002292e-06	-1.507198e-08	-1.442575e+01	-9.912366e+02
6.300000e-07	-1.907815e-06	-1.474654e-08	-1.374508e+01	-9.700249e+02
6.400000e-07	-1.812689e-06	-1.440846e-08	-1.305974e+01	-9.478671e+02
6.500000e-07	-1.716968e-06	-1.405247e-08	-1.237010e+01	-9.247057e+02
6.600000e-07	-1.620733e-06	-1.368203e-08	-1.167677e+01	-9.004737e+02
6.700000e-07	-1.523959e-06	-1.329568e-08	-1.097954e+01	-8.750953e+02
6.800000e-07	-1.426471e-06	-1.289028e-08	-1.027718e+01	-8.484868e+02
6.900000e-07	-1.328266e-06	-1.246328e-08	-9.569650e+00	-8.205585e+02
7.000000e-07	-1.229463e-06	-1.201533e-08	-8.857811e+00	-7.912192e+02
7.100000e-07	-1.130138e-06	-1.154408e-08	-8.142213e+00	-7.603799e+02
7.200000e-07	-1.030466e-06	-1.104842e-08	-7.424115e+00	-7.279606e+02
7.300000e-07	-9.305615e-07	-1.053040e-08	-6.704341e+00	-6.938969e+02
7.400000e-07	-8.304561e-07	-9.985171e-09	-5.983120e+00	-6.581480e+02
7.500000e-07	-7.301622e-07	-9.415554e-09	-5.260540e+00	-6.207048e+02
7.600000e-07	-6.296767e-07	-8.817444e-09	-4.536581e+00	-5.815978e+02
7.700000e-07	-5.290024e-07	-8.194085e-09	-3.811261e+00	-5.409022e+02
7.800000e-07	-4.281661e-07	-7.551897e-09	-3.084774e+00	-4.987406e+02
7.900000e-07	-3.272360e-07	-6.890976e-09	-2.357611e+00	-4.552803e+02
8.000000e-07	-2.262023e-07	-6.213775e-09	-1.629701e+00	-4.107245e+02
8.100000e-07	-1.249521e-07	-5.523497e-09	-9.002325e-01	-3.652982e+02
8.200000e-07	-2.358078e-08	-4.824470e-09	-1.698905e-01	-3.192285e+02
8.300000e-07	7.782062e-08	-4.118356e-09	5.606679e-01	-2.727211e+02
8.400000e-07	1.792253e-07	-3.407843e-09	1.291250e+00	-2.259376e+02
8.500000e-07	2.805746e-07	-2.693452e-09	2.021433e+00	-1.789754e+02
8.600000e-07	3.818264e-07	-1.976857e-09	2.750914e+00	-1.318554e+02
8.700000e-07	4.828880e-07	-1.256561e-09	3.479024e+00	-8.452018e+01
8.800000e-07	5.837744e-07	-5.310977e-10	4.205872e+00	-3.684366e+01
8.900000e-07	6.845004e-07	2.035068e-10	4.931564e+00	1.134659e+01
9.000000e-07	7.850309e-07	9.492611e-10	5.655848e+00	6.023772e+01
9.100000e-07	8.853433e-07	1.707011e-09	6.378561e+00	1.099941e+02
9.200000e-07	9.854617e-07	2.478749e-09	7.099877e+00	1.607199e+02
9.300000e-07	1.085367e-06	3.265876e-09	7.819654e+00	2.124272e+02
9.400000e-07	1.184956e-06	4.069085e-09	8.537155e+00	2.650150e+02
9.500000e-07	1.284057e-06	4.880898e-09	9.251139e+00	3.182629e+02
9.600000e-07	1.382510e-06	5.696904e-09	9.960459e+00	3.718412e+02
9.700000e-07	1.480275e-06	6.512464e-09	1.066482e+01	4.253350e+02
9.800000e-07	1.577338e-06	7.321391e-09	1.136412e+01	4.782798e+02
9.900000e-07	1.673721e-06	8.112826e-09	1.205853e+01	5.302034e+02
1.000000e-06	1.769420e-06	8.879237e-09	1.274800e+01	5.806661e+02
1.010000e-06	1.864429e-06	9.618223e-09	1.343250e+01	6.292961e+02
1.020000e-06	1.958849e-06	1.032356e-08	1.411276e+01	6.758128e+02
1.030000e-06	2.052657e-06	1.099324e-08	1.478861e+01	7.200381e+02
1.040000e-06	2.145765e-06	1.162634e-08	1.545942e+01	7.618936e+02
1.050000e-06	2.238215e-06	1.222444e-08	1.612548e+01	8.013875e+02
1.060000e-06	2.330024e-06	1.278667e-08	1.678693e+01	8.385936e+02
1.070000e-06	2.420999e-06	1.331976e-08	1.744237e+01	8.736278e+02
1.080000e-06	2.510950e-06	1.382428e-08	1.809044e+01	9.066266e+02
1.090000e-06	2.599852e-06	1.429871e-08	1.873094e+01	9.377286e+02
1.100000e-06	2.687738e-06	1.474394e-08	1.936413e+01	9.670646e+02
1.110000e-06	2.774646e-06	1.516157e-08	1.999027e+01	9.947521e+02
1.120000e-06	2.860623e-06	1.555647e-08	2.060970e+01	1.020896e+03
1.130000e-06	2.945698e-06	1.593186e-08	2.122264e+01	1.045593e+03
1.140000e-06	3.029971e-06	1.628743e-08	2.182979e+01	1.068933e+03
1.150000e-06	3.113313e-06	1.662152e-08	2.243023e+01	1.091007e+03
1.160000e-06	3.195502e-06	1.693918e-08	2.302237e+01	1.111902e+03
1.170000e-06	3.276533e-06	1.724009e-08	2.360617e+01	1.131703e+03
1.180000e-06	3.356380e-06	1.752427e-08	2.418144e+01	1.150490e+03
1.190000e-06	3.435063e-06	1.779276e-08	2.474832e+01	1.168333e+03
1.200000e-06	3.512549e-06	1.805035e-08	2.530657e+01	1.185291e+03
1.210000e-06	3.588805e-06	1.829607e-08	2.585597e+01	1.201412e+03
1.220000e-06	3.663651e-06	1.852811e-08	2.639521e+01	1.216737e+03
1.230000e-06	3.736882e-06	1.874608e-08	2.692281e+01	1.231299e+03
1.240000e-06	3.808623e-06	1.895131e-08	2.743968e+01	1.245132e+03
1.250000e-06	3.878982e-06	1.914770e-08	2.794659e+01	1.258272e+03
1.260000e-06	3.947984e-06	1.933640e-08	2.844372e+01	1.270761e+03
1.270000e-06	4.015706e-06	1.951732e-08	2.893164e+01	1.282644e+03
1.280000e-06	4.081927e-06	1.969011e-08	2.940873e+01	1.293966e+03
1.290000e-06	4.146544e-06	1.985464e-08	2.987427e+01	1.304769e+03
1.300000e-06	4.209697e-06	2.001155e-08	3.032926e+01	1.315087e+03
1.310000e-06	4.271346e-06	2.016151e-08	3.077342e+01	1.324939e+03
1.320000e-06	4.331612e-06	2.030514e-08	3.120761e+01	1.334336e+03
1.330000e-06	4.390451e-06	2.044349e-08	3.163153e+01	1.343276e+03
1.340000e-06	4.447557e-06	2.057394e-08	3.204295e+01	1.351749e+03
1.350000e-06	4.502935e-06	2.069575e-08	3.244193e+01	1.359750e+03
1.360000e-06	4.556715e-06	2.080916e-08	3.282940e+01	1.367278e+03
1.370000e-06	4.608748e-06	2.091401e-08	3.320428e+01	1.374344e+03
1.380000e-06	4.658795e-06	2.101276e-08	3.356484e+01	1.380976e+03
1.390000e-06	4.706936e-06	2.110698e-08	3.391168e+01	1.387210e+03
1.400000e-06	4.753429e-06	2.119671e-08	3.424664e+01	1.393093e+03
1.410000e-06	4.798391e-06	2.128142e-08	3.457058e+01	1.398672e+03
1.420000e-06	4.841766e-06	2.136179e-08	3.488308e+01	1.403987e+03
1.430000e-06	4.883282e-06	2.143886e-08	3.518219e+01	1.409067e+03
1.440000e-06	4.922967e-06	2.151135e-08	3.546811e+01	1.413926e+03
1.450000e-06	4.961009e-06	2.157970e-08	3.574218e+01	1.418558e+03
1.460000e-06	4.997470e-06	2.164529e-08	3.600487e+01	1.422950e+03
1.470000e-06	5.032170e-06	2.170810e-08	3.625486e+01	1.427079e+03
1.480000e-06	5.064939e-06	2.176731e-08	3.649095e+01	1.430921e+03
1.490000e-06	5.095963e-06	2.182074e-08	3.671447e+01	1.434461e+03
1.500000e-06	5.125348e-06	2.186762e-08	3.692618e+01	1.437693e+03
1.510000e-06	5.153056e-06	2.191043e-08	3.712581e+01	1.440622e+03
1.520000e-06	5.178755e-06	2.194980e-08	3.731096e+01	1.443266e+03
1.530000e-06	5.202378e-06	2.198687e-08	3.748115e+01	1.445645e+03
1.540000e-06	5.224211e-06	2.202077e-08	3.763845e+01	1.447782e+03
1.550000e-06	5.244404e-06	2.204926e-08	3.778393e+01	1.449697e+03
1.560000e-06	5.262781e-06	2.207356e-08	3.791634e+01	1.451401e+03
1.570000e-06	5.279097e-06	2.209416e-08	3.803389e+01	1.452898e+03
1.580000e-06	5.293458e-06	2.211143e-08	3.813735e+01	1.454186e+03
1.590000e-06	5.305878e-06	2.212676e-08	3.822683e+01	1.455259e+03
1.600000e-06	5.316107e-06	2.213989e-08	3.830052e+01	1.456113e+03
1.610000e-06	5.324197e-06	2.215164e-08	3.835881e+01	1.456748e+03
1.620000e-06	5.330446e-06	2.216051e-08	3.840384e+01	1.457173e+03
1.630000e-06	5.335001e-06	2.216416e-08	3.843665e+01	1.457401e+03
1.640000e-06	5.337641e-06	2.216521e-08	3.845567e+01	1.457451e+03
1.650000e-06	5.338242e-06	2.216583e-08	3.846000e+01	1.457339e+03
1.660000e-06	5.337091e-06	2.216069e-08	3.845171e+01	1.457081e+03
1.670000e-06	5.334319e-06	2.215479e-08	3.843173e+01	1.456679e+03
1.680000e-06	5.329841e-06	2.214832e-08	3.839947e+01	1.456128e+03
1.690000e-06	5.323459e-06	2.213810e-08	3.835349e+01	1.455412e+03
1.700000e-06	5.315293e-06	2.212395e-08	3.829466e+01	1.454511e+03
1.710000e-06	5.305590e-06	2.210725e-08	3.822475e+01	1.453402e+03
1.720000e-06	5.294223e-06	2.209947e-08	3.814286e+01	1.452070e+03
1.730000e-06	5.280855e-06	2.208533e-08	3.804655e+01	1.450510e+03
1.740000e-06	5.265496e-06	2.197145e-08	3.793589e+01	1.448734e+03
1.750000e-06	5.248001e-06	2.195260e-08	3.780984e+01	1.446767e+03
1.760000e-06	5.227951e-06	2.196592e-08	3.766540e+01	1.444648e+03
1.770000e-06	5.205493e-06	2.194412e-08	3.750360e+01	1.442419e+03
1.780000e-06	5.181412e-06	2.203804e-08	3.733010e+01	1.440121e+03
1.790000e-06	5.156487e-06	2.185344e-08	3.715053e+01	1.437786e+03
1.800000e-06	5.130459e-06	2.175101e-08	3.696300e+01	1.435428e+03
1.810000e-06	5.102394e-06	2.190119e-08	3.676080e+01	1.433038e+03
1.820000e-06	5.072371e-06	2.168840e-08	3.654450e+01	1.430591e+03
1.830000e-06	5.040762e-06	2.171486e-08	3.631677e+01	1.428042e+03
1.840000e-06	5.007246e-06	2.188354e-08	3.607530e+01	1.425334e+03
1.850000e-06	4.972090e-06	2.161581e-08	3.582202e+01	1.422412e+03
1.860000e-06	4.935259e-06	2.165656e-08	3.555666e+01	1.419224e+03
1.870000e-06	4.896489e-06	2.167593e-08	3.527734e+01	1.415731e+03
1.880000e-06	4.856114e-06	2.146806e-08	3.498645e+01	1.411912e+03
1.890000e-06	4.813961e-06	2.154434e-08	3.468276e+01	1.407761e+03
1.900000e-06	4.770095e-06	2.136998e-08	3.436672e+01	1.403292e+03
1.910000e-06	4.724538e-06	2.130209e-08	3.403850e+01	1.398525e+03
1.920000e-06	4.676988e-06	2.139500e-08	3.369592e+01	1.393485e+03
1.930000e-06	4.627818e-06	2.116251e-08	3.334167e+01	1.388198e+03
1.940000e-06	4.576968e-06	2.114120e-08	3.297531e+01	1.382681e+03
1.950000e-06	4.524080e-06	2.104798e-08	3.259427e+01	1.376941e+03
1.960000e-06	4.469255e-06	2.092587e-08	3.219928e+01	1.370977e+03
1.970000e-06	4.412631e-06	2.088213e-08	3.179132e+01	1.364778e+03
1.980000e-06	4.354472e-06	2.068556e-08	3.137231e+01	1.358328e+03
1.990000e-06	4.294928e-06	2.068794e-08	3.094332e+01	1.351610e+03
2.000000e-06	4.233904e-06	2.057029e-08	3.050366e+01	1.344609e+03
2.010000e-06	4.171201e-06	2.041566e-08	3.005191e+01	1.337315e+03
2.020000e-06	4.106815e-06	2.032657e-08	2.958804e+01	1.329721e+03
2.030000e-06	4.041034e-06	2.016065e-08	2.911411e+01	1.321825e+03
2.040000e-06	3.973965e-06	2.012061e-08	2.863090e+01	1.313627e+03
2.050000e-06	3.905487e-06	1.994538e-08	2.813754e+01	1.305128e+03
2.060000e-06	3.835440e-06	1.980967e-08	2.763289e+01	1.296325e+03
2.070000e-06	3.763932e-06	1.970561e-08	2.711770e+01	1.287210e+03
2.080000e-06	3.691166e-06	1.951492e-08	2.659345e+01	1.277772e+03
2.090000e-06	3.617105e-06	1.938796e-08	2.605986e+01	1.267994e+03
2.100000e-06	3.541689e-06	1.921226e-08	2.551652e+01	1.257857e+03
2.110000e-06	3.464793e-06	1.908478e-08	2.496252e+01	1.247341e+03
2.120000e-06	3.386344e-06	1.891019e-08	2.439732e+01	1.236428e+03
2.130000e-06	3.306617e-06	1.872244e-08	2.382291e+01	1.225099e+03
2.140000e-06	3.225810e-06	1.856015e-08	2.324073e+01	1.213339e+03
2.150000e-06	3.143891e-06	1.835993e-08	2.265054e+01	1.201134e+03
2.160000e-06	3.060936e-06	1.818437e-08	2.205288e+01	1.188469e+03
2.170000e-06	2.977056e-06	1.797579e-08	2.144855e+01	1.175325e+03
2.180000e-06	2.892074e-06	1.777526e-08	2.083629e+01	1.161681e+03
2.190000e-06	2.805811e-06	1.755399e-08	2.021480e+01	1.147511e+03
2.200000e-06	2.718408e-06	1.732274e-08	1.958509e+01	1.132782e+03
2.210000e-06	2.630062e-06	1.709775e-08	1.894859e+01	1.117459e+03
2.220000e-06	2.540830e-06	1.685186e-08	1.830571e+01	1.101503e+03
2.230000e-06	2.450722e-06	1.660251e-08	1.765652e+01	1.084874e+03
2.240000e-06	2.359862e-06	1.633409e-08	1.700191e+01	1.067534e+03
2.250000e-06	2.268323e-06	1.606814e-08	1.634240e+01	1.049443e+03
2.260000e-06	2.176112e-06	1.577854e-08	1.567806e+01	1.030566e+03
2.270000e-06	2.083018e-06	1.547461e-08	1.500735e+01	1.010863e+03
2.280000e-06	1.988849e-06	1.516262e-08	1.432890e+01	9.902955e+02
2.290000e-06	1.893716e-06	1.483705e-08	1.364351e+01	9.688179e+02
2.300000e-06	1.797905e-06	1.449819e-08	1.295322e+01	9.463788e+02
2.310000e-06	1.701650e-06	1.413861e-08	1.225974e+01	9.229178e+02
2.320000e-06	1.604899e-06	1.376556e-08	1.156268e+01	8.983655e+02
2.330000e-06	1.507577e-06	1.337211e-08	1.086152e+01	8.726436e+02
2.340000e-06	1.409722e-06	1.295983e-08	1.015651e+01	8.456664e+02
2.350000e-06	1.311459e-06	1.252771e-08	9.448565e+00	8.173434e+02
2.360000e-06	1.212874e-06	1.207945e-08	8.738292e+00	7.875834e+02
2.370000e-06	1.113930e-06	1.160884e-08	8.025444e+00	7.562995e+02
2.380000e-06	1.014637e-06	1.111001e-08	7.310071e+00	7.234151e+02
2.390000e-06	9.150801e-07	1.058043e-08	6.592803e+00	6.888720e+02
2.400000e-06	8.152807e-07	1.002283e-08	5.873787e+00	6.526374e+02
2.410000e-06	7.152812e-07	9.442973e-09	5.153329e+00	6.147130e+02
2.420000e-06	6.150779e-07	8.836851e-09	4.431402e+00	5.751414e+02
2.430000e-06	5.146540e-07	8.208138e-09	3.707886e+00	5.340115e+02
2.440000e-06	4.140934e-07	7.562224e-09	2.983385e+00	4.914592e+02
2.450000e-06	3.133974e-07	6.897823e-09	2.257909e+00	4.476629e+02
2.460000e-06	2.125199e-07	6.213434e-09	1.531125e+00	4.028341e+02
2.470000e-06	1.115103e-07	5.514148e-09	8.033894e-01	3.572004e+02
2.480000e-06	1.039712e-08	4.804832e-09	7.490728e-02	3.109853e+02
2.490000e-06	-9.073049e-08	4.088054e-09	-6.536786e-01	2.643841e+02
2.500000e-06	-1.917212e-07	3.368016e-09	-1.381278e+00	2.175418e+02
2.510000e-06	-2.926457e-07	2.647783e-09	-2.108401e+00	1.705350e+02
2.520000e-06	-3.935657e-07	1.927054e-09	-2.835491e+00	1.233618e+02
2.530000e-06	-4.943979e-07	1.203360e-09	-3.561949e+00	7.594358e+01
2.540000e-06	-5.950039e-07	4.740207e-10	-4.286776e+00	2.813829e+01
2.550000e-06	-6.953791e-07	-2.645195e-10	-5.009941e+00	-2.023428e+01
2.560000e-06	-7.955452e-07	-1.013929e-09	-5.731600e+00	-6.935870e+01
2.570000e-06	-8.954436e-07	-1.778289e-09	-6.451330e+00	-1.193858e+02
2.580000e-06	-9.949961e-07	-2.557523e-09	-7.168568e+00	-1.703964e+02
2.590000e-06	-1.094194e-06	-3.350236e-09	-7.883247e+00	-2.223717e+02
2.600000e-06	-1.193050e-06	-4.156200e-09	-8.595472e+00	-2.751765e+02
2.610000e-06	-1.291533e-06	-4.970270e-09	-9.305004e+00	-3.285577e+02
2.620000e-06	-1.389587e-06	-5.787802e-09	-1.001145e+01	-3.821580e+02
2.630000e-06	-1.487086e-06	-6.603048e-09	-1.071389e+01	-4.355444e+02
2.640000e-06	-1.584035e-06	-7.408963e-09	-1.141237e+01	-4.882458e+02
2.650000e-06	-1.680500e-06	-8.197172e-09	-1.210736e+01	-5.397953e+02
2.660000e-06	-1.776519e-06	-8.962327e-09	-1.279914e+01	-5.897696e+02
2.670000e-06	-1.871985e-06	-9.699757e-09	-1.348694e+01	-6.378209e+02
2.680000e-06	-1.966672e-06	-1.040325e-08	-1.416913e+01	-6.836975e+02
2.690000e-06	-2.060426e-06	-1.107116e-08	-1.484458e+01	-7.272505e+02
2.700000e-06	-2.153257e-06	-1.170392e-08	-1.551340e+01	-7.684280e+02
2.710000e-06	-2.245298e-06	-1.230247e-08	-1.617652e+01	-8.072593e+02
2.720000e-06	-2.336585e-06	-1.286627e-08	-1.683421e+01	-8.438326e+02
2.730000e-06	-2.427048e-06	-1.339467e-08	-1.748595e+01	-8.782719e+02
2.740000e-06	-2.516591e-06	-1.389026e-08	-1.813108e+01	-9.107157e+02
2.750000e-06	-2.605246e-06	-1.435846e-08	-1.876980e+01	-9.413013e+02
2.760000e-06	-2.693102e-06	-1.480144e-08	-1.940278e+01	-9.701557e+02
2.770000e-06	-2.780129e-06	-1.521796e-08	-2.002977e+01	-9.973929e+02
2.780000e-06	-2.866109e-06	-1.561204e-08	-2.064922e+01	-1.023115e+03
2.790000e-06	-2.950937e-06	-1.598400e-08	-2.126038e+01	-1.047416e+03
2.800000e-06	-3.034688e-06	-1.633458e-08	-2.186377e+01	-1.070386e+03
2.810000e-06	-3.117411e-06	-1.666602e-08	-2.245976e+01	-1.092115e+03
2.820000e-06	-3.199085e-06	-1.698194e-08	-2.304819e+01	-1.112690e+03
2.830000e-06	-3.279742e-06	-1.728390e-08	-2.362929e+01	-1.132194e+03
2.840000e-06	-3.359419e-06	-1.757021e-08	-2.420333e+01	-1.150705e+03
2.850000e-06	-3.437826e-06	-1.784136e-08	-2.476822e+01	-1.168291e+03
2.860000e-06	-3.514691e-06	-1.809688e-08	-2.532201e+01	-1.185006e+03
2.870000e-06	-3.590088e-06	-1.833912e-08	-2.586521e+01	-1.200898e+03
2.880000e-06	-3.664068e-06	-1.857133e-08	-2.639821e+01	-1.216002e+03
2.890000e-06	-3.736721e-06	-1.879438e-08	-2.692165e+01	-1.230353e+03
2.900000e-06	-3.808155e-06	-1.900720e-08	-2.743631e+01	-1.243985e+03
2.910000e-06	-3.878126e-06	-1.920796e-08	-2.794042e+01	-1.256935e+03
2.920000e-06	-3.946562e-06	-1.939758e-08	-2.843348e+01	-1.269247e+03
2.930000e-06	-4.013600e-06	-1.957716e-08	-2.891646e+01	-1.280966e+03
2.940000e-06	-4.079219e-06	-1.974743e-08	-2.938922e+01	-1.292137e+03
