# Temperatura_=_57.7
# Concentracion g/m^3_=_28200.0
# C_Vs_to_Am_M_A/Vsm_=_65563218390.804596
# pendiente_HvsI_1/m_=_3716.3
# ordenada_HvsI_A/m_=_1297.0
# frecuencia_Hz_=_301744.63410160586

Tiempo_(s)	Campo_(V.s)	Magnetizacion_(V.s)	Campo_(kA/m)	Magnetizacion_(A/m)
0.000000e+00	-5.317382e-06	-2.154194e-08	-3.830024e+01	-1.409289e+03
1.000000e-08	-5.314954e-06	-2.153900e-08	-3.828275e+01	-1.408930e+03
2.000000e-08	-5.310684e-06	-2.152840e-08	-3.825199e+01	-1.408417e+03
3.000000e-08	-5.304847e-06	-2.151701e-08	-3.820995e+01	-1.407740e+03
4.000000e-08	-5.297460e-06	-2.150391e-08	-3.815675e+01	-1.406887e+03
5.000000e-08	-5.288293e-06	-2.148370e-08	-3.809072e+01	-1.405844e+03
6.000000e-08	-5.277088e-06	-2.145706e-08	-3.801001e+01	-1.404602e+03
7.000000e-08	-5.263966e-06	-2.141823e-08	-3.791550e+01	-1.403159e+03
8.000000e-08	-5.248828e-06	-2.140270e-08	-3.780646e+01	-1.401523e+03
9.000000e-08	-5.231434e-06	-2.144584e-08	-3.768117e+01	-1.399710e+03
1.000000e-07	-5.211985e-06	-2.141558e-08	-3.754109e+01	-1.397742e+03
1.100000e-07	-5.190643e-06	-2.133935e-08	-3.738736e+01	-1.395646e+03
1.200000e-07	-5.167565e-06	-2.129852e-08	-3.722113e+01	-1.393448e+03
1.300000e-07	-5.143043e-06	-2.117242e-08	-3.704450e+01	-1.391169e+03
1.400000e-07	-5.116948e-06	-2.116827e-08	-3.685655e+01	-1.388818e+03
1.500000e-07	-5.089118e-06	-2.127167e-08	-3.665609e+01	-1.386396e+03
1.600000e-07	-5.059790e-06	-2.107940e-08	-3.644485e+01	-1.383889e+03
1.700000e-07	-5.029054e-06	-2.107125e-08	-3.622346e+01	-1.381273e+03
1.800000e-07	-4.996392e-06	-2.113288e-08	-3.598820e+01	-1.378518e+03
1.900000e-07	-4.961619e-06	-2.090035e-08	-3.573774e+01	-1.375588e+03
2.000000e-07	-4.925342e-06	-2.092771e-08	-3.547644e+01	-1.372451e+03
2.100000e-07	-4.887491e-06	-2.094281e-08	-3.520381e+01	-1.369075e+03
2.200000e-07	-4.847867e-06	-2.078254e-08	-3.491840e+01	-1.365439e+03
2.300000e-07	-4.806498e-06	-2.078591e-08	-3.462043e+01	-1.361529e+03
2.400000e-07	-4.763173e-06	-2.069682e-08	-3.430836e+01	-1.357341e+03
2.500000e-07	-4.718060e-06	-2.058555e-08	-3.398342e+01	-1.352876e+03
2.600000e-07	-4.671160e-06	-2.059079e-08	-3.364561e+01	-1.348143e+03
2.700000e-07	-4.622289e-06	-2.045665e-08	-3.329360e+01	-1.343150e+03
2.800000e-07	-4.571320e-06	-2.034866e-08	-3.292648e+01	-1.337908e+03
2.900000e-07	-4.518323e-06	-2.029369e-08	-3.254475e+01	-1.332424e+03
3.000000e-07	-4.463665e-06	-2.020375e-08	-3.215106e+01	-1.326701e+03
3.100000e-07	-4.407486e-06	-2.011834e-08	-3.174641e+01	-1.320741e+03
3.200000e-07	-4.349496e-06	-2.004257e-08	-3.132871e+01	-1.314539e+03
3.300000e-07	-4.289795e-06	-1.994338e-08	-3.089870e+01	-1.308089e+03
3.400000e-07	-4.228697e-06	-1.980087e-08	-3.045862e+01	-1.301383e+03
3.500000e-07	-4.166204e-06	-1.970435e-08	-3.000849e+01	-1.294411e+03
3.600000e-07	-4.102337e-06	-1.959375e-08	-2.954847e+01	-1.287164e+03
3.700000e-07	-4.036953e-06	-1.947935e-08	-2.907752e+01	-1.279634e+03
3.800000e-07	-3.969917e-06	-1.939512e-08	-2.859467e+01	-1.271813e+03
3.900000e-07	-3.901364e-06	-1.924385e-08	-2.810089e+01	-1.263693e+03
4.000000e-07	-3.831519e-06	-1.909531e-08	-2.759781e+01	-1.255266e+03
4.100000e-07	-3.760463e-06	-1.897861e-08	-2.708601e+01	-1.246525e+03
4.200000e-07	-3.688245e-06	-1.884135e-08	-2.656583e+01	-1.237459e+03
4.300000e-07	-3.614573e-06	-1.869746e-08	-2.603518e+01	-1.228057e+03
4.400000e-07	-3.539252e-06	-1.854704e-08	-2.549266e+01	-1.218309e+03
4.500000e-07	-3.462522e-06	-1.838728e-08	-2.493998e+01	-1.208200e+03
4.600000e-07	-3.384462e-06	-1.821508e-08	-2.437773e+01	-1.197716e+03
4.700000e-07	-3.305047e-06	-1.805527e-08	-2.380572e+01	-1.186843e+03
4.800000e-07	-3.224314e-06	-1.789872e-08	-2.322421e+01	-1.175565e+03
4.900000e-07	-3.142451e-06	-1.772005e-08	-2.263456e+01	-1.163863e+03
5.000000e-07	-3.059513e-06	-1.753305e-08	-2.203717e+01	-1.151717e+03
5.100000e-07	-2.975643e-06	-1.733333e-08	-2.143307e+01	-1.139105e+03
5.200000e-07	-2.890926e-06	-1.712960e-08	-2.082287e+01	-1.126001e+03
5.300000e-07	-2.805263e-06	-1.691913e-08	-2.020586e+01	-1.112376e+03
5.400000e-07	-2.718641e-06	-1.670199e-08	-1.958193e+01	-1.098198e+03
5.500000e-07	-2.631097e-06	-1.648228e-08	-1.895136e+01	-1.083435e+03
5.600000e-07	-2.542713e-06	-1.624358e-08	-1.831475e+01	-1.068054e+03
5.700000e-07	-2.453253e-06	-1.599515e-08	-1.767039e+01	-1.052020e+03
5.800000e-07	-2.362541e-06	-1.574147e-08	-1.701700e+01	-1.035299e+03
5.900000e-07	-2.270880e-06	-1.547916e-08	-1.635678e+01	-1.017859e+03
6.000000e-07	-2.178556e-06	-1.519975e-08	-1.569179e+01	-9.996638e+02
6.100000e-07	-2.085521e-06	-1.490939e-08	-1.502167e+01	-9.806781e+02
6.200000e-07	-1.991696e-06	-1.460786e-08	-1.434587e+01	-9.608607e+02
6.300000e-07	-1.897116e-06	-1.428801e-08	-1.366462e+01	-9.401649e+02
6.400000e-07	-1.801854e-06	-1.395588e-08	-1.297846e+01	-9.185366e+02
6.500000e-07	-1.706060e-06	-1.360921e-08	-1.228847e+01	-8.959135e+02
6.600000e-07	-1.609795e-06	-1.324757e-08	-1.159509e+01	-8.722249e+02
6.700000e-07	-1.512883e-06	-1.286854e-08	-1.089705e+01	-8.473930e+02
6.800000e-07	-1.415228e-06	-1.247058e-08	-1.019366e+01	-8.213348e+02
6.900000e-07	-1.316911e-06	-1.205334e-08	-9.485500e+00	-7.939646e+02
7.000000e-07	-1.217983e-06	-1.161436e-08	-8.772932e+00	-7.651982e+02
7.100000e-07	-1.118591e-06	-1.115150e-08	-8.057028e+00	-7.349565e+02
7.200000e-07	-1.018919e-06	-1.066508e-08	-7.339106e+00	-7.031714e+02
7.300000e-07	-9.190054e-07	-1.015598e-08	-6.619447e+00	-6.697915e+02
7.400000e-07	-8.188925e-07	-9.621928e-09	-5.898350e+00	-6.347890e+02
7.500000e-07	-7.185646e-07	-9.064235e-09	-5.175705e+00	-5.981662e+02
7.600000e-07	-6.179821e-07	-8.480211e-09	-4.451225e+00	-5.599627e+02
7.700000e-07	-5.172229e-07	-7.874290e-09	-3.725473e+00	-5.202594e+02
7.800000e-07	-4.163482e-07	-7.250393e-09	-2.998889e+00	-4.791808e+02
7.900000e-07	-3.153333e-07	-6.605964e-09	-2.271295e+00	-4.368923e+02
8.000000e-07	-2.141442e-07	-5.946545e-09	-1.542446e+00	-3.935923e+02
8.100000e-07	-1.128189e-07	-5.277672e-09	-8.126163e-01	-3.494984e+02
8.200000e-07	-1.143606e-08	-4.601471e-09	-8.237209e-02	-3.048292e+02
8.300000e-07	8.995216e-08	-3.917812e-09	6.479109e-01	-2.597826e+02
8.400000e-07	1.912974e-07	-3.230643e-09	1.377884e+00	-2.145130e+02
8.500000e-07	2.926080e-07	-2.541537e-09	2.107608e+00	-1.691132e+02
8.600000e-07	3.938465e-07	-1.851744e-09	2.836813e+00	-1.236019e+02
8.700000e-07	4.949676e-07	-1.158920e-09	3.565171e+00	-7.792148e+01
8.800000e-07	5.959764e-07	-4.606715e-10	4.292722e+00	-3.194751e+01
8.900000e-07	6.967957e-07	2.463128e-10	5.018906e+00	1.449052e+01
9.000000e-07	7.973470e-07	9.640642e-10	5.743161e+00	6.157863e+01
9.100000e-07	8.976297e-07	1.692598e-09	6.465482e+00	1.094823e+02
9.200000e-07	9.976435e-07	2.433139e-09	7.185865e+00	1.583102e+02
9.300000e-07	1.097419e-06	3.188042e-09	7.904530e+00	2.080829e+02
9.400000e-07	1.196934e-06	3.959205e-09	8.621320e+00	2.587124e+02
9.500000e-07	1.296033e-06	4.741269e-09	9.335119e+00	3.099957e+02
9.600000e-07	1.394505e-06	5.529449e-09	1.004440e+01	3.616233e+02
9.700000e-07	1.492238e-06	6.317276e-09	1.074835e+01	4.132024e+02
9.800000e-07	1.589204e-06	7.096444e-09	1.144678e+01	4.642912e+02
9.900000e-07	1.685414e-06	7.857573e-09	1.213977e+01	5.144381e+02
1.000000e-06	1.781014e-06	8.595731e-09	1.282836e+01	5.632214e+02
1.010000e-06	1.876086e-06	9.309035e-09	1.351315e+01	6.102821e+02
1.020000e-06	1.970537e-06	9.992089e-09	1.419346e+01	6.553476e+02
1.030000e-06	2.064265e-06	1.064291e-08	1.486857e+01	6.982419e+02
1.040000e-06	2.157237e-06	1.125988e-08	1.553823e+01	7.388836e+02
1.050000e-06	2.249527e-06	1.184307e-08	1.620298e+01	7.772734e+02
1.060000e-06	2.341212e-06	1.239222e-08	1.686337e+01	8.134745e+02
1.070000e-06	2.432218e-06	1.291099e-08	1.751888e+01	8.475909e+02
1.080000e-06	2.522182e-06	1.339972e-08	1.816687e+01	8.797462e+02
1.090000e-06	2.610866e-06	1.385978e-08	1.880565e+01	9.100677e+02
1.100000e-06	2.698581e-06	1.429342e-08	1.943745e+01	9.386761e+02
1.110000e-06	2.785501e-06	1.470225e-08	2.006351e+01	9.656807e+02
1.120000e-06	2.871486e-06	1.508963e-08	2.068285e+01	9.911803e+02
1.130000e-06	2.956552e-06	1.545703e-08	2.129557e+01	1.015266e+03
1.140000e-06	3.040750e-06	1.580445e-08	2.190203e+01	1.038025e+03
1.150000e-06	3.124038e-06	1.613056e-08	2.250194e+01	1.059544e+03
1.160000e-06	3.206159e-06	1.643933e-08	2.309344e+01	1.079906e+03
1.170000e-06	3.286972e-06	1.673234e-08	2.367553e+01	1.099196e+03
1.180000e-06	3.366639e-06	1.700929e-08	2.424936e+01	1.117491e+03
1.190000e-06	3.445091e-06	1.727142e-08	2.481443e+01	1.134860e+03
1.200000e-06	3.522342e-06	1.752177e-08	2.537086e+01	1.151362e+03
1.210000e-06	3.598433e-06	1.775986e-08	2.591893e+01	1.167047e+03
1.220000e-06	3.673109e-06	1.798534e-08	2.645681e+01	1.181955e+03
1.230000e-06	3.746164e-06	1.819941e-08	2.698301e+01	1.196124e+03
1.240000e-06	3.817743e-06	1.840252e-08	2.749858e+01	1.209587e+03
1.250000e-06	3.887960e-06	1.859591e-08	2.800434e+01	1.222380e+03
1.260000e-06	3.956783e-06	1.878085e-08	2.850007e+01	1.234543e+03
1.270000e-06	4.024351e-06	1.895536e-08	2.898675e+01	1.246114e+03
1.280000e-06	4.090437e-06	1.912047e-08	2.946276e+01	1.257133e+03
1.290000e-06	4.154841e-06	1.927948e-08	2.992665e+01	1.267634e+03
1.300000e-06	4.217756e-06	1.943286e-08	3.037981e+01	1.277644e+03
1.310000e-06	4.279276e-06	1.957896e-08	3.082293e+01	1.287178e+03
1.320000e-06	4.339488e-06	1.971977e-08	3.125663e+01	1.296244e+03
1.330000e-06	4.398175e-06	1.985510e-08	3.167934e+01	1.304843e+03
1.340000e-06	4.455016e-06	1.998113e-08	3.208876e+01	1.312971e+03
1.350000e-06	4.510188e-06	2.009780e-08	3.248615e+01	1.320631e+03
1.360000e-06	4.563806e-06	2.020680e-08	3.287236e+01	1.327831e+03
1.370000e-06	4.615662e-06	2.030858e-08	3.324587e+01	1.334594e+03
1.380000e-06	4.665485e-06	2.040299e-08	3.360474e+01	1.340950e+03
1.390000e-06	4.713407e-06	2.049226e-08	3.394991e+01	1.346941e+03
1.400000e-06	4.759722e-06	2.057779e-08	3.428351e+01	1.352614e+03
1.410000e-06	4.804506e-06	2.065974e-08	3.460608e+01	1.358009e+03
1.420000e-06	4.847688e-06	2.073950e-08	3.491711e+01	1.363161e+03
1.430000e-06	4.888962e-06	2.081842e-08	3.521440e+01	1.368092e+03
1.440000e-06	4.928429e-06	2.089224e-08	3.549868e+01	1.372806e+03
1.450000e-06	4.966306e-06	2.095920e-08	3.577150e+01	1.377295e+03
1.460000e-06	5.002621e-06	2.102139e-08	3.603307e+01	1.381542e+03
1.470000e-06	5.037158e-06	2.108001e-08	3.628184e+01	1.385525e+03
1.480000e-06	5.069743e-06	2.113448e-08	3.651654e+01	1.389222e+03
1.490000e-06	5.100611e-06	2.118481e-08	3.673888e+01	1.392621e+03
1.500000e-06	5.129796e-06	2.123215e-08	3.694909e+01	1.395718e+03
1.510000e-06	5.157282e-06	2.127692e-08	3.714707e+01	1.398522e+03
1.520000e-06	5.182754e-06	2.131685e-08	3.733054e+01	1.401046e+03
1.530000e-06	5.206181e-06	2.135192e-08	3.749928e+01	1.403313e+03
1.540000e-06	5.227871e-06	2.138381e-08	3.765551e+01	1.405344e+03
1.550000e-06	5.247869e-06	2.141173e-08	3.779955e+01	1.407156e+03
1.560000e-06	5.266047e-06	2.143385e-08	3.793049e+01	1.408761e+03
1.570000e-06	5.282191e-06	2.145182e-08	3.804677e+01	1.410166e+03
1.580000e-06	5.296334e-06	2.146832e-08	3.814864e+01	1.411371e+03
1.590000e-06	5.308532e-06	2.148266e-08	3.823650e+01	1.412376e+03
1.600000e-06	5.318547e-06	2.149555e-08	3.830863e+01	1.413179e+03
1.610000e-06	5.326429e-06	2.150726e-08	3.836540e+01	1.413783e+03
1.620000e-06	5.332450e-06	2.151758e-08	3.840878e+01	1.414195e+03
1.630000e-06	5.336753e-06	2.152315e-08	3.843977e+01	1.414425e+03
1.640000e-06	5.339180e-06	2.152555e-08	3.845725e+01	1.414484e+03
1.650000e-06	5.339562e-06	2.152618e-08	3.846000e+01	1.414385e+03
1.660000e-06	5.338155e-06	2.151963e-08	3.844987e+01	1.414133e+03
1.670000e-06	5.335130e-06	2.151155e-08	3.842808e+01	1.413730e+03
1.680000e-06	5.330468e-06	2.150391e-08	3.839450e+01	1.413171e+03
1.690000e-06	5.323919e-06	2.149491e-08	3.834733e+01	1.412444e+03
1.700000e-06	5.315580e-06	2.148398e-08	3.828727e+01	1.411537e+03
1.710000e-06	5.305729e-06	2.147207e-08	3.821631e+01	1.410436e+03
1.720000e-06	5.294134e-06	2.147208e-08	3.813279e+01	1.409136e+03
1.730000e-06	5.280558e-06	2.145875e-08	3.803501e+01	1.407637e+03
1.740000e-06	5.265040e-06	2.134703e-08	3.792323e+01	1.405947e+03
1.750000e-06	5.247309e-06	2.131180e-08	3.779551e+01	1.404086e+03
1.760000e-06	5.226917e-06	2.133102e-08	3.764864e+01	1.402078e+03
1.770000e-06	5.204096e-06	2.132200e-08	3.748426e+01	1.399949e+03
1.780000e-06	5.179784e-06	2.140575e-08	3.730914e+01	1.397726e+03
1.790000e-06	5.154783e-06	2.123852e-08	3.712907e+01	1.395425e+03
1.800000e-06	5.128660e-06	2.110770e-08	3.694091e+01	1.393053e+03
1.810000e-06	5.100403e-06	2.126384e-08	3.673738e+01	1.390608e+03
1.820000e-06	5.070169e-06	2.108249e-08	3.651960e+01	1.388071e+03
1.830000e-06	5.038288e-06	2.104645e-08	3.628997e+01	1.385419e+03
1.840000e-06	5.004478e-06	2.122873e-08	3.604644e+01	1.382616e+03
1.850000e-06	4.969092e-06	2.099247e-08	3.579157e+01	1.379630e+03
1.860000e-06	4.932105e-06	2.096673e-08	3.552516e+01	1.376425e+03
1.870000e-06	4.893146e-06	2.100024e-08	3.524454e+01	1.372976e+03
1.880000e-06	4.852568e-06	2.080871e-08	3.495226e+01	1.369262e+03
1.890000e-06	4.810253e-06	2.089059e-08	3.464748e+01	1.365273e+03
1.900000e-06	4.766178e-06	2.074768e-08	3.433001e+01	1.361004e+03
1.910000e-06	4.720396e-06	2.062181e-08	3.400025e+01	1.356461e+03
1.920000e-06	4.672606e-06	2.074259e-08	3.365602e+01	1.351651e+03
1.930000e-06	4.623159e-06	2.055319e-08	3.329986e+01	1.346585e+03
1.940000e-06	4.572048e-06	2.048669e-08	3.293172e+01	1.341272e+03
1.950000e-06	4.518809e-06	2.043032e-08	3.254825e+01	1.335719e+03
1.960000e-06	4.463654e-06	2.029711e-08	3.215098e+01	1.329928e+03
1.970000e-06	4.406866e-06	2.024387e-08	3.174194e+01	1.323898e+03
1.980000e-06	4.348552e-06	2.007096e-08	3.132192e+01	1.317626e+03
1.990000e-06	4.288861e-06	2.004318e-08	3.089197e+01	1.311103e+03
2.000000e-06	4.227662e-06	1.995893e-08	3.045117e+01	1.304320e+03
2.010000e-06	4.164723e-06	1.981156e-08	2.999783e+01	1.297270e+03
2.020000e-06	4.100162e-06	1.971372e-08	2.953281e+01	1.289942e+03
2.030000e-06	4.034267e-06	1.954599e-08	2.905817e+01	1.282329e+03
2.040000e-06	3.967019e-06	1.950346e-08	2.857380e+01	1.274422e+03
2.050000e-06	3.898370e-06	1.936117e-08	2.807933e+01	1.266215e+03
2.060000e-06	3.828153e-06	1.920966e-08	2.757356e+01	1.257698e+03
2.070000e-06	3.756470e-06	1.911259e-08	2.705725e+01	1.248864e+03
2.080000e-06	3.683620e-06	1.893069e-08	2.653252e+01	1.239702e+03
2.090000e-06	3.609440e-06	1.880100e-08	2.599822e+01	1.230202e+03
2.100000e-06	3.533878e-06	1.864334e-08	2.545395e+01	1.220351e+03
2.110000e-06	3.456768e-06	1.851449e-08	2.489854e+01	1.210136e+03
2.120000e-06	3.378035e-06	1.835507e-08	2.433144e+01	1.199542e+03
2.130000e-06	3.298096e-06	1.816379e-08	2.375565e+01	1.188554e+03
2.140000e-06	3.217127e-06	1.800040e-08	2.317245e+01	1.177156e+03
2.150000e-06	3.135074e-06	1.780730e-08	2.258143e+01	1.165328e+03
2.160000e-06	3.051968e-06	1.763409e-08	2.198283e+01	1.153051e+03
2.170000e-06	2.967987e-06	1.743796e-08	2.137793e+01	1.140300e+03
2.180000e-06	2.882966e-06	1.724426e-08	2.076554e+01	1.127049e+03
2.190000e-06	2.796529e-06	1.703259e-08	2.014295e+01	1.113268e+03
2.200000e-06	2.708961e-06	1.680431e-08	1.951221e+01	1.098926e+03
2.210000e-06	2.620528e-06	1.658981e-08	1.887524e+01	1.083989e+03
2.220000e-06	2.531159e-06	1.635302e-08	1.823153e+01	1.068424e+03
2.230000e-06	2.440914e-06	1.610392e-08	1.758151e+01	1.052196e+03
2.240000e-06	2.349870e-06	1.583966e-08	1.692574e+01	1.035272e+03
2.250000e-06	2.258158e-06	1.557892e-08	1.626514e+01	1.017619e+03
2.260000e-06	2.165814e-06	1.529784e-08	1.560001e+01	9.992011e+02
2.270000e-06	2.072539e-06	1.500005e-08	1.492816e+01	9.799813e+02
2.280000e-06	1.978101e-06	1.469752e-08	1.424794e+01	9.599172e+02
2.290000e-06	1.882770e-06	1.438048e-08	1.356129e+01	9.389600e+02
2.300000e-06	1.786888e-06	1.404951e-08	1.287066e+01	9.170533e+02
2.310000e-06	1.690546e-06	1.369888e-08	1.217673e+01	8.941324e+02
2.320000e-06	1.593690e-06	1.333745e-08	1.147909e+01	8.701245e+02
2.330000e-06	1.496311e-06	1.295671e-08	1.077769e+01	8.449500e+02
2.340000e-06	1.398446e-06	1.255144e-08	1.007278e+01	8.185248e+02
2.350000e-06	1.300080e-06	1.212535e-08	9.364268e+00	7.907634e+02
2.360000e-06	1.201337e-06	1.168276e-08	8.653033e+00	7.615823e+02
2.370000e-06	1.102293e-06	1.121969e-08	7.939637e+00	7.309051e+02
2.380000e-06	1.002992e-06	1.073215e-08	7.224390e+00	6.986678e+02
2.390000e-06	9.034496e-07	1.021627e-08	6.507401e+00	6.648251e+02
2.400000e-06	8.036353e-07	9.672889e-09	5.788455e+00	6.293570e+02
2.410000e-06	7.035696e-07	9.106196e-09	5.067698e+00	5.922759e+02
2.420000e-06	6.033190e-07	8.514317e-09	4.345609e+00	5.536329e+02
2.430000e-06	5.029769e-07	7.901854e-09	3.622861e+00	5.135212e+02
2.440000e-06	4.024958e-07	7.272394e-09	2.899112e+00	4.720776e+02
2.450000e-06	3.017759e-07	6.624927e-09	2.173643e+00	4.294778e+02
2.460000e-06	2.008529e-07	5.955502e-09	1.446711e+00	3.859274e+02
2.470000e-06	9.977251e-08	5.272432e-09	7.186452e-01	3.416465e+02
2.480000e-06	-1.462345e-09	4.584487e-09	-1.053303e-02	2.968499e+02
2.490000e-06	-1.027143e-07	3.893789e-09	-7.398341e-01	2.517253e+02
2.500000e-06	-2.039179e-07	3.201310e-09	-1.468788e+00	2.064113e+02
2.510000e-06	-3.049698e-07	2.506079e-09	-2.196648e+00	1.609802e+02
2.520000e-06	-4.058361e-07	1.808006e-09	-2.923171e+00	1.154288e+02
2.530000e-06	-5.066115e-07	1.104806e-09	-3.649041e+00	6.967890e+01
2.540000e-06	-6.071708e-07	3.961998e-10	-4.373353e+00	2.359019e+01
2.550000e-06	-7.074193e-07	-3.184335e-10	-5.095426e+00	-2.301566e+01
2.560000e-06	-8.073885e-07	-1.041641e-09	-5.815488e+00	-7.032260e+01
2.570000e-06	-9.071148e-07	-1.776621e-09	-6.533801e+00	-1.184834e+02
2.580000e-06	-1.006614e-06	-2.524564e-09	-7.250479e+00	-1.675845e+02
2.590000e-06	-1.105846e-06	-3.287306e-09	-7.965229e+00	-2.176169e+02
2.600000e-06	-1.204723e-06	-4.065037e-09	-8.677426e+00	-2.684598e+02
2.610000e-06	-1.303165e-06	-4.850736e-09	-9.386490e+00	-3.198781e+02
2.620000e-06	-1.401116e-06	-5.639791e-09	-1.009201e+01	-3.715356e+02
2.630000e-06	-1.498569e-06	-6.428833e-09	-1.079395e+01	-4.230218e+02
2.640000e-06	-1.595512e-06	-7.210049e-09	-1.149222e+01	-4.738878e+02
2.650000e-06	-1.691897e-06	-7.972621e-09	-1.218646e+01	-5.236868e+02
2.660000e-06	-1.787758e-06	-8.708820e-09	-1.287693e+01	-5.720119e+02
2.670000e-06	-1.883155e-06	-9.419407e-09	-1.356406e+01	-6.185272e+02
2.680000e-06	-1.977980e-06	-1.010032e-08	-1.424707e+01	-6.629869e+02
2.690000e-06	-2.071894e-06	-1.074752e-08	-1.492352e+01	-7.052429e+02
2.700000e-06	-2.164661e-06	-1.136242e-08	-1.559171e+01	-7.452388e+02
2.710000e-06	-2.256511e-06	-1.194520e-08	-1.625328e+01	-7.829955e+02
2.720000e-06	-2.347694e-06	-1.249505e-08	-1.691006e+01	-8.185900e+02
2.730000e-06	-2.438131e-06	-1.300889e-08	-1.756146e+01	-8.521338e+02
2.740000e-06	-2.527681e-06	-1.349124e-08	-1.820648e+01	-8.837533e+02
2.750000e-06	-2.616327e-06	-1.394763e-08	-1.884498e+01	-9.135744e+02
2.760000e-06	-2.704143e-06	-1.437836e-08	-1.947750e+01	-9.417147e+02
2.770000e-06	-2.791149e-06	-1.478472e-08	-2.010420e+01	-9.682805e+02
2.780000e-06	-2.877095e-06	-1.517032e-08	-2.072325e+01	-9.933680e+02
2.790000e-06	-2.961753e-06	-1.553390e-08	-2.133303e+01	-1.017067e+03
2.800000e-06	-3.045357e-06	-1.587492e-08	-2.193521e+01	-1.039463e+03
2.810000e-06	-3.128043e-06	-1.619782e-08	-2.253079e+01	-1.060644e+03
2.820000e-06	-3.209707e-06	-1.650592e-08	-2.311900e+01	-1.080693e+03
2.830000e-06	-3.290341e-06	-1.679974e-08	-2.369979e+01	-1.099692e+03
2.840000e-06	-3.369913e-06	-1.707741e-08	-2.427294e+01	-1.117716e+03
2.850000e-06	-3.448148e-06	-1.734016e-08	-2.483645e+01	-1.134832e+03
2.860000e-06	-3.524805e-06	-1.758935e-08	-2.538860e+01	-1.151097e+03
2.870000e-06	-3.600035e-06	-1.782591e-08	-2.593047e+01	-1.166557e+03
2.880000e-06	-3.673949e-06	-1.805225e-08	-2.646286e+01	-1.181251e+03
2.890000e-06	-3.746519e-06	-1.826789e-08	-2.698557e+01	-1.195216e+03
2.900000e-06	-3.817829e-06	-1.847270e-08	-2.749920e+01	-1.208485e+03
2.910000e-06	-3.887712e-06	-1.866641e-08	-2.800256e+01	-1.221095e+03
2.920000e-06	-3.955980e-06	-1.884988e-08	-2.849428e+01	-1.233085e+03
2.930000e-06	-4.022831e-06	-1.902403e-08	-2.897580e+01	-1.244495e+03
2.940000e-06	-4.088303e-06	-1.918929e-08	-2.944738e+01	-1.255364e+03
