# Temperatura_=_87.73
# Concentracion g/m^3_=_28200.0
# C_Vs_to_Am_M_A/Vsm_=_65563218390.804596
# pendiente_HvsI_1/m_=_3716.3
# ordenada_HvsI_A/m_=_1297.0
# frecuencia_Hz_=_301741.8824618284

Tiempo_(s)	Campo_(V.s)	Magnetizacion_(V.s)	Campo_(kA/m)	Magnetizacion_(A/m)
0.000000e+00	-5.324577e-06	-2.720175e-08	-3.829886e+01	-1.779591e+03
1.000000e-08	-5.322167e-06	-2.719753e-08	-3.828153e+01	-1.779092e+03
2.000000e-08	-5.317990e-06	-2.718497e-08	-3.825148e+01	-1.778403e+03
3.000000e-08	-5.312253e-06	-2.717042e-08	-3.821022e+01	-1.777514e+03
4.000000e-08	-5.304919e-06	-2.715397e-08	-3.815747e+01	-1.776403e+03
5.000000e-08	-5.295805e-06	-2.712893e-08	-3.809191e+01	-1.775047e+03
6.000000e-08	-5.284673e-06	-2.709724e-08	-3.801184e+01	-1.773428e+03
7.000000e-08	-5.271696e-06	-2.705145e-08	-3.791850e+01	-1.771533e+03
8.000000e-08	-5.256731e-06	-2.702874e-08	-3.781086e+01	-1.769369e+03
9.000000e-08	-5.239489e-06	-2.708437e-08	-3.768684e+01	-1.766959e+03
1.000000e-07	-5.220167e-06	-2.704204e-08	-3.754786e+01	-1.764340e+03
1.100000e-07	-5.199001e-06	-2.693815e-08	-3.739562e+01	-1.761563e+03
1.200000e-07	-5.176095e-06	-2.689273e-08	-3.723086e+01	-1.758680e+03
1.300000e-07	-5.151644e-06	-2.672941e-08	-3.705499e+01	-1.755734e+03
1.400000e-07	-5.125615e-06	-2.671652e-08	-3.686776e+01	-1.752749e+03
1.500000e-07	-5.097888e-06	-2.685864e-08	-3.666833e+01	-1.749729e+03
1.600000e-07	-5.068656e-06	-2.660569e-08	-3.645806e+01	-1.746645e+03
1.700000e-07	-5.038028e-06	-2.659652e-08	-3.623776e+01	-1.743448e+03
1.800000e-07	-5.005533e-06	-2.668245e-08	-3.600403e+01	-1.740070e+03
1.900000e-07	-4.970948e-06	-2.637138e-08	-3.575527e+01	-1.736439e+03
2.000000e-07	-4.934864e-06	-2.640875e-08	-3.549572e+01	-1.732485e+03
2.100000e-07	-4.897166e-06	-2.642675e-08	-3.522456e+01	-1.728157e+03
2.200000e-07	-4.857721e-06	-2.620265e-08	-3.494084e+01	-1.723425e+03
2.300000e-07	-4.816453e-06	-2.619192e-08	-3.464401e+01	-1.718285e+03
2.400000e-07	-4.773110e-06	-2.609112e-08	-3.433225e+01	-1.712753e+03
2.500000e-07	-4.728035e-06	-2.595658e-08	-3.400803e+01	-1.706860e+03
2.600000e-07	-4.681267e-06	-2.594786e-08	-3.367163e+01	-1.700643e+03
2.700000e-07	-4.632550e-06	-2.578728e-08	-3.332122e+01	-1.694134e+03
2.800000e-07	-4.581731e-06	-2.566314e-08	-3.295569e+01	-1.687354e+03
2.900000e-07	-4.528893e-06	-2.557546e-08	-3.257563e+01	-1.680308e+03
3.000000e-07	-4.474324e-06	-2.547174e-08	-3.218312e+01	-1.672988e+03
3.100000e-07	-4.418198e-06	-2.536318e-08	-3.177942e+01	-1.665372e+03
3.200000e-07	-4.360257e-06	-2.523591e-08	-3.136266e+01	-1.657437e+03
3.300000e-07	-4.300596e-06	-2.511844e-08	-3.093353e+01	-1.649157e+03
3.400000e-07	-4.239510e-06	-2.494579e-08	-3.049414e+01	-1.640519e+03
3.500000e-07	-4.176967e-06	-2.481437e-08	-3.004428e+01	-1.631514e+03
3.600000e-07	-4.113089e-06	-2.468042e-08	-2.958482e+01	-1.622145e+03
3.700000e-07	-4.047712e-06	-2.453866e-08	-2.911457e+01	-1.612421e+03
3.800000e-07	-3.980663e-06	-2.441267e-08	-2.863229e+01	-1.602349e+03
3.900000e-07	-3.912104e-06	-2.421669e-08	-2.813917e+01	-1.591934e+03
4.000000e-07	-3.842272e-06	-2.404422e-08	-2.763687e+01	-1.581172e+03
4.100000e-07	-3.771275e-06	-2.389321e-08	-2.712620e+01	-1.570047e+03
4.200000e-07	-3.699052e-06	-2.371664e-08	-2.660672e+01	-1.558536e+03
4.300000e-07	-3.625338e-06	-2.353451e-08	-2.607650e+01	-1.546612e+03
4.400000e-07	-3.549987e-06	-2.334027e-08	-2.553451e+01	-1.534245e+03
4.500000e-07	-3.473265e-06	-2.313986e-08	-2.498266e+01	-1.521410e+03
4.600000e-07	-3.395315e-06	-2.292803e-08	-2.442198e+01	-1.508087e+03
4.700000e-07	-3.315982e-06	-2.272841e-08	-2.385135e+01	-1.494263e+03
4.800000e-07	-3.235297e-06	-2.252394e-08	-2.327100e+01	-1.479930e+03
4.900000e-07	-3.153430e-06	-2.228781e-08	-2.268214e+01	-1.465079e+03
5.000000e-07	-3.070453e-06	-2.204797e-08	-2.208530e+01	-1.449699e+03
5.100000e-07	-2.986590e-06	-2.179839e-08	-2.148208e+01	-1.433769e+03
5.200000e-07	-2.901911e-06	-2.154417e-08	-2.087300e+01	-1.417261e+03
5.300000e-07	-2.816282e-06	-2.128446e-08	-2.025708e+01	-1.400138e+03
5.400000e-07	-2.729640e-06	-2.101603e-08	-1.963388e+01	-1.382354e+03
5.500000e-07	-2.642138e-06	-2.073974e-08	-1.900450e+01	-1.363862e+03
5.600000e-07	-2.553736e-06	-2.044055e-08	-1.836863e+01	-1.344618e+03
5.700000e-07	-2.464122e-06	-2.013459e-08	-1.772405e+01	-1.324580e+03
5.800000e-07	-2.373305e-06	-1.981798e-08	-1.707082e+01	-1.303711e+03
5.900000e-07	-2.281591e-06	-1.948941e-08	-1.641114e+01	-1.281976e+03
6.000000e-07	-2.189184e-06	-1.914060e-08	-1.574646e+01	-1.259340e+03
6.100000e-07	-2.096037e-06	-1.877724e-08	-1.507647e+01	-1.235762e+03
6.200000e-07	-2.002117e-06	-1.840113e-08	-1.440092e+01	-1.211189e+03
6.300000e-07	-1.907493e-06	-1.800530e-08	-1.372030e+01	-1.185555e+03
6.400000e-07	-1.812276e-06	-1.759794e-08	-1.303542e+01	-1.158779e+03
6.500000e-07	-1.716521e-06	-1.717129e-08	-1.234667e+01	-1.130767e+03
6.600000e-07	-1.620184e-06	-1.672473e-08	-1.165373e+01	-1.101417e+03
6.700000e-07	-1.523147e-06	-1.625613e-08	-1.095576e+01	-1.070621e+03
6.800000e-07	-1.425367e-06	-1.576526e-08	-1.025244e+01	-1.038271e+03
6.900000e-07	-1.326934e-06	-1.524602e-08	-9.544430e+00	-1.004262e+03
7.000000e-07	-1.228003e-06	-1.469777e-08	-8.832839e+00	-9.684909e+02
7.100000e-07	-1.128680e-06	-1.412315e-08	-8.118423e+00	-9.308624e+02
7.200000e-07	-1.029056e-06	-1.352012e-08	-7.401842e+00	-8.912868e+02
7.300000e-07	-9.291704e-07	-1.288757e-08	-6.683380e+00	-8.496850e+02
7.400000e-07	-8.290219e-07	-1.222229e-08	-5.963027e+00	-8.059950e+02
7.500000e-07	-7.286143e-07	-1.152790e-08	-5.240811e+00	-7.601814e+02
7.600000e-07	-6.279737e-07	-1.079633e-08	-4.516918e+00	-7.122477e+02
7.700000e-07	-5.270958e-07	-1.003075e-08	-3.791319e+00	-6.622486e+02
7.800000e-07	-4.260032e-07	-9.239219e-09	-3.064176e+00	-6.102992e+02
7.900000e-07	-3.248208e-07	-8.421564e-09	-2.336386e+00	-5.565777e+02
8.000000e-07	-2.235662e-07	-7.579876e-09	-1.608078e+00	-5.013188e+02
8.100000e-07	-1.222075e-07	-6.718617e-09	-8.790199e-01	-4.447970e+02
8.200000e-07	-2.075946e-08	-5.842845e-09	-1.493196e-01	-3.872996e+02
8.300000e-07	8.078423e-08	-4.956225e-09	5.810686e-01	-3.290938e+02
8.400000e-07	1.823323e-07	-4.065413e-09	1.311488e+00	-2.703921e+02
8.500000e-07	2.837546e-07	-3.168137e-09	2.041004e+00	-2.113228e+02
8.600000e-07	3.850850e-07	-2.264390e-09	2.769857e+00	-1.519122e+02
8.700000e-07	4.863086e-07	-1.353296e-09	3.497943e+00	-9.208245e+01
8.800000e-07	5.873829e-07	-4.334965e-10	4.224955e+00	-3.166839e+01
8.900000e-07	6.883027e-07	5.005215e-10	4.950856e+00	2.954822e+01
9.000000e-07	7.889965e-07	1.451490e-09	5.675131e+00	9.179136e+01
9.100000e-07	8.894813e-07	2.417461e-09	6.397903e+00	1.552373e+02
9.200000e-07	9.897826e-07	3.400418e-09	7.119355e+00	2.199641e+02
9.300000e-07	1.089816e-06	4.401030e-09	7.838882e+00	2.859117e+02
9.400000e-07	1.189468e-06	5.420329e-09	8.555663e+00	3.528617e+02
9.500000e-07	1.288706e-06	6.449283e-09	9.269463e+00	4.204378e+02
9.600000e-07	1.387404e-06	7.479248e-09	9.979386e+00	4.881300e+02
9.700000e-07	1.485347e-06	8.502901e-09	1.068387e+01	5.553372e+02
9.800000e-07	1.582608e-06	9.510154e-09	1.138345e+01	6.214218e+02
9.900000e-07	1.679216e-06	1.048858e-08	1.207834e+01	6.857681e+02
1.000000e-06	1.775083e-06	1.142918e-08	1.276790e+01	7.478353e+02
1.010000e-06	1.870295e-06	1.232840e-08	1.345274e+01	8.071983e+02
1.020000e-06	1.964908e-06	1.318252e-08	1.413328e+01	8.635707e+02
1.030000e-06	2.058851e-06	1.399127e-08	1.480900e+01	9.168084e+02
1.040000e-06	2.152070e-06	1.475088e-08	1.547951e+01	9.668971e+02
1.050000e-06	2.244587e-06	1.546263e-08	1.614497e+01	1.013926e+03
1.060000e-06	2.336438e-06	1.612971e-08	1.680564e+01	1.058054e+03
1.070000e-06	2.427497e-06	1.675923e-08	1.746062e+01	1.099478e+03
1.080000e-06	2.517474e-06	1.735219e-08	1.810780e+01	1.138404e+03
1.090000e-06	2.606348e-06	1.791104e-08	1.874706e+01	1.175025e+03
1.100000e-06	2.694320e-06	1.843667e-08	1.937983e+01	1.209513e+03
1.110000e-06	2.781450e-06	1.892887e-08	2.000654e+01	1.242017e+03
1.120000e-06	2.867665e-06	1.939226e-08	2.062668e+01	1.272664e+03
1.130000e-06	2.952892e-06	1.983043e-08	2.123970e+01	1.301572e+03
1.140000e-06	3.037236e-06	2.024533e-08	2.184637e+01	1.328852e+03
1.150000e-06	3.120653e-06	2.063595e-08	2.244637e+01	1.354617e+03
1.160000e-06	3.202983e-06	2.100703e-08	2.303857e+01	1.378980e+03
1.170000e-06	3.284146e-06	2.136010e-08	2.362236e+01	1.402054e+03
1.180000e-06	3.364100e-06	2.169591e-08	2.419746e+01	1.423944e+03
1.190000e-06	3.442833e-06	2.201363e-08	2.476377e+01	1.444746e+03
1.200000e-06	3.520325e-06	2.231497e-08	2.532116e+01	1.464539e+03
1.210000e-06	3.596615e-06	2.260088e-08	2.586990e+01	1.483383e+03
1.220000e-06	3.671529e-06	2.287108e-08	2.640875e+01	1.501326e+03
1.230000e-06	3.744863e-06	2.312679e-08	2.693623e+01	1.518403e+03
1.240000e-06	3.816681e-06	2.337043e-08	2.745280e+01	1.534645e+03
1.250000e-06	3.887117e-06	2.360560e-08	2.795943e+01	1.550082e+03
1.260000e-06	3.956237e-06	2.383166e-08	2.845661e+01	1.564751e+03
1.270000e-06	4.024047e-06	2.404565e-08	2.894435e+01	1.578695e+03
1.280000e-06	4.090329e-06	2.424714e-08	2.942111e+01	1.591963e+03
1.290000e-06	4.154944e-06	2.443736e-08	2.988587e+01	1.604605e+03
1.300000e-06	4.218057e-06	2.461845e-08	3.033983e+01	1.616670e+03
1.310000e-06	4.279772e-06	2.479135e-08	3.078374e+01	1.628199e+03
1.320000e-06	4.340173e-06	2.495833e-08	3.121820e+01	1.639219e+03
1.330000e-06	4.399106e-06	2.512059e-08	3.164209e+01	1.649747e+03
1.340000e-06	4.456279e-06	2.527647e-08	3.205333e+01	1.659788e+03
1.350000e-06	4.511747e-06	2.542365e-08	3.245230e+01	1.669339e+03
1.360000e-06	4.565599e-06	2.556195e-08	3.283965e+01	1.678395e+03
1.370000e-06	4.617653e-06	2.569261e-08	3.321407e+01	1.686957e+03
1.380000e-06	4.667685e-06	2.581517e-08	3.357394e+01	1.695032e+03
1.390000e-06	4.715785e-06	2.592954e-08	3.391991e+01	1.702636e+03
1.400000e-06	4.762180e-06	2.603767e-08	3.425363e+01	1.709797e+03
1.410000e-06	4.807053e-06	2.614042e-08	3.457639e+01	1.716548e+03
1.420000e-06	4.850397e-06	2.623757e-08	3.488816e+01	1.722926e+03
1.430000e-06	4.891892e-06	2.633003e-08	3.518663e+01	1.728962e+03
1.440000e-06	4.931574e-06	2.641687e-08	3.547205e+01	1.734683e+03
1.450000e-06	4.969633e-06	2.649911e-08	3.574581e+01	1.740103e+03
1.460000e-06	5.006150e-06	2.657747e-08	3.600847e+01	1.745227e+03
1.470000e-06	5.040948e-06	2.665080e-08	3.625876e+01	1.750049e+03
1.480000e-06	5.073768e-06	2.672008e-08	3.649483e+01	1.754560e+03
1.490000e-06	5.104780e-06	2.678487e-08	3.671790e+01	1.758750e+03
1.500000e-06	5.134113e-06	2.684378e-08	3.692889e+01	1.762611e+03
1.510000e-06	5.161808e-06	2.689752e-08	3.712809e+01	1.766142e+03
1.520000e-06	5.187584e-06	2.694783e-08	3.731350e+01	1.769348e+03
1.530000e-06	5.211279e-06	2.699466e-08	3.748393e+01	1.772241e+03
1.540000e-06	5.233117e-06	2.703706e-08	3.764101e+01	1.774835e+03
1.550000e-06	5.253254e-06	2.707353e-08	3.778585e+01	1.777146e+03
1.560000e-06	5.271546e-06	2.710420e-08	3.791742e+01	1.779186e+03
1.570000e-06	5.287843e-06	2.712858e-08	3.803464e+01	1.780963e+03
1.580000e-06	5.302246e-06	2.714822e-08	3.813824e+01	1.782479e+03
1.590000e-06	5.314720e-06	2.716545e-08	3.822796e+01	1.783736e+03
1.600000e-06	5.324968e-06	2.718128e-08	3.830168e+01	1.784734e+03
1.610000e-06	5.333068e-06	2.719577e-08	3.835994e+01	1.785474e+03
1.620000e-06	5.339320e-06	2.720735e-08	3.840491e+01	1.785965e+03
1.630000e-06	5.343820e-06	2.721379e-08	3.843728e+01	1.786218e+03
1.640000e-06	5.346411e-06	2.721644e-08	3.845591e+01	1.786249e+03
1.650000e-06	5.346979e-06	2.721762e-08	3.846000e+01	1.786075e+03
1.660000e-06	5.345726e-06	2.720829e-08	3.845099e+01	1.785709e+03
1.670000e-06	5.342790e-06	2.719556e-08	3.842987e+01	1.785155e+03
1.680000e-06	5.338209e-06	2.718466e-08	3.839692e+01	1.784409e+03
1.690000e-06	5.331773e-06	2.717245e-08	3.835062e+01	1.783457e+03
1.700000e-06	5.323573e-06	2.715726e-08	3.829164e+01	1.782277e+03
1.710000e-06	5.313834e-06	2.713927e-08	3.822159e+01	1.780847e+03
1.720000e-06	5.302346e-06	2.713005e-08	3.813896e+01	1.779148e+03
1.730000e-06	5.288856e-06	2.711748e-08	3.804193e+01	1.777174e+03
1.740000e-06	5.273412e-06	2.697186e-08	3.793084e+01	1.774936e+03
1.750000e-06	5.255828e-06	2.692652e-08	3.780436e+01	1.772460e+03
1.760000e-06	5.235655e-06	2.694837e-08	3.765926e+01	1.769789e+03
1.770000e-06	5.213037e-06	2.691840e-08	3.749657e+01	1.766976e+03
1.780000e-06	5.188818e-06	2.704206e-08	3.732237e+01	1.764069e+03
1.790000e-06	5.163861e-06	2.684050e-08	3.714286e+01	1.761109e+03
1.800000e-06	5.137809e-06	2.666834e-08	3.695547e+01	1.758114e+03
1.810000e-06	5.109686e-06	2.686138e-08	3.675319e+01	1.755078e+03
1.820000e-06	5.079585e-06	2.660823e-08	3.653667e+01	1.751967e+03
1.830000e-06	5.047837e-06	2.655594e-08	3.630832e+01	1.748724e+03
1.840000e-06	5.014161e-06	2.678151e-08	3.606609e+01	1.745280e+03
1.850000e-06	4.978853e-06	2.645392e-08	3.581213e+01	1.741562e+03
1.860000e-06	4.941921e-06	2.644075e-08	3.554648e+01	1.737504e+03
1.870000e-06	4.902995e-06	2.651200e-08	3.526649e+01	1.733062e+03
1.880000e-06	4.862457e-06	2.626315e-08	3.497491e+01	1.728211e+03
1.890000e-06	4.820174e-06	2.635926e-08	3.467077e+01	1.722955e+03
1.900000e-06	4.776165e-06	2.616794e-08	3.435422e+01	1.717315e+03
1.910000e-06	4.730429e-06	2.601628e-08	3.402525e+01	1.711325e+03
1.920000e-06	4.682678e-06	2.615124e-08	3.368179e+01	1.705020e+03
1.930000e-06	4.633329e-06	2.588910e-08	3.332682e+01	1.698431e+03
1.940000e-06	4.582276e-06	2.582458e-08	3.295961e+01	1.691574e+03
1.950000e-06	4.529108e-06	2.573639e-08	3.257718e+01	1.684450e+03
1.960000e-06	4.474088e-06	2.558149e-08	3.218143e+01	1.677047e+03
1.970000e-06	4.417368e-06	2.552376e-08	3.177345e+01	1.669341e+03
1.980000e-06	4.359071e-06	2.527408e-08	3.135412e+01	1.661308e+03
1.990000e-06	4.299369e-06	2.526056e-08	3.092470e+01	1.652926e+03
2.000000e-06	4.238157e-06	2.514070e-08	3.048441e+01	1.644181e+03
2.010000e-06	4.175242e-06	2.493778e-08	3.003187e+01	1.635071e+03
2.020000e-06	4.110706e-06	2.482745e-08	2.956768e+01	1.625598e+03
2.030000e-06	4.044798e-06	2.461845e-08	2.909361e+01	1.615773e+03
2.040000e-06	3.977563e-06	2.456287e-08	2.861000e+01	1.605602e+03
2.050000e-06	3.908989e-06	2.435897e-08	2.811675e+01	1.595087e+03
2.060000e-06	3.838832e-06	2.417293e-08	2.761213e+01	1.584222e+03
2.070000e-06	3.767219e-06	2.405044e-08	2.709703e+01	1.572988e+03
2.080000e-06	3.694438e-06	2.381888e-08	2.657353e+01	1.561361e+03
2.090000e-06	3.620335e-06	2.366415e-08	2.604051e+01	1.549312e+03
2.100000e-06	3.544852e-06	2.345318e-08	2.549758e+01	1.536813e+03
2.110000e-06	3.467794e-06	2.328815e-08	2.494331e+01	1.523838e+03
2.120000e-06	3.389197e-06	2.307794e-08	2.437798e+01	1.510372e+03
2.130000e-06	3.309393e-06	2.284206e-08	2.380396e+01	1.496402e+03
2.140000e-06	3.228475e-06	2.264396e-08	2.322192e+01	1.481921e+03
2.150000e-06	3.146467e-06	2.240046e-08	2.263205e+01	1.466919e+03
2.160000e-06	3.063445e-06	2.218804e-08	2.203489e+01	1.451383e+03
2.170000e-06	2.979542e-06	2.193462e-08	2.143139e+01	1.435290e+03
2.180000e-06	2.894463e-06	2.168256e-08	2.081943e+01	1.418609e+03
2.190000e-06	2.807982e-06	2.141140e-08	2.019738e+01	1.401300e+03
2.200000e-06	2.720396e-06	2.112807e-08	1.956739e+01	1.383318e+03
2.210000e-06	2.631948e-06	2.085634e-08	1.893120e+01	1.364614e+03
2.220000e-06	2.542619e-06	2.055650e-08	1.828867e+01	1.345146e+03
2.230000e-06	2.452318e-06	2.025018e-08	1.763915e+01	1.324873e+03
2.240000e-06	2.361253e-06	1.992161e-08	1.698413e+01	1.303759e+03
2.250000e-06	2.269580e-06	1.959788e-08	1.632474e+01	1.281769e+03
2.260000e-06	2.177128e-06	1.925005e-08	1.565975e+01	1.258867e+03
2.270000e-06	2.083673e-06	1.888594e-08	1.498754e+01	1.235010e+03
2.280000e-06	1.989192e-06	1.851050e-08	1.430795e+01	1.210140e+03
2.290000e-06	1.893890e-06	1.811282e-08	1.362246e+01	1.184187e+03
2.300000e-06	1.797968e-06	1.769916e-08	1.293251e+01	1.157066e+03
2.310000e-06	1.701544e-06	1.726320e-08	1.223894e+01	1.128682e+03
2.320000e-06	1.604651e-06	1.681386e-08	1.154201e+01	1.098928e+03
2.330000e-06	1.507228e-06	1.633949e-08	1.084126e+01	1.067698e+03
2.340000e-06	1.409258e-06	1.583834e-08	1.013658e+01	1.034884e+03
2.350000e-06	1.310824e-06	1.530876e-08	9.428554e+00	1.000380e+03
2.360000e-06	1.212029e-06	1.475678e-08	8.717936e+00	9.640863e+02
2.370000e-06	1.112954e-06	1.417772e-08	8.005305e+00	9.259090e+02
2.380000e-06	1.013648e-06	1.356558e-08	7.291012e+00	8.857607e+02
2.390000e-06	9.141160e-07	1.291939e-08	6.575096e+00	8.435664e+02
2.400000e-06	8.143278e-07	1.223934e-08	5.857335e+00	7.992705e+02
2.410000e-06	7.142275e-07	1.153218e-08	5.137328e+00	7.528475e+02
2.420000e-06	6.138175e-07	1.079195e-08	4.415095e+00	7.043143e+02
2.430000e-06	5.131099e-07	1.001825e-08	3.690720e+00	6.537422e+02
2.440000e-06	4.122353e-07	9.219387e-09	2.965145e+00	6.012644e+02
2.450000e-06	3.113035e-07	8.394048e-09	2.239159e+00	5.470763e+02
2.460000e-06	2.101970e-07	7.542898e-09	1.511915e+00	4.914262e+02
2.470000e-06	1.088880e-07	6.675737e-09	7.832145e-01	4.345952e+02
2.480000e-06	7.459312e-09	5.795945e-09	5.365369e-02	3.768687e+02
2.490000e-06	-9.401720e-08	4.904579e-09	-6.762513e-01	3.185014e+02
2.500000e-06	-1.954433e-07	4.002549e-09	-1.405794e+00	2.596846e+02
2.510000e-06	-2.966517e-07	3.093897e-09	-2.133770e+00	2.005186e+02
2.520000e-06	-3.976879e-07	2.181841e-09	-2.860508e+00	1.409992e+02
2.530000e-06	-4.986425e-07	1.264519e-09	-3.586659e+00	8.102115e+01
2.540000e-06	-5.994270e-07	3.409251e-10	-4.311586e+00	2.040002e+01
2.550000e-06	-7.000158e-07	-5.963834e-10	-5.035106e+00	-4.108936e+01
2.560000e-06	-8.003380e-07	-1.551392e-09	-5.756708e+00	-1.036629e+02
2.570000e-06	-9.003282e-07	-2.527394e-09	-6.475922e+00	-1.674735e+02
2.580000e-06	-1.000017e-06	-3.523227e-09	-7.192970e+00	-2.325632e+02
2.590000e-06	-1.099365e-06	-4.534294e-09	-7.907566e+00	-2.988279e+02
2.600000e-06	-1.198375e-06	-5.560632e-09	-8.619727e+00	-3.660029e+02
2.610000e-06	-1.297055e-06	-6.594995e-09	-9.329519e+00	-4.336704e+02
2.620000e-06	-1.395295e-06	-7.629976e-09	-1.003614e+01	-5.012893e+02
2.630000e-06	-1.492970e-06	-8.656992e-09	-1.073870e+01	-5.682422e+02
2.640000e-06	-1.590073e-06	-9.665187e-09	-1.143715e+01	-6.338919e+02
2.650000e-06	-1.686660e-06	-1.064180e-08	-1.213189e+01	-6.976390e+02
2.660000e-06	-1.782732e-06	-1.157811e-08	-1.282292e+01	-7.589724e+02
2.670000e-06	-1.878302e-06	-1.247378e-08	-1.351034e+01	-8.175051e+02
2.680000e-06	-1.973225e-06	-1.332525e-08	-1.419310e+01	-8.729918e+02
2.690000e-06	-2.067226e-06	-1.412810e-08	-1.486924e+01	-9.253275e+02
2.700000e-06	-2.160218e-06	-1.488345e-08	-1.553812e+01	-9.745303e+02
2.710000e-06	-2.252302e-06	-1.559406e-08	-1.620046e+01	-1.020713e+03
2.720000e-06	-2.343590e-06	-1.626016e-08	-1.685709e+01	-1.064049e+03
2.730000e-06	-2.434073e-06	-1.688340e-08	-1.750791e+01	-1.104739e+03
2.740000e-06	-2.523689e-06	-1.747123e-08	-1.815251e+01	-1.142989e+03
2.750000e-06	-2.612443e-06	-1.802492e-08	-1.879090e+01	-1.178986e+03
2.760000e-06	-2.700455e-06	-1.854380e-08	-1.942395e+01	-1.212894e+03
2.770000e-06	-2.787648e-06	-1.903104e-08	-2.005112e+01	-1.244856e+03
2.780000e-06	-2.873761e-06	-1.949095e-08	-2.067052e+01	-1.274996e+03
2.790000e-06	-2.958684e-06	-1.992477e-08	-2.128136e+01	-1.303429e+03
2.800000e-06	-3.042531e-06	-2.033281e-08	-2.188446e+01	-1.330266e+03
2.810000e-06	-3.125394e-06	-2.072024e-08	-2.248048e+01	-1.355620e+03
2.820000e-06	-3.207198e-06	-2.108969e-08	-2.306888e+01	-1.379605e+03
2.830000e-06	-3.287976e-06	-2.143834e-08	-2.364991e+01	-1.402331e+03
2.840000e-06	-3.367700e-06	-2.176864e-08	-2.422335e+01	-1.423903e+03
2.850000e-06	-3.446101e-06	-2.208421e-08	-2.478727e+01	-1.444410e+03
2.860000e-06	-3.522964e-06	-2.238455e-08	-2.534014e+01	-1.463928e+03
2.870000e-06	-3.598357e-06	-2.266843e-08	-2.588243e+01	-1.482512e+03
2.880000e-06	-3.672394e-06	-2.293725e-08	-2.641496e+01	-1.500205e+03
2.890000e-06	-3.745160e-06	-2.319362e-08	-2.693836e+01	-1.517042e+03
2.900000e-06	-3.816657e-06	-2.343809e-08	-2.745263e+01	-1.533052e+03
2.910000e-06	-3.886624e-06	-2.367150e-08	-2.795589e+01	-1.548267e+03
2.920000e-06	-3.955092e-06	-2.389505e-08	-2.844837e+01	-1.562725e+03
2.930000e-06	-4.022173e-06	-2.410887e-08	-2.893087e+01	-1.576472e+03
2.940000e-06	-4.087822e-06	-2.431205e-08	-2.940308e+01	-1.589557e+03
