# Temperatura_=_28.04
# Concentracion g/m^3_=_28200.0
# C_Vs_to_Am_M_A/Vsm_=_65563218390.804596
# pendiente_HvsI_1/m_=_3716.3
# ordenada_HvsI_A/m_=_1297.0
# frecuencia_Hz_=_301744.3163783248

Tiempo_(s)	Campo_(V.s)	Magnetizacion_(V.s)	Campo_(kA/m)	Magnetizacion_(A/m)
0.000000e+00	-5.311726e-06	-1.748568e-08	-3.829768e+01	-1.143002e+03
1.000000e-08	-5.309388e-06	-1.748343e-08	-3.828082e+01	-1.142712e+03
2.000000e-08	-5.305219e-06	-1.747331e-08	-3.825076e+01	-1.142312e+03
3.000000e-08	-5.299437e-06	-1.746370e-08	-3.820907e+01	-1.141792e+03
4.000000e-08	-5.292087e-06	-1.745452e-08	-3.815608e+01	-1.141131e+03
5.000000e-08	-5.283021e-06	-1.743856e-08	-3.809072e+01	-1.140304e+03
6.000000e-08	-5.271922e-06	-1.741670e-08	-3.801069e+01	-1.139291e+03
7.000000e-08	-5.258919e-06	-1.738210e-08	-3.791694e+01	-1.138077e+03
8.000000e-08	-5.244053e-06	-1.736181e-08	-3.780976e+01	-1.136666e+03
9.000000e-08	-5.226930e-06	-1.741256e-08	-3.768630e+01	-1.135079e+03
1.000000e-07	-5.207624e-06	-1.739934e-08	-3.754711e+01	-1.133348e+03
1.100000e-07	-5.186416e-06	-1.731943e-08	-3.739419e+01	-1.131518e+03
1.200000e-07	-5.163419e-06	-1.728174e-08	-3.722838e+01	-1.129632e+03
1.300000e-07	-5.138970e-06	-1.716486e-08	-3.705210e+01	-1.127721e+03
1.400000e-07	-5.113017e-06	-1.713108e-08	-3.686498e+01	-1.125802e+03
1.500000e-07	-5.085315e-06	-1.726435e-08	-3.666525e+01	-1.123867e+03
1.600000e-07	-5.056064e-06	-1.710347e-08	-3.645435e+01	-1.121887e+03
1.700000e-07	-5.025492e-06	-1.706171e-08	-3.623393e+01	-1.119818e+03
1.800000e-07	-4.993149e-06	-1.717841e-08	-3.600073e+01	-1.117606e+03
1.900000e-07	-4.958651e-06	-1.696279e-08	-3.575200e+01	-1.115200e+03
2.000000e-07	-4.922565e-06	-1.693838e-08	-3.549182e+01	-1.112558e+03
2.100000e-07	-4.884937e-06	-1.698850e-08	-3.522052e+01	-1.109657e+03
2.200000e-07	-4.845535e-06	-1.682719e-08	-3.493643e+01	-1.106489e+03
2.300000e-07	-4.804274e-06	-1.680013e-08	-3.463893e+01	-1.103068e+03
2.400000e-07	-4.760996e-06	-1.675414e-08	-3.432690e+01	-1.099416e+03
2.500000e-07	-4.715950e-06	-1.666541e-08	-3.400212e+01	-1.095558e+03
2.600000e-07	-4.669225e-06	-1.667594e-08	-3.366523e+01	-1.091518e+03
2.700000e-07	-4.620622e-06	-1.657280e-08	-3.331480e+01	-1.087309e+03
2.800000e-07	-4.569877e-06	-1.648524e-08	-3.294893e+01	-1.082932e+03
2.900000e-07	-4.517082e-06	-1.641594e-08	-3.256828e+01	-1.078378e+03
3.000000e-07	-4.462611e-06	-1.634257e-08	-3.217554e+01	-1.073628e+03
3.100000e-07	-4.406592e-06	-1.629129e-08	-3.177164e+01	-1.068662e+03
3.200000e-07	-4.348724e-06	-1.620286e-08	-3.135441e+01	-1.063462e+03
3.300000e-07	-4.289102e-06	-1.612166e-08	-3.092454e+01	-1.058017e+03
3.400000e-07	-4.228111e-06	-1.601378e-08	-3.048479e+01	-1.052321e+03
3.500000e-07	-4.165684e-06	-1.591458e-08	-3.003469e+01	-1.046377e+03
3.600000e-07	-4.101913e-06	-1.582081e-08	-2.957490e+01	-1.040191e+03
3.700000e-07	-4.036725e-06	-1.573567e-08	-2.910489e+01	-1.033771e+03
3.800000e-07	-3.969836e-06	-1.566701e-08	-2.862262e+01	-1.027117e+03
3.900000e-07	-3.901383e-06	-1.553337e-08	-2.812907e+01	-1.020229e+03
4.000000e-07	-3.831640e-06	-1.540233e-08	-2.762622e+01	-1.013098e+03
4.100000e-07	-3.760708e-06	-1.529951e-08	-2.711480e+01	-1.005709e+03
4.200000e-07	-3.688702e-06	-1.517987e-08	-2.659564e+01	-9.980469e+02
4.300000e-07	-3.615337e-06	-1.506408e-08	-2.606667e+01	-9.900967e+02
4.400000e-07	-3.540262e-06	-1.493768e-08	-2.552538e+01	-9.818453e+02
4.500000e-07	-3.463733e-06	-1.480688e-08	-2.497361e+01	-9.732833e+02
4.600000e-07	-3.385941e-06	-1.466429e-08	-2.441272e+01	-9.644035e+02
4.700000e-07	-3.306690e-06	-1.452665e-08	-2.384132e+01	-9.551993e+02
4.800000e-07	-3.226032e-06	-1.439327e-08	-2.325977e+01	-9.456616e+02
4.900000e-07	-3.144234e-06	-1.423426e-08	-2.267000e+01	-9.357764e+02
5.000000e-07	-3.061319e-06	-1.407279e-08	-2.207219e+01	-9.255236e+02
5.100000e-07	-2.977509e-06	-1.390724e-08	-2.146791e+01	-9.148766e+02
5.200000e-07	-2.892932e-06	-1.373706e-08	-2.085811e+01	-9.038046e+02
5.300000e-07	-2.807390e-06	-1.355826e-08	-2.024135e+01	-8.922749e+02
5.400000e-07	-2.720875e-06	-1.337571e-08	-1.961758e+01	-8.802558e+02
5.500000e-07	-2.633477e-06	-1.319002e-08	-1.898744e+01	-8.677194e+02
5.600000e-07	-2.545291e-06	-1.298722e-08	-1.835161e+01	-8.546425e+02
5.700000e-07	-2.456082e-06	-1.277962e-08	-1.770841e+01	-8.410062e+02
5.800000e-07	-2.365573e-06	-1.256483e-08	-1.705584e+01	-8.267937e+02
5.900000e-07	-2.274032e-06	-1.234032e-08	-1.639583e+01	-8.119878e+02
6.000000e-07	-2.181816e-06	-1.210080e-08	-1.573095e+01	-7.965675e+02
6.100000e-07	-2.088929e-06	-1.185023e-08	-1.506123e+01	-7.805054e+02
6.200000e-07	-1.995281e-06	-1.159259e-08	-1.438603e+01	-7.637668e+02
6.300000e-07	-1.900898e-06	-1.132676e-08	-1.370553e+01	-7.463098e+02
6.400000e-07	-1.805818e-06	-1.105258e-08	-1.301999e+01	-7.280865e+02
6.500000e-07	-1.710179e-06	-1.076192e-08	-1.233044e+01	-7.090457e+02
6.600000e-07	-1.614068e-06	-1.045457e-08	-1.163747e+01	-6.891356e+02
6.700000e-07	-1.517381e-06	-1.013450e-08	-1.094036e+01	-6.683055e+02
6.800000e-07	-1.419949e-06	-9.803930e-09	-1.023787e+01	-6.465081e+02
6.900000e-07	-1.321757e-06	-9.457108e-09	-9.529898e+00	-6.237001e+02
7.000000e-07	-1.222969e-06	-9.093077e-09	-8.817641e+00	-5.998434e+02
7.100000e-07	-1.123703e-06	-8.709587e-09	-8.101929e+00	-5.749065e+02
7.200000e-07	-1.024066e-06	-8.308540e-09	-7.383541e+00	-5.488668e+02
7.300000e-07	-9.241768e-07	-7.893602e-09	-6.663338e+00	-5.217144e+02
7.400000e-07	-8.240722e-07	-7.463278e-09	-5.941582e+00	-4.934562e+02
7.500000e-07	-7.237405e-07	-7.020188e-09	-5.218187e+00	-4.641216e+02
7.600000e-07	-6.232278e-07	-6.557732e-09	-4.493488e+00	-4.337665e+02
7.700000e-07	-5.225394e-07	-6.078721e-09	-3.767522e+00	-4.024758e+02
7.800000e-07	-4.216838e-07	-5.590805e-09	-3.040351e+00	-3.703631e+02
7.900000e-07	-3.206938e-07	-5.093532e-09	-2.312210e+00	-3.375664e+02
8.000000e-07	-2.196302e-07	-4.586212e-09	-1.583539e+00	-3.042402e+02
8.100000e-07	-1.184961e-07	-4.071925e-09	-8.543597e-01	-2.705438e+02
8.200000e-07	-1.723044e-08	-3.556568e-09	-1.242319e-01	-2.366282e+02
8.300000e-07	8.403072e-08	-3.041030e-09	6.058636e-01	-2.026222e+02
8.400000e-07	1.851975e-07	-2.526388e-09	1.335279e+00	-1.686199e+02
8.500000e-07	2.863151e-07	-2.012879e-09	2.064339e+00	-1.346719e+02
8.600000e-07	3.873921e-07	-1.499725e-09	2.793107e+00	-1.007808e+02
8.700000e-07	4.884088e-07	-9.854618e-10	3.521440e+00	-6.690229e+01
8.800000e-07	5.893312e-07	-4.715173e-10	4.249093e+00	-3.295139e+01
8.900000e-07	6.900858e-07	4.531232e-11	4.975536e+00	1.185812e+00
9.000000e-07	7.906525e-07	5.683939e-10	5.700625e+00	3.563717e+01
9.100000e-07	8.910319e-07	1.099325e-09	6.424362e+00	7.052717e+01
9.200000e-07	9.911333e-07	1.639627e-09	7.146096e+00	1.059592e+02
9.300000e-07	1.090869e-06	2.188107e-09	7.865193e+00	1.419994e+02
9.400000e-07	1.190257e-06	2.746854e-09	8.581781e+00	1.786636e+02
9.500000e-07	1.289238e-06	3.313032e-09	9.295437e+00	2.159086e+02
9.600000e-07	1.387647e-06	3.884845e-09	1.000497e+01	2.536296e+02
9.700000e-07	1.485332e-06	4.461956e-09	1.070928e+01	2.916632e+02
9.800000e-07	1.582242e-06	5.041847e-09	1.140800e+01	3.297961e+02
9.900000e-07	1.678426e-06	5.620354e-09	1.210149e+01	3.677793e+02
1.000000e-06	1.773942e-06	6.192968e-09	1.279016e+01	4.053460e+02
1.010000e-06	1.868906e-06	6.755616e-09	1.347486e+01	4.422301e+02
1.020000e-06	1.963272e-06	7.303132e-09	1.415524e+01	4.781859e+02
1.030000e-06	2.056934e-06	7.833624e-09	1.483055e+01	5.130037e+02
1.040000e-06	2.149911e-06	8.343590e-09	1.550091e+01	5.465212e+02
1.050000e-06	2.242175e-06	8.830190e-09	1.616614e+01	5.786298e+02
1.060000e-06	2.333760e-06	9.292332e-09	1.682647e+01	6.092741e+02
1.070000e-06	2.424504e-06	9.733630e-09	1.748073e+01	6.384461e+02
1.080000e-06	2.514142e-06	1.015538e-08	1.812702e+01	6.661757e+02
1.090000e-06	2.602743e-06	1.055721e-08	1.876584e+01	6.925182e+02
1.100000e-06	2.690461e-06	1.093848e-08	1.939829e+01	7.175422e+02
1.110000e-06	2.777313e-06	1.130207e-08	2.002450e+01	7.413197e+02
1.120000e-06	2.863256e-06	1.164673e-08	2.064415e+01	7.639183e+02
1.130000e-06	2.948275e-06	1.197246e-08	2.125714e+01	7.853977e+02
1.140000e-06	3.032419e-06	1.228170e-08	2.186382e+01	8.058098e+02
1.150000e-06	3.115646e-06	1.257400e-08	2.246389e+01	8.252006e+02
1.160000e-06	3.197733e-06	1.285299e-08	2.305574e+01	8.436138e+02
1.170000e-06	3.278588e-06	1.311662e-08	2.363870e+01	8.610940e+02
1.180000e-06	3.358310e-06	1.336838e-08	2.421350e+01	8.776884e+02
1.190000e-06	3.436887e-06	1.360919e-08	2.478004e+01	8.934474e+02
1.200000e-06	3.514245e-06	1.383775e-08	2.533779e+01	9.084230e+02
1.210000e-06	3.590309e-06	1.405458e-08	2.588622e+01	9.226661e+02
1.220000e-06	3.664900e-06	1.425859e-08	2.642402e+01	9.362238e+02
1.230000e-06	3.737888e-06	1.445136e-08	2.695027e+01	9.491372e+02
1.240000e-06	3.809469e-06	1.463518e-08	2.746637e+01	9.614400e+02
1.250000e-06	3.879793e-06	1.481202e-08	2.797341e+01	9.731593e+02
1.260000e-06	3.948743e-06	1.498283e-08	2.847054e+01	9.843166e+02
1.270000e-06	4.016269e-06	1.514503e-08	2.895740e+01	9.949302e+02
1.280000e-06	4.082240e-06	1.529819e-08	2.943306e+01	1.005017e+03
1.290000e-06	4.146604e-06	1.544345e-08	2.989712e+01	1.014594e+03
1.300000e-06	4.209528e-06	1.558112e-08	3.035080e+01	1.023680e+03
1.310000e-06	4.271078e-06	1.571246e-08	3.079458e+01	1.032292e+03
1.320000e-06	4.331282e-06	1.583726e-08	3.122865e+01	1.040450e+03
1.330000e-06	4.390026e-06	1.595574e-08	3.165220e+01	1.048171e+03
1.340000e-06	4.446993e-06	1.606595e-08	3.206293e+01	1.055472e+03
1.350000e-06	4.502296e-06	1.616768e-08	3.246167e+01	1.062369e+03
1.360000e-06	4.556057e-06	1.626511e-08	3.284928e+01	1.068879e+03
1.370000e-06	4.607976e-06	1.635795e-08	3.322362e+01	1.075023e+03
1.380000e-06	4.657869e-06	1.644611e-08	3.358336e+01	1.080822e+03
1.390000e-06	4.705865e-06	1.652982e-08	3.392940e+01	1.086304e+03
1.400000e-06	4.752164e-06	1.661014e-08	3.426322e+01	1.091498e+03
1.410000e-06	4.796936e-06	1.668718e-08	3.458603e+01	1.096430e+03
1.420000e-06	4.840120e-06	1.675827e-08	3.489739e+01	1.101127e+03
1.430000e-06	4.881400e-06	1.682477e-08	3.519502e+01	1.105604e+03
1.440000e-06	4.920908e-06	1.688786e-08	3.547988e+01	1.109868e+03
1.450000e-06	4.958858e-06	1.694753e-08	3.575349e+01	1.113915e+03
1.460000e-06	4.995270e-06	1.700392e-08	3.601602e+01	1.117734e+03
1.470000e-06	5.029903e-06	1.705769e-08	3.626573e+01	1.121305e+03
1.480000e-06	5.062564e-06	1.710795e-08	3.650121e+01	1.124612e+03
1.490000e-06	5.093483e-06	1.715328e-08	3.672415e+01	1.127642e+03
1.500000e-06	5.122744e-06	1.719464e-08	3.693512e+01	1.130391e+03
1.510000e-06	5.150306e-06	1.723255e-08	3.713384e+01	1.132866e+03
1.520000e-06	5.175897e-06	1.726549e-08	3.731835e+01	1.135087e+03
1.530000e-06	5.199446e-06	1.729496e-08	3.748814e+01	1.137077e+03
1.540000e-06	5.221214e-06	1.732215e-08	3.764509e+01	1.138864e+03
1.550000e-06	5.241314e-06	1.734587e-08	3.779001e+01	1.140470e+03
1.560000e-06	5.259590e-06	1.736647e-08	3.792178e+01	1.141911e+03
1.570000e-06	5.275812e-06	1.738467e-08	3.803874e+01	1.143193e+03
1.580000e-06	5.290077e-06	1.740092e-08	3.814159e+01	1.144312e+03
1.590000e-06	5.302361e-06	1.741493e-08	3.823016e+01	1.145258e+03
1.600000e-06	5.312423e-06	1.742701e-08	3.830270e+01	1.146021e+03
1.610000e-06	5.320427e-06	1.743781e-08	3.836041e+01	1.146594e+03
1.620000e-06	5.326613e-06	1.744541e-08	3.840501e+01	1.146979e+03
1.630000e-06	5.331076e-06	1.744887e-08	3.843719e+01	1.147187e+03
1.640000e-06	5.333669e-06	1.745179e-08	3.845589e+01	1.147235e+03
1.650000e-06	5.334239e-06	1.745495e-08	3.846000e+01	1.147144e+03
1.660000e-06	5.332951e-06	1.745068e-08	3.845071e+01	1.146933e+03
1.670000e-06	5.330006e-06	1.744367e-08	3.842948e+01	1.146611e+03
1.680000e-06	5.325422e-06	1.743907e-08	3.839643e+01	1.146177e+03
1.690000e-06	5.318948e-06	1.743078e-08	3.834975e+01	1.145618e+03
1.700000e-06	5.310691e-06	1.741945e-08	3.829022e+01	1.144912e+03
1.710000e-06	5.300888e-06	1.740922e-08	3.821954e+01	1.144033e+03
1.720000e-06	5.289434e-06	1.741128e-08	3.813695e+01	1.142962e+03
1.730000e-06	5.276043e-06	1.741337e-08	3.804040e+01	1.141691e+03
1.740000e-06	5.260647e-06	1.730510e-08	3.792940e+01	1.140226e+03
1.750000e-06	5.243078e-06	1.725797e-08	3.780272e+01	1.138592e+03
1.760000e-06	5.222886e-06	1.728609e-08	3.765714e+01	1.136828e+03
1.770000e-06	5.200246e-06	1.727308e-08	3.749390e+01	1.134977e+03
1.780000e-06	5.176011e-06	1.736990e-08	3.731917e+01	1.133081e+03
1.790000e-06	5.151018e-06	1.724768e-08	3.713897e+01	1.131166e+03
1.800000e-06	5.125009e-06	1.708678e-08	3.695145e+01	1.129243e+03
1.810000e-06	5.096891e-06	1.725860e-08	3.674871e+01	1.127298e+03
1.820000e-06	5.066679e-06	1.710358e-08	3.653088e+01	1.125298e+03
1.830000e-06	5.034863e-06	1.699864e-08	3.630149e+01	1.123193e+03
1.840000e-06	5.001176e-06	1.721388e-08	3.605861e+01	1.120930e+03
1.850000e-06	4.965899e-06	1.701168e-08	3.580426e+01	1.118459e+03
1.860000e-06	4.929072e-06	1.694937e-08	3.553874e+01	1.115744e+03
1.870000e-06	4.890258e-06	1.704609e-08	3.525889e+01	1.112765e+03
1.880000e-06	4.849752e-06	1.686626e-08	3.496683e+01	1.109523e+03
1.890000e-06	4.807540e-06	1.692142e-08	3.466249e+01	1.106032e+03
1.900000e-06	4.763674e-06	1.681199e-08	3.434621e+01	1.102318e+03
1.910000e-06	4.718062e-06	1.665608e-08	3.401734e+01	1.098405e+03
1.920000e-06	4.670380e-06	1.677932e-08	3.367356e+01	1.094315e+03
1.930000e-06	4.621089e-06	1.662121e-08	3.331817e+01	1.090058e+03
1.940000e-06	4.570125e-06	1.657592e-08	3.295072e+01	1.085631e+03
1.950000e-06	4.516995e-06	1.652532e-08	3.256765e+01	1.081022e+03
1.960000e-06	4.461976e-06	1.639083e-08	3.217096e+01	1.076212e+03
1.970000e-06	4.405330e-06	1.639024e-08	3.176254e+01	1.071180e+03
1.980000e-06	4.347112e-06	1.620719e-08	3.134279e+01	1.065911e+03
1.990000e-06	4.287531e-06	1.618255e-08	3.091321e+01	1.060393e+03
2.000000e-06	4.226493e-06	1.615302e-08	3.047312e+01	1.054625e+03
2.010000e-06	4.163762e-06	1.600693e-08	3.002083e+01	1.048611e+03
2.020000e-06	4.099384e-06	1.592921e-08	2.955666e+01	1.042356e+03
2.030000e-06	4.033597e-06	1.576480e-08	2.908234e+01	1.035868e+03
2.040000e-06	3.966540e-06	1.573292e-08	2.859886e+01	1.029148e+03
2.050000e-06	3.898076e-06	1.562359e-08	2.810522e+01	1.022191e+03
2.060000e-06	3.827935e-06	1.548841e-08	2.759951e+01	1.014986e+03
2.070000e-06	3.756344e-06	1.542414e-08	2.708334e+01	1.007520e+03
2.080000e-06	3.683609e-06	1.526074e-08	2.655891e+01	9.997768e+02
2.090000e-06	3.609539e-06	1.515328e-08	2.602486e+01	9.917410e+02
2.100000e-06	3.534108e-06	1.500857e-08	2.548101e+01	9.834009e+02
2.110000e-06	3.457156e-06	1.489786e-08	2.492619e+01	9.747480e+02
2.120000e-06	3.378621e-06	1.477318e-08	2.435994e+01	9.657756e+02
2.130000e-06	3.298903e-06	1.460971e-08	2.378517e+01	9.564764e+02
2.140000e-06	3.218147e-06	1.448180e-08	2.320292e+01	9.468404e+02
2.150000e-06	3.136298e-06	1.431087e-08	2.261279e+01	9.368518e+02
2.160000e-06	3.053404e-06	1.416633e-08	2.201512e+01	9.264885e+02
2.170000e-06	2.969590e-06	1.400351e-08	2.141082e+01	9.157227e+02
2.180000e-06	2.884600e-06	1.383908e-08	2.079804e+01	9.045226e+02
2.190000e-06	2.798223e-06	1.366036e-08	2.017526e+01	8.928554e+02
2.200000e-06	2.710803e-06	1.346426e-08	1.954496e+01	8.806904e+02
2.210000e-06	2.622525e-06	1.328071e-08	1.890847e+01	8.680010e+02
2.220000e-06	2.533320e-06	1.307286e-08	1.826530e+01	8.547653e+02
2.230000e-06	2.443246e-06	1.286322e-08	1.761586e+01	8.409653e+02
2.240000e-06	2.352451e-06	1.264017e-08	1.696123e+01	8.265844e+02
2.250000e-06	2.260999e-06	1.242438e-08	1.630186e+01	8.116046e+02
2.260000e-06	2.168822e-06	1.219268e-08	1.563726e+01	7.960033e+02
2.270000e-06	2.075701e-06	1.194217e-08	1.496585e+01	7.797511e+02
2.280000e-06	1.981542e-06	1.168371e-08	1.428697e+01	7.628111e+02
2.290000e-06	1.886485e-06	1.141132e-08	1.360161e+01	7.451395e+02
2.300000e-06	1.790778e-06	1.113045e-08	1.291155e+01	7.266872e+02
2.310000e-06	1.694583e-06	1.083539e-08	1.221799e+01	7.074026e+02
2.320000e-06	1.597911e-06	1.053383e-08	1.152098e+01	6.872339e+02
2.330000e-06	1.500654e-06	1.021667e-08	1.081975e+01	6.661314e+02
2.340000e-06	1.402847e-06	9.881002e-09	1.011456e+01	6.440487e+02
2.350000e-06	1.304611e-06	9.524545e-09	9.406277e+00	6.209440e+02
2.360000e-06	1.205973e-06	9.156222e-09	8.695095e+00	5.967808e+02
2.370000e-06	1.107031e-06	8.777505e-09	7.981724e+00	5.715299e+02
2.380000e-06	1.007825e-06	8.380557e-09	7.266441e+00	5.451719e+02
2.390000e-06	9.083874e-07	7.961505e-09	6.549496e+00	5.177012e+02
2.400000e-06	8.087332e-07	7.520010e-09	5.830987e+00	4.891307e+02
2.410000e-06	7.087927e-07	7.064982e-09	5.110414e+00	4.594969e+02
2.420000e-06	6.086145e-07	6.594950e-09	4.388126e+00	4.288638e+02
2.430000e-06	5.082809e-07	6.112435e-09	3.664718e+00	3.973247e+02
2.440000e-06	4.078219e-07	5.624545e-09	2.940407e+00	3.650009e+02
2.450000e-06	3.071924e-07	5.128760e-09	2.214865e+00	3.320359e+02
2.460000e-06	2.063721e-07	4.615535e-09	1.487948e+00	2.985870e+02
2.470000e-06	1.054263e-07	4.091562e-09	7.601266e-01	2.648126e+02
2.480000e-06	4.399076e-09	3.570308e-09	3.171745e-02	2.308586e+02
2.490000e-06	-9.665849e-08	3.049963e-09	-6.969102e-01	1.968451e+02
2.500000e-06	-1.976532e-07	2.527220e-09	-1.425085e+00	1.628544e+02
2.510000e-06	-2.985658e-07	2.004770e-09	-2.152667e+00	1.289239e+02
2.520000e-06	-3.994858e-07	1.484682e-09	-2.880303e+00	9.504211e+01
2.530000e-06	-5.002767e-07	9.648340e-10	-3.607008e+00	6.115234e+01
2.540000e-06	-6.008122e-07	4.452206e-10	-4.331871e+00	2.716003e+01
2.550000e-06	-7.011264e-07	-7.867802e-11	-5.055139e+00	-7.054430e+00
2.560000e-06	-8.012058e-07	-6.086224e-10	-5.776714e+00	-4.161974e+01
2.570000e-06	-9.009659e-07	-1.146593e-09	-6.495987e+00	-7.665614e+01
2.580000e-06	-1.000351e-06	-1.692601e-09	-7.212555e+00	-1.122579e+02
2.590000e-06	-1.099383e-06	-2.246562e-09	-7.926581e+00	-1.484780e+02
2.600000e-06	-1.198081e-06	-2.811852e-09	-8.638192e+00	-1.853159e+02
2.610000e-06	-1.296452e-06	-3.383656e-09	-9.347453e+00	-2.227110e+02
2.620000e-06	-1.394336e-06	-3.960027e-09	-1.005320e+01	-2.605412e+02
2.630000e-06	-1.491628e-06	-4.541857e-09	-1.075468e+01	-2.986275e+02
2.640000e-06	-1.588420e-06	-5.124495e-09	-1.145255e+01	-3.367449e+02
2.650000e-06	-1.684763e-06	-5.702410e-09	-1.214719e+01	-3.746374e+02
2.660000e-06	-1.780629e-06	-6.273796e-09	-1.283838e+01	-4.120363e+02
2.670000e-06	-1.875923e-06	-6.838295e-09	-1.352545e+01	-4.486798e+02
2.680000e-06	-1.970541e-06	-7.388026e-09	-1.420765e+01	-4.843307e+02
2.690000e-06	-2.064326e-06	-7.914948e-09	-1.488385e+01	-5.187919e+02
2.700000e-06	-2.157130e-06	-8.419091e-09	-1.555296e+01	-5.519163e+02
2.710000e-06	-2.248964e-06	-8.903269e-09	-1.621508e+01	-5.836107e+02
2.720000e-06	-2.339999e-06	-9.366738e-09	-1.687145e+01	-6.138340e+02
2.730000e-06	-2.430301e-06	-9.806342e-09	-1.752253e+01	-6.425903e+02
2.740000e-06	-2.519730e-06	-1.022403e-08	-1.816732e+01	-6.699178e+02
2.750000e-06	-2.608280e-06	-1.062306e-08	-1.880576e+01	-6.958770e+02
2.760000e-06	-2.696010e-06	-1.100418e-08	-1.943830e+01	-7.205384e+02
2.770000e-06	-2.782910e-06	-1.136375e-08	-2.006485e+01	-7.439732e+02
2.780000e-06	-2.868802e-06	-1.170327e-08	-2.068413e+01	-7.662470e+02
2.790000e-06	-2.953500e-06	-1.202533e-08	-2.129481e+01	-7.874172e+02
2.800000e-06	-3.037095e-06	-1.233197e-08	-2.189753e+01	-8.075337e+02
2.810000e-06	-3.119705e-06	-1.262461e-08	-2.249315e+01	-8.266415e+02
2.820000e-06	-3.201314e-06	-1.290187e-08	-2.308155e+01	-8.447842e+02
2.830000e-06	-3.281869e-06	-1.316428e-08	-2.366236e+01	-8.620070e+02
2.840000e-06	-3.361297e-06	-1.341387e-08	-2.423504e+01	-8.783583e+02
2.850000e-06	-3.439483e-06	-1.365343e-08	-2.479876e+01	-8.938889e+02
2.860000e-06	-3.516210e-06	-1.388299e-08	-2.535196e+01	-9.086508e+02
2.870000e-06	-3.591433e-06	-1.410136e-08	-2.589432e+01	-9.226942e+02
2.880000e-06	-3.665266e-06	-1.430816e-08	-2.642666e+01	-9.360647e+02
2.890000e-06	-3.737826e-06	-1.450485e-08	-2.694982e+01	-9.488012e+02
2.900000e-06	-3.809161e-06	-1.469123e-08	-2.746415e+01	-9.609356e+02
2.910000e-06	-3.879042e-06	-1.486706e-08	-2.796799e+01	-9.724931e+02
2.920000e-06	-3.947340e-06	-1.503368e-08	-2.846042e+01	-9.834940e+02
2.930000e-06	-4.014182e-06	-1.519257e-08	-2.894236e+01	-9.939560e+02
2.940000e-06	-4.079653e-06	-1.534517e-08	-2.941440e+01	-1.003896e+03
