# Temperatura_=_52.76
# Concentracion g/m^3_=_28200.0
# C_Vs_to_Am_M_A/Vsm_=_65563218390.804596
# pendiente_HvsI_1/m_=_3716.3
# ordenada_HvsI_A/m_=_1297.0
# frecuencia_Hz_=_301749.0322839341

Tiempo_(s)	Campo_(V.s)	Magnetizacion_(V.s)	Campo_(kA/m)	Magnetizacion_(A/m)
0.000000e+00	-5.331044e-06	-2.123480e-08	-3.829659e+01	-1.389413e+03
1.000000e-08	-5.328774e-06	-2.123303e-08	-3.828029e+01	-1.389073e+03
2.000000e-08	-5.324673e-06	-2.122375e-08	-3.825083e+01	-1.388595e+03
3.000000e-08	-5.319017e-06	-2.121539e-08	-3.821020e+01	-1.387968e+03
4.000000e-08	-5.311809e-06	-2.120704e-08	-3.815842e+01	-1.387174e+03
5.000000e-08	-5.302879e-06	-2.119041e-08	-3.809427e+01	-1.386196e+03
6.000000e-08	-5.291903e-06	-2.116629e-08	-3.801542e+01	-1.385019e+03
7.000000e-08	-5.279015e-06	-2.112986e-08	-3.792284e+01	-1.383637e+03
8.000000e-08	-5.264195e-06	-2.110050e-08	-3.781638e+01	-1.382057e+03
9.000000e-08	-5.247135e-06	-2.114763e-08	-3.769382e+01	-1.380296e+03
1.000000e-07	-5.227925e-06	-2.113850e-08	-3.755582e+01	-1.378381e+03
1.100000e-07	-5.206808e-06	-2.104771e-08	-3.740412e+01	-1.376344e+03
1.200000e-07	-5.183905e-06	-2.101104e-08	-3.723959e+01	-1.374216e+03
1.300000e-07	-5.159442e-06	-2.090085e-08	-3.706386e+01	-1.372020e+03
1.400000e-07	-5.133449e-06	-2.083063e-08	-3.687713e+01	-1.369766e+03
1.500000e-07	-5.105810e-06	-2.099342e-08	-3.667858e+01	-1.367449e+03
1.600000e-07	-5.076661e-06	-2.084040e-08	-3.646919e+01	-1.365051e+03
1.700000e-07	-5.046087e-06	-2.073078e-08	-3.624955e+01	-1.362540e+03
1.800000e-07	-5.013675e-06	-2.087142e-08	-3.601671e+01	-1.359877e+03
1.900000e-07	-4.979148e-06	-2.064827e-08	-3.576868e+01	-1.357023e+03
2.000000e-07	-4.943034e-06	-2.059954e-08	-3.550925e+01	-1.353943e+03
2.100000e-07	-4.905349e-06	-2.070401e-08	-3.523853e+01	-1.350610e+03
2.200000e-07	-4.865872e-06	-2.053262e-08	-3.495494e+01	-1.347008e+03
2.300000e-07	-4.824566e-06	-2.048492e-08	-3.465821e+01	-1.343134e+03
2.400000e-07	-4.781264e-06	-2.043459e-08	-3.434714e+01	-1.338993e+03
2.500000e-07	-4.736180e-06	-2.029252e-08	-3.402327e+01	-1.334597e+03
2.600000e-07	-4.689367e-06	-2.031230e-08	-3.368698e+01	-1.329960e+03
2.700000e-07	-4.640637e-06	-2.021248e-08	-3.333692e+01	-1.325095e+03
2.800000e-07	-4.589796e-06	-2.009191e-08	-3.297170e+01	-1.320009e+03
2.900000e-07	-4.536903e-06	-2.002313e-08	-3.259173e+01	-1.314705e+03
3.000000e-07	-4.482302e-06	-1.993124e-08	-3.219949e+01	-1.309179e+03
3.100000e-07	-4.426142e-06	-1.985718e-08	-3.179605e+01	-1.303422e+03
3.200000e-07	-4.368226e-06	-1.978069e-08	-3.138000e+01	-1.297423e+03
3.300000e-07	-4.308595e-06	-1.970051e-08	-3.095164e+01	-1.291167e+03
3.400000e-07	-4.247510e-06	-1.956958e-08	-3.051282e+01	-1.284643e+03
3.500000e-07	-4.185020e-06	-1.945383e-08	-3.006391e+01	-1.277842e+03
3.600000e-07	-4.121153e-06	-1.934551e-08	-2.960511e+01	-1.270756e+03
3.700000e-07	-4.055816e-06	-1.923272e-08	-2.913575e+01	-1.263382e+03
3.800000e-07	-3.988834e-06	-1.915973e-08	-2.865457e+01	-1.255718e+03
3.900000e-07	-3.920355e-06	-1.902515e-08	-2.816263e+01	-1.247761e+03
4.000000e-07	-3.850554e-06	-1.886346e-08	-2.766120e+01	-1.239509e+03
4.100000e-07	-3.779479e-06	-1.874596e-08	-2.715062e+01	-1.230955e+03
4.200000e-07	-3.707216e-06	-1.861019e-08	-2.663151e+01	-1.222090e+03
4.300000e-07	-3.633542e-06	-1.847249e-08	-2.610226e+01	-1.212902e+03
4.400000e-07	-3.558264e-06	-1.832601e-08	-2.556148e+01	-1.203375e+03
4.500000e-07	-3.481549e-06	-1.817237e-08	-2.501039e+01	-1.193491e+03
4.600000e-07	-3.403510e-06	-1.800179e-08	-2.444978e+01	-1.183234e+03
4.700000e-07	-3.324071e-06	-1.783687e-08	-2.387911e+01	-1.172585e+03
4.800000e-07	-3.243280e-06	-1.768966e-08	-2.329874e+01	-1.161526e+03
4.900000e-07	-3.161325e-06	-1.751627e-08	-2.270999e+01	-1.150042e+03
5.000000e-07	-3.078341e-06	-1.733287e-08	-2.211386e+01	-1.138116e+03
5.100000e-07	-2.994430e-06	-1.713519e-08	-2.151107e+01	-1.125730e+03
5.200000e-07	-2.909622e-06	-1.693238e-08	-2.090184e+01	-1.112866e+03
5.300000e-07	-2.823861e-06	-1.672304e-08	-2.028576e+01	-1.099500e+03
5.400000e-07	-2.737158e-06	-1.651013e-08	-1.966291e+01	-1.085604e+03
5.500000e-07	-2.649616e-06	-1.629588e-08	-1.903403e+01	-1.071146e+03
5.600000e-07	-2.561121e-06	-1.606234e-08	-1.839831e+01	-1.056091e+03
5.700000e-07	-2.471427e-06	-1.581842e-08	-1.775398e+01	-1.040398e+03
5.800000e-07	-2.380630e-06	-1.556931e-08	-1.710172e+01	-1.024027e+03
5.900000e-07	-2.288973e-06	-1.531647e-08	-1.644329e+01	-1.006940e+03
6.000000e-07	-2.196503e-06	-1.504489e-08	-1.577901e+01	-9.890955e+02
6.100000e-07	-2.103226e-06	-1.475723e-08	-1.510894e+01	-9.704569e+02
6.200000e-07	-2.009175e-06	-1.445632e-08	-1.443330e+01	-9.509860e+02
6.300000e-07	-1.914402e-06	-1.413930e-08	-1.375248e+01	-9.306431e+02
6.400000e-07	-1.819040e-06	-1.381269e-08	-1.306743e+01	-9.093840e+02
6.500000e-07	-1.723176e-06	-1.347455e-08	-1.237877e+01	-8.871571e+02
6.600000e-07	-1.626670e-06	-1.312109e-08	-1.168550e+01	-8.639011e+02
6.700000e-07	-1.529388e-06	-1.274738e-08	-1.098666e+01	-8.395442e+02
6.800000e-07	-1.431431e-06	-1.235452e-08	-1.028296e+01	-8.140042e+02
6.900000e-07	-1.332888e-06	-1.194392e-08	-9.575059e+00	-7.871912e+02
7.000000e-07	-1.233821e-06	-1.151534e-08	-8.863398e+00	-7.590121e+02
7.100000e-07	-1.134331e-06	-1.106407e-08	-8.148691e+00	-7.293767e+02
7.200000e-07	-1.034517e-06	-1.058785e-08	-7.431657e+00	-6.982057e+02
7.300000e-07	-9.344701e-07	-1.008579e-08	-6.712949e+00	-6.654392e+02
7.400000e-07	-8.341963e-07	-9.559191e-09	-5.992612e+00	-6.310453e+02
7.500000e-07	-7.336478e-07	-9.010464e-09	-5.270302e+00	-5.950273e+02
7.600000e-07	-6.328453e-07	-8.436555e-09	-4.546168e+00	-5.574299e+02
7.700000e-07	-5.318726e-07	-7.840183e-09	-3.820811e+00	-5.183422e+02
7.800000e-07	-4.307757e-07	-7.225200e-09	-3.094561e+00	-4.778966e+02
7.900000e-07	-3.295052e-07	-6.592424e-09	-2.367065e+00	-4.362641e+02
8.000000e-07	-2.280834e-07	-5.942736e-09	-1.638482e+00	-3.936447e+02
8.100000e-07	-1.265693e-07	-5.281323e-09	-9.092350e-01	-3.502530e+02
8.200000e-07	-2.491603e-08	-4.613626e-09	-1.789892e-01	-3.063009e+02
8.300000e-07	7.681067e-08	-3.940890e-09	5.517845e-01	-2.619777e+02
8.400000e-07	1.784912e-07	-3.263875e-09	1.282227e+00	-2.174315e+02
8.500000e-07	2.800401e-07	-2.585351e-09	2.011723e+00	-1.727524e+02
8.600000e-07	3.814847e-07	-1.907186e-09	2.740470e+00	-1.279624e+02
8.700000e-07	4.828868e-07	-1.227340e-09	3.468912e+00	-8.301373e+01
8.800000e-07	5.841873e-07	-5.433338e-10	4.196624e+00	-3.779592e+01
8.900000e-07	6.853168e-07	1.507001e-10	4.923107e+00	7.846134e+00
9.000000e-07	7.862010e-07	8.559268e-10	5.647829e+00	5.408605e+01
9.100000e-07	8.868120e-07	1.572967e-09	6.370587e+00	1.010841e+02
9.200000e-07	9.871405e-07	2.302702e-09	7.091316e+00	1.489540e+02
9.300000e-07	1.087174e-06	3.044481e-09	7.809929e+00	1.977330e+02
9.400000e-07	1.186895e-06	3.799613e-09	8.526289e+00	2.473598e+02
9.500000e-07	1.286236e-06	4.564599e-09	9.239929e+00	2.976652e+02
9.600000e-07	1.385121e-06	5.335059e-09	9.950284e+00	3.483753e+02
9.700000e-07	1.483389e-06	6.106513e-09	1.065621e+01	3.991295e+02
9.800000e-07	1.580821e-06	6.872927e-09	1.135614e+01	4.495090e+02
9.900000e-07	1.677401e-06	7.626378e-09	1.204994e+01	4.990737e+02
1.000000e-06	1.773294e-06	8.361098e-09	1.273881e+01	5.473996e+02
1.010000e-06	1.868603e-06	9.072363e-09	1.342347e+01	5.941143e+02
1.020000e-06	1.963305e-06	9.752310e-09	1.410379e+01	6.389228e+02
1.030000e-06	2.057336e-06	1.039784e-08	1.477927e+01	6.816235e+02
1.040000e-06	2.150642e-06	1.100946e-08	1.544956e+01	7.221103e+02
1.050000e-06	2.243222e-06	1.158754e-08	1.611463e+01	7.603644e+02
1.060000e-06	2.335173e-06	1.213299e-08	1.677517e+01	7.964368e+02
1.070000e-06	2.426497e-06	1.264897e-08	1.743121e+01	8.304270e+02
1.080000e-06	2.516939e-06	1.313547e-08	1.808092e+01	8.624603e+02
1.090000e-06	2.606110e-06	1.359647e-08	1.872150e+01	8.926693e+02
1.100000e-06	2.694143e-06	1.403074e-08	1.935390e+01	9.211799e+02
1.110000e-06	2.781306e-06	1.443922e-08	1.998005e+01	9.481050e+02
1.120000e-06	2.867538e-06	1.482395e-08	2.059952e+01	9.735427e+02
1.130000e-06	2.952832e-06	1.518892e-08	2.121225e+01	9.975796e+02
1.140000e-06	3.037230e-06	1.553454e-08	2.181854e+01	1.020296e+03
1.150000e-06	3.120835e-06	1.585836e-08	2.241912e+01	1.041770e+03
1.160000e-06	3.203397e-06	1.616529e-08	2.301222e+01	1.062079e+03
1.170000e-06	3.284629e-06	1.645703e-08	2.359578e+01	1.081303e+03
1.180000e-06	3.364675e-06	1.673475e-08	2.417080e+01	1.099520e+03
1.190000e-06	3.443540e-06	1.699754e-08	2.473734e+01	1.116804e+03
1.200000e-06	3.521202e-06	1.724828e-08	2.529525e+01	1.133219e+03
1.210000e-06	3.597729e-06	1.748537e-08	2.584499e+01	1.148821e+03
1.220000e-06	3.672913e-06	1.770847e-08	2.638509e+01	1.163658e+03
1.230000e-06	3.746368e-06	1.792012e-08	2.691277e+01	1.177767e+03
1.240000e-06	3.818268e-06	1.812041e-08	2.742927e+01	1.191181e+03
1.250000e-06	3.888878e-06	1.831100e-08	2.793652e+01	1.203933e+03
1.260000e-06	3.958065e-06	1.849522e-08	2.843353e+01	1.216054e+03
1.270000e-06	4.026025e-06	1.867234e-08	2.892173e+01	1.227579e+03
1.280000e-06	4.092564e-06	1.884155e-08	2.939974e+01	1.238541e+03
1.290000e-06	4.157345e-06	1.900178e-08	2.986510e+01	1.248974e+03
1.300000e-06	4.220580e-06	1.915334e-08	3.031936e+01	1.258905e+03
1.310000e-06	4.282377e-06	1.929699e-08	3.076329e+01	1.268355e+03
1.320000e-06	4.342825e-06	1.943363e-08	3.119753e+01	1.277334e+03
1.330000e-06	4.401938e-06	1.956445e-08	3.162218e+01	1.285849e+03
1.340000e-06	4.459311e-06	1.968773e-08	3.203433e+01	1.293901e+03
1.350000e-06	4.514862e-06	1.980238e-08	3.243339e+01	1.301493e+03
1.360000e-06	4.568810e-06	1.990980e-08	3.282094e+01	1.308635e+03
1.370000e-06	4.621055e-06	2.001122e-08	3.319625e+01	1.315344e+03
1.380000e-06	4.671304e-06	2.010763e-08	3.355723e+01	1.321650e+03
1.390000e-06	4.719585e-06	2.019791e-08	3.390406e+01	1.327591e+03
1.400000e-06	4.766208e-06	2.028261e-08	3.423898e+01	1.333209e+03
1.410000e-06	4.811273e-06	2.036329e-08	3.456272e+01	1.338547e+03
1.420000e-06	4.854831e-06	2.044013e-08	3.487563e+01	1.343639e+03
1.430000e-06	4.896568e-06	2.051344e-08	3.517545e+01	1.348507e+03
1.440000e-06	4.936379e-06	2.058291e-08	3.546144e+01	1.353160e+03
1.450000e-06	4.974543e-06	2.064932e-08	3.573560e+01	1.357589e+03
1.460000e-06	5.011133e-06	2.071254e-08	3.599845e+01	1.361779e+03
1.470000e-06	5.046018e-06	2.077211e-08	3.624905e+01	1.365707e+03
1.480000e-06	5.078972e-06	2.082734e-08	3.648579e+01	1.369352e+03
1.490000e-06	5.110125e-06	2.087772e-08	3.670958e+01	1.372704e+03
1.500000e-06	5.139593e-06	2.092313e-08	3.692127e+01	1.375757e+03
1.510000e-06	5.167405e-06	2.096456e-08	3.712107e+01	1.378523e+03
1.520000e-06	5.193284e-06	2.100266e-08	3.730697e+01	1.381019e+03
1.530000e-06	5.217017e-06	2.103828e-08	3.747746e+01	1.383268e+03
1.540000e-06	5.238879e-06	2.107120e-08	3.763451e+01	1.385294e+03
1.550000e-06	5.259075e-06	2.109955e-08	3.777959e+01	1.387113e+03
1.560000e-06	5.277447e-06	2.112441e-08	3.791157e+01	1.388737e+03
1.570000e-06	5.293823e-06	2.114412e-08	3.802921e+01	1.390167e+03
1.580000e-06	5.308319e-06	2.115906e-08	3.813335e+01	1.391400e+03
1.590000e-06	5.320879e-06	2.117229e-08	3.822358e+01	1.392429e+03
1.600000e-06	5.331250e-06	2.118465e-08	3.829808e+01	1.393248e+03
1.610000e-06	5.339481e-06	2.119595e-08	3.835720e+01	1.393858e+03
1.620000e-06	5.345816e-06	2.120601e-08	3.840271e+01	1.394267e+03
1.630000e-06	5.350387e-06	2.121248e-08	3.843555e+01	1.394487e+03
1.640000e-06	5.353086e-06	2.121477e-08	3.845494e+01	1.394538e+03
1.650000e-06	5.353791e-06	2.121644e-08	3.846000e+01	1.394434e+03
1.660000e-06	5.352667e-06	2.121066e-08	3.845193e+01	1.394191e+03
1.670000e-06	5.349825e-06	2.120040e-08	3.843151e+01	1.393811e+03
1.680000e-06	5.345327e-06	2.119543e-08	3.839920e+01	1.393291e+03
1.690000e-06	5.339003e-06	2.118656e-08	3.835377e+01	1.392617e+03
1.700000e-06	5.330843e-06	2.117331e-08	3.829515e+01	1.391771e+03
1.710000e-06	5.321099e-06	2.115941e-08	3.822515e+01	1.390737e+03
1.720000e-06	5.309690e-06	2.115530e-08	3.814319e+01	1.389501e+03
1.730000e-06	5.296351e-06	2.115679e-08	3.804737e+01	1.388060e+03
1.740000e-06	5.280988e-06	2.104432e-08	3.793701e+01	1.386425e+03
1.750000e-06	5.263442e-06	2.098139e-08	3.781096e+01	1.384616e+03
1.760000e-06	5.243356e-06	2.101949e-08	3.766667e+01	1.382662e+03
1.770000e-06	5.220784e-06	2.100028e-08	3.750452e+01	1.380596e+03
1.780000e-06	5.196454e-06	2.109778e-08	3.732974e+01	1.378446e+03
1.790000e-06	5.171321e-06	2.099096e-08	3.714919e+01	1.376232e+03
1.800000e-06	5.145294e-06	2.076597e-08	3.696222e+01	1.373960e+03
1.810000e-06	5.117280e-06	2.096428e-08	3.676098e+01	1.371622e+03
1.820000e-06	5.087189e-06	2.084803e-08	3.654481e+01	1.369194e+03
1.830000e-06	5.055486e-06	2.068461e-08	3.631707e+01	1.366643e+03
1.840000e-06	5.021885e-06	2.094247e-08	3.607569e+01	1.363928e+03
1.850000e-06	4.986630e-06	2.074657e-08	3.582243e+01	1.361012e+03
1.860000e-06	4.949789e-06	2.061320e-08	3.555777e+01	1.357861e+03
1.870000e-06	4.910913e-06	2.073329e-08	3.527850e+01	1.354451e+03
1.880000e-06	4.870366e-06	2.053212e-08	3.498723e+01	1.350771e+03
1.890000e-06	4.828144e-06	2.059301e-08	3.468392e+01	1.346819e+03
1.900000e-06	4.784169e-06	2.052548e-08	3.436801e+01	1.342603e+03
1.910000e-06	4.738520e-06	2.029584e-08	3.404008e+01	1.338136e+03
1.920000e-06	4.690889e-06	2.043722e-08	3.369792e+01	1.333432e+03
1.930000e-06	4.641568e-06	2.028960e-08	3.334361e+01	1.328502e+03
1.940000e-06	4.590579e-06	2.019213e-08	3.297732e+01	1.323353e+03
1.950000e-06	4.537445e-06	2.017716e-08	3.259563e+01	1.317985e+03
1.960000e-06	4.482376e-06	2.001659e-08	3.220002e+01	1.312394e+03
1.970000e-06	4.425628e-06	1.998935e-08	3.179237e+01	1.306568e+03
1.980000e-06	4.367321e-06	1.980703e-08	3.137350e+01	1.300496e+03
1.990000e-06	4.307626e-06	1.974471e-08	3.094467e+01	1.294164e+03
2.000000e-06	4.246450e-06	1.971940e-08	3.050520e+01	1.287561e+03
2.010000e-06	4.183653e-06	1.955811e-08	3.005409e+01	1.280678e+03
2.020000e-06	4.119170e-06	1.947284e-08	2.959086e+01	1.273509e+03
2.030000e-06	4.053217e-06	1.928547e-08	2.911708e+01	1.266052e+03
2.040000e-06	3.985997e-06	1.922431e-08	2.863419e+01	1.258303e+03
2.050000e-06	3.917363e-06	1.912089e-08	2.814114e+01	1.250262e+03
2.060000e-06	3.847159e-06	1.894937e-08	2.763682e+01	1.241923e+03
2.070000e-06	3.775476e-06	1.887679e-08	2.712187e+01	1.233280e+03
2.080000e-06	3.702523e-06	1.870062e-08	2.659780e+01	1.224324e+03
2.090000e-06	3.628272e-06	1.856685e-08	2.606440e+01	1.215039e+03
2.100000e-06	3.552629e-06	1.841437e-08	2.552100e+01	1.205412e+03
2.110000e-06	3.475509e-06	1.827872e-08	2.496700e+01	1.195423e+03
2.120000e-06	3.396917e-06	1.813741e-08	2.440242e+01	1.185054e+03
2.130000e-06	3.317092e-06	1.793754e-08	2.382898e+01	1.174289e+03
2.140000e-06	3.236139e-06	1.778301e-08	2.324744e+01	1.163109e+03
2.150000e-06	3.154116e-06	1.759280e-08	2.265820e+01	1.151500e+03
2.160000e-06	3.071066e-06	1.742035e-08	2.206161e+01	1.139443e+03
2.170000e-06	2.986992e-06	1.723657e-08	2.145764e+01	1.126922e+03
2.180000e-06	2.901747e-06	1.704601e-08	2.084527e+01	1.113917e+03
2.190000e-06	2.815202e-06	1.684281e-08	2.022355e+01	1.100401e+03
2.200000e-06	2.727587e-06	1.661188e-08	1.959416e+01	1.086348e+03
2.210000e-06	2.639090e-06	1.640141e-08	1.895842e+01	1.071722e+03
2.220000e-06	2.549695e-06	1.617202e-08	1.831623e+01	1.056487e+03
2.230000e-06	2.459359e-06	1.592973e-08	1.766729e+01	1.040604e+03
2.240000e-06	2.368268e-06	1.566674e-08	1.701291e+01	1.024032e+03
2.250000e-06	2.276512e-06	1.540782e-08	1.635376e+01	1.006731e+03
2.260000e-06	2.183982e-06	1.513790e-08	1.568906e+01	9.886632e+02
2.270000e-06	2.090443e-06	1.484946e-08	1.501711e+01	9.697898e+02
2.280000e-06	1.995871e-06	1.455445e-08	1.433773e+01	9.500732e+02
2.290000e-06	1.900546e-06	1.424231e-08	1.365294e+01	9.294725e+02
2.300000e-06	1.804638e-06	1.391535e-08	1.296397e+01	9.079416e+02
2.310000e-06	1.708216e-06	1.356894e-08	1.227130e+01	8.854265e+02
2.320000e-06	1.611252e-06	1.321304e-08	1.157475e+01	8.618630e+02
2.330000e-06	1.513760e-06	1.284151e-08	1.087439e+01	8.371760e+02
2.340000e-06	1.415718e-06	1.244836e-08	1.017008e+01	8.112809e+02
2.350000e-06	1.317170e-06	1.203057e-08	9.462145e+00	7.840862e+02
2.360000e-06	1.218248e-06	1.159374e-08	8.751519e+00	7.554991e+02
2.370000e-06	1.119037e-06	1.114031e-08	8.038820e+00	7.254315e+02
2.380000e-06	1.019624e-06	1.066475e-08	7.324670e+00	6.938089e+02
2.390000e-06	9.200159e-07	1.016133e-08	6.609114e+00	6.605784e+02
2.400000e-06	8.201794e-07	9.626742e-09	5.891919e+00	6.257175e+02
2.410000e-06	7.200785e-07	9.068177e-09	5.172825e+00	5.892410e+02
2.420000e-06	6.196001e-07	8.484162e-09	4.451019e+00	5.512059e+02
2.430000e-06	5.187718e-07	7.877663e-09	3.726698e+00	5.117140e+02
2.440000e-06	4.177769e-07	7.257572e-09	3.001182e+00	4.709096e+02
2.450000e-06	3.166696e-07	6.623957e-09	2.274858e+00	4.289730e+02
2.460000e-06	2.154106e-07	5.970479e-09	1.547444e+00	3.861099e+02
2.470000e-06	1.139524e-07	5.300394e-09	8.185995e-01	3.425363e+02
2.480000e-06	1.232057e-08	4.625012e-09	8.850723e-02	2.984594e+02
2.490000e-06	-8.938956e-08	3.945849e-09	-6.421473e-01	2.540589e+02
2.500000e-06	-1.911126e-07	3.261516e-09	-1.372895e+00	2.094674e+02
2.510000e-06	-2.927463e-07	2.574505e-09	-2.103000e+00	1.647567e+02
2.520000e-06	-3.942164e-07	1.885965e-09	-2.831931e+00	1.199284e+02
2.530000e-06	-4.955225e-07	1.194890e-09	-3.559682e+00	7.491558e+01
2.540000e-06	-5.965995e-07	5.005094e-10	-4.285789e+00	2.959291e+01
2.550000e-06	-6.972823e-07	-2.007133e-10	-5.009063e+00	-1.620304e+01
2.560000e-06	-7.975809e-07	-9.116004e-10	-5.729578e+00	-6.264548e+01
2.570000e-06	-8.975955e-07	-1.634504e-09	-6.448053e+00	-1.098847e+02
2.580000e-06	-9.973425e-07	-2.368907e-09	-7.164605e+00	-1.580154e+02
2.590000e-06	-1.096813e-06	-3.115481e-09	-7.879173e+00	-2.070483e+02
2.600000e-06	-1.195985e-06	-3.876899e-09	-8.591590e+00	-2.568919e+02
2.610000e-06	-1.294790e-06	-4.647529e-09	-9.301374e+00	-3.073459e+02
2.620000e-06	-1.393086e-06	-5.422311e-09	-1.000751e+01	-3.581095e+02
2.630000e-06	-1.490811e-06	-6.198689e-09	-1.070953e+01	-4.088018e+02
2.640000e-06	-1.588037e-06	-6.970080e-09	-1.140798e+01	-4.589943e+02
2.650000e-06	-1.684752e-06	-7.726466e-09	-1.210275e+01	-5.082475e+02
2.660000e-06	-1.780893e-06	-8.459442e-09	-1.279339e+01	-5.561489e+02
2.670000e-06	-1.876530e-06	-9.168078e-09	-1.348042e+01	-6.023460e+02
2.680000e-06	-1.971665e-06	-9.847752e-09	-1.416384e+01	-6.465695e+02
2.690000e-06	-2.065984e-06	-1.049229e-08	-1.484140e+01	-6.886453e+02
2.700000e-06	-2.159161e-06	-1.110239e-08	-1.551076e+01	-7.284935e+02
2.710000e-06	-2.251311e-06	-1.167983e-08	-1.617273e+01	-7.661173e+02
2.720000e-06	-2.342763e-06	-1.222700e-08	-1.682970e+01	-8.015839e+02
2.730000e-06	-2.433500e-06	-1.274181e-08	-1.748152e+01	-8.350024e+02
2.740000e-06	-2.523330e-06	-1.322470e-08	-1.812684e+01	-8.665019e+02
2.750000e-06	-2.612210e-06	-1.368029e-08	-1.876532e+01	-8.962141e+02
2.760000e-06	-2.700229e-06	-1.410969e-08	-1.939762e+01	-9.242617e+02
2.770000e-06	-2.787528e-06	-1.451543e-08	-2.002475e+01	-9.507532e+02
2.780000e-06	-2.873892e-06	-1.490035e-08	-2.064517e+01	-9.757831e+02
2.790000e-06	-2.958966e-06	-1.526244e-08	-2.125631e+01	-9.994356e+02
2.800000e-06	-3.042869e-06	-1.560152e-08	-2.185904e+01	-1.021790e+03
2.810000e-06	-3.125827e-06	-1.592259e-08	-2.245499e+01	-1.042923e+03
2.820000e-06	-3.207803e-06	-1.623002e-08	-2.304388e+01	-1.062916e+03
2.830000e-06	-3.288706e-06	-1.652197e-08	-2.362506e+01	-1.081845e+03
2.840000e-06	-3.368607e-06	-1.679796e-08	-2.419904e+01	-1.099789e+03
2.850000e-06	-3.447318e-06	-1.706115e-08	-2.476448e+01	-1.116819e+03
2.860000e-06	-3.524369e-06	-1.730955e-08	-2.531799e+01	-1.132997e+03
2.870000e-06	-3.599910e-06	-1.754378e-08	-2.586066e+01	-1.148378e+03
2.880000e-06	-3.674172e-06	-1.776814e-08	-2.639413e+01	-1.163004e+03
2.890000e-06	-3.747056e-06	-1.798410e-08	-2.691771e+01	-1.176912e+03
2.900000e-06	-3.818725e-06	-1.818956e-08	-2.743256e+01	-1.190134e+03
2.910000e-06	-3.888967e-06	-1.838242e-08	-2.793715e+01	-1.202703e+03
2.920000e-06	-3.957533e-06	-1.856348e-08	-2.842971e+01	-1.214651e+03
2.930000e-06	-4.024706e-06	-1.873627e-08	-2.891226e+01	-1.226013e+03
2.940000e-06	-4.090527e-06	-1.890189e-08	-2.938510e+01	-1.236822e+03
