# Temperatura_=_86.77
# Concentracion g/m^3_=_28200.0
# C_Vs_to_Am_M_A/Vsm_=_65563218390.804596
# pendiente_HvsI_1/m_=_3716.3
# ordenada_HvsI_A/m_=_1297.0
# frecuencia_Hz_=_301741.0082541086

Tiempo_(s)	Campo_(V.s)	Magnetizacion_(V.s)	Campo_(kA/m)	Magnetizacion_(A/m)
0.000000e+00	-5.315480e-06	-2.714345e-08	-3.830225e+01	-1.776189e+03
1.000000e-08	-5.312781e-06	-2.713738e-08	-3.828279e+01	-1.775691e+03
2.000000e-08	-5.308283e-06	-2.712567e-08	-3.825038e+01	-1.774999e+03
3.000000e-08	-5.302209e-06	-2.711310e-08	-3.820662e+01	-1.774100e+03
4.000000e-08	-5.294547e-06	-2.709624e-08	-3.815140e+01	-1.772975e+03
5.000000e-08	-5.285115e-06	-2.707129e-08	-3.808344e+01	-1.771604e+03
6.000000e-08	-5.273650e-06	-2.703904e-08	-3.800082e+01	-1.769974e+03
7.000000e-08	-5.260323e-06	-2.699511e-08	-3.790479e+01	-1.768080e+03
8.000000e-08	-5.245012e-06	-2.698458e-08	-3.779447e+01	-1.765931e+03
9.000000e-08	-5.227427e-06	-2.701659e-08	-3.766775e+01	-1.763554e+03
1.000000e-07	-5.207791e-06	-2.696334e-08	-3.752626e+01	-1.760983e+03
1.100000e-07	-5.186270e-06	-2.688039e-08	-3.737118e+01	-1.758260e+03
1.200000e-07	-5.163075e-06	-2.681847e-08	-3.720404e+01	-1.755425e+03
1.300000e-07	-5.138411e-06	-2.667874e-08	-3.702632e+01	-1.752510e+03
1.400000e-07	-5.112069e-06	-2.670322e-08	-3.683651e+01	-1.749528e+03
1.500000e-07	-5.084045e-06	-2.675846e-08	-3.663458e+01	-1.746473e+03
1.600000e-07	-5.054565e-06	-2.656266e-08	-3.642215e+01	-1.743318e+03
1.700000e-07	-5.023659e-06	-2.659191e-08	-3.619944e+01	-1.740021e+03
1.800000e-07	-4.990837e-06	-2.658583e-08	-3.596294e+01	-1.736526e+03
1.900000e-07	-4.955941e-06	-2.634179e-08	-3.571148e+01	-1.732777e+03
2.000000e-07	-4.919552e-06	-2.636251e-08	-3.544927e+01	-1.728723e+03
2.100000e-07	-4.881556e-06	-2.631615e-08	-3.517548e+01	-1.724328e+03
2.200000e-07	-4.841770e-06	-2.614488e-08	-3.488879e+01	-1.719568e+03
2.300000e-07	-4.800121e-06	-2.612325e-08	-3.458868e+01	-1.714440e+03
2.400000e-07	-4.756493e-06	-2.603618e-08	-3.427430e+01	-1.708952e+03
2.500000e-07	-4.711135e-06	-2.595268e-08	-3.394746e+01	-1.703121e+03
2.600000e-07	-4.663989e-06	-2.588251e-08	-3.360774e+01	-1.696964e+03
2.700000e-07	-4.614811e-06	-2.571834e-08	-3.325337e+01	-1.690498e+03
2.800000e-07	-4.563547e-06	-2.560514e-08	-3.288397e+01	-1.683729e+03
2.900000e-07	-4.510356e-06	-2.551152e-08	-3.250069e+01	-1.676657e+03
3.000000e-07	-4.455519e-06	-2.542638e-08	-3.210554e+01	-1.669273e+03
3.100000e-07	-4.399160e-06	-2.531847e-08	-3.169943e+01	-1.661566e+03
3.200000e-07	-4.341018e-06	-2.518094e-08	-3.128048e+01	-1.653523e+03
3.300000e-07	-4.281167e-06	-2.505461e-08	-3.084920e+01	-1.645135e+03
3.400000e-07	-4.219877e-06	-2.489157e-08	-3.040756e+01	-1.636397e+03
3.500000e-07	-4.157193e-06	-2.475269e-08	-2.995587e+01	-1.627310e+03
3.600000e-07	-4.093141e-06	-2.462728e-08	-2.949432e+01	-1.617879e+03
3.700000e-07	-4.027587e-06	-2.449873e-08	-2.902196e+01	-1.608107e+03
3.800000e-07	-3.960408e-06	-2.434452e-08	-2.853788e+01	-1.597996e+03
3.900000e-07	-3.891726e-06	-2.414394e-08	-2.804297e+01	-1.587541e+03
4.000000e-07	-3.821736e-06	-2.398262e-08	-2.753864e+01	-1.576730e+03
4.100000e-07	-3.750585e-06	-2.382777e-08	-2.702594e+01	-1.565543e+03
4.200000e-07	-3.678317e-06	-2.365507e-08	-2.650519e+01	-1.553955e+03
4.300000e-07	-3.604552e-06	-2.347272e-08	-2.597365e+01	-1.541943e+03
4.400000e-07	-3.529125e-06	-2.327745e-08	-2.543014e+01	-1.529481e+03
4.500000e-07	-3.452323e-06	-2.307590e-08	-2.487672e+01	-1.516550e+03
4.600000e-07	-3.374289e-06	-2.286649e-08	-2.431442e+01	-1.503133e+03
4.700000e-07	-3.294894e-06	-2.266702e-08	-2.374232e+01	-1.489219e+03
4.800000e-07	-3.214077e-06	-2.245290e-08	-2.315997e+01	-1.474796e+03
4.900000e-07	-3.132064e-06	-2.221580e-08	-2.256900e+01	-1.459852e+03
5.000000e-07	-3.049022e-06	-2.197440e-08	-2.197062e+01	-1.444369e+03
5.100000e-07	-2.965080e-06	-2.172531e-08	-2.136575e+01	-1.428322e+03
5.200000e-07	-2.880304e-06	-2.146784e-08	-2.075487e+01	-1.411681e+03
5.300000e-07	-2.794590e-06	-2.120372e-08	-2.013724e+01	-1.394411e+03
5.400000e-07	-2.707856e-06	-2.093269e-08	-1.951225e+01	-1.376471e+03
5.500000e-07	-2.620250e-06	-2.065139e-08	-1.888098e+01	-1.357824e+03
5.600000e-07	-2.531791e-06	-2.035440e-08	-1.824356e+01	-1.338432e+03
5.700000e-07	-2.442171e-06	-2.004839e-08	-1.759778e+01	-1.318259e+03
5.800000e-07	-2.351393e-06	-1.972903e-08	-1.694365e+01	-1.297272e+03
5.900000e-07	-2.259735e-06	-1.939316e-08	-1.628318e+01	-1.275434e+03
6.000000e-07	-2.167311e-06	-1.903918e-08	-1.561719e+01	-1.252703e+03
6.100000e-07	-2.074136e-06	-1.867395e-08	-1.494579e+01	-1.229026e+03
6.200000e-07	-1.980180e-06	-1.830071e-08	-1.426877e+01	-1.204339e+03
6.300000e-07	-1.885487e-06	-1.790972e-08	-1.358643e+01	-1.178566e+03
6.400000e-07	-1.790239e-06	-1.749908e-08	-1.290009e+01	-1.151618e+03
6.500000e-07	-1.694526e-06	-1.706529e-08	-1.221040e+01	-1.123398e+03
6.600000e-07	-1.598253e-06	-1.661240e-08	-1.151668e+01	-1.093806e+03
6.700000e-07	-1.501273e-06	-1.614036e-08	-1.081786e+01	-1.062739e+03
6.800000e-07	-1.403549e-06	-1.564512e-08	-1.011368e+01	-1.030098e+03
6.900000e-07	-1.305160e-06	-1.512342e-08	-9.404709e+00	-9.957844e+02
7.000000e-07	-1.206273e-06	-1.457219e-08	-8.692155e+00	-9.597049e+02
7.100000e-07	-1.107062e-06	-1.399178e-08	-7.977255e+00	-9.217686e+02
7.200000e-07	-1.007483e-06	-1.338191e-08	-7.259717e+00	-8.818894e+02
7.300000e-07	-9.075699e-07	-1.274410e-08	-6.539761e+00	-8.399901e+02
7.400000e-07	-8.074321e-07	-1.207780e-08	-5.818188e+00	-7.960106e+02
7.500000e-07	-7.070564e-07	-1.137975e-08	-5.094902e+00	-7.499189e+02
7.600000e-07	-6.064481e-07	-1.064368e-08	-4.369939e+00	-7.017245e+02
7.700000e-07	-5.056252e-07	-9.873615e-09	-3.643430e+00	-6.514909e+02
7.800000e-07	-4.046361e-07	-9.076650e-09	-2.915723e+00	-5.993437e+02
7.900000e-07	-3.035700e-07	-8.254026e-09	-2.187462e+00	-5.454722e+02
8.000000e-07	-2.024417e-07	-7.410794e-09	-1.458753e+00	-4.901202e+02
8.100000e-07	-1.011521e-07	-6.552380e-09	-7.288810e-01	-4.335668e+02
8.200000e-07	2.187750e-10	-5.681059e-09	1.576447e-03	-3.760981e+02
8.300000e-07	1.015599e-07	-4.798215e-09	7.318196e-01	-3.179733e+02
8.400000e-07	2.028595e-07	-3.908356e-09	1.461763e+00	-2.593907e+02
8.500000e-07	3.041101e-07	-3.011892e-09	2.191354e+00	-2.004607e+02
8.600000e-07	4.053210e-07	-2.108738e-09	2.920659e+00	-1.411902e+02
8.700000e-07	5.064028e-07	-1.198737e-09	3.649033e+00	-8.148447e+01
8.800000e-07	6.073056e-07	-2.796458e-10	4.376118e+00	-2.116721e+01
8.900000e-07	7.080484e-07	6.534790e-10	5.102050e+00	3.998311e+01
9.000000e-07	8.086349e-07	1.602679e-09	5.826855e+00	1.021847e+02
9.100000e-07	9.089454e-07	2.567662e-09	6.549672e+00	1.655997e+02
9.200000e-07	1.008932e-06	3.549210e-09	7.270151e+00	2.302853e+02
9.300000e-07	1.108649e-06	4.548276e-09	7.988698e+00	2.961578e+02
9.400000e-07	1.207969e-06	5.565035e-09	8.704374e+00	3.629751e+02
9.500000e-07	1.306830e-06	6.590297e-09	9.416747e+00	4.303418e+02
9.600000e-07	1.405169e-06	7.616311e-09	1.012536e+01	4.977356e+02
9.700000e-07	1.502835e-06	8.633435e-09	1.082912e+01	5.645519e+02
9.800000e-07	1.599795e-06	9.632127e-09	1.152779e+01	6.301590e+02
9.900000e-07	1.696019e-06	1.060186e-08	1.222116e+01	6.939552e+02
1.000000e-06	1.791576e-06	1.153285e-08	1.290972e+01	7.554198e+02
1.010000e-06	1.886541e-06	1.242291e-08	1.359402e+01	8.141512e+02
1.020000e-06	1.980894e-06	1.326745e-08	1.427391e+01	8.698861e+02
1.030000e-06	2.074557e-06	1.406565e-08	1.494883e+01	9.225016e+02
1.040000e-06	2.167534e-06	1.481580e-08	1.561880e+01	9.719994e+02
1.050000e-06	2.259851e-06	1.551857e-08	1.628402e+01	1.018479e+03
1.060000e-06	2.351391e-06	1.617788e-08	1.694363e+01	1.062105e+03
1.070000e-06	2.442007e-06	1.680046e-08	1.759659e+01	1.103073e+03
1.080000e-06	2.531550e-06	1.738881e-08	1.824182e+01	1.141584e+03
1.090000e-06	2.620080e-06	1.794202e-08	1.887975e+01	1.177827e+03
1.100000e-06	2.707739e-06	1.846103e-08	1.951141e+01	1.211967e+03
1.110000e-06	2.794563e-06	1.894754e-08	2.013704e+01	1.244147e+03
1.120000e-06	2.880511e-06	1.940665e-08	2.075636e+01	1.274490e+03
1.130000e-06	2.965458e-06	1.984029e-08	2.136848e+01	1.303111e+03
1.140000e-06	3.049454e-06	2.024962e-08	2.197373e+01	1.330122e+03
1.150000e-06	3.132526e-06	2.063598e-08	2.257233e+01	1.355634e+03
1.160000e-06	3.214479e-06	2.100402e-08	2.316287e+01	1.379761e+03
1.170000e-06	3.295171e-06	2.135471e-08	2.374432e+01	1.402613e+03
1.180000e-06	3.374652e-06	2.168888e-08	2.431704e+01	1.424295e+03
1.190000e-06	3.452952e-06	2.200609e-08	2.488125e+01	1.444898e+03
1.200000e-06	3.530004e-06	2.230505e-08	2.543648e+01	1.464499e+03
1.210000e-06	3.605836e-06	2.258714e-08	2.598290e+01	1.483158e+03
1.220000e-06	3.680276e-06	2.285260e-08	2.651930e+01	1.500920e+03
1.230000e-06	3.753155e-06	2.310522e-08	2.704446e+01	1.517821e+03
1.240000e-06	3.824571e-06	2.334718e-08	2.755906e+01	1.533895e+03
1.250000e-06	3.894676e-06	2.357939e-08	2.806423e+01	1.549177e+03
1.260000e-06	3.963479e-06	2.380253e-08	2.856001e+01	1.563707e+03
1.270000e-06	4.030912e-06	2.401478e-08	2.904592e+01	1.577530e+03
1.280000e-06	4.096796e-06	2.421513e-08	2.952066e+01	1.590696e+03
1.290000e-06	4.161035e-06	2.440453e-08	2.998356e+01	1.603255e+03
1.300000e-06	4.223767e-06	2.458525e-08	3.043559e+01	1.615249e+03
1.310000e-06	4.285061e-06	2.475814e-08	3.087726e+01	1.626712e+03
1.320000e-06	4.345019e-06	2.492416e-08	3.130931e+01	1.637664e+03
1.330000e-06	4.403460e-06	2.508441e-08	3.173042e+01	1.648115e+03
1.340000e-06	4.460112e-06	2.523726e-08	3.213864e+01	1.658065e+03
1.350000e-06	4.515083e-06	2.538207e-08	3.253475e+01	1.667510e+03
1.360000e-06	4.568421e-06	2.552008e-08	3.291909e+01	1.676447e+03
1.370000e-06	4.619957e-06	2.565015e-08	3.329045e+01	1.684881e+03
1.380000e-06	4.669509e-06	2.577157e-08	3.364751e+01	1.692828e+03
1.390000e-06	4.717194e-06	2.588510e-08	3.399112e+01	1.700313e+03
1.400000e-06	4.763258e-06	2.599271e-08	3.432305e+01	1.707369e+03
1.410000e-06	4.807826e-06	2.609360e-08	3.464420e+01	1.714035e+03
1.420000e-06	4.850753e-06	2.618785e-08	3.495352e+01	1.720346e+03
1.430000e-06	4.891771e-06	2.627794e-08	3.524908e+01	1.726333e+03
1.440000e-06	4.930998e-06	2.636340e-08	3.553175e+01	1.732016e+03
1.450000e-06	4.968622e-06	2.644414e-08	3.580286e+01	1.737402e+03
1.460000e-06	5.004711e-06	2.651940e-08	3.606291e+01	1.742489e+03
1.470000e-06	5.038983e-06	2.659128e-08	3.630987e+01	1.747268e+03
1.480000e-06	5.071304e-06	2.666093e-08	3.654276e+01	1.751728e+03
1.490000e-06	5.101917e-06	2.672566e-08	3.676335e+01	1.755858e+03
1.500000e-06	5.130941e-06	2.678365e-08	3.697249e+01	1.759654e+03
1.510000e-06	5.158215e-06	2.683561e-08	3.716903e+01	1.763120e+03
1.520000e-06	5.183429e-06	2.688244e-08	3.735072e+01	1.766265e+03
1.530000e-06	5.206654e-06	2.692472e-08	3.751807e+01	1.769104e+03
1.540000e-06	5.228145e-06	2.696371e-08	3.767293e+01	1.771653e+03
1.550000e-06	5.247942e-06	2.699944e-08	3.781558e+01	1.773926e+03
1.560000e-06	5.265761e-06	2.703051e-08	3.794398e+01	1.775934e+03
1.570000e-06	5.281583e-06	2.705616e-08	3.805799e+01	1.777681e+03
1.580000e-06	5.295576e-06	2.707712e-08	3.815882e+01	1.779169e+03
1.590000e-06	5.307557e-06	2.709521e-08	3.824515e+01	1.780399e+03
1.600000e-06	5.317330e-06	2.711124e-08	3.831558e+01	1.781370e+03
1.610000e-06	5.325031e-06	2.712392e-08	3.837107e+01	1.782088e+03
1.620000e-06	5.330907e-06	2.713294e-08	3.841340e+01	1.782562e+03
1.630000e-06	5.335039e-06	2.713836e-08	3.844318e+01	1.782804e+03
1.640000e-06	5.337204e-06	2.714206e-08	3.845878e+01	1.782832e+03
1.650000e-06	5.337373e-06	2.714337e-08	3.846000e+01	1.782659e+03
1.660000e-06	5.335847e-06	2.713642e-08	3.844901e+01	1.782295e+03
1.670000e-06	5.332715e-06	2.712756e-08	3.842644e+01	1.781741e+03
1.680000e-06	5.327795e-06	2.711713e-08	3.839098e+01	1.780991e+03
1.690000e-06	5.321006e-06	2.710245e-08	3.834206e+01	1.780028e+03
1.700000e-06	5.312508e-06	2.708518e-08	3.828083e+01	1.778833e+03
1.710000e-06	5.302395e-06	2.706829e-08	3.820796e+01	1.777388e+03
1.720000e-06	5.290552e-06	2.706288e-08	3.812262e+01	1.775680e+03
1.730000e-06	5.276727e-06	2.702703e-08	3.802300e+01	1.773711e+03
1.740000e-06	5.260897e-06	2.691032e-08	3.790893e+01	1.771493e+03
1.750000e-06	5.242846e-06	2.688204e-08	3.777886e+01	1.769054e+03
1.760000e-06	5.222218e-06	2.688266e-08	3.763022e+01	1.766434e+03
1.770000e-06	5.199285e-06	2.688088e-08	3.746497e+01	1.763674e+03
1.780000e-06	5.174939e-06	2.693613e-08	3.728954e+01	1.760813e+03
1.790000e-06	5.149855e-06	2.673857e-08	3.710879e+01	1.757877e+03
1.800000e-06	5.123547e-06	2.666239e-08	3.691921e+01	1.754874e+03
1.810000e-06	5.095084e-06	2.674995e-08	3.671412e+01	1.751793e+03
1.820000e-06	5.064651e-06	2.653322e-08	3.649482e+01	1.748602e+03
1.830000e-06	5.032586e-06	2.656463e-08	3.626377e+01	1.745252e+03
1.840000e-06	4.998611e-06	2.667274e-08	3.601895e+01	1.741689e+03
1.850000e-06	4.963092e-06	2.643075e-08	3.576301e+01	1.737856e+03
1.860000e-06	4.925887e-06	2.644866e-08	3.549492e+01	1.733707e+03
1.870000e-06	4.886723e-06	2.643360e-08	3.521271e+01	1.729208e+03
1.880000e-06	4.845975e-06	2.626658e-08	3.491909e+01	1.724342e+03
1.890000e-06	4.803466e-06	2.628200e-08	3.461278e+01	1.719108e+03
1.900000e-06	4.759277e-06	2.608505e-08	3.429436e+01	1.713519e+03
1.910000e-06	4.713266e-06	2.603935e-08	3.396282e+01	1.707592e+03
1.920000e-06	4.665265e-06	2.608294e-08	3.361693e+01	1.701344e+03
1.930000e-06	4.615699e-06	2.586495e-08	3.325977e+01	1.694789e+03
1.940000e-06	4.564391e-06	2.580292e-08	3.289005e+01	1.687933e+03
1.950000e-06	4.510989e-06	2.566401e-08	3.250525e+01	1.680772e+03
1.960000e-06	4.455704e-06	2.554056e-08	3.210688e+01	1.673296e+03
1.970000e-06	4.398737e-06	2.545152e-08	3.169639e+01	1.665493e+03
1.980000e-06	4.340266e-06	2.524918e-08	3.127506e+01	1.657351e+03
1.990000e-06	4.280467e-06	2.522956e-08	3.084416e+01	1.648861e+03
2.000000e-06	4.219119e-06	2.508632e-08	3.040209e+01	1.640022e+03
2.010000e-06	4.156032e-06	2.489308e-08	2.994750e+01	1.630835e+03
2.020000e-06	4.091374e-06	2.474993e-08	2.948159e+01	1.621305e+03
2.030000e-06	4.025321e-06	2.458587e-08	2.900562e+01	1.611435e+03
2.040000e-06	3.957954e-06	2.450967e-08	2.852019e+01	1.601226e+03
2.050000e-06	3.889174e-06	2.430513e-08	2.802458e+01	1.590669e+03
2.060000e-06	3.818744e-06	2.413927e-08	2.751707e+01	1.579751e+03
2.070000e-06	3.746852e-06	2.398236e-08	2.699903e+01	1.568451e+03
2.080000e-06	3.673798e-06	2.376669e-08	2.647263e+01	1.556744e+03
2.090000e-06	3.599460e-06	2.359993e-08	2.593696e+01	1.544604e+03
2.100000e-06	3.523773e-06	2.339518e-08	2.539157e+01	1.532009e+03
2.110000e-06	3.446583e-06	2.322393e-08	2.483536e+01	1.518939e+03
2.120000e-06	3.367852e-06	2.300577e-08	2.426804e+01	1.505380e+03
2.130000e-06	3.287948e-06	2.278552e-08	2.369227e+01	1.491321e+03
2.140000e-06	3.206962e-06	2.257542e-08	2.310870e+01	1.476749e+03
2.150000e-06	3.124827e-06	2.233422e-08	2.251686e+01	1.461651e+03
2.160000e-06	3.041685e-06	2.211217e-08	2.191775e+01	1.446009e+03
2.170000e-06	2.957668e-06	2.186093e-08	2.131234e+01	1.429794e+03
2.180000e-06	2.872449e-06	2.160528e-08	2.069827e+01	1.412976e+03
2.190000e-06	2.785893e-06	2.133065e-08	2.007457e+01	1.395517e+03
2.200000e-06	2.698295e-06	2.105716e-08	1.944336e+01	1.377379e+03
2.210000e-06	2.609774e-06	2.077732e-08	1.880549e+01	1.358521e+03
2.220000e-06	2.520380e-06	2.047068e-08	1.816134e+01	1.338908e+03
2.230000e-06	2.430103e-06	2.015999e-08	1.751082e+01	1.318505e+03
2.240000e-06	2.339075e-06	1.984133e-08	1.685489e+01	1.297277e+03
2.250000e-06	2.247443e-06	1.951849e-08	1.619461e+01	1.275187e+03
2.260000e-06	2.155021e-06	1.916385e-08	1.552863e+01	1.252190e+03
2.270000e-06	2.061542e-06	1.879278e-08	1.485504e+01	1.228231e+03
2.280000e-06	1.967091e-06	1.841035e-08	1.417445e+01	1.203241e+03
2.290000e-06	1.871860e-06	1.801099e-08	1.348824e+01	1.177140e+03
2.300000e-06	1.775982e-06	1.759758e-08	1.279736e+01	1.149838e+03
2.310000e-06	1.679597e-06	1.716598e-08	1.210283e+01	1.121235e+03
2.320000e-06	1.582775e-06	1.671429e-08	1.140515e+01	1.091231e+03
2.330000e-06	1.485486e-06	1.623074e-08	1.070411e+01	1.059723e+03
2.340000e-06	1.387643e-06	1.571799e-08	9.999069e+00	1.026612e+03
2.350000e-06	1.289313e-06	1.518258e-08	9.290524e+00	9.918024e+02
2.360000e-06	1.190595e-06	1.462994e-08	8.579183e+00	9.552002e+02
2.370000e-06	1.091542e-06	1.405022e-08	7.865426e+00	9.167161e+02
2.380000e-06	9.922738e-07	1.343396e-08	7.150119e+00	8.762658e+02
2.390000e-06	8.928275e-07	1.278103e-08	6.433530e+00	8.337760e+02
2.400000e-06	7.931322e-07	1.209548e-08	5.715146e+00	7.891935e+02
2.410000e-06	6.931748e-07	1.138221e-08	4.994874e+00	7.424967e+02
2.420000e-06	5.929195e-07	1.063834e-08	4.272455e+00	6.937093e+02
2.430000e-06	4.923481e-07	9.864434e-09	3.547758e+00	6.429120e+02
2.440000e-06	3.915802e-07	9.063838e-09	2.821645e+00	5.902490e+02
2.450000e-06	2.906806e-07	8.236212e-09	2.094584e+00	5.359263e+02
2.460000e-06	1.896376e-07	7.383075e-09	1.366489e+00	4.802004e+02
2.470000e-06	8.842748e-08	6.513492e-09	6.371901e-01	4.233556e+02
2.480000e-06	-1.283341e-08	5.632716e-09	-9.247488e-02	3.656738e+02
2.490000e-06	-1.140472e-07	4.740670e-09	-8.218007e-01	3.074001e+02
2.500000e-06	-2.152342e-07	3.840682e-09	-1.550933e+00	2.487101e+02
2.510000e-06	-3.163081e-07	2.937021e-09	-2.279250e+00	1.896855e+02
2.520000e-06	-4.172502e-07	2.029988e-09	-3.006618e+00	1.303031e+02
2.530000e-06	-5.181091e-07	1.115563e-09	-3.733386e+00	7.044223e+01
2.540000e-06	-6.188129e-07	1.902324e-10	-4.459037e+00	9.909135e+00
2.550000e-06	-7.192174e-07	-7.487465e-10	-5.182531e+00	-5.152201e+01
2.560000e-06	-8.192483e-07	-1.702689e-09	-5.903333e+00	-1.140587e+02
2.570000e-06	-9.188826e-07	-2.675117e-09	-6.621277e+00	-1.778378e+02
2.580000e-06	-1.018239e-06	-3.668265e-09	-7.337218e+00	-2.428791e+02
2.590000e-06	-1.117374e-06	-4.680266e-09	-8.051566e+00	-3.090545e+02
2.600000e-06	-1.216213e-06	-5.705753e-09	-8.763776e+00	-3.760766e+02
2.610000e-06	-1.314685e-06	-6.736811e-09	-9.473346e+00	-4.435101e+02
2.620000e-06	-1.412624e-06	-7.767118e-09	-1.017908e+01	-5.108041e+02
2.630000e-06	-1.509929e-06	-8.787677e-09	-1.088023e+01	-5.773405e+02
2.640000e-06	-1.606666e-06	-9.786560e-09	-1.157730e+01	-6.424901e+02
2.650000e-06	-1.702939e-06	-1.075296e-08	-1.227102e+01	-7.056699e+02
2.660000e-06	-1.798760e-06	-1.168163e-08	-1.296149e+01	-7.663900e+02
2.670000e-06	-1.894065e-06	-1.256928e-08	-1.364824e+01	-8.242870e+02
2.680000e-06	-1.988620e-06	-1.341014e-08	-1.432959e+01	-8.791386e+02
2.690000e-06	-2.082251e-06	-1.420210e-08	-1.500427e+01	-9.308595e+02
2.700000e-06	-2.174952e-06	-1.494812e-08	-1.567225e+01	-9.794827e+02
2.710000e-06	-2.266741e-06	-1.565020e-08	-1.633366e+01	-1.025129e+03
2.720000e-06	-2.357719e-06	-1.630861e-08	-1.698923e+01	-1.067976e+03
2.730000e-06	-2.447916e-06	-1.692646e-08	-1.763917e+01	-1.108223e+03
2.740000e-06	-2.537248e-06	-1.750769e-08	-1.828288e+01	-1.146070e+03
2.750000e-06	-2.625743e-06	-1.805469e-08	-1.892056e+01	-1.181698e+03
2.760000e-06	-2.713421e-06	-1.856952e-08	-1.955235e+01	-1.215265e+03
2.770000e-06	-2.800226e-06	-1.905343e-08	-2.017784e+01	-1.246909e+03
2.780000e-06	-2.885984e-06	-1.951016e-08	-2.079580e+01	-1.276750e+03
2.790000e-06	-2.970589e-06	-1.993851e-08	-2.140545e+01	-1.304901e+03
2.800000e-06	-3.054112e-06	-2.034118e-08	-2.200730e+01	-1.331474e+03
2.810000e-06	-3.136573e-06	-2.072477e-08	-2.260150e+01	-1.356580e+03
2.820000e-06	-3.218040e-06	-2.108931e-08	-2.318853e+01	-1.380332e+03
2.830000e-06	-3.298512e-06	-2.143376e-08	-2.376839e+01	-1.402841e+03
2.840000e-06	-3.377871e-06	-2.176089e-08	-2.434024e+01	-1.424207e+03
2.850000e-06	-3.455901e-06	-2.207381e-08	-2.490251e+01	-1.444518e+03
2.860000e-06	-3.532421e-06	-2.237112e-08	-2.545389e+01	-1.463846e+03
2.870000e-06	-3.607466e-06	-2.265298e-08	-2.599465e+01	-1.482245e+03
2.880000e-06	-3.681138e-06	-2.291996e-08	-2.652551e+01	-1.499759e+03
2.890000e-06	-3.753544e-06	-2.317325e-08	-2.704726e+01	-1.516422e+03
2.900000e-06	-3.824604e-06	-2.341475e-08	-2.755930e+01	-1.532267e+03
2.910000e-06	-3.894129e-06	-2.364503e-08	-2.806028e+01	-1.547331e+03
2.920000e-06	-3.962183e-06	-2.386689e-08	-2.855067e+01	-1.561655e+03
2.930000e-06	-4.028888e-06	-2.407976e-08	-2.903133e+01	-1.575287e+03
2.940000e-06	-4.094214e-06	-2.428083e-08	-2.950206e+01	-1.588276e+03
