# Temperatura_=_57.43
# Concentracion g/m^3_=_28200.0
# C_Vs_to_Am_M_A/Vsm_=_65563218390.804596
# pendiente_HvsI_1/m_=_3716.3
# ordenada_HvsI_A/m_=_1297.0
# frecuencia_Hz_=_301746.6759484423

Tiempo_(s)	Campo_(V.s)	Magnetizacion_(V.s)	Campo_(kA/m)	Magnetizacion_(A/m)
0.000000e+00	-5.321787e-06	-2.149416e-08	-3.829735e+01	-1.404711e+03
1.000000e-08	-5.319225e-06	-2.148790e-08	-3.827891e+01	-1.404319e+03
2.000000e-08	-5.314866e-06	-2.147607e-08	-3.824754e+01	-1.403790e+03
3.000000e-08	-5.308924e-06	-2.146318e-08	-3.820478e+01	-1.403115e+03
4.000000e-08	-5.301388e-06	-2.144882e-08	-3.815055e+01	-1.402273e+03
5.000000e-08	-5.292103e-06	-2.143057e-08	-3.808373e+01	-1.401243e+03
6.000000e-08	-5.280806e-06	-2.140802e-08	-3.800243e+01	-1.400007e+03
7.000000e-08	-5.267561e-06	-2.137493e-08	-3.790712e+01	-1.398556e+03
8.000000e-08	-5.252372e-06	-2.136566e-08	-3.779781e+01	-1.396896e+03
9.000000e-08	-5.234978e-06	-2.139199e-08	-3.767264e+01	-1.395046e+03
1.000000e-07	-5.215477e-06	-2.135011e-08	-3.753230e+01	-1.393039e+03
1.100000e-07	-5.194027e-06	-2.128294e-08	-3.737794e+01	-1.390915e+03
1.200000e-07	-5.170873e-06	-2.123672e-08	-3.721132e+01	-1.388715e+03
1.300000e-07	-5.146272e-06	-2.112648e-08	-3.703428e+01	-1.386471e+03
1.400000e-07	-5.120049e-06	-2.114202e-08	-3.684558e+01	-1.384198e+03
1.500000e-07	-5.092129e-06	-2.119009e-08	-3.664465e+01	-1.381894e+03
1.600000e-07	-5.062744e-06	-2.102566e-08	-3.643319e+01	-1.379535e+03
1.700000e-07	-5.031973e-06	-2.104473e-08	-3.621175e+01	-1.377081e+03
1.800000e-07	-4.999267e-06	-2.105063e-08	-3.597639e+01	-1.374480e+03
1.900000e-07	-4.964460e-06	-2.086334e-08	-3.572590e+01	-1.371676e+03
2.000000e-07	-4.928126e-06	-2.089865e-08	-3.546443e+01	-1.368622e+03
2.100000e-07	-4.890169e-06	-2.086616e-08	-3.519128e+01	-1.365281e+03
2.200000e-07	-4.850464e-06	-2.072427e-08	-3.490555e+01	-1.361633e+03
2.300000e-07	-4.808943e-06	-2.070822e-08	-3.460675e+01	-1.357677e+03
2.400000e-07	-4.765397e-06	-2.060487e-08	-3.429338e+01	-1.353425e+03
2.500000e-07	-4.720078e-06	-2.052465e-08	-3.396725e+01	-1.348902e+03
2.600000e-07	-4.672992e-06	-2.051997e-08	-3.362840e+01	-1.344131e+03
2.700000e-07	-4.623900e-06	-2.040931e-08	-3.327512e+01	-1.339136e+03
2.800000e-07	-4.572697e-06	-2.031444e-08	-3.290664e+01	-1.333930e+03
2.900000e-07	-4.519568e-06	-2.023949e-08	-3.252431e+01	-1.328517e+03
3.000000e-07	-4.464801e-06	-2.014080e-08	-3.213019e+01	-1.322889e+03
3.100000e-07	-4.408501e-06	-2.004746e-08	-3.172504e+01	-1.317033e+03
3.200000e-07	-4.350396e-06	-1.997403e-08	-3.130690e+01	-1.310929e+03
3.300000e-07	-4.290587e-06	-1.988453e-08	-3.087649e+01	-1.304559e+03
3.400000e-07	-4.229388e-06	-1.975213e-08	-3.043608e+01	-1.297911e+03
3.500000e-07	-4.166735e-06	-1.965160e-08	-2.998521e+01	-1.290976e+03
3.600000e-07	-4.102700e-06	-1.953450e-08	-2.952440e+01	-1.283751e+03
3.700000e-07	-4.037117e-06	-1.941864e-08	-2.905244e+01	-1.276239e+03
3.800000e-07	-3.969923e-06	-1.932407e-08	-2.856889e+01	-1.268441e+03
3.900000e-07	-3.901293e-06	-1.918264e-08	-2.807500e+01	-1.260357e+03
4.000000e-07	-3.831321e-06	-1.904868e-08	-2.757146e+01	-1.251980e+03
4.100000e-07	-3.760165e-06	-1.892142e-08	-2.705940e+01	-1.243301e+03
4.200000e-07	-3.687881e-06	-1.877982e-08	-2.653921e+01	-1.234301e+03
4.300000e-07	-3.614144e-06	-1.863504e-08	-2.600858e+01	-1.224961e+03
4.400000e-07	-3.538762e-06	-1.848764e-08	-2.546611e+01	-1.215260e+03
4.500000e-07	-3.461917e-06	-1.833294e-08	-2.491311e+01	-1.205179e+03
4.600000e-07	-3.383739e-06	-1.816523e-08	-2.435051e+01	-1.194704e+03
4.700000e-07	-3.304162e-06	-1.800449e-08	-2.377785e+01	-1.183823e+03
4.800000e-07	-3.223244e-06	-1.783729e-08	-2.319553e+01	-1.172529e+03
4.900000e-07	-3.141190e-06	-1.765413e-08	-2.260505e+01	-1.160815e+03
5.000000e-07	-3.058088e-06	-1.746582e-08	-2.200702e+01	-1.148672e+03
5.100000e-07	-2.974142e-06	-1.727154e-08	-2.140292e+01	-1.136084e+03
5.200000e-07	-2.889354e-06	-1.707358e-08	-2.079275e+01	-1.123028e+03
5.300000e-07	-2.803622e-06	-1.686568e-08	-2.017580e+01	-1.109474e+03
5.400000e-07	-2.716910e-06	-1.664810e-08	-1.955179e+01	-1.095382e+03
5.500000e-07	-2.629316e-06	-1.642476e-08	-1.892143e+01	-1.080709e+03
5.600000e-07	-2.540850e-06	-1.618668e-08	-1.828480e+01	-1.065410e+03
5.700000e-07	-2.451169e-06	-1.594040e-08	-1.763943e+01	-1.049441e+03
5.800000e-07	-2.360273e-06	-1.569027e-08	-1.698531e+01	-1.032762e+03
5.900000e-07	-2.268558e-06	-1.543036e-08	-1.632530e+01	-1.015338e+03
6.000000e-07	-2.176151e-06	-1.514968e-08	-1.566030e+01	-9.971390e+02
6.100000e-07	-2.082968e-06	-1.485334e-08	-1.498973e+01	-9.781340e+02
6.200000e-07	-1.989008e-06	-1.454645e-08	-1.431356e+01	-9.582918e+02
6.300000e-07	-1.894311e-06	-1.422672e-08	-1.363209e+01	-9.375752e+02
6.400000e-07	-1.798959e-06	-1.389822e-08	-1.294591e+01	-9.159379e+02
6.500000e-07	-1.703060e-06	-1.355562e-08	-1.225579e+01	-8.933229e+02
6.600000e-07	-1.606616e-06	-1.319574e-08	-1.156174e+01	-8.696615e+02
6.700000e-07	-1.509505e-06	-1.281382e-08	-1.086290e+01	-8.448743e+02
6.800000e-07	-1.411718e-06	-1.241094e-08	-1.015919e+01	-8.188743e+02
6.900000e-07	-1.313300e-06	-1.199133e-08	-9.450946e+00	-7.915701e+02
7.000000e-07	-1.214316e-06	-1.155354e-08	-8.738620e+00	-7.628708e+02
7.100000e-07	-1.114910e-06	-1.109444e-08	-8.023260e+00	-7.326917e+02
7.200000e-07	-1.015222e-06	-1.061137e-08	-7.305878e+00	-7.009603e+02
7.300000e-07	-9.152836e-07	-1.010393e-08	-6.586685e+00	-6.676227e+02
7.400000e-07	-8.150678e-07	-9.567435e-09	-5.865498e+00	-6.326510e+02
7.500000e-07	-7.146102e-07	-9.004811e-09	-5.142572e+00	-5.960498e+02
7.600000e-07	-6.139253e-07	-8.418872e-09	-4.418010e+00	-5.578624e+02
7.700000e-07	-5.130778e-07	-7.814662e-09	-3.692278e+00	-5.181750e+02
7.800000e-07	-4.121015e-07	-7.192818e-09	-2.965619e+00	-4.771179e+02
7.900000e-07	-3.109772e-07	-6.549179e-09	-2.237895e+00	-4.348617e+02
8.000000e-07	-2.097130e-07	-5.890219e-09	-1.509165e+00	-3.916086e+02
8.100000e-07	-1.082977e-07	-5.221102e-09	-7.793464e-01	-3.475780e+02
8.200000e-07	-6.809694e-09	-4.545316e-09	-4.900482e-02	-3.029874e+02
8.300000e-07	9.468380e-08	-3.864588e-09	6.813761e-01	-2.580308e+02
8.400000e-07	1.961678e-07	-3.181264e-09	1.411689e+00	-2.128568e+02
8.500000e-07	2.976018e-07	-2.495123e-09	2.141642e+00	-1.675508e+02
8.600000e-07	3.989216e-07	-1.806201e-09	2.870772e+00	-1.221241e+02
8.700000e-07	5.001095e-07	-1.111636e-09	3.598954e+00	-7.651359e+01
8.800000e-07	6.011679e-07	-4.097472e-10	4.326204e+00	-3.059164e+01
8.900000e-07	7.020175e-07	2.995756e-10	5.051951e+00	1.581164e+01
9.000000e-07	8.026993e-07	1.016186e-09	5.776491e+00	6.287811e+01
9.100000e-07	9.031642e-07	1.741237e-09	6.499470e+00	1.107663e+02
9.200000e-07	1.003329e-06	2.479732e-09	7.220286e+00	1.595761e+02
9.300000e-07	1.103223e-06	3.234677e-09	7.939161e+00	2.093200e+02
9.400000e-07	1.202717e-06	4.007654e-09	8.655154e+00	2.599033e+02
9.500000e-07	1.301712e-06	4.791068e-09	9.367555e+00	3.111195e+02
9.600000e-07	1.400162e-06	5.577755e-09	1.007603e+01	3.626596e+02
9.700000e-07	1.497975e-06	6.362855e-09	1.077993e+01	4.141344e+02
9.800000e-07	1.595066e-06	7.141334e-09	1.147862e+01	4.651082e+02
9.900000e-07	1.691444e-06	7.902694e-09	1.217219e+01	5.151364e+02
1.000000e-06	1.787187e-06	8.640803e-09	1.286119e+01	5.638030e+02
1.010000e-06	1.882276e-06	9.352799e-09	1.354548e+01	6.107529e+02
1.020000e-06	1.976679e-06	1.003112e-08	1.422484e+01	6.557138e+02
1.030000e-06	2.070370e-06	1.067668e-08	1.489907e+01	6.985071e+02
1.040000e-06	2.163343e-06	1.129016e-08	1.556814e+01	7.390466e+02
1.050000e-06	2.255677e-06	1.187272e-08	1.623260e+01	7.773277e+02
1.060000e-06	2.347382e-06	1.242164e-08	1.689254e+01	8.134089e+02
1.070000e-06	2.438305e-06	1.293809e-08	1.754685e+01	8.473919e+02
1.080000e-06	2.528287e-06	1.342338e-08	1.819439e+01	8.794009e+02
1.090000e-06	2.617192e-06	1.387909e-08	1.883418e+01	9.095672e+02
1.100000e-06	2.704999e-06	1.430884e-08	1.946607e+01	9.380173e+02
1.110000e-06	2.791867e-06	1.471500e-08	2.009120e+01	9.648679e+02
1.120000e-06	2.877849e-06	1.510082e-08	2.070996e+01	9.902244e+02
1.130000e-06	2.962964e-06	1.546509e-08	2.132247e+01	1.014183e+03
1.140000e-06	3.047203e-06	1.580808e-08	2.192869e+01	1.036833e+03
1.150000e-06	3.130455e-06	1.613093e-08	2.252779e+01	1.058260e+03
1.160000e-06	3.212584e-06	1.643837e-08	2.311882e+01	1.078545e+03
1.170000e-06	3.293431e-06	1.672995e-08	2.370063e+01	1.097766e+03
1.180000e-06	3.373087e-06	1.700496e-08	2.427386e+01	1.115997e+03
1.190000e-06	3.451615e-06	1.726796e-08	2.483897e+01	1.133301e+03
1.200000e-06	3.528932e-06	1.751881e-08	2.539537e+01	1.149735e+03
1.210000e-06	3.605040e-06	1.775539e-08	2.594306e+01	1.165347e+03
1.220000e-06	3.679722e-06	1.797933e-08	2.648050e+01	1.180178e+03
1.230000e-06	3.752770e-06	1.819119e-08	2.700618e+01	1.194265e+03
1.240000e-06	3.824334e-06	1.839002e-08	2.752118e+01	1.207645e+03
1.250000e-06	3.894527e-06	1.857914e-08	2.802631e+01	1.220354e+03
1.260000e-06	3.963345e-06	1.876130e-08	2.852155e+01	1.232433e+03
1.270000e-06	4.030873e-06	1.893677e-08	2.900750e+01	1.243921e+03
1.280000e-06	4.096892e-06	1.910374e-08	2.948259e+01	1.254858e+03
1.290000e-06	4.161225e-06	1.926205e-08	2.994556e+01	1.265279e+03
1.300000e-06	4.224079e-06	1.941378e-08	3.039787e+01	1.275212e+03
1.310000e-06	4.285566e-06	1.955835e-08	3.084036e+01	1.284675e+03
1.320000e-06	4.345705e-06	1.969623e-08	3.127314e+01	1.293679e+03
1.330000e-06	4.404381e-06	1.982791e-08	3.169539e+01	1.302225e+03
1.340000e-06	4.461299e-06	1.995141e-08	3.210499e+01	1.310312e+03
1.350000e-06	4.516498e-06	2.006484e-08	3.250222e+01	1.317943e+03
1.360000e-06	4.570128e-06	2.017188e-08	3.288816e+01	1.325126e+03
1.370000e-06	4.622005e-06	2.027365e-08	3.326148e+01	1.331877e+03
1.380000e-06	4.671820e-06	2.036935e-08	3.361997e+01	1.338225e+03
1.390000e-06	4.719680e-06	2.046104e-08	3.396438e+01	1.344207e+03
1.400000e-06	4.765925e-06	2.054894e-08	3.429718e+01	1.349863e+03
1.410000e-06	4.810652e-06	2.063137e-08	3.461905e+01	1.355232e+03
1.420000e-06	4.853735e-06	2.070729e-08	3.492909e+01	1.360347e+03
1.430000e-06	4.894883e-06	2.078041e-08	3.522521e+01	1.365227e+03
1.440000e-06	4.934236e-06	2.085119e-08	3.550841e+01	1.369879e+03
1.450000e-06	4.972050e-06	2.091712e-08	3.578052e+01	1.374297e+03
1.460000e-06	5.008339e-06	2.097875e-08	3.604167e+01	1.378466e+03
1.470000e-06	5.042869e-06	2.103704e-08	3.629016e+01	1.382366e+03
1.480000e-06	5.075425e-06	2.109139e-08	3.652445e+01	1.385980e+03
1.490000e-06	5.106196e-06	2.114157e-08	3.674589e+01	1.389297e+03
1.500000e-06	5.135339e-06	2.118699e-08	3.695561e+01	1.392318e+03
1.510000e-06	5.162831e-06	2.122676e-08	3.715344e+01	1.395053e+03
1.520000e-06	5.188335e-06	2.126275e-08	3.733698e+01	1.397521e+03
1.530000e-06	5.211761e-06	2.129635e-08	3.750557e+01	1.399744e+03
1.540000e-06	5.233380e-06	2.132864e-08	3.766114e+01	1.401745e+03
1.550000e-06	5.253313e-06	2.135825e-08	3.780459e+01	1.403541e+03
1.560000e-06	5.271363e-06	2.138199e-08	3.793448e+01	1.405140e+03
1.570000e-06	5.287379e-06	2.140071e-08	3.804973e+01	1.406544e+03
1.580000e-06	5.301436e-06	2.141695e-08	3.815090e+01	1.407748e+03
1.590000e-06	5.313513e-06	2.143088e-08	3.823780e+01	1.408743e+03
1.600000e-06	5.323472e-06	2.144256e-08	3.830948e+01	1.409525e+03
1.610000e-06	5.331340e-06	2.145356e-08	3.836609e+01	1.410092e+03
1.620000e-06	5.337316e-06	2.146224e-08	3.840910e+01	1.410452e+03
1.630000e-06	5.341595e-06	2.146637e-08	3.843990e+01	1.410619e+03
1.640000e-06	5.344025e-06	2.146845e-08	3.845738e+01	1.410612e+03
1.650000e-06	5.344389e-06	2.146894e-08	3.846000e+01	1.410450e+03
1.660000e-06	5.342899e-06	2.146269e-08	3.844928e+01	1.410147e+03
1.670000e-06	5.339812e-06	2.145458e-08	3.842706e+01	1.409711e+03
1.680000e-06	5.335074e-06	2.144560e-08	3.839296e+01	1.409135e+03
1.690000e-06	5.328398e-06	2.143443e-08	3.834492e+01	1.408407e+03
1.700000e-06	5.319924e-06	2.142220e-08	3.828394e+01	1.407506e+03
1.710000e-06	5.309923e-06	2.140997e-08	3.821197e+01	1.406410e+03
1.720000e-06	5.298278e-06	2.140694e-08	3.812817e+01	1.405104e+03
1.730000e-06	5.284654e-06	2.138314e-08	3.803012e+01	1.403584e+03
1.740000e-06	5.269020e-06	2.128737e-08	3.791762e+01	1.401859e+03
1.750000e-06	5.251184e-06	2.126453e-08	3.778926e+01	1.399953e+03
1.760000e-06	5.230652e-06	2.127133e-08	3.764151e+01	1.397903e+03
1.770000e-06	5.207710e-06	2.126908e-08	3.747641e+01	1.395749e+03
1.780000e-06	5.183351e-06	2.132117e-08	3.730112e+01	1.393531e+03
1.790000e-06	5.158244e-06	2.116277e-08	3.712044e+01	1.391275e+03
1.800000e-06	5.131948e-06	2.109290e-08	3.693120e+01	1.388993e+03
1.810000e-06	5.103554e-06	2.118758e-08	3.672687e+01	1.386673e+03
1.820000e-06	5.073196e-06	2.101595e-08	3.650841e+01	1.384288e+03
1.830000e-06	5.041240e-06	2.101779e-08	3.627844e+01	1.381791e+03
1.840000e-06	5.007421e-06	2.109989e-08	3.603507e+01	1.379130e+03
1.850000e-06	4.971978e-06	2.088947e-08	3.578001e+01	1.376249e+03
1.860000e-06	4.934855e-06	2.091277e-08	3.551286e+01	1.373105e+03
1.870000e-06	4.895750e-06	2.090783e-08	3.523145e+01	1.369665e+03
1.880000e-06	4.854965e-06	2.076594e-08	3.493794e+01	1.365916e+03
1.890000e-06	4.812452e-06	2.082188e-08	3.463200e+01	1.361862e+03
1.900000e-06	4.768250e-06	2.065929e-08	3.431391e+01	1.357519e+03
1.910000e-06	4.722319e-06	2.057252e-08	3.398338e+01	1.352912e+03
1.920000e-06	4.674422e-06	2.061837e-08	3.363869e+01	1.348066e+03
1.930000e-06	4.624891e-06	2.044937e-08	3.328225e+01	1.343001e+03
1.940000e-06	4.573616e-06	2.041664e-08	3.291326e+01	1.337728e+03
1.950000e-06	4.520251e-06	2.034844e-08	3.252922e+01	1.332246e+03
1.960000e-06	4.465017e-06	2.024213e-08	3.213174e+01	1.326545e+03
1.970000e-06	4.408117e-06	2.015545e-08	3.172227e+01	1.320610e+03
1.980000e-06	4.349729e-06	1.999070e-08	3.130209e+01	1.314421e+03
1.990000e-06	4.289932e-06	1.996467e-08	3.087178e+01	1.307962e+03
2.000000e-06	4.228572e-06	1.986222e-08	3.043021e+01	1.301221e+03
2.010000e-06	4.165492e-06	1.974666e-08	2.997626e+01	1.294192e+03
2.020000e-06	4.100811e-06	1.964411e-08	2.951080e+01	1.286873e+03
2.030000e-06	4.034758e-06	1.948932e-08	2.903546e+01	1.279268e+03
2.040000e-06	3.967355e-06	1.942570e-08	2.855041e+01	1.271377e+03
2.050000e-06	3.898578e-06	1.927027e-08	2.805546e+01	1.263198e+03
2.060000e-06	3.828208e-06	1.914795e-08	2.754906e+01	1.254725e+03
2.070000e-06	3.756383e-06	1.904148e-08	2.703218e+01	1.245943e+03
2.080000e-06	3.683358e-06	1.887444e-08	2.650667e+01	1.236835e+03
2.090000e-06	3.608946e-06	1.874032e-08	2.597117e+01	1.227380e+03
2.100000e-06	3.533165e-06	1.857613e-08	2.542583e+01	1.217558e+03
2.110000e-06	3.455907e-06	1.844323e-08	2.486986e+01	1.207351e+03
2.120000e-06	3.377120e-06	1.827520e-08	2.430288e+01	1.196745e+03
2.130000e-06	3.297142e-06	1.810318e-08	2.372733e+01	1.185730e+03
2.140000e-06	3.216134e-06	1.794261e-08	2.314437e+01	1.174301e+03
2.150000e-06	3.134020e-06	1.775433e-08	2.255345e+01	1.162449e+03
2.160000e-06	3.050822e-06	1.757576e-08	2.195473e+01	1.150164e+03
2.170000e-06	2.966729e-06	1.737731e-08	2.134957e+01	1.137427e+03
2.180000e-06	2.881517e-06	1.718654e-08	2.073635e+01	1.124214e+03
2.190000e-06	2.794952e-06	1.697222e-08	2.011341e+01	1.110490e+03
2.200000e-06	2.707310e-06	1.674889e-08	1.948270e+01	1.096215e+03
2.210000e-06	2.618786e-06	1.653094e-08	1.884566e+01	1.081345e+03
2.220000e-06	2.529340e-06	1.629288e-08	1.820197e+01	1.065834e+03
2.230000e-06	2.438983e-06	1.603991e-08	1.755173e+01	1.049639e+03
2.240000e-06	2.347845e-06	1.577725e-08	1.689588e+01	1.032724e+03
2.250000e-06	2.256048e-06	1.552272e-08	1.623527e+01	1.015053e+03
2.260000e-06	2.163532e-06	1.524848e-08	1.556950e+01	9.965968e+02
2.270000e-06	2.070076e-06	1.495528e-08	1.489695e+01	9.773252e+02
2.280000e-06	1.975596e-06	1.464810e-08	1.421704e+01	9.572052e+02
2.290000e-06	1.880282e-06	1.432534e-08	1.353114e+01	9.361970e+02
2.300000e-06	1.784382e-06	1.398930e-08	1.284101e+01	9.142511e+02
2.310000e-06	1.687946e-06	1.363813e-08	1.214702e+01	8.913066e+02
2.320000e-06	1.590946e-06	1.327836e-08	1.144898e+01	8.672912e+02
2.330000e-06	1.493437e-06	1.290030e-08	1.074727e+01	8.421229e+02
2.340000e-06	1.395418e-06	1.249772e-08	1.004189e+01	8.157125e+02
2.350000e-06	1.296945e-06	1.207207e-08	9.333244e+00	7.879684e+02
2.360000e-06	1.198138e-06	1.163025e-08	8.622198e+00	7.588011e+02
2.370000e-06	1.099079e-06	1.116910e-08	7.909337e+00	7.281290e+02
2.380000e-06	9.997689e-07	1.068343e-08	7.194669e+00	6.958849e+02
2.390000e-06	9.001821e-07	1.016951e-08	6.478009e+00	6.620226e+02
2.400000e-06	8.003205e-07	9.625671e-09	5.759372e+00	6.265237e+02
2.410000e-06	7.001746e-07	9.056713e-09	5.038689e+00	5.894047e+02
2.420000e-06	5.997999e-07	8.461425e-09	4.316359e+00	5.507225e+02
2.430000e-06	4.992107e-07	7.844816e-09	3.592486e+00	5.105774e+02
2.440000e-06	3.984876e-07	7.214962e-09	2.867649e+00	4.691134e+02
2.450000e-06	2.976537e-07	6.571367e-09	2.142015e+00	4.265123e+02
2.460000e-06	1.966033e-07	5.908444e-09	1.414823e+00	3.829839e+02
2.470000e-06	9.538210e-08	5.229268e-09	6.864013e-01	3.387490e+02
2.480000e-06	-5.948824e-09	4.541992e-09	-4.280971e-02	2.940203e+02
2.490000e-06	-1.073545e-07	3.848204e-09	-7.725584e-01	2.489791e+02
2.500000e-06	-2.087170e-07	3.151683e-09	-1.501997e+00	2.037556e+02
2.510000e-06	-3.098983e-07	2.454978e-09	-2.230131e+00	1.584121e+02
2.520000e-06	-4.109641e-07	1.758124e-09	-2.957434e+00	1.129354e+02
2.530000e-06	-5.119984e-07	1.059841e-09	-3.684510e+00	6.724011e+01
2.540000e-06	-6.128314e-07	3.562527e-10	-4.410139e+00	2.118206e+01
2.550000e-06	-7.133717e-07	-3.556829e-10	-5.133660e+00	-2.541611e+01
2.560000e-06	-8.136164e-07	-1.079238e-09	-5.855054e+00	-7.273272e+01
2.570000e-06	-9.135135e-07	-1.814369e-09	-6.573947e+00	-1.209111e+02
2.580000e-06	-1.013082e-06	-2.562202e-09	-7.290477e+00	-1.700259e+02
2.590000e-06	-1.112313e-06	-3.325346e-09	-8.004574e+00	-2.200564e+02
2.600000e-06	-1.211214e-06	-4.102576e-09	-8.716302e+00	-2.708722e+02
2.610000e-06	-1.309751e-06	-4.888152e-09	-9.425406e+00	-3.222318e+02
2.620000e-06	-1.407831e-06	-5.676974e-09	-1.013122e+01	-3.737974e+02
2.630000e-06	-1.505388e-06	-6.464038e-09	-1.083327e+01	-4.251611e+02
2.640000e-06	-1.602352e-06	-7.240887e-09	-1.153106e+01	-4.758800e+02
2.650000e-06	-1.698798e-06	-7.998749e-09	-1.222512e+01	-5.255147e+02
2.660000e-06	-1.794784e-06	-8.731892e-09	-1.291586e+01	-5.736658e+02
2.670000e-06	-1.890167e-06	-9.441520e-09	-1.360227e+01	-6.200028e+02
2.680000e-06	-1.984817e-06	-1.012245e-08	-1.428341e+01	-6.642830e+02
2.690000e-06	-2.078663e-06	-1.076865e-08	-1.495875e+01	-7.063583e+02
2.700000e-06	-2.171595e-06	-1.138067e-08	-1.562752e+01	-7.461702e+02
2.710000e-06	-2.263647e-06	-1.195936e-08	-1.628995e+01	-7.837364e+02
2.720000e-06	-2.354893e-06	-1.250504e-08	-1.694659e+01	-8.191318e+02
2.730000e-06	-2.445288e-06	-1.301553e-08	-1.759710e+01	-8.524673e+02
2.740000e-06	-2.534757e-06	-1.349543e-08	-1.824095e+01	-8.838709e+02
2.750000e-06	-2.623362e-06	-1.395018e-08	-1.887858e+01	-9.134733e+02
2.760000e-06	-2.711220e-06	-1.437849e-08	-1.951084e+01	-9.413983e+02
2.770000e-06	-2.798216e-06	-1.478090e-08	-2.013689e+01	-9.677589e+02
2.780000e-06	-2.884121e-06	-1.516264e-08	-2.075509e+01	-9.926571e+02
2.790000e-06	-2.968813e-06	-1.552387e-08	-2.136457e+01	-1.016187e+03
2.800000e-06	-3.052394e-06	-1.586419e-08	-2.196604e+01	-1.038436e+03
2.810000e-06	-3.135010e-06	-1.618479e-08	-2.256057e+01	-1.059488e+03
2.820000e-06	-3.216656e-06	-1.649018e-08	-2.314812e+01	-1.079424e+03
2.830000e-06	-3.297262e-06	-1.678152e-08	-2.372819e+01	-1.098320e+03
2.840000e-06	-3.376711e-06	-1.705654e-08	-2.429994e+01	-1.116247e+03
2.850000e-06	-3.454783e-06	-1.731840e-08	-2.486177e+01	-1.133267e+03
2.860000e-06	-3.531372e-06	-1.756714e-08	-2.541292e+01	-1.149433e+03
2.870000e-06	-3.606538e-06	-1.780370e-08	-2.595385e+01	-1.164791e+03
2.880000e-06	-3.680348e-06	-1.802890e-08	-2.648501e+01	-1.179381e+03
2.890000e-06	-3.752909e-06	-1.824279e-08	-2.700718e+01	-1.193238e+03
2.900000e-06	-3.824177e-06	-1.844485e-08	-2.752005e+01	-1.206399e+03
2.910000e-06	-3.893982e-06	-1.863439e-08	-2.802239e+01	-1.218903e+03
2.920000e-06	-3.962264e-06	-1.881507e-08	-2.851377e+01	-1.230788e+03
2.930000e-06	-4.029091e-06	-1.898892e-08	-2.899468e+01	-1.242096e+03
2.940000e-06	-4.094552e-06	-1.915459e-08	-2.946575e+01	-1.252864e+03
