# Temperatura_=_68.22
# Concentracion g/m^3_=_28200.0
# C_Vs_to_Am_M_A/Vsm_=_65563218390.804596
# pendiente_HvsI_1/m_=_3716.3
# ordenada_HvsI_A/m_=_1297.0
# frecuencia_Hz_=_301747.65516501473

Tiempo_(s)	Campo_(V.s)	Magnetizacion_(V.s)	Campo_(kA/m)	Magnetizacion_(A/m)
0.000000e+00	-5.320693e-06	-2.325745e-08	-3.829920e+01	-1.521543e+03
1.000000e-08	-5.318284e-06	-2.325155e-08	-3.828186e+01	-1.521130e+03
2.000000e-08	-5.314022e-06	-2.323934e-08	-3.825119e+01	-1.520557e+03
3.000000e-08	-5.308106e-06	-2.322681e-08	-3.820860e+01	-1.519817e+03
4.000000e-08	-5.300630e-06	-2.321367e-08	-3.815479e+01	-1.518897e+03
5.000000e-08	-5.291478e-06	-2.319435e-08	-3.808891e+01	-1.517782e+03
6.000000e-08	-5.280339e-06	-2.316949e-08	-3.800873e+01	-1.516459e+03
7.000000e-08	-5.267291e-06	-2.313548e-08	-3.791481e+01	-1.514923e+03
8.000000e-08	-5.252265e-06	-2.311500e-08	-3.780665e+01	-1.513178e+03
9.000000e-08	-5.235004e-06	-2.314325e-08	-3.768241e+01	-1.511241e+03
1.000000e-07	-5.215620e-06	-2.312034e-08	-3.754288e+01	-1.509137e+03
1.100000e-07	-5.194345e-06	-2.304569e-08	-3.738973e+01	-1.506896e+03
1.200000e-07	-5.171377e-06	-2.299386e-08	-3.722440e+01	-1.504548e+03
1.300000e-07	-5.146926e-06	-2.289030e-08	-3.704840e+01	-1.502112e+03
1.400000e-07	-5.120922e-06	-2.285422e-08	-3.686122e+01	-1.499598e+03
1.500000e-07	-5.093169e-06	-2.292896e-08	-3.666145e+01	-1.497003e+03
1.600000e-07	-5.063838e-06	-2.279569e-08	-3.645032e+01	-1.494306e+03
1.700000e-07	-5.033085e-06	-2.275328e-08	-3.622895e+01	-1.491477e+03
1.800000e-07	-5.000435e-06	-2.280293e-08	-3.599394e+01	-1.488480e+03
1.900000e-07	-4.965702e-06	-2.261176e-08	-3.574392e+01	-1.485278e+03
2.000000e-07	-4.929432e-06	-2.257509e-08	-3.548285e+01	-1.481838e+03
2.100000e-07	-4.891601e-06	-2.257544e-08	-3.521053e+01	-1.478136e+03
2.200000e-07	-4.852007e-06	-2.241939e-08	-3.492553e+01	-1.474157e+03
2.300000e-07	-4.810552e-06	-2.238268e-08	-3.462713e+01	-1.469897e+03
2.400000e-07	-4.767094e-06	-2.232150e-08	-3.431431e+01	-1.465359e+03
2.500000e-07	-4.721872e-06	-2.222686e-08	-3.398880e+01	-1.460549e+03
2.600000e-07	-4.674946e-06	-2.221829e-08	-3.365102e+01	-1.455474e+03
2.700000e-07	-4.626057e-06	-2.208815e-08	-3.329910e+01	-1.450140e+03
2.800000e-07	-4.575044e-06	-2.196339e-08	-3.293190e+01	-1.444545e+03
2.900000e-07	-4.522085e-06	-2.190613e-08	-3.255070e+01	-1.438688e+03
3.000000e-07	-4.467490e-06	-2.182534e-08	-3.215771e+01	-1.432560e+03
3.100000e-07	-4.411321e-06	-2.172552e-08	-3.175340e+01	-1.426153e+03
3.200000e-07	-4.353336e-06	-2.162495e-08	-3.133601e+01	-1.419461e+03
3.300000e-07	-4.293682e-06	-2.151970e-08	-3.090662e+01	-1.412476e+03
3.400000e-07	-4.232612e-06	-2.137521e-08	-3.046702e+01	-1.405196e+03
3.500000e-07	-4.170051e-06	-2.126026e-08	-3.001670e+01	-1.397620e+03
3.600000e-07	-4.106102e-06	-2.115905e-08	-2.955639e+01	-1.389748e+03
3.700000e-07	-4.040620e-06	-2.104767e-08	-2.908503e+01	-1.381580e+03
3.800000e-07	-3.973485e-06	-2.093567e-08	-2.860179e+01	-1.373111e+03
3.900000e-07	-3.904927e-06	-2.076834e-08	-2.810829e+01	-1.364337e+03
4.000000e-07	-3.835095e-06	-2.060384e-08	-2.760563e+01	-1.355246e+03
4.100000e-07	-3.764079e-06	-2.047619e-08	-2.709445e+01	-1.345823e+03
4.200000e-07	-3.691867e-06	-2.033458e-08	-2.657465e+01	-1.336051e+03
4.300000e-07	-3.618241e-06	-2.018508e-08	-2.604468e+01	-1.325910e+03
4.400000e-07	-3.543000e-06	-2.002479e-08	-2.550308e+01	-1.315382e+03
4.500000e-07	-3.466274e-06	-1.985637e-08	-2.495080e+01	-1.304449e+03
4.600000e-07	-3.388297e-06	-1.967805e-08	-2.438951e+01	-1.293097e+03
4.700000e-07	-3.308946e-06	-1.950356e-08	-2.381832e+01	-1.281311e+03
4.800000e-07	-3.228241e-06	-1.932690e-08	-2.323740e+01	-1.269080e+03
4.900000e-07	-3.146364e-06	-1.912651e-08	-2.264804e+01	-1.256392e+03
5.000000e-07	-3.063404e-06	-1.892002e-08	-2.205087e+01	-1.243232e+03
5.100000e-07	-2.979535e-06	-1.870611e-08	-2.144717e+01	-1.229583e+03
5.200000e-07	-2.894794e-06	-1.848998e-08	-2.083719e+01	-1.215424e+03
5.300000e-07	-2.809107e-06	-1.826649e-08	-2.022040e+01	-1.200729e+03
5.400000e-07	-2.722471e-06	-1.803552e-08	-1.959679e+01	-1.185467e+03
5.500000e-07	-2.634979e-06	-1.779785e-08	-1.896700e+01	-1.169601e+03
5.600000e-07	-2.546527e-06	-1.754151e-08	-1.833031e+01	-1.153095e+03
5.700000e-07	-2.456923e-06	-1.727773e-08	-1.768532e+01	-1.135906e+03
5.800000e-07	-2.366184e-06	-1.700868e-08	-1.703217e+01	-1.117993e+03
5.900000e-07	-2.274546e-06	-1.672520e-08	-1.637255e+01	-1.099314e+03
6.000000e-07	-2.182178e-06	-1.641881e-08	-1.570767e+01	-1.079825e+03
6.100000e-07	-2.089050e-06	-1.610149e-08	-1.503732e+01	-1.059481e+03
6.200000e-07	-1.995164e-06	-1.577881e-08	-1.436152e+01	-1.038235e+03
6.300000e-07	-1.900560e-06	-1.544132e-08	-1.368053e+01	-1.016039e+03
6.400000e-07	-1.805329e-06	-1.508925e-08	-1.299505e+01	-9.928356e+02
6.500000e-07	-1.709510e-06	-1.471997e-08	-1.230533e+01	-9.685635e+02
6.600000e-07	-1.613091e-06	-1.433020e-08	-1.161129e+01	-9.431522e+02
6.700000e-07	-1.516057e-06	-1.392095e-08	-1.091283e+01	-9.165229e+02
6.800000e-07	-1.418330e-06	-1.349575e-08	-1.020937e+01	-8.885884e+02
6.900000e-07	-1.319958e-06	-1.305074e-08	-9.501273e+00	-8.592549e+02
7.000000e-07	-1.221042e-06	-1.258023e-08	-8.789256e+00	-8.284258e+02
7.100000e-07	-1.121701e-06	-1.208091e-08	-8.074181e+00	-7.960063e+02
7.200000e-07	-1.022080e-06	-1.155583e-08	-7.357094e+00	-7.619110e+02
7.300000e-07	-9.221658e-07	-1.100852e-08	-6.637898e+00	-7.260718e+02
7.400000e-07	-8.219545e-07	-1.043760e-08	-5.916561e+00	-6.884477e+02
7.500000e-07	-7.215172e-07	-9.842467e-09	-5.193597e+00	-6.490337e+02
7.600000e-07	-6.208535e-07	-9.217715e-09	-4.469003e+00	-6.078687e+02
7.700000e-07	-5.199803e-07	-8.563682e-09	-3.742902e+00	-5.650403e+02
7.800000e-07	-4.189538e-07	-7.886423e-09	-3.015697e+00	-5.206855e+02
7.900000e-07	-3.178492e-07	-7.189844e-09	-2.287930e+00	-4.749862e+02
8.000000e-07	-2.166378e-07	-6.476208e-09	-1.559394e+00	-4.281578e+02
8.100000e-07	-1.153020e-07	-5.750128e-09	-8.299626e-01	-3.804331e+02
8.200000e-07	-1.388226e-08	-5.016435e-09	-9.992677e-02	-3.320414e+02
8.300000e-07	8.762279e-08	-4.275866e-09	6.307229e-01	-2.831852e+02
8.400000e-07	1.890966e-07	-3.529225e-09	1.361147e+00	-2.340183e+02
8.500000e-07	2.904315e-07	-2.779770e-09	2.090573e+00	-1.846279e+02
8.600000e-07	3.916542e-07	-2.028453e-09	2.819190e+00	-1.350248e+02
8.700000e-07	4.927983e-07	-1.269981e-09	3.547241e+00	-8.514319e+01
8.800000e-07	5.938380e-07	-5.029196e-10	4.274542e+00	-3.485326e+01
8.900000e-07	6.947122e-07	2.744131e-10	5.000650e+00	1.601635e+01
9.000000e-07	7.953739e-07	1.064127e-09	5.725229e+00	6.764656e+01
9.100000e-07	8.958307e-07	1.865805e-09	6.448333e+00	1.201912e+02
9.200000e-07	9.960439e-07	2.679926e-09	7.169684e+00	1.737409e+02
9.300000e-07	1.095945e-06	3.506948e-09	7.888790e+00	2.282921e+02
9.400000e-07	1.195461e-06	4.348271e-09	8.605121e+00	2.837276e+02
9.500000e-07	1.294503e-06	5.199658e-09	9.318044e+00	3.398102e+02
9.600000e-07	1.392949e-06	6.056392e-09	1.002667e+01	3.961932e+02
9.700000e-07	1.490725e-06	6.912889e-09	1.073048e+01	4.524439e+02
9.800000e-07	1.587846e-06	7.761149e-09	1.142957e+01	5.080794e+02
9.900000e-07	1.684274e-06	8.592109e-09	1.212368e+01	5.626078e+02
1.000000e-06	1.780024e-06	9.398831e-09	1.281290e+01	6.155699e+02
1.010000e-06	1.875169e-06	1.017392e-08	1.349777e+01	6.665753e+02
1.020000e-06	1.969687e-06	1.091152e-08	1.417813e+01	7.153276e+02
1.030000e-06	2.063528e-06	1.161152e-08	1.485361e+01	7.616373e+02
1.040000e-06	2.156688e-06	1.227422e-08	1.552419e+01	8.054206e+02
1.050000e-06	2.249192e-06	1.289989e-08	1.619005e+01	8.466869e+02
1.060000e-06	2.340951e-06	1.348865e-08	1.685054e+01	8.855178e+02
1.070000e-06	2.431822e-06	1.404566e-08	1.750464e+01	9.220420e+02
1.080000e-06	2.521675e-06	1.457046e-08	1.815142e+01	9.564121e+02
1.090000e-06	2.610489e-06	1.506341e-08	1.879072e+01	9.887837e+02
1.100000e-06	2.698320e-06	1.552601e-08	1.942294e+01	1.019303e+03
1.110000e-06	2.785224e-06	1.596169e-08	2.004849e+01	1.048100e+03
1.120000e-06	2.871258e-06	1.637427e-08	2.066778e+01	1.075288e+03
1.130000e-06	2.956436e-06	1.676457e-08	2.128090e+01	1.100969e+03
1.140000e-06	3.040718e-06	1.713301e-08	2.188757e+01	1.125235e+03
1.150000e-06	3.124002e-06	1.748046e-08	2.248707e+01	1.148178e+03
1.160000e-06	3.206135e-06	1.781138e-08	2.307828e+01	1.169885e+03
1.170000e-06	3.287013e-06	1.812509e-08	2.366045e+01	1.190446e+03
1.180000e-06	3.366732e-06	1.842190e-08	2.423428e+01	1.209944e+03
1.190000e-06	3.445316e-06	1.870420e-08	2.479994e+01	1.228456e+03
1.200000e-06	3.522686e-06	1.897234e-08	2.535686e+01	1.246046e+03
1.210000e-06	3.598830e-06	1.922571e-08	2.590496e+01	1.262771e+03
1.220000e-06	3.673596e-06	1.946729e-08	2.644313e+01	1.278674e+03
1.230000e-06	3.746800e-06	1.969692e-08	2.697007e+01	1.293790e+03
1.240000e-06	3.818479e-06	1.991354e-08	2.748603e+01	1.308154e+03
1.250000e-06	3.888713e-06	2.012001e-08	2.799158e+01	1.321799e+03
1.260000e-06	3.957657e-06	2.031614e-08	2.848785e+01	1.334763e+03
1.270000e-06	4.025349e-06	2.050160e-08	2.897511e+01	1.347089e+03
1.280000e-06	4.091551e-06	2.067886e-08	2.945165e+01	1.358820e+03
1.290000e-06	4.156128e-06	2.085021e-08	2.991648e+01	1.369999e+03
1.300000e-06	4.219156e-06	2.101540e-08	3.037017e+01	1.380661e+03
1.310000e-06	4.280756e-06	2.117244e-08	3.081357e+01	1.390832e+03
1.320000e-06	4.340994e-06	2.132248e-08	3.124717e+01	1.400525e+03
1.330000e-06	4.399762e-06	2.146668e-08	3.167019e+01	1.409742e+03
1.340000e-06	4.456755e-06	2.160134e-08	3.208044e+01	1.418480e+03
1.350000e-06	4.511998e-06	2.172456e-08	3.247809e+01	1.426730e+03
1.360000e-06	4.565691e-06	2.184048e-08	3.286458e+01	1.434494e+03
1.370000e-06	4.617648e-06	2.195099e-08	3.323857e+01	1.441782e+03
1.380000e-06	4.667598e-06	2.205619e-08	3.359812e+01	1.448616e+03
1.390000e-06	4.715637e-06	2.215441e-08	3.394392e+01	1.455035e+03
1.400000e-06	4.761994e-06	2.224638e-08	3.427760e+01	1.461083e+03
1.410000e-06	4.806825e-06	2.233388e-08	3.460030e+01	1.466811e+03
1.420000e-06	4.850051e-06	2.241656e-08	3.491145e+01	1.472260e+03
1.430000e-06	4.891339e-06	2.249575e-08	3.520864e+01	1.477465e+03
1.440000e-06	4.930806e-06	2.257126e-08	3.549273e+01	1.482439e+03
1.450000e-06	4.968725e-06	2.264346e-08	3.576568e+01	1.487183e+03
1.460000e-06	5.005095e-06	2.271186e-08	3.602748e+01	1.491682e+03
1.470000e-06	5.039716e-06	2.277578e-08	3.627669e+01	1.495913e+03
1.480000e-06	5.072402e-06	2.283452e-08	3.651197e+01	1.499852e+03
1.490000e-06	5.103330e-06	2.288854e-08	3.673459e+01	1.503479e+03
1.500000e-06	5.132606e-06	2.293686e-08	3.694532e+01	1.506788e+03
1.510000e-06	5.160121e-06	2.298081e-08	3.714338e+01	1.509784e+03
1.520000e-06	5.185596e-06	2.302154e-08	3.732676e+01	1.512484e+03
1.530000e-06	5.209047e-06	2.306020e-08	3.749556e+01	1.514912e+03
1.540000e-06	5.230721e-06	2.309483e-08	3.765157e+01	1.517093e+03
1.550000e-06	5.250717e-06	2.312439e-08	3.779551e+01	1.519052e+03
1.560000e-06	5.268864e-06	2.315045e-08	3.792613e+01	1.520804e+03
1.570000e-06	5.284990e-06	2.317194e-08	3.804221e+01	1.522353e+03
1.580000e-06	5.299205e-06	2.319091e-08	3.814453e+01	1.523697e+03
1.590000e-06	5.311469e-06	2.320748e-08	3.823281e+01	1.524830e+03
1.600000e-06	5.321541e-06	2.322108e-08	3.830531e+01	1.525743e+03
1.610000e-06	5.329506e-06	2.323239e-08	3.836264e+01	1.526431e+03
1.620000e-06	5.335668e-06	2.324157e-08	3.840700e+01	1.526896e+03
1.630000e-06	5.340094e-06	2.324748e-08	3.843885e+01	1.527148e+03
1.640000e-06	5.342575e-06	2.325074e-08	3.845672e+01	1.527201e+03
1.650000e-06	5.343031e-06	2.325238e-08	3.846000e+01	1.527072e+03
1.660000e-06	5.341706e-06	2.324731e-08	3.845046e+01	1.526773e+03
1.670000e-06	5.338809e-06	2.323834e-08	3.842961e+01	1.526314e+03
1.680000e-06	5.334224e-06	2.322907e-08	3.839660e+01	1.525693e+03
1.690000e-06	5.327675e-06	2.321674e-08	3.834946e+01	1.524903e+03
1.700000e-06	5.319352e-06	2.320313e-08	3.828955e+01	1.523927e+03
1.710000e-06	5.309503e-06	2.318791e-08	3.821866e+01	1.522753e+03
1.720000e-06	5.297967e-06	2.317894e-08	3.813562e+01	1.521368e+03
1.730000e-06	5.284370e-06	2.316506e-08	3.803774e+01	1.519770e+03
1.740000e-06	5.268773e-06	2.307335e-08	3.792547e+01	1.517967e+03
1.750000e-06	5.251059e-06	2.302585e-08	3.779797e+01	1.515978e+03
1.760000e-06	5.230736e-06	2.303575e-08	3.765168e+01	1.513831e+03
1.770000e-06	5.208037e-06	2.302365e-08	3.748829e+01	1.511556e+03
1.780000e-06	5.183797e-06	2.308196e-08	3.731380e+01	1.509179e+03
1.790000e-06	5.158738e-06	2.297164e-08	3.713342e+01	1.506720e+03
1.800000e-06	5.132578e-06	2.282478e-08	3.694513e+01	1.504183e+03
1.810000e-06	5.104386e-06	2.291770e-08	3.674219e+01	1.501560e+03
1.820000e-06	5.074184e-06	2.279175e-08	3.652479e+01	1.498828e+03
1.830000e-06	5.042354e-06	2.270991e-08	3.629567e+01	1.495954e+03
1.840000e-06	5.008670e-06	2.285191e-08	3.605322e+01	1.492901e+03
1.850000e-06	4.973356e-06	2.269306e-08	3.579902e+01	1.489633e+03
1.860000e-06	4.936363e-06	2.264041e-08	3.553274e+01	1.486119e+03
1.870000e-06	4.897344e-06	2.269301e-08	3.525187e+01	1.482338e+03
1.880000e-06	4.856701e-06	2.252264e-08	3.495932e+01	1.478278e+03
1.890000e-06	4.814425e-06	2.252023e-08	3.465500e+01	1.473937e+03
1.900000e-06	4.770361e-06	2.240678e-08	3.433783e+01	1.469320e+03
1.910000e-06	4.724530e-06	2.227461e-08	3.400793e+01	1.464432e+03
1.920000e-06	4.676757e-06	2.236648e-08	3.366405e+01	1.459282e+03
1.930000e-06	4.627335e-06	2.221967e-08	3.330830e+01	1.453872e+03
1.940000e-06	4.576229e-06	2.211552e-08	3.294043e+01	1.448202e+03
1.950000e-06	4.522996e-06	2.204517e-08	3.255725e+01	1.442267e+03
1.960000e-06	4.467855e-06	2.191049e-08	3.216034e+01	1.436059e+03
1.970000e-06	4.411043e-06	2.184384e-08	3.175140e+01	1.429571e+03
1.980000e-06	4.352716e-06	2.168179e-08	3.133155e+01	1.422794e+03
1.990000e-06	4.293081e-06	2.163705e-08	3.090229e+01	1.415724e+03
2.000000e-06	4.231902e-06	2.155808e-08	3.046191e+01	1.408359e+03
2.010000e-06	4.168968e-06	2.138060e-08	3.000890e+01	1.400697e+03
2.020000e-06	4.104400e-06	2.126517e-08	2.954413e+01	1.392740e+03
2.030000e-06	4.038451e-06	2.111010e-08	2.906942e+01	1.384485e+03
2.040000e-06	3.971210e-06	2.104438e-08	2.858541e+01	1.375929e+03
2.050000e-06	3.902455e-06	2.091127e-08	2.809050e+01	1.367065e+03
2.060000e-06	3.832086e-06	2.074614e-08	2.758397e+01	1.357879e+03
2.070000e-06	3.760368e-06	2.062789e-08	2.706774e+01	1.348357e+03
2.080000e-06	3.687481e-06	2.043738e-08	2.654308e+01	1.338481e+03
2.090000e-06	3.613272e-06	2.028745e-08	2.600892e+01	1.328230e+03
2.100000e-06	3.537665e-06	2.012080e-08	2.546468e+01	1.317587e+03
2.110000e-06	3.460508e-06	1.996706e-08	2.490929e+01	1.306535e+03
2.120000e-06	3.381885e-06	1.979722e-08	2.434335e+01	1.295059e+03
2.130000e-06	3.302083e-06	1.960117e-08	2.376893e+01	1.283146e+03
2.140000e-06	3.221153e-06	1.942675e-08	2.318638e+01	1.270785e+03
2.150000e-06	3.139157e-06	1.922086e-08	2.259616e+01	1.257962e+03
2.160000e-06	3.056136e-06	1.903035e-08	2.199856e+01	1.244663e+03
2.170000e-06	2.972111e-06	1.882019e-08	2.139373e+01	1.230870e+03
2.180000e-06	2.886863e-06	1.859941e-08	2.078011e+01	1.216560e+03
2.190000e-06	2.800337e-06	1.836913e-08	2.015727e+01	1.201705e+03
2.200000e-06	2.712820e-06	1.813014e-08	1.952732e+01	1.186273e+03
2.210000e-06	2.624388e-06	1.789763e-08	1.889077e+01	1.170228e+03
2.220000e-06	2.535016e-06	1.763940e-08	1.824745e+01	1.153529e+03
2.230000e-06	2.444749e-06	1.737036e-08	1.759770e+01	1.136137e+03
2.240000e-06	2.353719e-06	1.709400e-08	1.694245e+01	1.118009e+03
2.250000e-06	2.262058e-06	1.681924e-08	1.628266e+01	1.099101e+03
2.260000e-06	2.169654e-06	1.652035e-08	1.561752e+01	1.079371e+03
2.270000e-06	2.076245e-06	1.619981e-08	1.494515e+01	1.058774e+03
2.280000e-06	1.981835e-06	1.586968e-08	1.426557e+01	1.037261e+03
2.290000e-06	1.886623e-06	1.552507e-08	1.358022e+01	1.014782e+03
2.300000e-06	1.790762e-06	1.517014e-08	1.289019e+01	9.912788e+02
2.310000e-06	1.694354e-06	1.479908e-08	1.219623e+01	9.666877e+02
2.320000e-06	1.597434e-06	1.441294e-08	1.149858e+01	9.409359e+02
2.330000e-06	1.499988e-06	1.400235e-08	1.079715e+01	9.139419e+02
2.340000e-06	1.402023e-06	1.356509e-08	1.009199e+01	8.856164e+02
2.350000e-06	1.303678e-06	1.310604e-08	9.384086e+00	8.558644e+02
2.360000e-06	1.205051e-06	1.263304e-08	8.674153e+00	8.245893e+02
2.370000e-06	1.106101e-06	1.214083e-08	7.961892e+00	7.916981e+02
2.380000e-06	1.006836e-06	1.161728e-08	7.247364e+00	7.571094e+02
2.390000e-06	9.072860e-07	1.105950e-08	6.530791e+00	7.207620e+02
2.400000e-06	8.074245e-07	1.047035e-08	5.811972e+00	6.826242e+02
2.410000e-06	7.072849e-07	9.858848e-09	5.091150e+00	6.427029e+02
2.420000e-06	6.069075e-07	9.223652e-09	4.368618e+00	6.010504e+02
2.430000e-06	5.063312e-07	8.563828e-09	3.644653e+00	5.577688e+02
2.440000e-06	4.055429e-07	7.883420e-09	2.919163e+00	5.130086e+02
2.450000e-06	3.045728e-07	7.181803e-09	2.192364e+00	4.669625e+02
2.460000e-06	2.033950e-07	6.458395e-09	1.464070e+00	4.198530e+02
2.470000e-06	1.020129e-07	5.721313e-09	7.343053e-01	3.719140e+02
2.480000e-06	6.285144e-10	4.979651e-09	4.524148e-03	3.233696e+02
2.490000e-06	-1.006759e-07	4.231771e-09	-7.246811e-01	2.744106e+02
2.500000e-06	-2.018996e-07	3.475374e-09	-1.453306e+00	2.251732e+02
2.510000e-06	-3.030767e-07	2.715437e-09	-2.181595e+00	1.757233e+02
2.520000e-06	-4.041762e-07	1.955997e-09	-2.909326e+00	1.260494e+02
2.530000e-06	-5.050951e-07	1.193733e-09	-3.635756e+00	7.606573e+01
2.540000e-06	-6.058041e-07	4.238499e-10	-4.360676e+00	2.562771e+01
2.550000e-06	-7.063120e-07	-3.560118e-10	-5.084147e+00	-2.544226e+01
2.560000e-06	-8.065787e-07	-1.148265e-09	-5.805884e+00	-7.732119e+01
2.570000e-06	-9.065125e-07	-1.955513e-09	-6.525223e+00	-1.301484e+02
2.580000e-06	-1.006055e-06	-2.778104e-09	-7.241749e+00	-1.839904e+02
2.590000e-06	-1.105253e-06	-3.615651e-09	-7.955788e+00	-2.388125e+02
2.600000e-06	-1.204104e-06	-4.466696e-09	-8.667331e+00	-2.944631e+02
2.610000e-06	-1.302595e-06	-5.325403e-09	-9.376289e+00	-3.506724e+02
2.620000e-06	-1.400700e-06	-6.186302e-09	-1.008246e+01	-4.070657e+02
2.630000e-06	-1.498258e-06	-7.045943e-09	-1.078471e+01	-4.631921e+02
2.640000e-06	-1.595207e-06	-7.895908e-09	-1.148255e+01	-5.185618e+02
2.650000e-06	-1.691637e-06	-8.724835e-09	-1.217668e+01	-5.726882e+02
2.660000e-06	-1.787590e-06	-9.527270e-09	-1.286736e+01	-6.251284e+02
2.670000e-06	-1.883023e-06	-1.029963e-08	-1.355430e+01	-6.755167e+02
2.680000e-06	-1.977741e-06	-1.103592e-08	-1.423610e+01	-7.235868e+02
2.690000e-06	-2.071532e-06	-1.173186e-08	-1.491122e+01	-7.691798e+02
2.700000e-06	-2.164460e-06	-1.238932e-08	-1.558013e+01	-8.122405e+02
2.710000e-06	-2.256564e-06	-1.301351e-08	-1.624311e+01	-8.528011e+02
2.720000e-06	-2.347825e-06	-1.360284e-08	-1.690002e+01	-8.909593e+02
2.730000e-06	-2.438270e-06	-1.415454e-08	-1.755106e+01	-9.268531e+02
2.740000e-06	-2.527834e-06	-1.467205e-08	-1.819576e+01	-9.606375e+02
2.750000e-06	-2.616496e-06	-1.515869e-08	-1.883396e+01	-9.924667e+02
2.760000e-06	-2.704358e-06	-1.561745e-08	-1.946641e+01	-1.022482e+03
2.770000e-06	-2.791402e-06	-1.604939e-08	-2.009296e+01	-1.050810e+03
2.780000e-06	-2.877368e-06	-1.645860e-08	-2.071176e+01	-1.077559e+03
2.790000e-06	-2.962155e-06	-1.684734e-08	-2.132207e+01	-1.102827e+03
2.800000e-06	-3.045845e-06	-1.721364e-08	-2.192448e+01	-1.126707e+03
2.810000e-06	-3.128511e-06	-1.755776e-08	-2.251953e+01	-1.149288e+03
2.820000e-06	-3.210171e-06	-1.788245e-08	-2.310733e+01	-1.170661e+03
2.830000e-06	-3.290767e-06	-1.819221e-08	-2.368747e+01	-1.190910e+03
2.840000e-06	-3.370297e-06	-1.848787e-08	-2.425994e+01	-1.210120e+03
2.850000e-06	-3.448582e-06	-1.876954e-08	-2.482345e+01	-1.228363e+03
2.860000e-06	-3.525425e-06	-1.903618e-08	-2.537658e+01	-1.245703e+03
2.870000e-06	-3.600806e-06	-1.928720e-08	-2.591918e+01	-1.262190e+03
2.880000e-06	-3.674766e-06	-1.952534e-08	-2.645155e+01	-1.277865e+03
2.890000e-06	-3.747405e-06	-1.975357e-08	-2.697442e+01	-1.292764e+03
2.900000e-06	-3.818754e-06	-1.997304e-08	-2.748801e+01	-1.306920e+03
2.910000e-06	-3.888659e-06	-2.018216e-08	-2.799120e+01	-1.320367e+03
2.920000e-06	-3.957002e-06	-2.037995e-08	-2.848314e+01	-1.333146e+03
2.930000e-06	-4.023925e-06	-2.056552e-08	-2.896486e+01	-1.345298e+03
2.940000e-06	-4.089463e-06	-2.073966e-08	-2.943661e+01	-1.356868e+03
