# Temperatura_=_57.22
# Concentracion g/m^3_=_28200.0
# C_Vs_to_Am_M_A/Vsm_=_65563218390.804596
# pendiente_HvsI_1/m_=_3716.3
# ordenada_HvsI_A/m_=_1297.0
# frecuencia_Hz_=_301747.4331103497

Tiempo_(s)	Campo_(V.s)	Magnetizacion_(V.s)	Campo_(kA/m)	Magnetizacion_(A/m)
0.000000e+00	-5.312296e-06	-2.145244e-08	-3.830083e+01	-1.403649e+03
1.000000e-08	-5.310023e-06	-2.145078e-08	-3.828444e+01	-1.403300e+03
2.000000e-08	-5.305930e-06	-2.144253e-08	-3.825494e+01	-1.402804e+03
3.000000e-08	-5.300249e-06	-2.143308e-08	-3.821398e+01	-1.402154e+03
4.000000e-08	-5.292955e-06	-2.142186e-08	-3.816139e+01	-1.401338e+03
5.000000e-08	-5.283917e-06	-2.140419e-08	-3.809623e+01	-1.400342e+03
6.000000e-08	-5.272856e-06	-2.138108e-08	-3.801648e+01	-1.399155e+03
7.000000e-08	-5.259836e-06	-2.134680e-08	-3.792260e+01	-1.397772e+03
8.000000e-08	-5.244927e-06	-2.132240e-08	-3.781512e+01	-1.396197e+03
9.000000e-08	-5.227852e-06	-2.136267e-08	-3.769201e+01	-1.394443e+03
1.000000e-07	-5.208606e-06	-2.135210e-08	-3.755325e+01	-1.392531e+03
1.100000e-07	-5.187444e-06	-2.127102e-08	-3.740067e+01	-1.390487e+03
1.200000e-07	-5.164557e-06	-2.122439e-08	-3.723566e+01	-1.388337e+03
1.300000e-07	-5.140197e-06	-2.111215e-08	-3.706003e+01	-1.386101e+03
1.400000e-07	-5.114287e-06	-2.106499e-08	-3.687322e+01	-1.383791e+03
1.500000e-07	-5.086682e-06	-2.118948e-08	-3.667419e+01	-1.381405e+03
1.600000e-07	-5.057538e-06	-2.105226e-08	-3.646407e+01	-1.378928e+03
1.700000e-07	-5.026976e-06	-2.098960e-08	-3.624372e+01	-1.376336e+03
1.800000e-07	-4.994612e-06	-2.108920e-08	-3.601038e+01	-1.373595e+03
1.900000e-07	-4.960126e-06	-2.086996e-08	-3.576174e+01	-1.370670e+03
2.000000e-07	-4.924057e-06	-2.081525e-08	-3.550169e+01	-1.367527e+03
2.100000e-07	-4.886458e-06	-2.086862e-08	-3.523061e+01	-1.364139e+03
2.200000e-07	-4.847081e-06	-2.069888e-08	-3.494671e+01	-1.360490e+03
2.300000e-07	-4.805902e-06	-2.066444e-08	-3.464981e+01	-1.356572e+03
2.400000e-07	-4.762727e-06	-2.062985e-08	-3.433853e+01	-1.352387e+03
2.500000e-07	-4.717713e-06	-2.051167e-08	-3.401398e+01	-1.347946e+03
2.600000e-07	-4.670977e-06	-2.051200e-08	-3.367702e+01	-1.343260e+03
2.700000e-07	-4.622330e-06	-2.040815e-08	-3.332629e+01	-1.338341e+03
2.800000e-07	-4.571643e-06	-2.029817e-08	-3.296084e+01	-1.333195e+03
2.900000e-07	-4.518969e-06	-2.024004e-08	-3.258107e+01	-1.327824e+03
3.000000e-07	-4.464574e-06	-2.014748e-08	-3.218889e+01	-1.322222e+03
3.100000e-07	-4.408626e-06	-2.005095e-08	-3.178552e+01	-1.316379e+03
3.200000e-07	-4.350871e-06	-1.996209e-08	-3.136911e+01	-1.310281e+03
3.300000e-07	-4.291343e-06	-1.988192e-08	-3.093993e+01	-1.303915e+03
3.400000e-07	-4.230376e-06	-1.975665e-08	-3.050036e+01	-1.297269e+03
3.500000e-07	-4.167987e-06	-1.964640e-08	-3.005054e+01	-1.290339e+03
3.600000e-07	-4.104253e-06	-1.954791e-08	-2.959103e+01	-1.283121e+03
3.700000e-07	-4.039030e-06	-1.943014e-08	-2.912079e+01	-1.275618e+03
3.800000e-07	-3.972154e-06	-1.933068e-08	-2.863862e+01	-1.267833e+03
3.900000e-07	-3.903795e-06	-1.918955e-08	-2.814576e+01	-1.259770e+03
4.000000e-07	-3.834182e-06	-1.904006e-08	-2.764386e+01	-1.251426e+03
4.100000e-07	-3.763383e-06	-1.892386e-08	-2.713341e+01	-1.242795e+03
4.200000e-07	-3.691331e-06	-1.878511e-08	-2.661393e+01	-1.233861e+03
4.300000e-07	-3.617868e-06	-1.864490e-08	-2.608427e+01	-1.224606e+03
4.400000e-07	-3.542819e-06	-1.849911e-08	-2.554318e+01	-1.215003e+03
4.500000e-07	-3.466303e-06	-1.835009e-08	-2.499151e+01	-1.205028e+03
4.600000e-07	-3.388496e-06	-1.818807e-08	-2.443053e+01	-1.194656e+03
4.700000e-07	-3.309304e-06	-1.802266e-08	-2.385957e+01	-1.183869e+03
4.800000e-07	-3.228740e-06	-1.785920e-08	-2.327872e+01	-1.172650e+03
4.900000e-07	-3.146998e-06	-1.767078e-08	-2.268937e+01	-1.160989e+03
5.000000e-07	-3.064180e-06	-1.748060e-08	-2.209226e+01	-1.148879e+03
5.100000e-07	-2.980469e-06	-1.728478e-08	-2.148872e+01	-1.136312e+03
5.200000e-07	-2.895958e-06	-1.708660e-08	-2.087941e+01	-1.123275e+03
5.300000e-07	-2.810542e-06	-1.688276e-08	-2.026358e+01	-1.109749e+03
5.400000e-07	-2.724135e-06	-1.667129e-08	-1.964059e+01	-1.095707e+03
5.500000e-07	-2.636807e-06	-1.645385e-08	-1.901098e+01	-1.081113e+03
5.600000e-07	-2.548655e-06	-1.621887e-08	-1.837541e+01	-1.065923e+03
5.700000e-07	-2.459420e-06	-1.597460e-08	-1.773204e+01	-1.050090e+03
5.800000e-07	-2.368911e-06	-1.572160e-08	-1.707948e+01	-1.033567e+03
5.900000e-07	-2.277446e-06	-1.545803e-08	-1.642003e+01	-1.016308e+03
6.000000e-07	-2.185283e-06	-1.517635e-08	-1.575555e+01	-9.982728e+02
6.100000e-07	-2.092394e-06	-1.488382e-08	-1.508584e+01	-9.794238e+02
6.200000e-07	-1.998687e-06	-1.458442e-08	-1.441023e+01	-9.597269e+02
6.300000e-07	-1.904247e-06	-1.427298e-08	-1.372933e+01	-9.391474e+02
6.400000e-07	-1.809176e-06	-1.394876e-08	-1.304388e+01	-9.176453e+02
6.500000e-07	-1.713537e-06	-1.360734e-08	-1.235434e+01	-8.951722e+02
6.600000e-07	-1.617349e-06	-1.324750e-08	-1.166083e+01	-8.716678e+02
6.700000e-07	-1.520596e-06	-1.286962e-08	-1.096326e+01	-8.470589e+02
6.800000e-07	-1.423163e-06	-1.247327e-08	-1.026079e+01	-8.212606e+02
6.900000e-07	-1.325004e-06	-1.205643e-08	-9.553074e+00	-7.941799e+02
7.000000e-07	-1.226303e-06	-1.162120e-08	-8.841454e+00	-7.657209e+02
7.100000e-07	-1.127120e-06	-1.116338e-08	-8.126359e+00	-7.357926e+02
7.200000e-07	-1.027578e-06	-1.068309e-08	-7.408677e+00	-7.043162e+02
7.300000e-07	-9.277672e-07	-1.018043e-08	-6.689058e+00	-6.712335e+02
7.400000e-07	-8.277235e-07	-9.652441e-09	-5.967758e+00	-6.365147e+02
7.500000e-07	-7.274879e-07	-9.100115e-09	-5.245076e+00	-6.001650e+02
7.600000e-07	-6.270810e-07	-8.520456e-09	-4.521157e+00	-5.622292e+02
7.700000e-07	-5.264402e-07	-7.917348e-09	-3.795552e+00	-5.227944e+02
7.800000e-07	-4.256066e-07	-7.294875e-09	-3.068558e+00	-4.819893e+02
7.900000e-07	-3.246899e-07	-6.654238e-09	-2.340964e+00	-4.399801e+02
8.000000e-07	-2.236442e-07	-5.998474e-09	-1.612440e+00	-3.969618e+02
8.100000e-07	-1.224572e-07	-5.332666e-09	-8.828978e-01	-3.531451e+02
8.200000e-07	-2.116952e-08	-4.659910e-09	-1.526290e-01	-3.087398e+02
8.300000e-07	8.013615e-08	-3.983512e-09	5.777693e-01	-2.639358e+02
8.400000e-07	1.813887e-07	-3.304164e-09	1.307784e+00	-2.188832e+02
8.500000e-07	2.825898e-07	-2.620602e-09	2.037429e+00	-1.736754e+02
8.600000e-07	3.837357e-07	-1.933449e-09	2.766675e+00	-1.283379e+02
8.700000e-07	4.847492e-07	-1.239442e-09	3.494967e+00	-8.282501e+01
8.800000e-07	5.856134e-07	-5.403091e-10	4.222182e+00	-3.702669e+01
8.900000e-07	6.863147e-07	1.667577e-10	4.948223e+00	9.213376e+00
9.000000e-07	7.868328e-07	8.811061e-10	5.672943e+00	5.607099e+01
9.100000e-07	8.871234e-07	1.603280e-09	6.396023e+00	1.037083e+02
9.200000e-07	9.871779e-07	2.337783e-09	7.117400e+00	1.522389e+02
9.300000e-07	1.086986e-06	3.086556e-09	7.837002e+00	2.016968e+02
9.400000e-07	1.186412e-06	3.851845e-09	8.553848e+00	2.520140e+02
9.500000e-07	1.285398e-06	4.628984e-09	9.267520e+00	3.030104e+02
9.600000e-07	1.383836e-06	5.412728e-09	9.977244e+00	3.543991e+02
9.700000e-07	1.481589e-06	6.198538e-09	1.068203e+01	4.058055e+02
9.800000e-07	1.578598e-06	6.978504e-09	1.138145e+01	4.567983e+02
9.900000e-07	1.674848e-06	7.741366e-09	1.207540e+01	5.069278e+02
1.000000e-06	1.770455e-06	8.481449e-09	1.276471e+01	5.557651e+02
1.010000e-06	1.865465e-06	9.196026e-09	1.344972e+01	6.029378e+02
1.020000e-06	1.959812e-06	9.881439e-09	1.412994e+01	6.481553e+02
1.030000e-06	2.053490e-06	1.053504e-08	1.480534e+01	6.912230e+02
1.040000e-06	2.146493e-06	1.115291e-08	1.547589e+01	7.320430e+02
1.050000e-06	2.238798e-06	1.173641e-08	1.614139e+01	7.706040e+02
1.060000e-06	2.330461e-06	1.228553e-08	1.680226e+01	8.069623e+02
1.070000e-06	2.421408e-06	1.280458e-08	1.745798e+01	8.412198e+02
1.080000e-06	2.511337e-06	1.329481e-08	1.810636e+01	8.735018e+02
1.090000e-06	2.600089e-06	1.376037e-08	1.874624e+01	9.039390e+02
1.100000e-06	2.687798e-06	1.419870e-08	1.937861e+01	9.326555e+02
1.110000e-06	2.774660e-06	1.460912e-08	2.000487e+01	9.597626e+02
1.120000e-06	2.860640e-06	1.499617e-08	2.062478e+01	9.853596e+02
1.130000e-06	2.945680e-06	1.536425e-08	2.123790e+01	1.009536e+03
1.140000e-06	3.029844e-06	1.571237e-08	2.184471e+01	1.032377e+03
1.150000e-06	3.113113e-06	1.603869e-08	2.244507e+01	1.053967e+03
1.160000e-06	3.195268e-06	1.634814e-08	2.303739e+01	1.074388e+03
1.170000e-06	3.276176e-06	1.664236e-08	2.362073e+01	1.093726e+03
1.180000e-06	3.355874e-06	1.692211e-08	2.419533e+01	1.112057e+03
1.190000e-06	3.434420e-06	1.718691e-08	2.476164e+01	1.129456e+03
1.200000e-06	3.511810e-06	1.743938e-08	2.531961e+01	1.145984e+03
1.210000e-06	3.588002e-06	1.767785e-08	2.586894e+01	1.161693e+03
1.220000e-06	3.662789e-06	1.790286e-08	2.640814e+01	1.176625e+03
1.230000e-06	3.735891e-06	1.811588e-08	2.693520e+01	1.190815e+03
1.240000e-06	3.807547e-06	1.831821e-08	2.745183e+01	1.204295e+03
1.250000e-06	3.877882e-06	1.851128e-08	2.795893e+01	1.217099e+03
1.260000e-06	3.946822e-06	1.869594e-08	2.845598e+01	1.229264e+03
1.270000e-06	4.014454e-06	1.887064e-08	2.894360e+01	1.240828e+03
1.280000e-06	4.080591e-06	1.903631e-08	2.942043e+01	1.251831e+03
1.290000e-06	4.145056e-06	1.919520e-08	2.988521e+01	1.262312e+03
1.300000e-06	4.208011e-06	1.935024e-08	3.033911e+01	1.272300e+03
1.310000e-06	4.269581e-06	1.949804e-08	3.078302e+01	1.281817e+03
1.320000e-06	4.329815e-06	1.963713e-08	3.121730e+01	1.290872e+03
1.330000e-06	4.388607e-06	1.976941e-08	3.164118e+01	1.299469e+03
1.340000e-06	4.445628e-06	1.989214e-08	3.205229e+01	1.307604e+03
1.350000e-06	4.500907e-06	2.000575e-08	3.245084e+01	1.315275e+03
1.360000e-06	4.554612e-06	2.011452e-08	3.283805e+01	1.322487e+03
1.370000e-06	4.606576e-06	2.021849e-08	3.321270e+01	1.329256e+03
1.380000e-06	4.656502e-06	2.031616e-08	3.357266e+01	1.335610e+03
1.390000e-06	4.704501e-06	2.040682e-08	3.391873e+01	1.341587e+03
1.400000e-06	4.750857e-06	2.049266e-08	3.425295e+01	1.347232e+03
1.410000e-06	4.795653e-06	2.057421e-08	3.457592e+01	1.352589e+03
1.420000e-06	4.838912e-06	2.065107e-08	3.488781e+01	1.357697e+03
1.430000e-06	4.880334e-06	2.072524e-08	3.518645e+01	1.362582e+03
1.440000e-06	4.919920e-06	2.079522e-08	3.547187e+01	1.367253e+03
1.450000e-06	4.957882e-06	2.086050e-08	3.574556e+01	1.371707e+03
1.460000e-06	4.994264e-06	2.092272e-08	3.600788e+01	1.375926e+03
1.470000e-06	5.028962e-06	2.098289e-08	3.625804e+01	1.379888e+03
1.480000e-06	5.061695e-06	2.103960e-08	3.649404e+01	1.383570e+03
1.490000e-06	5.092590e-06	2.109027e-08	3.671679e+01	1.386956e+03
1.500000e-06	5.121840e-06	2.113476e-08	3.692768e+01	1.390039e+03
1.510000e-06	5.149455e-06	2.117561e-08	3.712678e+01	1.392825e+03
1.520000e-06	5.175111e-06	2.121458e-08	3.731175e+01	1.395330e+03
1.530000e-06	5.198659e-06	2.124974e-08	3.748153e+01	1.397576e+03
1.540000e-06	5.220391e-06	2.127961e-08	3.763821e+01	1.399587e+03
1.550000e-06	5.240519e-06	2.130488e-08	3.778333e+01	1.401383e+03
1.560000e-06	5.258899e-06	2.132739e-08	3.791585e+01	1.402980e+03
1.570000e-06	5.275297e-06	2.134610e-08	3.803408e+01	1.404386e+03
1.580000e-06	5.289686e-06	2.136191e-08	3.813782e+01	1.405600e+03
1.590000e-06	5.302058e-06	2.137709e-08	3.822702e+01	1.406621e+03
1.600000e-06	5.312265e-06	2.139086e-08	3.830062e+01	1.407444e+03
1.610000e-06	5.320349e-06	2.140244e-08	3.835890e+01	1.408069e+03
1.620000e-06	5.326562e-06	2.141153e-08	3.840369e+01	1.408499e+03
1.630000e-06	5.331053e-06	2.141702e-08	3.843607e+01	1.408742e+03
1.640000e-06	5.333723e-06	2.141962e-08	3.845532e+01	1.408811e+03
1.650000e-06	5.334372e-06	2.142193e-08	3.846000e+01	1.408718e+03
1.660000e-06	5.333135e-06	2.141643e-08	3.845108e+01	1.408474e+03
1.670000e-06	5.330216e-06	2.140596e-08	3.843003e+01	1.408083e+03
1.680000e-06	5.325701e-06	2.139908e-08	3.839748e+01	1.407543e+03
1.690000e-06	5.319327e-06	2.138889e-08	3.835153e+01	1.406846e+03
1.700000e-06	5.311052e-06	2.137625e-08	3.829186e+01	1.405979e+03
1.710000e-06	5.301223e-06	2.136431e-08	3.822100e+01	1.404928e+03
1.720000e-06	5.289801e-06	2.136029e-08	3.813865e+01	1.403684e+03
1.730000e-06	5.276459e-06	2.135460e-08	3.804246e+01	1.402245e+03
1.740000e-06	5.261090e-06	2.125313e-08	3.793165e+01	1.400616e+03
1.750000e-06	5.243549e-06	2.119638e-08	3.780518e+01	1.398814e+03
1.760000e-06	5.223519e-06	2.122183e-08	3.766077e+01	1.396861e+03
1.770000e-06	5.201013e-06	2.121492e-08	3.749850e+01	1.394783e+03
1.780000e-06	5.176854e-06	2.129635e-08	3.732432e+01	1.392606e+03
1.790000e-06	5.151954e-06	2.118314e-08	3.714480e+01	1.390348e+03
1.800000e-06	5.125996e-06	2.099410e-08	3.695764e+01	1.388015e+03
1.810000e-06	5.098052e-06	2.113832e-08	3.675617e+01	1.385604e+03
1.820000e-06	5.068049e-06	2.101901e-08	3.653986e+01	1.383097e+03
1.830000e-06	5.036350e-06	2.090553e-08	3.631131e+01	1.380465e+03
1.840000e-06	5.002803e-06	2.112551e-08	3.606944e+01	1.377675e+03
1.850000e-06	4.967598e-06	2.095845e-08	3.581562e+01	1.374690e+03
1.860000e-06	4.930788e-06	2.086827e-08	3.555022e+01	1.371478e+03
1.870000e-06	4.891986e-06	2.097439e-08	3.527046e+01	1.368016e+03
1.880000e-06	4.851521e-06	2.078210e-08	3.497872e+01	1.364289e+03
1.890000e-06	4.809337e-06	2.079769e-08	3.467458e+01	1.360294e+03
1.900000e-06	4.765400e-06	2.072144e-08	3.435780e+01	1.356034e+03
1.910000e-06	4.719847e-06	2.053653e-08	3.402937e+01	1.351521e+03
1.920000e-06	4.672332e-06	2.064682e-08	3.368679e+01	1.346766e+03
1.930000e-06	4.623087e-06	2.049664e-08	3.333174e+01	1.341781e+03
1.940000e-06	4.572170e-06	2.039653e-08	3.296464e+01	1.336570e+03
1.950000e-06	4.519274e-06	2.037619e-08	3.258327e+01	1.331133e+03
1.960000e-06	4.464465e-06	2.023524e-08	3.218810e+01	1.325462e+03
1.970000e-06	4.407890e-06	2.019073e-08	3.178020e+01	1.319547e+03
1.980000e-06	4.349730e-06	2.001559e-08	3.136089e+01	1.313373e+03
1.990000e-06	4.290154e-06	1.995818e-08	3.093135e+01	1.306927e+03
2.000000e-06	4.229158e-06	1.991175e-08	3.049158e+01	1.300200e+03
2.010000e-06	4.166567e-06	1.974235e-08	3.004030e+01	1.293186e+03
2.020000e-06	4.102275e-06	1.966804e-08	2.957677e+01	1.285886e+03
2.030000e-06	4.036517e-06	1.950798e-08	2.910266e+01	1.278301e+03
2.040000e-06	3.969383e-06	1.943441e-08	2.861864e+01	1.270436e+03
2.050000e-06	3.900950e-06	1.931648e-08	2.812525e+01	1.262292e+03
2.060000e-06	3.831001e-06	1.914713e-08	2.762093e+01	1.253866e+03
2.070000e-06	3.759480e-06	1.906665e-08	2.710527e+01	1.245150e+03
2.080000e-06	3.686759e-06	1.889098e-08	2.658096e+01	1.236125e+03
2.090000e-06	3.612735e-06	1.875568e-08	2.604726e+01	1.226772e+03
2.100000e-06	3.537344e-06	1.859898e-08	2.550371e+01	1.217065e+03
2.110000e-06	3.460488e-06	1.845288e-08	2.494958e+01	1.206978e+03
2.120000e-06	3.382082e-06	1.831147e-08	2.438429e+01	1.196489e+03
2.130000e-06	3.302438e-06	1.812464e-08	2.381007e+01	1.185578e+03
2.140000e-06	3.221702e-06	1.797426e-08	2.322797e+01	1.174233e+03
2.150000e-06	3.139889e-06	1.778236e-08	2.263812e+01	1.162444e+03
2.160000e-06	3.057012e-06	1.760413e-08	2.204058e+01	1.150204e+03
2.170000e-06	2.973167e-06	1.740959e-08	2.143608e+01	1.137503e+03
2.180000e-06	2.888320e-06	1.720648e-08	2.082434e+01	1.124328e+03
2.190000e-06	2.802165e-06	1.700168e-08	2.020318e+01	1.110657e+03
2.200000e-06	2.714772e-06	1.677560e-08	1.957309e+01	1.096460e+03
2.210000e-06	2.626427e-06	1.656223e-08	1.893614e+01	1.081699e+03
2.220000e-06	2.537260e-06	1.632555e-08	1.829326e+01	1.066330e+03
2.230000e-06	2.447207e-06	1.608169e-08	1.764398e+01	1.050304e+03
2.240000e-06	2.356313e-06	1.582291e-08	1.698865e+01	1.033574e+03
2.250000e-06	2.264714e-06	1.556557e-08	1.632824e+01	1.016097e+03
2.260000e-06	2.172464e-06	1.529322e-08	1.566313e+01	9.978314e+02
2.270000e-06	2.079454e-06	1.499821e-08	1.499254e+01	9.787427e+02
2.280000e-06	1.985435e-06	1.469481e-08	1.431468e+01	9.587965e+02
2.290000e-06	1.890416e-06	1.437488e-08	1.362961e+01	9.379569e+02
2.300000e-06	1.794657e-06	1.404322e-08	1.293920e+01	9.161820e+02
2.310000e-06	1.698430e-06	1.369509e-08	1.224542e+01	8.934201e+02
2.320000e-06	1.601819e-06	1.333776e-08	1.154887e+01	8.696073e+02
2.330000e-06	1.504663e-06	1.296187e-08	1.084839e+01	8.446668e+02
2.340000e-06	1.406870e-06	1.256244e-08	1.014332e+01	8.185110e+02
2.350000e-06	1.308616e-06	1.214053e-08	9.434921e+00	7.910454e+02
2.360000e-06	1.210025e-06	1.170162e-08	8.724095e+00	7.621747e+02
2.370000e-06	1.111128e-06	1.124319e-08	8.011063e+00	7.318105e+02
2.380000e-06	1.011944e-06	1.075876e-08	7.295959e+00	6.998791e+02
2.390000e-06	9.124811e-07	1.024771e-08	6.578848e+00	6.663297e+02
2.400000e-06	8.127458e-07	9.708743e-09	5.859772e+00	6.311420e+02
2.410000e-06	7.127317e-07	9.147730e-09	5.138686e+00	5.943319e+02
2.420000e-06	6.124898e-07	8.561286e-09	4.415957e+00	5.559562e+02
2.430000e-06	5.120701e-07	7.950660e-09	3.691946e+00	5.161141e+02
2.440000e-06	4.115415e-07	7.323304e-09	2.967151e+00	4.749458e+02
2.450000e-06	3.109094e-07	6.680765e-09	2.241609e+00	4.326266e+02
2.460000e-06	2.101337e-07	6.018784e-09	1.515032e+00	3.893575e+02
2.470000e-06	1.092355e-07	5.341505e-09	7.875712e-01	3.453508e+02
2.480000e-06	8.265696e-09	4.658044e-09	5.959439e-02	3.008128e+02
2.490000e-06	-9.278638e-08	3.968632e-09	-6.689755e-01	2.559238e+02
2.500000e-06	-1.938697e-07	3.274713e-09	-1.397770e+00	2.108193e+02
2.510000e-06	-2.948251e-07	2.581403e-09	-2.125644e+00	1.655741e+02
2.520000e-06	-3.956651e-07	1.890322e-09	-2.852684e+00	1.201934e+02
2.530000e-06	-4.964269e-07	1.194906e-09	-3.579161e+00	7.461177e+01
2.540000e-06	-5.969960e-07	4.908282e-10	-4.304249e+00	2.870377e+01
2.550000e-06	-6.973395e-07	-2.233296e-10	-5.027710e+00	-1.769558e+01
2.560000e-06	-7.974436e-07	-9.460595e-10	-5.749446e+00	-6.476173e+01
2.570000e-06	-8.972655e-07	-1.678755e-09	-6.469146e+00	-1.126464e+02
2.580000e-06	-9.967488e-07	-2.422324e-09	-7.186405e+00	-1.614435e+02
2.590000e-06	-1.095906e-06	-3.178257e-09	-7.901310e+00	-2.111595e+02
2.600000e-06	-1.194735e-06	-3.950123e-09	-8.613856e+00	-2.616949e+02
2.610000e-06	-1.293158e-06	-4.732133e-09	-9.323472e+00	-3.128378e+02
2.620000e-06	-1.391105e-06	-5.518313e-09	-1.002965e+01	-3.642738e+02
2.630000e-06	-1.488473e-06	-6.303951e-09	-1.073166e+01	-4.156085e+02
2.640000e-06	-1.585321e-06	-7.081028e-09	-1.142992e+01	-4.664011e+02
2.650000e-06	-1.681766e-06	-7.842711e-09	-1.212527e+01	-5.162041e+02
2.660000e-06	-1.777804e-06	-8.582532e-09	-1.281769e+01	-5.646016e+02
2.670000e-06	-1.873243e-06	-9.298042e-09	-1.350579e+01	-6.112421e+02
2.680000e-06	-1.967845e-06	-9.982597e-09	-1.418786e+01	-6.558617e+02
2.690000e-06	-2.061535e-06	-1.063012e-08	-1.486335e+01	-6.982940e+02
2.700000e-06	-2.154362e-06	-1.124664e-08	-1.553262e+01	-7.384672e+02
2.710000e-06	-2.246358e-06	-1.183189e-08	-1.619590e+01	-7.763915e+02
2.720000e-06	-2.337546e-06	-1.238365e-08	-1.685335e+01	-8.121386e+02
2.730000e-06	-2.427909e-06	-1.290008e-08	-1.750485e+01	-8.458192e+02
2.740000e-06	-2.517311e-06	-1.338456e-08	-1.814943e+01	-8.775618e+02
2.750000e-06	-2.605880e-06	-1.384391e-08	-1.878799e+01	-9.074960e+02
2.760000e-06	-2.693734e-06	-1.427789e-08	-1.942141e+01	-9.357427e+02
2.770000e-06	-2.780744e-06	-1.468704e-08	-2.004873e+01	-9.624096e+02
2.780000e-06	-2.866616e-06	-1.507385e-08	-2.066786e+01	-9.875927e+02
2.790000e-06	-2.951263e-06	-1.543755e-08	-2.127815e+01	-1.011380e+03
2.800000e-06	-3.034906e-06	-1.577818e-08	-2.188120e+01	-1.033856e+03
2.810000e-06	-3.117557e-06	-1.610061e-08	-2.247710e+01	-1.055104e+03
2.820000e-06	-3.199175e-06	-1.640884e-08	-2.306556e+01	-1.075208e+03
2.830000e-06	-3.279819e-06	-1.670253e-08	-2.364699e+01	-1.094251e+03
2.840000e-06	-3.359385e-06	-1.698054e-08	-2.422065e+01	-1.112310e+03
2.850000e-06	-3.437546e-06	-1.724415e-08	-2.478417e+01	-1.129455e+03
2.860000e-06	-3.514204e-06	-1.749382e-08	-2.533687e+01	-1.145745e+03
2.870000e-06	-3.589482e-06	-1.773206e-08	-2.587961e+01	-1.161229e+03
2.880000e-06	-3.663410e-06	-1.796021e-08	-2.641262e+01	-1.175946e+03
2.890000e-06	-3.736044e-06	-1.817596e-08	-2.693630e+01	-1.189931e+03
2.900000e-06	-3.807429e-06	-1.837886e-08	-2.745098e+01	-1.203215e+03
2.910000e-06	-3.877292e-06	-1.857068e-08	-2.795468e+01	-1.215834e+03
2.920000e-06	-3.945576e-06	-1.875330e-08	-2.844699e+01	-1.227823e+03
2.930000e-06	-4.012518e-06	-1.892695e-08	-2.892964e+01	-1.239224e+03
2.940000e-06	-4.078082e-06	-1.909340e-08	-2.940235e+01	-1.250075e+03
