# Temperatura_=_76.81
# Concentracion g/m^3_=_28200.0
# C_Vs_to_Am_M_A/Vsm_=_65563218390.804596
# pendiente_HvsI_1/m_=_3716.3
# ordenada_HvsI_A/m_=_1297.0
# frecuencia_Hz_=_301745.61414596805

Tiempo_(s)	Campo_(V.s)	Magnetizacion_(V.s)	Campo_(kA/m)	Magnetizacion_(A/m)
0.000000e+00	-5.327165e-06	-2.463247e-08	-3.830245e+01	-1.612302e+03
1.000000e-08	-5.325052e-06	-2.462910e-08	-3.828725e+01	-1.611896e+03
2.000000e-08	-5.321053e-06	-2.461904e-08	-3.825850e+01	-1.611321e+03
3.000000e-08	-5.315407e-06	-2.460777e-08	-3.821790e+01	-1.610575e+03
4.000000e-08	-5.308216e-06	-2.459444e-08	-3.816620e+01	-1.609643e+03
5.000000e-08	-5.299324e-06	-2.457379e-08	-3.810227e+01	-1.608510e+03
6.000000e-08	-5.288391e-06	-2.454797e-08	-3.802366e+01	-1.607158e+03
7.000000e-08	-5.275535e-06	-2.451001e-08	-3.793123e+01	-1.605575e+03
8.000000e-08	-5.260798e-06	-2.448234e-08	-3.782527e+01	-1.603758e+03
9.000000e-08	-5.243819e-06	-2.452421e-08	-3.770319e+01	-1.601715e+03
1.000000e-07	-5.224703e-06	-2.451172e-08	-3.756574e+01	-1.599468e+03
1.100000e-07	-5.203679e-06	-2.441994e-08	-3.741458e+01	-1.597046e+03
1.200000e-07	-5.180822e-06	-2.436953e-08	-3.725023e+01	-1.594480e+03
1.300000e-07	-5.156407e-06	-2.424296e-08	-3.707469e+01	-1.591802e+03
1.400000e-07	-5.130470e-06	-2.417427e-08	-3.688821e+01	-1.589033e+03
1.500000e-07	-5.102907e-06	-2.431828e-08	-3.669002e+01	-1.586180e+03
1.600000e-07	-5.073802e-06	-2.416565e-08	-3.648076e+01	-1.583236e+03
1.700000e-07	-5.043286e-06	-2.407136e-08	-3.626134e+01	-1.580178e+03
1.800000e-07	-5.011019e-06	-2.419440e-08	-3.602935e+01	-1.576970e+03
1.900000e-07	-4.976638e-06	-2.396570e-08	-3.578215e+01	-1.573570e+03
2.000000e-07	-4.940588e-06	-2.390841e-08	-3.552295e+01	-1.569936e+03
2.100000e-07	-4.903009e-06	-2.398133e-08	-3.525275e+01	-1.566031e+03
2.200000e-07	-4.863704e-06	-2.377860e-08	-3.497015e+01	-1.561828e+03
2.300000e-07	-4.822548e-06	-2.371484e-08	-3.467424e+01	-1.557311e+03
2.400000e-07	-4.779371e-06	-2.366871e-08	-3.436379e+01	-1.552478e+03
2.500000e-07	-4.734415e-06	-2.353517e-08	-3.404056e+01	-1.547335e+03
2.600000e-07	-4.687706e-06	-2.354996e-08	-3.370472e+01	-1.541892e+03
2.700000e-07	-4.638953e-06	-2.343932e-08	-3.335418e+01	-1.536162e+03
2.800000e-07	-4.588117e-06	-2.327709e-08	-3.298867e+01	-1.530155e+03
2.900000e-07	-4.535324e-06	-2.319564e-08	-3.260909e+01	-1.523874e+03
3.000000e-07	-4.480864e-06	-2.311245e-08	-3.221752e+01	-1.517317e+03
3.100000e-07	-4.424843e-06	-2.301171e-08	-3.181472e+01	-1.510477e+03
3.200000e-07	-4.367027e-06	-2.291188e-08	-3.139903e+01	-1.503343e+03
3.300000e-07	-4.307496e-06	-2.281637e-08	-3.097100e+01	-1.495903e+03
3.400000e-07	-4.246526e-06	-2.265735e-08	-3.053262e+01	-1.488148e+03
3.500000e-07	-4.184174e-06	-2.252060e-08	-3.008431e+01	-1.480070e+03
3.600000e-07	-4.120422e-06	-2.240980e-08	-2.962594e+01	-1.471666e+03
3.700000e-07	-4.055158e-06	-2.228279e-08	-2.915669e+01	-1.462936e+03
3.800000e-07	-3.988280e-06	-2.217276e-08	-2.867583e+01	-1.453879e+03
3.900000e-07	-3.919926e-06	-2.200467e-08	-2.818436e+01	-1.444496e+03
4.000000e-07	-3.850228e-06	-2.182129e-08	-2.768323e+01	-1.434781e+03
4.100000e-07	-3.779266e-06	-2.168757e-08	-2.717301e+01	-1.424727e+03
4.200000e-07	-3.707052e-06	-2.153938e-08	-2.665379e+01	-1.414322e+03
4.300000e-07	-3.633493e-06	-2.137895e-08	-2.612490e+01	-1.403548e+03
4.400000e-07	-3.558351e-06	-2.120623e-08	-2.558463e+01	-1.392386e+03
4.500000e-07	-3.481720e-06	-2.102429e-08	-2.503365e+01	-1.380816e+03
4.600000e-07	-3.403820e-06	-2.082965e-08	-2.447355e+01	-1.368817e+03
4.700000e-07	-3.324597e-06	-2.064499e-08	-2.390393e+01	-1.356371e+03
4.800000e-07	-3.244034e-06	-2.046601e-08	-2.332468e+01	-1.343459e+03
4.900000e-07	-3.162225e-06	-2.025484e-08	-2.273647e+01	-1.330064e+03
5.000000e-07	-3.079357e-06	-2.003692e-08	-2.214065e+01	-1.316167e+03
5.100000e-07	-2.995580e-06	-1.981082e-08	-2.153829e+01	-1.301749e+03
5.200000e-07	-2.910937e-06	-1.957850e-08	-2.092971e+01	-1.286786e+03
5.300000e-07	-2.825322e-06	-1.934144e-08	-2.031413e+01	-1.271251e+03
5.400000e-07	-2.738732e-06	-1.909708e-08	-1.969155e+01	-1.255115e+03
5.500000e-07	-2.651265e-06	-1.884566e-08	-1.906266e+01	-1.238346e+03
5.600000e-07	-2.562876e-06	-1.857549e-08	-1.842714e+01	-1.220908e+03
5.700000e-07	-2.473377e-06	-1.829549e-08	-1.778364e+01	-1.202768e+03
5.800000e-07	-2.382743e-06	-1.801197e-08	-1.713198e+01	-1.183889e+03
5.900000e-07	-2.291122e-06	-1.771903e-08	-1.647323e+01	-1.164233e+03
6.000000e-07	-2.198698e-06	-1.740152e-08	-1.580869e+01	-1.143759e+03
6.100000e-07	-2.105594e-06	-1.706631e-08	-1.513927e+01	-1.122420e+03
6.200000e-07	-2.011748e-06	-1.672289e-08	-1.446452e+01	-1.100165e+03
6.300000e-07	-1.917179e-06	-1.636669e-08	-1.378456e+01	-1.076933e+03
6.400000e-07	-1.821994e-06	-1.599740e-08	-1.310018e+01	-1.052655e+03
6.500000e-07	-1.726154e-06	-1.561191e-08	-1.241109e+01	-1.027253e+03
6.600000e-07	-1.629604e-06	-1.520573e-08	-1.171689e+01	-1.000642e+03
6.700000e-07	-1.532397e-06	-1.477779e-08	-1.101797e+01	-9.727318e+02
6.800000e-07	-1.434628e-06	-1.433106e-08	-1.031501e+01	-9.434288e+02
6.900000e-07	-1.336244e-06	-1.386203e-08	-9.607628e+00	-9.126378e+02
7.000000e-07	-1.237287e-06	-1.336829e-08	-8.896122e+00	-8.802655e+02
7.100000e-07	-1.137942e-06	-1.284694e-08	-8.181832e+00	-8.462227e+02
7.200000e-07	-1.038233e-06	-1.229856e-08	-7.464917e+00	-8.104288e+02
7.300000e-07	-9.381826e-07	-1.172526e-08	-6.745555e+00	-7.728162e+02
7.400000e-07	-8.378862e-07	-1.112550e-08	-6.024422e+00	-7.333372e+02
7.500000e-07	-7.373874e-07	-1.049905e-08	-5.301833e+00	-6.919718e+02
7.600000e-07	-6.366802e-07	-9.840901e-09	-4.577746e+00	-6.487361e+02
7.700000e-07	-5.357947e-07	-9.151395e-09	-3.852376e+00	-6.036897e+02
7.800000e-07	-4.347706e-07	-8.437691e-09	-3.126011e+00	-5.569408e+02
7.900000e-07	-3.336268e-07	-7.702247e-09	-2.398784e+00	-5.086467e+02
8.000000e-07	-2.323039e-07	-6.945223e-09	-1.670271e+00	-4.590072e+02
8.100000e-07	-1.308293e-07	-6.172728e-09	-9.406655e-01	-4.082523e+02
8.200000e-07	-2.932028e-08	-5.387758e-09	-2.108135e-01	-3.566225e+02
8.300000e-07	7.222255e-08	-4.591423e-09	5.192819e-01	-3.043443e+02
8.400000e-07	1.737658e-07	-3.788128e-09	1.249381e+00	-2.516045e+02
8.500000e-07	2.752509e-07	-2.980046e-09	1.979060e+00	-1.985277e+02
8.600000e-07	3.766181e-07	-2.167263e-09	2.707893e+00	-1.451602e+02
8.700000e-07	4.778795e-07	-1.349196e-09	3.435965e+00	-9.146531e+01
8.800000e-07	5.790054e-07	-5.242722e-10	4.163063e+00	-3.733204e+01
8.900000e-07	6.799336e-07	3.107169e-10	4.888739e+00	1.740257e+01
9.000000e-07	7.806730e-07	1.155957e-09	5.613058e+00	7.291980e+01
9.100000e-07	8.811706e-07	2.013574e-09	6.335638e+00	1.293785e+02
9.200000e-07	9.814371e-07	2.886370e-09	7.056556e+00	1.868735e+02
9.300000e-07	1.081463e-06	3.775742e-09	7.775745e+00	2.453996e+02
9.400000e-07	1.181154e-06	4.681455e-09	8.492525e+00	3.048274e+02
9.500000e-07	1.280470e-06	5.596704e-09	9.206611e+00	3.648959e+02
9.600000e-07	1.379247e-06	6.512493e-09	9.916817e+00	4.252220e+02
9.700000e-07	1.477353e-06	7.424804e-09	1.062221e+01	4.853288e+02
9.800000e-07	1.574754e-06	8.327531e-09	1.132252e+01	5.446849e+02
9.900000e-07	1.671392e-06	9.209282e-09	1.201735e+01	6.027525e+02
1.000000e-06	1.767310e-06	1.006533e-08	1.270700e+01	6.590343e+02
1.010000e-06	1.862594e-06	1.089084e-08	1.339209e+01	7.131136e+02
1.020000e-06	1.957268e-06	1.167608e-08	1.407281e+01	7.646826e+02
1.030000e-06	2.051251e-06	1.241374e-08	1.474854e+01	8.135546e+02
1.040000e-06	2.144468e-06	1.310788e-08	1.541878e+01	8.596616e+02
1.050000e-06	2.236997e-06	1.376426e-08	1.608407e+01	9.030372e+02
1.060000e-06	2.328936e-06	1.438331e-08	1.674511e+01	9.437918e+02
1.070000e-06	2.420189e-06	1.496636e-08	1.740122e+01	9.820834e+02
1.080000e-06	2.510447e-06	1.551469e-08	1.805017e+01	1.018090e+03
1.090000e-06	2.599529e-06	1.603067e-08	1.869068e+01	1.051988e+03
1.100000e-06	2.687612e-06	1.651514e-08	1.932399e+01	1.083939e+03
1.110000e-06	2.774809e-06	1.697236e-08	1.995095e+01	1.114080e+03
1.120000e-06	2.861061e-06	1.740350e-08	2.057110e+01	1.142531e+03
1.130000e-06	2.946358e-06	1.781056e-08	2.118439e+01	1.169395e+03
1.140000e-06	3.030763e-06	1.819422e-08	2.179126e+01	1.194769e+03
1.150000e-06	3.114314e-06	1.855715e-08	2.239199e+01	1.218747e+03
1.160000e-06	3.196786e-06	1.890308e-08	2.298497e+01	1.241424e+03
1.170000e-06	3.277951e-06	1.923270e-08	2.356854e+01	1.262897e+03
1.180000e-06	3.357944e-06	1.954629e-08	2.414370e+01	1.283257e+03
1.190000e-06	3.436805e-06	1.984227e-08	2.471071e+01	1.302590e+03
1.200000e-06	3.514425e-06	2.012108e-08	2.526880e+01	1.320969e+03
1.210000e-06	3.590850e-06	2.038492e-08	2.581830e+01	1.338456e+03
1.220000e-06	3.666049e-06	2.063652e-08	2.635898e+01	1.355098e+03
1.230000e-06	3.739617e-06	2.087594e-08	2.688794e+01	1.370933e+03
1.240000e-06	3.811528e-06	2.110391e-08	2.740498e+01	1.385992e+03
1.250000e-06	3.882061e-06	2.132139e-08	2.791211e+01	1.400309e+03
1.260000e-06	3.951231e-06	2.152809e-08	2.840945e+01	1.413921e+03
1.270000e-06	4.019176e-06	2.172271e-08	2.889797e+01	1.426868e+03
1.280000e-06	4.085692e-06	2.190846e-08	2.937622e+01	1.439197e+03
1.290000e-06	4.150464e-06	2.208876e-08	2.984194e+01	1.450952e+03
1.300000e-06	4.213712e-06	2.226269e-08	3.029669e+01	1.462173e+03
1.310000e-06	4.275542e-06	2.242770e-08	3.074125e+01	1.472891e+03
1.320000e-06	4.335983e-06	2.258356e-08	3.117582e+01	1.483126e+03
1.330000e-06	4.395095e-06	2.273214e-08	3.160084e+01	1.492883e+03
1.340000e-06	4.452512e-06	2.287473e-08	3.201367e+01	1.502159e+03
1.350000e-06	4.508158e-06	2.300909e-08	3.241377e+01	1.510946e+03
1.360000e-06	4.562227e-06	2.313615e-08	3.280252e+01	1.519241e+03
1.370000e-06	4.614613e-06	2.325574e-08	3.317918e+01	1.527044e+03
1.380000e-06	4.664987e-06	2.336672e-08	3.354137e+01	1.534373e+03
1.390000e-06	4.713295e-06	2.347040e-08	3.388870e+01	1.541256e+03
1.400000e-06	4.759867e-06	2.356912e-08	3.422356e+01	1.547733e+03
1.410000e-06	4.804921e-06	2.366267e-08	3.454749e+01	1.553848e+03
1.420000e-06	4.848497e-06	2.374933e-08	3.486081e+01	1.559645e+03
1.430000e-06	4.890266e-06	2.383180e-08	3.516113e+01	1.565161e+03
1.440000e-06	4.930142e-06	2.391136e-08	3.544784e+01	1.570419e+03
1.450000e-06	4.968360e-06	2.398751e-08	3.572263e+01	1.575427e+03
1.460000e-06	5.004974e-06	2.406021e-08	3.598588e+01	1.580178e+03
1.470000e-06	5.039920e-06	2.412886e-08	3.623715e+01	1.584656e+03
1.480000e-06	5.072921e-06	2.419372e-08	3.647442e+01	1.588841e+03
1.490000e-06	5.104084e-06	2.425376e-08	3.669849e+01	1.592713e+03
1.500000e-06	5.133629e-06	2.430658e-08	3.691092e+01	1.596262e+03
1.510000e-06	5.161516e-06	2.435401e-08	3.711142e+01	1.599488e+03
1.520000e-06	5.187426e-06	2.439750e-08	3.729771e+01	1.602400e+03
1.530000e-06	5.211247e-06	2.443790e-08	3.746899e+01	1.605018e+03
1.540000e-06	5.233273e-06	2.447459e-08	3.762736e+01	1.607365e+03
1.550000e-06	5.253604e-06	2.450674e-08	3.777354e+01	1.609463e+03
1.560000e-06	5.272117e-06	2.453580e-08	3.790665e+01	1.611329e+03
1.570000e-06	5.288624e-06	2.456105e-08	3.802533e+01	1.612974e+03
1.580000e-06	5.303156e-06	2.458139e-08	3.812982e+01	1.614400e+03
1.590000e-06	5.315759e-06	2.459787e-08	3.822044e+01	1.615605e+03
1.600000e-06	5.326132e-06	2.461280e-08	3.829501e+01	1.616583e+03
1.610000e-06	5.334323e-06	2.462576e-08	3.835391e+01	1.617331e+03
1.620000e-06	5.340734e-06	2.463491e-08	3.840000e+01	1.617850e+03
1.630000e-06	5.345444e-06	2.464042e-08	3.843387e+01	1.618147e+03
1.640000e-06	5.348285e-06	2.464441e-08	3.845430e+01	1.618235e+03
1.650000e-06	5.349078e-06	2.464769e-08	3.846000e+01	1.618130e+03
1.660000e-06	5.347996e-06	2.464358e-08	3.845222e+01	1.617845e+03
1.670000e-06	5.345278e-06	2.463449e-08	3.843268e+01	1.617389e+03
1.680000e-06	5.340920e-06	2.462743e-08	3.840134e+01	1.616765e+03
1.690000e-06	5.334682e-06	2.461667e-08	3.835649e+01	1.615966e+03
1.700000e-06	5.326584e-06	2.460192e-08	3.829827e+01	1.614978e+03
1.710000e-06	5.316900e-06	2.458472e-08	3.822864e+01	1.613783e+03
1.720000e-06	5.305619e-06	2.457749e-08	3.814753e+01	1.612365e+03
1.730000e-06	5.292481e-06	2.457143e-08	3.805306e+01	1.610714e+03
1.740000e-06	5.277335e-06	2.446220e-08	3.794417e+01	1.608830e+03
1.750000e-06	5.260035e-06	2.439301e-08	3.781978e+01	1.606726e+03
1.760000e-06	5.240146e-06	2.441697e-08	3.767677e+01	1.604424e+03
1.770000e-06	5.217676e-06	2.439857e-08	3.751522e+01	1.601956e+03
1.780000e-06	5.193504e-06	2.448823e-08	3.734142e+01	1.599355e+03
1.790000e-06	5.168553e-06	2.438145e-08	3.716202e+01	1.596648e+03
1.800000e-06	5.142606e-06	2.415728e-08	3.697546e+01	1.593854e+03
1.810000e-06	5.114625e-06	2.430835e-08	3.677427e+01	1.590976e+03
1.820000e-06	5.084602e-06	2.417493e-08	3.655841e+01	1.588001e+03
1.830000e-06	5.053005e-06	2.401142e-08	3.633123e+01	1.584903e+03
1.840000e-06	5.019508e-06	2.422753e-08	3.609038e+01	1.581644e+03
1.850000e-06	4.984322e-06	2.403100e-08	3.583740e+01	1.578180e+03
1.860000e-06	4.947612e-06	2.391217e-08	3.557345e+01	1.574471e+03
1.870000e-06	4.908933e-06	2.403835e-08	3.529534e+01	1.570482e+03
1.880000e-06	4.868532e-06	2.384602e-08	3.500487e+01	1.566189e+03
1.890000e-06	4.826462e-06	2.386468e-08	3.470237e+01	1.561581e+03
1.900000e-06	4.782621e-06	2.377113e-08	3.438716e+01	1.556657e+03
1.910000e-06	4.737059e-06	2.353977e-08	3.405957e+01	1.551426e+03
1.920000e-06	4.689559e-06	2.366808e-08	3.371804e+01	1.545899e+03
1.930000e-06	4.640344e-06	2.354121e-08	3.336419e+01	1.540088e+03
1.940000e-06	4.589436e-06	2.340152e-08	3.299816e+01	1.534002e+03
1.950000e-06	4.536476e-06	2.335138e-08	3.261737e+01	1.527641e+03
1.960000e-06	4.481623e-06	2.320533e-08	3.222297e+01	1.521004e+03
1.970000e-06	4.425038e-06	2.313526e-08	3.181613e+01	1.514080e+03
1.980000e-06	4.366844e-06	2.293904e-08	3.139771e+01	1.506859e+03
1.990000e-06	4.307259e-06	2.288189e-08	3.096930e+01	1.499329e+03
2.000000e-06	4.246204e-06	2.283282e-08	3.053031e+01	1.491481e+03
2.010000e-06	4.183506e-06	2.263847e-08	3.007951e+01	1.483309e+03
2.020000e-06	4.119143e-06	2.251835e-08	2.961674e+01	1.474811e+03
2.030000e-06	4.053304e-06	2.233358e-08	2.914336e+01	1.465986e+03
2.040000e-06	3.986147e-06	2.225953e-08	2.866049e+01	1.456836e+03
2.050000e-06	3.917605e-06	2.213339e-08	2.816768e+01	1.447357e+03
2.060000e-06	3.847514e-06	2.193815e-08	2.766372e+01	1.437546e+03
2.070000e-06	3.775958e-06	2.182634e-08	2.714923e+01	1.427392e+03
2.080000e-06	3.703166e-06	2.162859e-08	2.662585e+01	1.416882e+03
2.090000e-06	3.629063e-06	2.146691e-08	2.609305e+01	1.405998e+03
2.100000e-06	3.553537e-06	2.129210e-08	2.555002e+01	1.394721e+03
2.110000e-06	3.476531e-06	2.112493e-08	2.499634e+01	1.383029e+03
2.120000e-06	3.398082e-06	2.095126e-08	2.443229e+01	1.370903e+03
2.130000e-06	3.318401e-06	2.073465e-08	2.385938e+01	1.358325e+03
2.140000e-06	3.237595e-06	2.055184e-08	2.327839e+01	1.345276e+03
2.150000e-06	3.155676e-06	2.033607e-08	2.268939e+01	1.331739e+03
2.160000e-06	3.072734e-06	2.013577e-08	2.209303e+01	1.317694e+03
2.170000e-06	2.988788e-06	1.992100e-08	2.148946e+01	1.303122e+03
2.180000e-06	2.903694e-06	1.968858e-08	2.087763e+01	1.287997e+03
2.190000e-06	2.817372e-06	1.944536e-08	2.025698e+01	1.272293e+03
2.200000e-06	2.729919e-06	1.918576e-08	1.962818e+01	1.255978e+03
2.210000e-06	2.641483e-06	1.894022e-08	1.899233e+01	1.239020e+03
2.220000e-06	2.552154e-06	1.867041e-08	1.835005e+01	1.221385e+03
2.230000e-06	2.461959e-06	1.838492e-08	1.770154e+01	1.203037e+03
2.240000e-06	2.371005e-06	1.808930e-08	1.704758e+01	1.183938e+03
2.250000e-06	2.279308e-06	1.779942e-08	1.638828e+01	1.164052e+03
2.260000e-06	2.186816e-06	1.749199e-08	1.572326e+01	1.143335e+03
2.270000e-06	2.093441e-06	1.715980e-08	1.505189e+01	1.121739e+03
2.280000e-06	1.999099e-06	1.681811e-08	1.437357e+01	1.099210e+03
2.290000e-06	1.903919e-06	1.645688e-08	1.368922e+01	1.075686e+03
2.300000e-06	1.808022e-06	1.607887e-08	1.299973e+01	1.051094e+03
2.310000e-06	1.711583e-06	1.568579e-08	1.230632e+01	1.025354e+03
2.320000e-06	1.614687e-06	1.528208e-08	1.160964e+01	9.983804e+02
2.330000e-06	1.517252e-06	1.485667e-08	1.090908e+01	9.700811e+02
2.340000e-06	1.419306e-06	1.440070e-08	1.020484e+01	9.403617e+02
2.350000e-06	1.320953e-06	1.391805e-08	9.497686e+00	9.091273e+02
2.360000e-06	1.222226e-06	1.341770e-08	8.787834e+00	8.762855e+02
2.370000e-06	1.123197e-06	1.289669e-08	8.075816e+00	8.417492e+02
2.380000e-06	1.023859e-06	1.234562e-08	7.361571e+00	8.054408e+02
2.390000e-06	9.241873e-07	1.176201e-08	6.644929e+00	7.672978e+02
2.400000e-06	8.242209e-07	1.114768e-08	5.926168e+00	7.272794e+02
2.410000e-06	7.239652e-07	1.050658e-08	5.205327e+00	6.853753e+02
2.420000e-06	6.233476e-07	9.836591e-09	4.481884e+00	6.416131e+02
2.430000e-06	5.224797e-07	9.139673e-09	3.756641e+00	5.960661e+02
2.440000e-06	4.215017e-07	8.421983e-09	3.030607e+00	5.488566e+02
2.450000e-06	3.203204e-07	7.683120e-09	2.303112e+00	5.001551e+02
2.460000e-06	2.189760e-07	6.919489e-09	1.574442e+00	4.501716e+02
2.470000e-06	1.175804e-07	6.137041e-09	8.454062e-01	3.991414e+02
2.480000e-06	1.617494e-08	5.344548e-09	1.162982e-01	3.473035e+02
2.490000e-06	-8.522664e-08	4.543725e-09	-6.127816e-01	2.948756e+02
2.500000e-06	-1.865701e-07	3.735753e-09	-1.341444e+00	2.420291e+02
2.510000e-06	-2.878175e-07	2.923645e-09	-2.069415e+00	1.888672e+02
2.520000e-06	-3.889821e-07	2.109228e-09	-2.796790e+00	1.354124e+02
2.530000e-06	-4.900586e-07	1.288450e-09	-3.523533e+00	8.160541e+01
2.540000e-06	-5.910160e-07	4.589000e-10	-4.249420e+00	2.731748e+01
2.550000e-06	-6.916965e-07	-3.819992e-10	-4.973315e+00	-2.762341e+01
2.560000e-06	-7.920109e-07	-1.236621e-09	-5.694578e+00	-8.339644e+01
2.570000e-06	-8.920227e-07	-2.105707e-09	-6.413664e+00	-1.401463e+02
2.580000e-06	-9.917296e-07	-2.988009e-09	-7.130559e+00	-1.979425e+02
2.590000e-06	-1.091115e-06	-3.884054e-09	-7.845140e+00	-2.567462e+02
2.600000e-06	-1.190181e-06	-4.795883e-09	-8.557434e+00	-3.163904e+02
2.610000e-06	-1.288891e-06	-5.717233e-09	-9.267160e+00	-3.765773e+02
2.620000e-06	-1.387172e-06	-6.641307e-09	-9.973799e+00	-4.368936e+02
2.630000e-06	-1.484931e-06	-7.560947e-09	-1.067669e+01	-4.968423e+02
2.640000e-06	-1.582095e-06	-8.465058e-09	-1.137530e+01	-5.558853e+02
2.650000e-06	-1.678735e-06	-9.345684e-09	-1.207014e+01	-6.134915e+02
2.660000e-06	-1.774898e-06	-1.019822e-08	-1.276156e+01	-6.691831e+02
2.670000e-06	-1.870509e-06	-1.101721e-08	-1.344900e+01	-7.225724e+02
2.680000e-06	-1.965478e-06	-1.179622e-08	-1.413184e+01	-7.733855e+02
2.690000e-06	-2.059634e-06	-1.253159e-08	-1.480882e+01	-8.214706e+02
2.700000e-06	-2.152816e-06	-1.322460e-08	-1.547880e+01	-8.667909e+02
2.710000e-06	-2.245055e-06	-1.387766e-08	-1.614200e+01	-9.094047e+02
2.720000e-06	-2.336485e-06	-1.449291e-08	-1.679938e+01	-9.494391e+02
2.730000e-06	-2.427191e-06	-1.507156e-08	-1.745156e+01	-9.870604e+02
2.740000e-06	-2.517016e-06	-1.561645e-08	-1.809741e+01	-1.022448e+03
2.750000e-06	-2.605898e-06	-1.612882e-08	-1.873647e+01	-1.055775e+03
2.760000e-06	-2.693974e-06	-1.660974e-08	-1.936974e+01	-1.087197e+03
2.770000e-06	-2.781266e-06	-1.706233e-08	-1.999737e+01	-1.116844e+03
2.780000e-06	-2.867546e-06	-1.748925e-08	-2.061772e+01	-1.144833e+03
2.790000e-06	-2.952546e-06	-1.789311e-08	-2.122888e+01	-1.171263e+03
2.800000e-06	-3.036445e-06	-1.827472e-08	-2.183211e+01	-1.196229e+03
2.810000e-06	-3.119392e-06	-1.863484e-08	-2.242851e+01	-1.219827e+03
2.820000e-06	-3.201307e-06	-1.897569e-08	-2.301748e+01	-1.242151e+03
2.830000e-06	-3.282152e-06	-1.929881e-08	-2.359876e+01	-1.263297e+03
2.840000e-06	-3.362000e-06	-1.960568e-08	-2.417286e+01	-1.283357e+03
2.850000e-06	-3.440685e-06	-1.989895e-08	-2.473861e+01	-1.302411e+03
2.860000e-06	-3.517805e-06	-2.017959e-08	-2.529310e+01	-1.320531e+03
2.870000e-06	-3.593424e-06	-2.044449e-08	-2.583681e+01	-1.337774e+03
2.880000e-06	-3.667656e-06	-2.069297e-08	-2.637054e+01	-1.354182e+03
2.890000e-06	-3.740513e-06	-2.092911e-08	-2.689438e+01	-1.369793e+03
2.900000e-06	-3.812192e-06	-2.115636e-08	-2.740975e+01	-1.384638e+03
2.910000e-06	-3.882494e-06	-2.137452e-08	-2.791522e+01	-1.398750e+03
2.920000e-06	-3.951155e-06	-2.158238e-08	-2.840890e+01	-1.412169e+03
2.930000e-06	-4.018347e-06	-2.177934e-08	-2.889201e+01	-1.424936e+03
2.940000e-06	-4.084200e-06	-2.196625e-08	-2.936549e+01	-1.437097e+03
