# Temperatura_=_87.18
# Concentracion g/m^3_=_28200.0
# C_Vs_to_Am_M_A/Vsm_=_65563218390.804596
# pendiente_HvsI_1/m_=_3716.3
# ordenada_HvsI_A/m_=_1297.0
# frecuencia_Hz_=_301741.7392222203

Tiempo_(s)	Campo_(V.s)	Magnetizacion_(V.s)	Campo_(kA/m)	Magnetizacion_(A/m)
0.000000e+00	-5.339450e-06	-2.721015e-08	-3.830252e+01	-1.780021e+03
1.000000e-08	-5.337045e-06	-2.720523e-08	-3.828526e+01	-1.779550e+03
2.000000e-08	-5.332796e-06	-2.719101e-08	-3.825478e+01	-1.778892e+03
3.000000e-08	-5.326981e-06	-2.717732e-08	-3.821307e+01	-1.778038e+03
4.000000e-08	-5.319568e-06	-2.716152e-08	-3.815989e+01	-1.776965e+03
5.000000e-08	-5.310393e-06	-2.713644e-08	-3.809408e+01	-1.775651e+03
6.000000e-08	-5.299213e-06	-2.710616e-08	-3.801388e+01	-1.774073e+03
7.000000e-08	-5.286108e-06	-2.706176e-08	-3.791987e+01	-1.772221e+03
8.000000e-08	-5.270946e-06	-2.704028e-08	-3.781110e+01	-1.770098e+03
9.000000e-08	-5.253502e-06	-2.709363e-08	-3.768597e+01	-1.767724e+03
1.000000e-07	-5.233976e-06	-2.705215e-08	-3.754590e+01	-1.765137e+03
1.100000e-07	-5.212589e-06	-2.694959e-08	-3.739248e+01	-1.762384e+03
1.200000e-07	-5.189458e-06	-2.690330e-08	-3.722655e+01	-1.759518e+03
1.300000e-07	-5.164789e-06	-2.674298e-08	-3.704959e+01	-1.756583e+03
1.400000e-07	-5.138557e-06	-2.671869e-08	-3.686141e+01	-1.753606e+03
1.500000e-07	-5.110664e-06	-2.686692e-08	-3.666132e+01	-1.750592e+03
1.600000e-07	-5.081301e-06	-2.662580e-08	-3.645068e+01	-1.747516e+03
1.700000e-07	-5.050562e-06	-2.660259e-08	-3.623018e+01	-1.744335e+03
1.800000e-07	-5.017920e-06	-2.669964e-08	-3.599602e+01	-1.740983e+03
1.900000e-07	-4.983156e-06	-2.640146e-08	-3.574664e+01	-1.737390e+03
2.000000e-07	-4.946852e-06	-2.643354e-08	-3.548621e+01	-1.733491e+03
2.100000e-07	-4.908897e-06	-2.646154e-08	-3.521395e+01	-1.729230e+03
2.200000e-07	-4.869190e-06	-2.623684e-08	-3.492911e+01	-1.724577e+03
2.300000e-07	-4.827682e-06	-2.620968e-08	-3.463135e+01	-1.719520e+03
2.400000e-07	-4.784145e-06	-2.610102e-08	-3.431904e+01	-1.714071e+03
2.500000e-07	-4.738829e-06	-2.597415e-08	-3.399397e+01	-1.708252e+03
2.600000e-07	-4.691813e-06	-2.599381e-08	-3.365670e+01	-1.702095e+03
2.700000e-07	-4.642836e-06	-2.583979e-08	-3.330536e+01	-1.695627e+03
2.800000e-07	-4.591726e-06	-2.569430e-08	-3.293872e+01	-1.688867e+03
2.900000e-07	-4.538605e-06	-2.559629e-08	-3.255766e+01	-1.681820e+03
3.000000e-07	-4.483759e-06	-2.549033e-08	-3.216422e+01	-1.674482e+03
3.100000e-07	-4.427358e-06	-2.538352e-08	-3.175963e+01	-1.666838e+03
3.200000e-07	-4.369149e-06	-2.527048e-08	-3.134206e+01	-1.658871e+03
3.300000e-07	-4.309222e-06	-2.515911e-08	-3.091218e+01	-1.650564e+03
3.400000e-07	-4.247889e-06	-2.498037e-08	-3.047221e+01	-1.641906e+03
3.500000e-07	-4.185121e-06	-2.484031e-08	-3.002194e+01	-1.632893e+03
3.600000e-07	-4.120953e-06	-2.469902e-08	-2.956164e+01	-1.623526e+03
3.700000e-07	-4.055269e-06	-2.456388e-08	-2.909045e+01	-1.613807e+03
3.800000e-07	-3.987984e-06	-2.445321e-08	-2.860778e+01	-1.603740e+03
3.900000e-07	-3.919262e-06	-2.425868e-08	-2.811480e+01	-1.593321e+03
4.000000e-07	-3.849251e-06	-2.407082e-08	-2.761258e+01	-1.582540e+03
4.100000e-07	-3.778032e-06	-2.391180e-08	-2.710170e+01	-1.571379e+03
4.200000e-07	-3.705601e-06	-2.373438e-08	-2.658211e+01	-1.559818e+03
4.300000e-07	-3.631670e-06	-2.355345e-08	-2.605177e+01	-1.547831e+03
4.400000e-07	-3.556088e-06	-2.336085e-08	-2.550958e+01	-1.535396e+03
4.500000e-07	-3.479079e-06	-2.316073e-08	-2.495715e+01	-1.522495e+03
4.600000e-07	-3.400803e-06	-2.294880e-08	-2.439564e+01	-1.509117e+03
4.700000e-07	-3.321157e-06	-2.275004e-08	-2.382430e+01	-1.495252e+03
4.800000e-07	-3.240171e-06	-2.254596e-08	-2.324335e+01	-1.480892e+03
4.900000e-07	-3.158037e-06	-2.230946e-08	-2.265416e+01	-1.466025e+03
5.000000e-07	-3.074831e-06	-2.206781e-08	-2.205729e+01	-1.450634e+03
5.100000e-07	-2.990686e-06	-2.181671e-08	-2.145367e+01	-1.434692e+03
5.200000e-07	-2.905705e-06	-2.156120e-08	-2.084406e+01	-1.418163e+03
5.300000e-07	-2.819761e-06	-2.129839e-08	-2.022754e+01	-1.401006e+03
5.400000e-07	-2.732782e-06	-2.102749e-08	-1.960360e+01	-1.383176e+03
5.500000e-07	-2.644978e-06	-2.075008e-08	-1.897373e+01	-1.364630e+03
5.600000e-07	-2.556208e-06	-2.045126e-08	-1.833695e+01	-1.345330e+03
5.700000e-07	-2.466134e-06	-2.014520e-08	-1.769080e+01	-1.325241e+03
5.800000e-07	-2.374936e-06	-1.983217e-08	-1.703659e+01	-1.304333e+03
5.900000e-07	-2.282992e-06	-1.950544e-08	-1.637703e+01	-1.282576e+03
6.000000e-07	-2.190341e-06	-1.915198e-08	-1.571240e+01	-1.259933e+03
6.100000e-07	-2.096888e-06	-1.878184e-08	-1.504202e+01	-1.236358e+03
6.200000e-07	-2.002645e-06	-1.840275e-08	-1.436596e+01	-1.211787e+03
6.300000e-07	-1.907721e-06	-1.800872e-08	-1.368503e+01	-1.186145e+03
6.400000e-07	-1.812243e-06	-1.760301e-08	-1.300011e+01	-1.159341e+03
6.500000e-07	-1.716233e-06	-1.717834e-08	-1.231139e+01	-1.131272e+03
6.600000e-07	-1.619554e-06	-1.673145e-08	-1.161786e+01	-1.101835e+03
6.700000e-07	-1.522059e-06	-1.625806e-08	-1.091848e+01	-1.070924e+03
6.800000e-07	-1.423806e-06	-1.576166e-08	-1.021367e+01	-1.038438e+03
6.900000e-07	-1.324980e-06	-1.524119e-08	-9.504737e+00	-1.004280e+03
7.000000e-07	-1.225685e-06	-1.469451e-08	-8.792443e+00	-9.683605e+02
7.100000e-07	-1.126033e-06	-1.411915e-08	-8.077590e+00	-9.305889e+02
7.200000e-07	-1.026084e-06	-1.351258e-08	-7.360611e+00	-8.908799e+02
7.300000e-07	-9.259101e-07	-1.287521e-08	-6.642011e+00	-8.491533e+02
7.400000e-07	-8.255342e-07	-1.220636e-08	-5.921965e+00	-8.053421e+02
7.500000e-07	-7.248629e-07	-1.151010e-08	-5.199800e+00	-7.594038e+02
7.600000e-07	-6.239011e-07	-1.077993e-08	-4.475551e+00	-7.113348e+02
7.700000e-07	-5.227361e-07	-1.001519e-08	-3.749845e+00	-6.611852e+02
7.800000e-07	-4.214266e-07	-9.221378e-09	-3.023101e+00	-6.090693e+02
7.900000e-07	-3.199881e-07	-8.399799e-09	-2.295433e+00	-5.551689e+02
8.000000e-07	-2.184083e-07	-7.552807e-09	-1.566751e+00	-4.997261e+02
8.100000e-07	-1.166744e-07	-6.687166e-09	-8.369634e-01	-4.430240e+02
8.200000e-07	-1.484646e-08	-5.809080e-09	-1.065010e-01	-3.853581e+02
8.300000e-07	8.692934e-08	-4.921910e-09	6.235871e-01	-3.270002e+02
8.400000e-07	1.886768e-07	-4.029075e-09	1.353472e+00	-2.681631e+02
8.500000e-07	2.904492e-07	-3.129525e-09	2.083536e+00	-2.089701e+02
8.600000e-07	3.921010e-07	-2.225352e-09	2.812734e+00	-1.494382e+02
8.700000e-07	4.936146e-07	-1.313285e-09	3.540942e+00	-8.947880e+01
8.800000e-07	5.950136e-07	-3.910899e-10	4.268327e+00	-2.891665e+01
8.900000e-07	6.962459e-07	5.468031e-10	4.994516e+00	3.247267e+01
9.000000e-07	7.972508e-07	1.500386e-09	5.719075e+00	9.491347e+01
9.100000e-07	8.979530e-07	2.469032e-09	6.441461e+00	1.585758e+02
9.200000e-07	9.983386e-07	3.456029e-09	7.161576e+00	2.235252e+02
9.300000e-07	1.098436e-06	4.459209e-09	7.879626e+00	2.896857e+02
9.400000e-07	1.198286e-06	5.479080e-09	8.595899e+00	3.568215e+02
9.500000e-07	1.297822e-06	6.508820e-09	9.309916e+00	4.245409e+02
9.600000e-07	1.396890e-06	7.541147e-09	1.002058e+01	4.923232e+02
9.700000e-07	1.495281e-06	8.565934e-09	1.072639e+01	5.595626e+02
9.800000e-07	1.592835e-06	9.572830e-09	1.142619e+01	6.256233e+02
9.900000e-07	1.689567e-06	1.055174e-08	1.212010e+01	6.898966e+02
1.000000e-06	1.785594e-06	1.149332e-08	1.280895e+01	7.518523e+02
1.010000e-06	1.881044e-06	1.239140e-08	1.349366e+01	8.110771e+02
1.020000e-06	1.975877e-06	1.324256e-08	1.417395e+01	8.672953e+02
1.030000e-06	2.069999e-06	1.404781e-08	1.484912e+01	9.203713e+02
1.040000e-06	2.163403e-06	1.480393e-08	1.551916e+01	9.702961e+02
1.050000e-06	2.256082e-06	1.551167e-08	1.618399e+01	1.017162e+03
1.060000e-06	2.348099e-06	1.617523e-08	1.684408e+01	1.061128e+03
1.070000e-06	2.439467e-06	1.680278e-08	1.749950e+01	1.102393e+03
1.080000e-06	2.529812e-06	1.739523e-08	1.814759e+01	1.141163e+03
1.090000e-06	2.618849e-06	1.795310e-08	1.878630e+01	1.177633e+03
1.100000e-06	2.706845e-06	1.847537e-08	1.941754e+01	1.211977e+03
1.110000e-06	2.794144e-06	1.896453e-08	2.004377e+01	1.244346e+03
1.120000e-06	2.880598e-06	1.942637e-08	2.066396e+01	1.274869e+03
1.130000e-06	2.965990e-06	1.986317e-08	2.127652e+01	1.303663e+03
1.140000e-06	3.050425e-06	2.027599e-08	2.188221e+01	1.330837e+03
1.150000e-06	3.134062e-06	2.066379e-08	2.248218e+01	1.356501e+03
1.160000e-06	3.216635e-06	2.103231e-08	2.307452e+01	1.380764e+03
1.170000e-06	3.297856e-06	2.138261e-08	2.365715e+01	1.403733e+03
1.180000e-06	3.377824e-06	2.171731e-08	2.423081e+01	1.425512e+03
1.190000e-06	3.456600e-06	2.203608e-08	2.479590e+01	1.446197e+03
1.200000e-06	3.534185e-06	2.233676e-08	2.535246e+01	1.465868e+03
1.210000e-06	3.610635e-06	2.261924e-08	2.590087e+01	1.484593e+03
1.220000e-06	3.685810e-06	2.288628e-08	2.644014e+01	1.502425e+03
1.230000e-06	3.759283e-06	2.314145e-08	2.696720e+01	1.519406e+03
1.240000e-06	3.831164e-06	2.338595e-08	2.748283e+01	1.535570e+03
1.250000e-06	3.901791e-06	2.362074e-08	2.798948e+01	1.550952e+03
1.260000e-06	3.971012e-06	2.384519e-08	2.848603e+01	1.565584e+03
1.270000e-06	4.038902e-06	2.405658e-08	2.897304e+01	1.579504e+03
1.280000e-06	4.105278e-06	2.425524e-08	2.944919e+01	1.592754e+03
1.290000e-06	4.169960e-06	2.444416e-08	2.991318e+01	1.605378e+03
1.300000e-06	4.233174e-06	2.462568e-08	3.036665e+01	1.617417e+03
1.310000e-06	4.294950e-06	2.480046e-08	3.080980e+01	1.628908e+03
1.320000e-06	4.355427e-06	2.496941e-08	3.124363e+01	1.639878e+03
1.330000e-06	4.414521e-06	2.513209e-08	3.166754e+01	1.650347e+03
1.340000e-06	4.471761e-06	2.528623e-08	3.207815e+01	1.660323e+03
1.350000e-06	4.527211e-06	2.543007e-08	3.247592e+01	1.669810e+03
1.360000e-06	4.581137e-06	2.556589e-08	3.286276e+01	1.678809e+03
1.370000e-06	4.633301e-06	2.569497e-08	3.323696e+01	1.687323e+03
1.380000e-06	4.683343e-06	2.581708e-08	3.359594e+01	1.695359e+03
1.390000e-06	4.731445e-06	2.593315e-08	3.394099e+01	1.702932e+03
1.400000e-06	4.777954e-06	2.604320e-08	3.427462e+01	1.710068e+03
1.410000e-06	4.822926e-06	2.614673e-08	3.459724e+01	1.716794e+03
1.420000e-06	4.866328e-06	2.624256e-08	3.490858e+01	1.723143e+03
1.430000e-06	4.907793e-06	2.633282e-08	3.520603e+01	1.729147e+03
1.440000e-06	4.947395e-06	2.641850e-08	3.549011e+01	1.734830e+03
1.450000e-06	4.985459e-06	2.649836e-08	3.576316e+01	1.740211e+03
1.460000e-06	5.021983e-06	2.657341e-08	3.602517e+01	1.745298e+03
1.470000e-06	5.056710e-06	2.664534e-08	3.627428e+01	1.750091e+03
1.480000e-06	5.089446e-06	2.671328e-08	3.650912e+01	1.754585e+03
1.490000e-06	5.120421e-06	2.677666e-08	3.673131e+01	1.758771e+03
1.500000e-06	5.149741e-06	2.683538e-08	3.694164e+01	1.762644e+03
1.510000e-06	5.177410e-06	2.689162e-08	3.714012e+01	1.766200e+03
1.520000e-06	5.203130e-06	2.694427e-08	3.732462e+01	1.769441e+03
1.530000e-06	5.226735e-06	2.699052e-08	3.749396e+01	1.772376e+03
1.540000e-06	5.248528e-06	2.703063e-08	3.765029e+01	1.775013e+03
1.550000e-06	5.268670e-06	2.706515e-08	3.779477e+01	1.777364e+03
1.560000e-06	5.286957e-06	2.709459e-08	3.792596e+01	1.779439e+03
1.570000e-06	5.303193e-06	2.711812e-08	3.804243e+01	1.781243e+03
1.580000e-06	5.317456e-06	2.713866e-08	3.814474e+01	1.782781e+03
1.590000e-06	5.329722e-06	2.715750e-08	3.823273e+01	1.784053e+03
1.600000e-06	5.339793e-06	2.717571e-08	3.830497e+01	1.785064e+03
1.610000e-06	5.347817e-06	2.719215e-08	3.836254e+01	1.785816e+03
1.620000e-06	5.354015e-06	2.720424e-08	3.840700e+01	1.786319e+03
1.630000e-06	5.358409e-06	2.721108e-08	3.843852e+01	1.786586e+03
1.640000e-06	5.360884e-06	2.721339e-08	3.845627e+01	1.786635e+03
1.650000e-06	5.361404e-06	2.721287e-08	3.846000e+01	1.786482e+03
1.660000e-06	5.360173e-06	2.720227e-08	3.845117e+01	1.786141e+03
1.670000e-06	5.357262e-06	2.719025e-08	3.843029e+01	1.785616e+03
1.680000e-06	5.352633e-06	2.718224e-08	3.839708e+01	1.784902e+03
1.690000e-06	5.346071e-06	2.717124e-08	3.835001e+01	1.783986e+03
1.700000e-06	5.337748e-06	2.715828e-08	3.829031e+01	1.782846e+03
1.710000e-06	5.327895e-06	2.714517e-08	3.821963e+01	1.781457e+03
1.720000e-06	5.316300e-06	2.714075e-08	3.813645e+01	1.779801e+03
1.730000e-06	5.302711e-06	2.712523e-08	3.803897e+01	1.777869e+03
1.740000e-06	5.287152e-06	2.698128e-08	3.792735e+01	1.775670e+03
1.750000e-06	5.269411e-06	2.693142e-08	3.780009e+01	1.773229e+03
1.760000e-06	5.248993e-06	2.694930e-08	3.765362e+01	1.770588e+03
1.770000e-06	5.226158e-06	2.691973e-08	3.748982e+01	1.767798e+03
1.780000e-06	5.201785e-06	2.703876e-08	3.731498e+01	1.764907e+03
1.790000e-06	5.176683e-06	2.685390e-08	3.713491e+01	1.761957e+03
1.800000e-06	5.150503e-06	2.667596e-08	3.694710e+01	1.758968e+03
1.810000e-06	5.122192e-06	2.687417e-08	3.674401e+01	1.755939e+03
1.820000e-06	5.091879e-06	2.664514e-08	3.652656e+01	1.752837e+03
1.830000e-06	5.059968e-06	2.657277e-08	3.629765e+01	1.749613e+03
1.840000e-06	5.026173e-06	2.678708e-08	3.605523e+01	1.746199e+03
1.850000e-06	4.990764e-06	2.647598e-08	3.580122e+01	1.742523e+03
1.860000e-06	4.953715e-06	2.644650e-08	3.553545e+01	1.738524e+03
1.870000e-06	4.914677e-06	2.651395e-08	3.525541e+01	1.734152e+03
1.880000e-06	4.873965e-06	2.629190e-08	3.496336e+01	1.729383e+03
1.890000e-06	4.831524e-06	2.639129e-08	3.465891e+01	1.724211e+03
1.900000e-06	4.787338e-06	2.619897e-08	3.434194e+01	1.718652e+03
1.910000e-06	4.741371e-06	2.602472e-08	3.401220e+01	1.712733e+03
1.920000e-06	4.693440e-06	2.615384e-08	3.366837e+01	1.706483e+03
1.930000e-06	4.643918e-06	2.592670e-08	3.331312e+01	1.699929e+03
1.940000e-06	4.592647e-06	2.586395e-08	3.294533e+01	1.693085e+03
1.950000e-06	4.539188e-06	2.577025e-08	3.256184e+01	1.685955e+03
1.960000e-06	4.483880e-06	2.561094e-08	3.216509e+01	1.678530e+03
1.970000e-06	4.426910e-06	2.553976e-08	3.175642e+01	1.670794e+03
1.980000e-06	4.368389e-06	2.528989e-08	3.133661e+01	1.662731e+03
1.990000e-06	4.308474e-06	2.527041e-08	3.090682e+01	1.654323e+03
2.000000e-06	4.246997e-06	2.517220e-08	3.046581e+01	1.645563e+03
2.010000e-06	4.183852e-06	2.498278e-08	3.001284e+01	1.636447e+03
2.020000e-06	4.119119e-06	2.484908e-08	2.954848e+01	1.626978e+03
2.030000e-06	4.052985e-06	2.463021e-08	2.907406e+01	1.617159e+03
2.040000e-06	3.985524e-06	2.457222e-08	2.859013e+01	1.606990e+03
2.050000e-06	3.916588e-06	2.438193e-08	2.809562e+01	1.596468e+03
2.060000e-06	3.846075e-06	2.420143e-08	2.758980e+01	1.585579e+03
2.070000e-06	3.774174e-06	2.407538e-08	2.707402e+01	1.574305e+03
2.080000e-06	3.701039e-06	2.384819e-08	2.654939e+01	1.562623e+03
2.090000e-06	3.626569e-06	2.368461e-08	2.601517e+01	1.550509e+03
2.100000e-06	3.550708e-06	2.347213e-08	2.547098e+01	1.537942e+03
2.110000e-06	3.473318e-06	2.330343e-08	2.491583e+01	1.524905e+03
2.120000e-06	3.394465e-06	2.309217e-08	2.435018e+01	1.511387e+03
2.130000e-06	3.314443e-06	2.285927e-08	2.377614e+01	1.497380e+03
2.140000e-06	3.233281e-06	2.265705e-08	2.319392e+01	1.482876e+03
2.150000e-06	3.151027e-06	2.241306e-08	2.260387e+01	1.467860e+03
2.160000e-06	3.067777e-06	2.219662e-08	2.200668e+01	1.452314e+03
2.170000e-06	2.983518e-06	2.194809e-08	2.140225e+01	1.436207e+03
2.180000e-06	2.897978e-06	2.169859e-08	2.078863e+01	1.419502e+03
2.190000e-06	2.811167e-06	2.142626e-08	2.016589e+01	1.402156e+03
2.200000e-06	2.723409e-06	2.114573e-08	1.953636e+01	1.384124e+03
2.210000e-06	2.634733e-06	2.087321e-08	1.890024e+01	1.365365e+03
2.220000e-06	2.545099e-06	2.056923e-08	1.825725e+01	1.345841e+03
2.230000e-06	2.454582e-06	2.025463e-08	1.760793e+01	1.325520e+03
2.240000e-06	2.363341e-06	1.992568e-08	1.695342e+01	1.304372e+03
2.250000e-06	2.271409e-06	1.960677e-08	1.629394e+01	1.282365e+03
2.260000e-06	2.178607e-06	1.926430e-08	1.562822e+01	1.259460e+03
2.270000e-06	2.084766e-06	1.890196e-08	1.495506e+01	1.235606e+03
2.280000e-06	1.989975e-06	1.852438e-08	1.427508e+01	1.210737e+03
2.290000e-06	1.894482e-06	1.812325e-08	1.359006e+01	1.184771e+03
2.300000e-06	1.798389e-06	1.770631e-08	1.290073e+01	1.157615e+03
2.310000e-06	1.701722e-06	1.727200e-08	1.220730e+01	1.129165e+03
2.320000e-06	1.604543e-06	1.682527e-08	1.151018e+01	1.099316e+03
2.330000e-06	1.506898e-06	1.635093e-08	1.080973e+01	1.067964e+03
2.340000e-06	1.408699e-06	1.584364e-08	1.010529e+01	1.035008e+03
2.350000e-06	1.309967e-06	1.530727e-08	9.397041e+00	1.000356e+03
2.360000e-06	1.210927e-06	1.475169e-08	8.686580e+00	9.639145e+02
2.370000e-06	1.111637e-06	1.417507e-08	7.974320e+00	9.255968e+02
2.380000e-06	1.012090e-06	1.356720e-08	7.260225e+00	8.853180e+02
2.390000e-06	9.123530e-07	1.292058e-08	6.544759e+00	8.430007e+02
2.400000e-06	8.123207e-07	1.223663e-08	5.827178e+00	7.985834e+02
2.410000e-06	7.119539e-07	1.152348e-08	5.107197e+00	7.520334e+02
2.420000e-06	6.112232e-07	1.077760e-08	4.384606e+00	7.033610e+02
2.430000e-06	5.100401e-07	9.999614e-09	3.658770e+00	6.526338e+02
2.440000e-06	4.086902e-07	9.200316e-09	2.931737e+00	5.999855e+02
2.450000e-06	3.072588e-07	8.377192e-09	2.204119e+00	5.456163e+02
2.460000e-06	2.055876e-07	7.525722e-09	1.474782e+00	4.897824e+02
2.470000e-06	1.037962e-07	6.653780e-09	7.445812e-01	4.327739e+02
2.480000e-06	2.001419e-09	5.769745e-09	1.435717e-02	3.748833e+02
2.490000e-06	-9.989919e-08	4.875165e-09	-7.166263e-01	3.163691e+02
2.500000e-06	-2.017980e-07	3.971008e-09	-1.447597e+00	2.574210e+02
2.510000e-06	-3.035238e-07	3.062507e-09	-2.177326e+00	1.981331e+02
2.520000e-06	-4.051196e-07	2.151652e-09	-2.906123e+00	1.384912e+02
2.530000e-06	-5.065503e-07	1.233848e-09	-3.633736e+00	7.837927e+01
2.540000e-06	-6.076640e-07	3.041159e-10	-4.359074e+00	1.760350e+01
2.550000e-06	-7.084518e-07	-6.394017e-10	-5.082075e+00	-4.406588e+01
2.560000e-06	-8.089615e-07	-1.597955e-09	-5.803081e+00	-1.068432e+02
2.570000e-06	-9.090801e-07	-2.574746e-09	-6.521281e+00	-1.708734e+02
2.580000e-06	-1.008825e-06	-3.570775e-09	-7.236799e+00	-2.361846e+02
2.590000e-06	-1.108288e-06	-4.585126e-09	-7.950301e+00	-3.026561e+02
2.600000e-06	-1.207494e-06	-5.616274e-09	-8.661954e+00	-3.700060e+02
2.610000e-06	-1.306404e-06	-6.654536e-09	-9.371480e+00	-4.378024e+02
2.620000e-06	-1.404853e-06	-7.691332e-09	-1.007770e+01	-5.054950e+02
2.630000e-06	-1.502666e-06	-8.718700e-09	-1.077937e+01	-5.724636e+02
2.640000e-06	-1.599885e-06	-9.724078e-09	-1.147677e+01	-6.380743e+02
2.650000e-06	-1.696593e-06	-1.069665e-08	-1.217050e+01	-7.017362e+02
2.660000e-06	-1.792776e-06	-1.163039e-08	-1.286047e+01	-7.629492e+02
2.670000e-06	-1.888469e-06	-1.252473e-08	-1.354692e+01	-8.213380e+02
2.680000e-06	-1.983642e-06	-1.337454e-08	-1.422965e+01	-8.766675e+02
2.690000e-06	-2.078110e-06	-1.417544e-08	-1.490731e+01	-9.288403e+02
2.700000e-06	-2.171540e-06	-1.492829e-08	-1.557753e+01	-9.778793e+02
2.710000e-06	-2.263830e-06	-1.563610e-08	-1.623957e+01	-1.023899e+03
2.720000e-06	-2.355269e-06	-1.629899e-08	-1.689551e+01	-1.067074e+03
2.730000e-06	-2.445997e-06	-1.691892e-08	-1.754634e+01	-1.107607e+03
2.740000e-06	-2.535876e-06	-1.750391e-08	-1.819109e+01	-1.145701e+03
2.750000e-06	-2.624879e-06	-1.805687e-08	-1.882956e+01	-1.181548e+03
2.760000e-06	-2.713044e-06	-1.857530e-08	-1.946201e+01	-1.215315e+03
2.770000e-06	-2.800403e-06	-1.906030e-08	-2.008868e+01	-1.247145e+03
2.780000e-06	-2.886799e-06	-1.951819e-08	-2.070844e+01	-1.277163e+03
2.790000e-06	-2.971943e-06	-1.995004e-08	-2.131922e+01	-1.305485e+03
2.800000e-06	-3.055882e-06	-2.035748e-08	-2.192135e+01	-1.332218e+03
2.810000e-06	-3.138799e-06	-2.074570e-08	-2.251615e+01	-1.357472e+03
2.820000e-06	-3.220730e-06	-2.111452e-08	-2.310389e+01	-1.381355e+03
2.830000e-06	-3.301597e-06	-2.146082e-08	-2.368399e+01	-1.403975e+03
2.840000e-06	-3.381441e-06	-2.178712e-08	-2.425675e+01	-1.425433e+03
2.850000e-06	-3.460137e-06	-2.209845e-08	-2.482127e+01	-1.445822e+03
2.860000e-06	-3.537269e-06	-2.239619e-08	-2.537458e+01	-1.465217e+03
2.870000e-06	-3.612850e-06	-2.268014e-08	-2.591676e+01	-1.483683e+03
2.880000e-06	-3.687031e-06	-2.295000e-08	-2.644890e+01	-1.501270e+03
2.890000e-06	-3.759814e-06	-2.320559e-08	-2.697100e+01	-1.518015e+03
2.900000e-06	-3.831388e-06	-2.344886e-08	-2.748444e+01	-1.533954e+03
2.910000e-06	-3.901569e-06	-2.368090e-08	-2.798788e+01	-1.549119e+03
2.920000e-06	-3.970123e-06	-2.390248e-08	-2.847966e+01	-1.563544e+03
2.930000e-06	-4.037300e-06	-2.411493e-08	-2.896155e+01	-1.577270e+03
2.940000e-06	-4.103113e-06	-2.431801e-08	-2.943366e+01	-1.590338e+03
