# Temperatura_=_90.81
# Concentracion g/m^3_=_28200.0
# C_Vs_to_Am_M_A/Vsm_=_65563218390.804596
# pendiente_HvsI_1/m_=_3716.3
# ordenada_HvsI_A/m_=_1297.0
# frecuencia_Hz_=_301740.1968469087

Tiempo_(s)	Campo_(V.s)	Magnetizacion_(V.s)	Campo_(kA/m)	Magnetizacion_(A/m)
0.000000e+00	-5.310082e-06	-2.786647e-08	-3.829858e+01	-1.823290e+03
1.000000e-08	-5.307575e-06	-2.786027e-08	-3.828049e+01	-1.822809e+03
2.000000e-08	-5.303347e-06	-2.784815e-08	-3.824999e+01	-1.822133e+03
3.000000e-08	-5.297524e-06	-2.783467e-08	-3.820800e+01	-1.821245e+03
4.000000e-08	-5.290056e-06	-2.781749e-08	-3.815413e+01	-1.820124e+03
5.000000e-08	-5.280815e-06	-2.779297e-08	-3.808749e+01	-1.818743e+03
6.000000e-08	-5.269577e-06	-2.776334e-08	-3.800643e+01	-1.817082e+03
7.000000e-08	-5.256436e-06	-2.772830e-08	-3.791165e+01	-1.815136e+03
8.000000e-08	-5.241332e-06	-2.770687e-08	-3.780272e+01	-1.812912e+03
9.000000e-08	-5.223999e-06	-2.771711e-08	-3.767771e+01	-1.810439e+03
1.000000e-07	-5.204547e-06	-2.767749e-08	-3.753741e+01	-1.807758e+03
1.100000e-07	-5.183180e-06	-2.760044e-08	-3.738330e+01	-1.804923e+03
1.200000e-07	-5.160090e-06	-2.753593e-08	-3.721676e+01	-1.801984e+03
1.300000e-07	-5.135523e-06	-2.743773e-08	-3.703958e+01	-1.798982e+03
1.400000e-07	-5.109408e-06	-2.740831e-08	-3.685123e+01	-1.795938e+03
1.500000e-07	-5.081635e-06	-2.744192e-08	-3.665091e+01	-1.792849e+03
1.600000e-07	-5.052353e-06	-2.731103e-08	-3.643972e+01	-1.789684e+03
1.700000e-07	-5.021610e-06	-2.727263e-08	-3.621799e+01	-1.786391e+03
1.800000e-07	-4.988954e-06	-2.727661e-08	-3.598246e+01	-1.782905e+03
1.900000e-07	-4.954258e-06	-2.709801e-08	-3.573222e+01	-1.779157e+03
2.000000e-07	-4.918039e-06	-2.706147e-08	-3.547099e+01	-1.775083e+03
2.100000e-07	-4.880231e-06	-2.702891e-08	-3.519830e+01	-1.770640e+03
2.200000e-07	-4.840665e-06	-2.686485e-08	-3.491294e+01	-1.765802e+03
2.300000e-07	-4.799258e-06	-2.679554e-08	-3.461429e+01	-1.760566e+03
2.400000e-07	-4.755846e-06	-2.672118e-08	-3.430119e+01	-1.754946e+03
2.500000e-07	-4.710639e-06	-2.662374e-08	-3.397513e+01	-1.748966e+03
2.600000e-07	-4.663697e-06	-2.657471e-08	-3.363657e+01	-1.742654e+03
2.700000e-07	-4.614832e-06	-2.643632e-08	-3.328413e+01	-1.736029e+03
2.800000e-07	-4.563898e-06	-2.630369e-08	-3.291678e+01	-1.729102e+03
2.900000e-07	-4.511010e-06	-2.620422e-08	-3.253533e+01	-1.721872e+03
3.000000e-07	-4.456445e-06	-2.609747e-08	-3.214178e+01	-1.714327e+03
3.100000e-07	-4.400243e-06	-2.598190e-08	-3.173642e+01	-1.706453e+03
3.200000e-07	-4.342220e-06	-2.585421e-08	-3.131794e+01	-1.698234e+03
3.300000e-07	-4.282534e-06	-2.572825e-08	-3.088746e+01	-1.689657e+03
3.400000e-07	-4.221480e-06	-2.556892e-08	-3.044711e+01	-1.680721e+03
3.500000e-07	-4.159045e-06	-2.542072e-08	-2.999680e+01	-1.671428e+03
3.600000e-07	-4.095160e-06	-2.528638e-08	-2.953604e+01	-1.661787e+03
3.700000e-07	-4.029716e-06	-2.514562e-08	-2.906403e+01	-1.651805e+03
3.800000e-07	-3.962676e-06	-2.499534e-08	-2.858051e+01	-1.641486e+03
3.900000e-07	-3.894196e-06	-2.480926e-08	-2.808660e+01	-1.630823e+03
4.000000e-07	-3.824419e-06	-2.463308e-08	-2.758334e+01	-1.619800e+03
4.100000e-07	-3.753482e-06	-2.447315e-08	-2.707171e+01	-1.608393e+03
4.200000e-07	-3.681391e-06	-2.429474e-08	-2.655176e+01	-1.596570e+03
4.300000e-07	-3.607829e-06	-2.410966e-08	-2.602120e+01	-1.584302e+03
4.400000e-07	-3.532637e-06	-2.391206e-08	-2.547888e+01	-1.571561e+03
4.500000e-07	-3.456004e-06	-2.370761e-08	-2.492618e+01	-1.558328e+03
4.600000e-07	-3.378095e-06	-2.349792e-08	-2.436426e+01	-1.544591e+03
4.700000e-07	-3.298861e-06	-2.328970e-08	-2.379279e+01	-1.530344e+03
4.800000e-07	-3.218238e-06	-2.307192e-08	-2.321130e+01	-1.515583e+03
4.900000e-07	-3.136390e-06	-2.282862e-08	-2.262098e+01	-1.500301e+03
5.000000e-07	-3.053533e-06	-2.258102e-08	-2.202338e+01	-1.484482e+03
5.100000e-07	-2.969783e-06	-2.232765e-08	-2.141934e+01	-1.468103e+03
5.200000e-07	-2.885137e-06	-2.206905e-08	-2.080884e+01	-1.451127e+03
5.300000e-07	-2.799510e-06	-2.180297e-08	-2.019126e+01	-1.433511e+03
5.400000e-07	-2.712925e-06	-2.152750e-08	-1.956677e+01	-1.415207e+03
5.500000e-07	-2.625493e-06	-2.123996e-08	-1.893617e+01	-1.396166e+03
5.600000e-07	-2.537179e-06	-2.093310e-08	-1.829922e+01	-1.376347e+03
5.700000e-07	-2.447755e-06	-2.061755e-08	-1.765425e+01	-1.355711e+03
5.800000e-07	-2.357129e-06	-2.029370e-08	-1.700062e+01	-1.334223e+03
5.900000e-07	-2.265564e-06	-1.995473e-08	-1.634021e+01	-1.311852e+03
6.000000e-07	-2.173308e-06	-1.959258e-08	-1.567482e+01	-1.288561e+03
6.100000e-07	-2.080369e-06	-1.921481e-08	-1.500451e+01	-1.264303e+03
6.200000e-07	-1.986657e-06	-1.882763e-08	-1.432862e+01	-1.239019e+03
6.300000e-07	-1.892200e-06	-1.842673e-08	-1.364735e+01	-1.212635e+03
6.400000e-07	-1.797117e-06	-1.801027e-08	-1.296157e+01	-1.185062e+03
6.500000e-07	-1.701478e-06	-1.757298e-08	-1.227178e+01	-1.156202e+03
6.600000e-07	-1.605246e-06	-1.711150e-08	-1.157771e+01	-1.125950e+03
6.700000e-07	-1.508398e-06	-1.662595e-08	-1.087921e+01	-1.094199e+03
6.800000e-07	-1.410924e-06	-1.611765e-08	-1.017618e+01	-1.060845e+03
6.900000e-07	-1.312797e-06	-1.558351e-08	-9.468449e+00	-1.025785e+03
7.000000e-07	-1.214093e-06	-1.502151e-08	-8.756556e+00	-9.889233e+02
7.100000e-07	-1.114916e-06	-1.443040e-08	-8.041250e+00	-9.501643e+02
7.200000e-07	-1.015365e-06	-1.380885e-08	-7.323246e+00	-9.094187e+02
7.300000e-07	-9.155549e-07	-1.315653e-08	-6.603372e+00	-8.666059e+02
7.400000e-07	-8.155363e-07	-1.247277e-08	-5.881995e+00	-8.216618e+02
7.500000e-07	-7.152716e-07	-1.175607e-08	-5.158843e+00	-7.745506e+02
7.600000e-07	-6.147795e-07	-1.100327e-08	-4.434052e+00	-7.252780e+02
7.700000e-07	-5.140827e-07	-1.021736e-08	-3.707783e+00	-6.739050e+02
7.800000e-07	-4.132807e-07	-9.404069e-09	-2.980756e+00	-6.205558e+02
7.900000e-07	-3.124233e-07	-8.566002e-09	-2.253330e+00	-5.654198e+02
8.000000e-07	-2.114223e-07	-7.703238e-09	-1.524868e+00	-5.087427e+02
8.100000e-07	-1.102518e-07	-6.819908e-09	-7.951826e-01	-4.508064e+02
8.200000e-07	-8.992177e-09	-5.922739e-09	-6.485541e-02	-3.919008e+02
8.300000e-07	9.231174e-08	-5.016426e-09	6.657916e-01	-3.322890e+02
8.400000e-07	1.936481e-07	-4.103907e-09	1.396672e+00	-2.721733e+02
8.500000e-07	2.949130e-07	-3.186231e-09	2.127038e+00	-2.116678e+02
8.600000e-07	3.960099e-07	-2.262175e-09	2.856192e+00	-1.507832e+02
8.700000e-07	4.969729e-07	-1.327349e-09	3.584380e+00	-8.942859e+01
8.800000e-07	5.978079e-07	-3.804546e-10	4.311645e+00	-2.743168e+01
8.900000e-07	6.985098e-07	5.801516e-10	5.037950e+00	3.542501e+01
9.000000e-07	7.990203e-07	1.554741e-09	5.762875e+00	9.935599e+01
9.100000e-07	8.992855e-07	2.544519e-09	6.486030e+00	1.645205e+02
9.200000e-07	9.992699e-07	3.553010e-09	7.207160e+00	2.309747e+02
9.300000e-07	1.098926e-06	4.581919e-09	7.925920e+00	2.986353e+02
9.400000e-07	1.198243e-06	5.627404e-09	8.642235e+00	3.672626e+02
9.500000e-07	1.297047e-06	6.680811e-09	9.354859e+00	4.364642e+02
9.600000e-07	1.395245e-06	7.733546e-09	1.006310e+01	5.057204e+02
9.700000e-07	1.492826e-06	8.778993e-09	1.076689e+01	5.744265e+02
9.800000e-07	1.589707e-06	9.807937e-09	1.146565e+01	6.419463e+02
9.900000e-07	1.685870e-06	1.080721e-08	1.215921e+01	7.076679e+02
1.000000e-06	1.781359e-06	1.176984e-08	1.284792e+01	7.710543e+02
1.010000e-06	1.876238e-06	1.268962e-08	1.353223e+01	8.316816e+02
1.020000e-06	1.970517e-06	1.356338e-08	1.421221e+01	8.892619e+02
1.030000e-06	2.064157e-06	1.438984e-08	1.488758e+01	9.436467e+02
1.040000e-06	2.157140e-06	1.516566e-08	1.555821e+01	9.948155e+02
1.050000e-06	2.249405e-06	1.589304e-08	1.622367e+01	1.042852e+03
1.060000e-06	2.340895e-06	1.657518e-08	1.688353e+01	1.087913e+03
1.070000e-06	2.431571e-06	1.721777e-08	1.753753e+01	1.130196e+03
1.080000e-06	2.521255e-06	1.782197e-08	1.818437e+01	1.169911e+03
1.090000e-06	2.609786e-06	1.839004e-08	1.882289e+01	1.207262e+03
1.100000e-06	2.697341e-06	1.892448e-08	1.945437e+01	1.242429e+03
1.110000e-06	2.784123e-06	1.942650e-08	2.008028e+01	1.275571e+03
1.120000e-06	2.870020e-06	1.989882e-08	2.069981e+01	1.306823e+03
1.130000e-06	2.954920e-06	2.034583e-08	2.131214e+01	1.336304e+03
1.140000e-06	3.038950e-06	2.076890e-08	2.191820e+01	1.364128e+03
1.150000e-06	3.122055e-06	2.116666e-08	2.251759e+01	1.390402e+03
1.160000e-06	3.204000e-06	2.154367e-08	2.310861e+01	1.415235e+03
1.170000e-06	3.284766e-06	2.190125e-08	2.369113e+01	1.438736e+03
1.180000e-06	3.364359e-06	2.224081e-08	2.426519e+01	1.461010e+03
1.190000e-06	3.442684e-06	2.256382e-08	2.483010e+01	1.482154e+03
1.200000e-06	3.519772e-06	2.287082e-08	2.538609e+01	1.502253e+03
1.210000e-06	3.595610e-06	2.316261e-08	2.593307e+01	1.521381e+03
1.220000e-06	3.670031e-06	2.343749e-08	2.646982e+01	1.539593e+03
1.230000e-06	3.742914e-06	2.369701e-08	2.699549e+01	1.556936e+03
1.240000e-06	3.814376e-06	2.394568e-08	2.751090e+01	1.573446e+03
1.250000e-06	3.884484e-06	2.418475e-08	2.801655e+01	1.589159e+03
1.260000e-06	3.953240e-06	2.441364e-08	2.851245e+01	1.604109e+03
1.270000e-06	4.020744e-06	2.462980e-08	2.899932e+01	1.618334e+03
1.280000e-06	4.086758e-06	2.483394e-08	2.947544e+01	1.631877e+03
1.290000e-06	4.151064e-06	2.502761e-08	2.993924e+01	1.644783e+03
1.300000e-06	4.213851e-06	2.521254e-08	3.039209e+01	1.657093e+03
1.310000e-06	4.275259e-06	2.539098e-08	3.083499e+01	1.668847e+03
1.320000e-06	4.335327e-06	2.556310e-08	3.126822e+01	1.680074e+03
1.330000e-06	4.393934e-06	2.572866e-08	3.169093e+01	1.690795e+03
1.340000e-06	4.450778e-06	2.588546e-08	3.210091e+01	1.701020e+03
1.350000e-06	4.505906e-06	2.603296e-08	3.249851e+01	1.710750e+03
1.360000e-06	4.559473e-06	2.617418e-08	3.288486e+01	1.719986e+03
1.370000e-06	4.611213e-06	2.630880e-08	3.325803e+01	1.728726e+03
1.380000e-06	4.660856e-06	2.643504e-08	3.361608e+01	1.736976e+03
1.390000e-06	4.708605e-06	2.655483e-08	3.396047e+01	1.744749e+03
1.400000e-06	4.754741e-06	2.666813e-08	3.429321e+01	1.752067e+03
1.410000e-06	4.799362e-06	2.677262e-08	3.461504e+01	1.758958e+03
1.420000e-06	4.842386e-06	2.686936e-08	3.492535e+01	1.765456e+03
1.430000e-06	4.883504e-06	2.696146e-08	3.522191e+01	1.771594e+03
1.440000e-06	4.922823e-06	2.704902e-08	3.550550e+01	1.777400e+03
1.450000e-06	4.960592e-06	2.713105e-08	3.577790e+01	1.782894e+03
1.460000e-06	4.996750e-06	2.720890e-08	3.603869e+01	1.788087e+03
1.470000e-06	5.031156e-06	2.728287e-08	3.628684e+01	1.792982e+03
1.480000e-06	5.063706e-06	2.735275e-08	3.652160e+01	1.797573e+03
1.490000e-06	5.094484e-06	2.741767e-08	3.674359e+01	1.801853e+03
1.500000e-06	5.123596e-06	2.747726e-08	3.695355e+01	1.805814e+03
1.510000e-06	5.151023e-06	2.753372e-08	3.715137e+01	1.809453e+03
1.520000e-06	5.176425e-06	2.758729e-08	3.733458e+01	1.812769e+03
1.530000e-06	5.199761e-06	2.763584e-08	3.750289e+01	1.815767e+03
1.540000e-06	5.221315e-06	2.767686e-08	3.765834e+01	1.818457e+03
1.550000e-06	5.241214e-06	2.771208e-08	3.780187e+01	1.820846e+03
1.560000e-06	5.259291e-06	2.774188e-08	3.793225e+01	1.822945e+03
1.570000e-06	5.275338e-06	2.776716e-08	3.804798e+01	1.824760e+03
1.580000e-06	5.289442e-06	2.778828e-08	3.814971e+01	1.826297e+03
1.590000e-06	5.301553e-06	2.780612e-08	3.823705e+01	1.827559e+03
1.600000e-06	5.311490e-06	2.782203e-08	3.830873e+01	1.828554e+03
1.610000e-06	5.319364e-06	2.783537e-08	3.836552e+01	1.829287e+03
1.620000e-06	5.325390e-06	2.784618e-08	3.840898e+01	1.829773e+03
1.630000e-06	5.329683e-06	2.785177e-08	3.843994e+01	1.830027e+03
1.640000e-06	5.332083e-06	2.785457e-08	3.845725e+01	1.830067e+03
1.650000e-06	5.332464e-06	2.785429e-08	3.846000e+01	1.829907e+03
1.660000e-06	5.331032e-06	2.784860e-08	3.844967e+01	1.829559e+03
1.670000e-06	5.327941e-06	2.783924e-08	3.842738e+01	1.829021e+03
1.680000e-06	5.323218e-06	2.782829e-08	3.839332e+01	1.828286e+03
1.690000e-06	5.316611e-06	2.781396e-08	3.834566e+01	1.827333e+03
1.700000e-06	5.308178e-06	2.779651e-08	3.828484e+01	1.826138e+03
1.710000e-06	5.298172e-06	2.777784e-08	3.821267e+01	1.824678e+03
1.720000e-06	5.286481e-06	2.776288e-08	3.812835e+01	1.822935e+03
1.730000e-06	5.272854e-06	2.773471e-08	3.803006e+01	1.820906e+03
1.740000e-06	5.257258e-06	2.764275e-08	3.791759e+01	1.818606e+03
1.750000e-06	5.239472e-06	2.759366e-08	3.778930e+01	1.816068e+03
1.760000e-06	5.219060e-06	2.758676e-08	3.764208e+01	1.813336e+03
1.770000e-06	5.196276e-06	2.757192e-08	3.747776e+01	1.810465e+03
1.780000e-06	5.172019e-06	2.759960e-08	3.730280e+01	1.807504e+03
1.790000e-06	5.146979e-06	2.747996e-08	3.712220e+01	1.804487e+03
1.800000e-06	5.120719e-06	2.735819e-08	3.693280e+01	1.801431e+03
1.810000e-06	5.092414e-06	2.741898e-08	3.672865e+01	1.798323e+03
1.820000e-06	5.062216e-06	2.731355e-08	3.651086e+01	1.795126e+03
1.830000e-06	5.030359e-06	2.726471e-08	3.628109e+01	1.791784e+03
1.840000e-06	4.996614e-06	2.734571e-08	3.603771e+01	1.788229e+03
1.850000e-06	4.961243e-06	2.718696e-08	3.578259e+01	1.784392e+03
1.860000e-06	4.924200e-06	2.713468e-08	3.551543e+01	1.780216e+03
1.870000e-06	4.885235e-06	2.715193e-08	3.523439e+01	1.775660e+03
1.880000e-06	4.844611e-06	2.700474e-08	3.494140e+01	1.770706e+03
1.890000e-06	4.802279e-06	2.697361e-08	3.463608e+01	1.765357e+03
1.900000e-06	4.758234e-06	2.685380e-08	3.431841e+01	1.759631e+03
1.910000e-06	4.712401e-06	2.672927e-08	3.398784e+01	1.753552e+03
1.920000e-06	4.664630e-06	2.674496e-08	3.364330e+01	1.747147e+03
1.930000e-06	4.615251e-06	2.658819e-08	3.328715e+01	1.740434e+03
1.940000e-06	4.564167e-06	2.649182e-08	3.291871e+01	1.733420e+03
1.950000e-06	4.511021e-06	2.639833e-08	3.253541e+01	1.726101e+03
1.960000e-06	4.455978e-06	2.624582e-08	3.213841e+01	1.718463e+03
1.970000e-06	4.399221e-06	2.613875e-08	3.172906e+01	1.710490e+03
1.980000e-06	4.340917e-06	2.595670e-08	3.130854e+01	1.702168e+03
1.990000e-06	4.281260e-06	2.588048e-08	3.087827e+01	1.693488e+03
2.000000e-06	4.220129e-06	2.577364e-08	3.043737e+01	1.684447e+03
2.010000e-06	4.157298e-06	2.558515e-08	2.998421e+01	1.675053e+03
2.020000e-06	4.092831e-06	2.545070e-08	2.951924e+01	1.665313e+03
2.030000e-06	4.027002e-06	2.528021e-08	2.904445e+01	1.655234e+03
2.040000e-06	3.959843e-06	2.515988e-08	2.856008e+01	1.644816e+03
2.050000e-06	3.891332e-06	2.498470e-08	2.806594e+01	1.634051e+03
2.060000e-06	3.821274e-06	2.480027e-08	2.756065e+01	1.622920e+03
2.070000e-06	3.749688e-06	2.464916e-08	2.704434e+01	1.611396e+03
2.080000e-06	3.676831e-06	2.443244e-08	2.651887e+01	1.599448e+03
2.090000e-06	3.602647e-06	2.425065e-08	2.598382e+01	1.587046e+03
2.100000e-06	3.527091e-06	2.405466e-08	2.543889e+01	1.574165e+03
2.110000e-06	3.450064e-06	2.386114e-08	2.488333e+01	1.560788e+03
2.120000e-06	3.371556e-06	2.364976e-08	2.431709e+01	1.546904e+03
2.130000e-06	3.291830e-06	2.341858e-08	2.374208e+01	1.532509e+03
2.140000e-06	3.210988e-06	2.320695e-08	2.315902e+01	1.517599e+03
2.150000e-06	3.129034e-06	2.296456e-08	2.256793e+01	1.502165e+03
2.160000e-06	3.046020e-06	2.272845e-08	2.196919e+01	1.486188e+03
2.170000e-06	2.962063e-06	2.247667e-08	2.136366e+01	1.469641e+03
2.180000e-06	2.877050e-06	2.221270e-08	2.075051e+01	1.452486e+03
2.190000e-06	2.790751e-06	2.193526e-08	2.012808e+01	1.434676e+03
2.200000e-06	2.703341e-06	2.164747e-08	1.949765e+01	1.416165e+03
2.210000e-06	2.614995e-06	2.136320e-08	1.886046e+01	1.396906e+03
2.220000e-06	2.525747e-06	2.105550e-08	1.821676e+01	1.376855e+03
2.230000e-06	2.435618e-06	2.073458e-08	1.756672e+01	1.355978e+03
2.240000e-06	2.344683e-06	2.040213e-08	1.691085e+01	1.334240e+03
2.250000e-06	2.253077e-06	2.006882e-08	1.625015e+01	1.311609e+03
2.260000e-06	2.160810e-06	1.971425e-08	1.558468e+01	1.288046e+03
2.270000e-06	2.067690e-06	1.933785e-08	1.491306e+01	1.263500e+03
2.280000e-06	1.973564e-06	1.894635e-08	1.423418e+01	1.237909e+03
2.290000e-06	1.878482e-06	1.853496e-08	1.354841e+01	1.211194e+03
2.300000e-06	1.782705e-06	1.810675e-08	1.285763e+01	1.183262e+03
2.310000e-06	1.686417e-06	1.765999e-08	1.216316e+01	1.154014e+03
2.320000e-06	1.589643e-06	1.719831e-08	1.146518e+01	1.123343e+03
2.330000e-06	1.492432e-06	1.671016e-08	1.076405e+01	1.091144e+03
2.340000e-06	1.394731e-06	1.619160e-08	1.005939e+01	1.057311e+03
2.350000e-06	1.296572e-06	1.564475e-08	9.351430e+00	1.021745e+03
2.360000e-06	1.198077e-06	1.507511e-08	8.641039e+00	9.843496e+02
2.370000e-06	1.099252e-06	1.447916e-08	7.928273e+00	9.450306e+02
2.380000e-06	1.000087e-06	1.385012e-08	7.213050e+00	9.037009e+02
2.390000e-06	9.006340e-07	1.318734e-08	6.495756e+00	8.602835e+02
2.400000e-06	8.009194e-07	1.248990e-08	5.776572e+00	8.147211e+02
2.410000e-06	7.009187e-07	1.176195e-08	5.055324e+00	7.669884e+02
2.420000e-06	6.006422e-07	1.100034e-08	4.332088e+00	7.171056e+02
2.430000e-06	5.001684e-07	1.020697e-08	3.607428e+00	6.651511e+02
2.440000e-06	3.996151e-07	9.386677e-09	2.882194e+00	6.112682e+02
2.450000e-06	2.989665e-07	8.539681e-09	2.156274e+00	5.556636e+02
2.460000e-06	1.981185e-07	7.668061e-09	1.428915e+00	4.985958e+02
2.470000e-06	9.712241e-08	6.777315e-09	7.004882e-01	4.403523e+02
2.480000e-06	-3.933304e-09	5.873610e-09	-2.836866e-02	3.812190e+02
2.490000e-06	-1.050004e-07	4.958137e-09	-7.573073e-01	3.214448e+02
2.500000e-06	-2.059778e-07	4.033326e-09	-1.485600e+00	2.612092e+02
2.510000e-06	-3.068498e-07	3.104126e-09	-2.213132e+00	2.005977e+02
2.520000e-06	-4.076236e-07	2.172592e-09	-2.939955e+00	1.395910e+02
2.530000e-06	-5.082817e-07	1.235439e-09	-3.665944e+00	7.807205e+01
2.540000e-06	-6.088090e-07	2.873287e-10	-4.390990e+00	1.585132e+01
2.550000e-06	-7.091134e-07	-6.778584e-10	-5.114428e+00	-4.729306e+01
2.560000e-06	-8.091328e-07	-1.661998e-09	-5.835810e+00	-1.115651e+02
2.570000e-06	-9.088496e-07	-2.665347e-09	-6.555011e+00	-1.770992e+02
2.580000e-06	-1.008250e-06	-3.684699e-09	-7.271925e+00	-2.439144e+02
2.590000e-06	-1.107359e-06	-4.719361e-09	-7.986743e+00	-3.118838e+02
2.600000e-06	-1.206173e-06	-5.771581e-09	-8.699435e+00	-3.807226e+02
2.610000e-06	-1.304575e-06	-6.831781e-09	-9.409149e+00	-4.499987e+02
2.620000e-06	-1.402423e-06	-7.889969e-09	-1.011487e+01	-5.191630e+02
2.630000e-06	-1.499758e-06	-8.938602e-09	-1.081690e+01	-5.875963e+02
2.640000e-06	-1.596611e-06	-9.966879e-09	-1.151544e+01	-6.546636e+02
2.650000e-06	-1.692988e-06	-1.096367e-08	-1.221055e+01	-7.197696e+02
2.660000e-06	-1.788834e-06	-1.192082e-08	-1.290183e+01	-7.824064e+02
2.670000e-06	-1.884023e-06	-1.283416e-08	-1.358838e+01	-8.421876e+02
2.680000e-06	-1.978500e-06	-1.370204e-08	-1.426979e+01	-8.988653e+02
2.690000e-06	-2.072115e-06	-1.452117e-08	-1.494497e+01	-9.523294e+02
2.700000e-06	-2.164774e-06	-1.529235e-08	-1.561328e+01	-1.002592e+03
2.710000e-06	-2.256557e-06	-1.601794e-08	-1.627525e+01	-1.049761e+03
2.720000e-06	-2.347606e-06	-1.669741e-08	-1.693193e+01	-1.094009e+03
2.730000e-06	-2.437807e-06	-1.733250e-08	-1.758250e+01	-1.135538e+03
2.740000e-06	-2.527088e-06	-1.793009e-08	-1.822644e+01	-1.174559e+03
2.750000e-06	-2.615568e-06	-1.849681e-08	-1.886459e+01	-1.211269e+03
2.760000e-06	-2.703272e-06	-1.902977e-08	-1.949715e+01	-1.245844e+03
2.770000e-06	-2.790095e-06	-1.952752e-08	-2.012335e+01	-1.278434e+03
2.780000e-06	-2.875844e-06	-1.999645e-08	-2.074181e+01	-1.309169e+03
2.790000e-06	-2.960424e-06	-2.043919e-08	-2.135184e+01	-1.338167e+03
2.800000e-06	-3.043912e-06	-2.085576e-08	-2.195399e+01	-1.365538e+03
2.810000e-06	-3.126431e-06	-2.125003e-08	-2.254915e+01	-1.391390e+03
2.820000e-06	-3.207935e-06	-2.162640e-08	-2.313699e+01	-1.415833e+03
2.830000e-06	-3.288354e-06	-2.198400e-08	-2.371701e+01	-1.438974e+03
2.840000e-06	-3.367656e-06	-2.232076e-08	-2.428897e+01	-1.460917e+03
2.850000e-06	-3.445639e-06	-2.264005e-08	-2.485142e+01	-1.481756e+03
2.860000e-06	-3.522163e-06	-2.294414e-08	-2.540334e+01	-1.501572e+03
2.870000e-06	-3.597226e-06	-2.323272e-08	-2.594472e+01	-1.520434e+03
2.880000e-06	-3.670925e-06	-2.350639e-08	-2.647627e+01	-1.538395e+03
2.890000e-06	-3.743350e-06	-2.376678e-08	-2.699864e+01	-1.555497e+03
2.900000e-06	-3.814472e-06	-2.401585e-08	-2.751159e+01	-1.571778e+03
2.910000e-06	-3.884091e-06	-2.425323e-08	-2.801372e+01	-1.587270e+03
2.920000e-06	-3.952136e-06	-2.447980e-08	-2.850448e+01	-1.602010e+03
2.930000e-06	-4.018809e-06	-2.469721e-08	-2.898536e+01	-1.616037e+03
2.940000e-06	-4.084164e-06	-2.490408e-08	-2.945673e+01	-1.629395e+03
