# Temperatura_=_43.02
# Concentracion g/m^3_=_28200.0
# C_Vs_to_Am_M_A/Vsm_=_65563218390.804596
# pendiente_HvsI_1/m_=_3716.3
# ordenada_HvsI_A/m_=_1297.0
# frecuencia_Hz_=_301748.1356273154

Tiempo_(s)	Campo_(V.s)	Magnetizacion_(V.s)	Campo_(kA/m)	Magnetizacion_(A/m)
0.000000e+00	-5.318435e-06	-2.030361e-08	-3.829985e+01	-1.328016e+03
1.000000e-08	-5.315863e-06	-2.030047e-08	-3.828132e+01	-1.327707e+03
2.000000e-08	-5.311500e-06	-2.029063e-08	-3.824990e+01	-1.327268e+03
3.000000e-08	-5.305563e-06	-2.028294e-08	-3.820715e+01	-1.326687e+03
4.000000e-08	-5.298097e-06	-2.027298e-08	-3.815338e+01	-1.325945e+03
5.000000e-08	-5.288855e-06	-2.025390e-08	-3.808682e+01	-1.325019e+03
6.000000e-08	-5.277544e-06	-2.022892e-08	-3.800537e+01	-1.323894e+03
7.000000e-08	-5.264395e-06	-2.018937e-08	-3.791068e+01	-1.322563e+03
8.000000e-08	-5.249190e-06	-2.017691e-08	-3.780118e+01	-1.321035e+03
9.000000e-08	-5.231691e-06	-2.023900e-08	-3.767517e+01	-1.319331e+03
1.000000e-07	-5.212205e-06	-2.020324e-08	-3.753485e+01	-1.317484e+03
1.100000e-07	-5.190861e-06	-2.011701e-08	-3.738114e+01	-1.315533e+03
1.200000e-07	-5.167746e-06	-2.008536e-08	-3.721468e+01	-1.313513e+03
1.300000e-07	-5.143141e-06	-1.993271e-08	-3.703749e+01	-1.311447e+03
1.400000e-07	-5.116978e-06	-1.994826e-08	-3.684908e+01	-1.309344e+03
1.500000e-07	-5.089099e-06	-2.009909e-08	-3.664832e+01	-1.307194e+03
1.600000e-07	-5.059712e-06	-1.986525e-08	-3.643669e+01	-1.304968e+03
1.700000e-07	-5.028972e-06	-1.989193e-08	-3.621532e+01	-1.302627e+03
1.800000e-07	-4.996300e-06	-1.998151e-08	-3.598004e+01	-1.300127e+03
1.900000e-07	-4.961483e-06	-1.968089e-08	-3.572931e+01	-1.297426e+03
2.000000e-07	-4.925200e-06	-1.973016e-08	-3.546803e+01	-1.294491e+03
2.100000e-07	-4.887288e-06	-1.975067e-08	-3.519501e+01	-1.291302e+03
2.200000e-07	-4.847631e-06	-1.956163e-08	-3.490942e+01	-1.287852e+03
2.300000e-07	-4.806185e-06	-1.959232e-08	-3.461095e+01	-1.284146e+03
2.400000e-07	-4.762708e-06	-1.952310e-08	-3.429786e+01	-1.280199e+03
2.500000e-07	-4.717404e-06	-1.942066e-08	-3.397162e+01	-1.276024e+03
2.600000e-07	-4.670305e-06	-1.942709e-08	-3.363244e+01	-1.271634e+03
2.700000e-07	-4.621319e-06	-1.929838e-08	-3.327967e+01	-1.267035e+03
2.800000e-07	-4.570234e-06	-1.921069e-08	-3.291179e+01	-1.262226e+03
2.900000e-07	-4.517167e-06	-1.915313e-08	-3.252964e+01	-1.257200e+03
3.000000e-07	-4.462479e-06	-1.908025e-08	-3.213581e+01	-1.251944e+03
3.100000e-07	-4.406252e-06	-1.899785e-08	-3.173091e+01	-1.246447e+03
3.200000e-07	-4.348207e-06	-1.890422e-08	-3.131291e+01	-1.240697e+03
3.300000e-07	-4.288502e-06	-1.882373e-08	-3.088295e+01	-1.234686e+03
3.400000e-07	-4.227380e-06	-1.869053e-08	-3.044279e+01	-1.228411e+03
3.500000e-07	-4.164746e-06	-1.860341e-08	-2.999174e+01	-1.221872e+03
3.600000e-07	-4.100715e-06	-1.850611e-08	-2.953063e+01	-1.215067e+03
3.700000e-07	-4.035156e-06	-1.839676e-08	-2.905852e+01	-1.207998e+03
3.800000e-07	-3.967988e-06	-1.830623e-08	-2.857482e+01	-1.200660e+03
3.900000e-07	-3.899376e-06	-1.815249e-08	-2.808072e+01	-1.193047e+03
4.000000e-07	-3.829479e-06	-1.802447e-08	-2.757737e+01	-1.185148e+03
4.100000e-07	-3.758427e-06	-1.791859e-08	-2.706570e+01	-1.176952e+03
4.200000e-07	-3.686167e-06	-1.779257e-08	-2.654533e+01	-1.168442e+03
4.300000e-07	-3.612455e-06	-1.765836e-08	-2.601451e+01	-1.159607e+03
4.400000e-07	-3.537111e-06	-1.751585e-08	-2.547193e+01	-1.150431e+03
4.500000e-07	-3.460324e-06	-1.736959e-08	-2.491896e+01	-1.140904e+03
4.600000e-07	-3.382249e-06	-1.720813e-08	-2.435672e+01	-1.131013e+03
4.700000e-07	-3.302771e-06	-1.705885e-08	-2.378437e+01	-1.120747e+03
4.800000e-07	-3.221988e-06	-1.690748e-08	-2.320262e+01	-1.110092e+03
4.900000e-07	-3.140053e-06	-1.673274e-08	-2.261258e+01	-1.099031e+03
5.000000e-07	-3.057048e-06	-1.655507e-08	-2.201483e+01	-1.087545e+03
5.100000e-07	-2.973104e-06	-1.636736e-08	-2.141032e+01	-1.075611e+03
5.200000e-07	-2.888285e-06	-1.617456e-08	-2.079951e+01	-1.063206e+03
5.300000e-07	-2.802575e-06	-1.597772e-08	-2.018228e+01	-1.050301e+03
5.400000e-07	-2.715907e-06	-1.577534e-08	-1.955816e+01	-1.036870e+03
5.500000e-07	-2.628402e-06	-1.556799e-08	-1.892801e+01	-1.022884e+03
5.600000e-07	-2.539982e-06	-1.534254e-08	-1.829127e+01	-1.008313e+03
5.700000e-07	-2.450312e-06	-1.510689e-08	-1.764552e+01	-9.931254e+02
5.800000e-07	-2.359496e-06	-1.486064e-08	-1.699152e+01	-9.772879e+02
5.900000e-07	-2.267866e-06	-1.460669e-08	-1.633167e+01	-9.607647e+02
6.000000e-07	-2.175497e-06	-1.433948e-08	-1.566649e+01	-9.435174e+02
6.100000e-07	-2.082412e-06	-1.406398e-08	-1.499615e+01	-9.255050e+02
6.200000e-07	-1.988563e-06	-1.377936e-08	-1.432031e+01	-9.066842e+02
6.300000e-07	-1.893920e-06	-1.347692e-08	-1.363876e+01	-8.870096e+02
6.400000e-07	-1.798677e-06	-1.316270e-08	-1.295288e+01	-8.664331e+02
6.500000e-07	-1.702922e-06	-1.283275e-08	-1.226331e+01	-8.449031e+02
6.600000e-07	-1.606595e-06	-1.248876e-08	-1.156963e+01	-8.223635e+02
6.700000e-07	-1.509510e-06	-1.212885e-08	-1.087049e+01	-7.987517e+02
6.800000e-07	-1.411638e-06	-1.175155e-08	-1.016568e+01	-7.739986e+02
6.900000e-07	-1.313178e-06	-1.135293e-08	-9.456635e+00	-7.480282e+02
7.000000e-07	-1.214227e-06	-1.093173e-08	-8.744058e+00	-7.207606e+02
7.100000e-07	-1.114868e-06	-1.048917e-08	-8.028539e+00	-6.921167e+02
7.200000e-07	-1.015220e-06	-1.002775e-08	-7.310943e+00	-6.620253e+02
7.300000e-07	-9.153392e-07	-9.549441e-09	-6.591666e+00	-6.304324e+02
7.400000e-07	-8.152191e-07	-9.048944e-09	-5.870667e+00	-5.973107e+02
7.500000e-07	-7.148565e-07	-8.525959e-09	-5.147923e+00	-5.626692e+02
7.600000e-07	-6.142525e-07	-7.974591e-09	-4.423439e+00	-5.265597e+02
7.700000e-07	-5.134303e-07	-7.399761e-09	-3.697385e+00	-4.890801e+02
7.800000e-07	-4.124217e-07	-6.809850e-09	-2.969988e+00	-4.503723e+02
7.900000e-07	-3.113106e-07	-6.205048e-09	-2.241853e+00	-4.106149e+02
8.000000e-07	-2.101218e-07	-5.587783e-09	-1.513158e+00	-3.700106e+02
8.100000e-07	-1.088059e-07	-4.961936e-09	-7.835477e-01	-3.287699e+02
8.200000e-07	-7.429103e-09	-4.328986e-09	-5.349948e-02	-2.870919e+02
8.300000e-07	9.394884e-08	-3.689605e-09	6.765573e-01	-2.451455e+02
8.400000e-07	1.953194e-07	-3.048826e-09	1.406561e+00	-2.030530e+02
8.500000e-07	2.966318e-07	-2.407940e-09	2.136146e+00	-1.608781e+02
8.600000e-07	3.978870e-07	-1.766827e-09	2.865319e+00	-1.186206e+02
8.700000e-07	4.990367e-07	-1.120791e-09	3.593731e+00	-7.621886e+01
8.800000e-07	6.000410e-07	-4.692609e-10	4.321098e+00	-3.356060e+01
8.900000e-07	7.008895e-07	1.882527e-10	5.047342e+00	9.499754e+00
9.000000e-07	8.014947e-07	8.532321e-10	5.771833e+00	5.311746e+01
9.100000e-07	9.018015e-07	1.528735e-09	6.494176e+00	9.743109e+01
9.200000e-07	1.001829e-06	2.213929e-09	7.214509e+00	1.425361e+02
9.300000e-07	1.101629e-06	2.909070e-09	7.933199e+00	1.884618e+02
9.400000e-07	1.201151e-06	3.619164e-09	8.649891e+00	2.351548e+02
9.500000e-07	1.300270e-06	4.339608e-09	9.363680e+00	2.824711e+02
9.600000e-07	1.398819e-06	5.067279e-09	1.007337e+01	3.301788e+02
9.700000e-07	1.496548e-06	5.796141e-09	1.077715e+01	3.779708e+02
9.800000e-07	1.593470e-06	6.520128e-09	1.147511e+01	4.254861e+02
9.900000e-07	1.689789e-06	7.232890e-09	1.216874e+01	4.723385e+02
1.000000e-06	1.785515e-06	7.929211e-09	1.285810e+01	5.181468e+02
1.010000e-06	1.880563e-06	8.604057e-09	1.354257e+01	5.625645e+02
1.020000e-06	1.974911e-06	9.251888e-09	1.422200e+01	6.053041e+02
1.030000e-06	2.068590e-06	9.872080e-09	1.489662e+01	6.461543e+02
1.040000e-06	2.161548e-06	1.045961e-08	1.556604e+01	6.849863e+02
1.050000e-06	2.253836e-06	1.101502e-08	1.623063e+01	7.217521e+02
1.060000e-06	2.345543e-06	1.153864e-08	1.689105e+01	7.564730e+02
1.070000e-06	2.436500e-06	1.203465e-08	1.754605e+01	7.892232e+02
1.080000e-06	2.526345e-06	1.250271e-08	1.819306e+01	8.201104e+02
1.090000e-06	2.614984e-06	1.294482e-08	1.883138e+01	8.492574e+02
1.100000e-06	2.702668e-06	1.336344e-08	1.946282e+01	8.767869e+02
1.110000e-06	2.789482e-06	1.375804e-08	2.008800e+01	9.028110e+02
1.120000e-06	2.875389e-06	1.413108e-08	2.070665e+01	9.274273e+02
1.130000e-06	2.960357e-06	1.448506e-08	2.131853e+01	9.507181e+02
1.140000e-06	3.044482e-06	1.482106e-08	2.192434e+01	9.727549e+02
1.150000e-06	3.127747e-06	1.513610e-08	2.252396e+01	9.936029e+02
1.160000e-06	3.209800e-06	1.543512e-08	2.311485e+01	1.013326e+03
1.170000e-06	3.290612e-06	1.571888e-08	2.369680e+01	1.031988e+03
1.180000e-06	3.370294e-06	1.598736e-08	2.427062e+01	1.049657e+03
1.190000e-06	3.448801e-06	1.624068e-08	2.483598e+01	1.066400e+03
1.200000e-06	3.526087e-06	1.648194e-08	2.539254e+01	1.082282e+03
1.210000e-06	3.602174e-06	1.671139e-08	2.594047e+01	1.097364e+03
1.220000e-06	3.676868e-06	1.692825e-08	2.647837e+01	1.111697e+03
1.230000e-06	3.749852e-06	1.713419e-08	2.700395e+01	1.125327e+03
1.240000e-06	3.821344e-06	1.732931e-08	2.751879e+01	1.138291e+03
1.250000e-06	3.891511e-06	1.751551e-08	2.802408e+01	1.150624e+03
1.260000e-06	3.960350e-06	1.769363e-08	2.851982e+01	1.162352e+03
1.270000e-06	4.027966e-06	1.786296e-08	2.900674e+01	1.173506e+03
1.280000e-06	4.093980e-06	1.802481e-08	2.948213e+01	1.184111e+03
1.290000e-06	4.158273e-06	1.817953e-08	2.994512e+01	1.194192e+03
1.300000e-06	4.221138e-06	1.832634e-08	3.039784e+01	1.203774e+03
1.310000e-06	4.282569e-06	1.846544e-08	3.084022e+01	1.212874e+03
1.320000e-06	4.342676e-06	1.859821e-08	3.127308e+01	1.221506e+03
1.330000e-06	4.401323e-06	1.872451e-08	3.169541e+01	1.229680e+03
1.340000e-06	4.458159e-06	1.884132e-08	3.210471e+01	1.237401e+03
1.350000e-06	4.513276e-06	1.894848e-08	3.250162e+01	1.244678e+03
1.360000e-06	4.566805e-06	1.905035e-08	3.288710e+01	1.251522e+03
1.370000e-06	4.618604e-06	1.914761e-08	3.326013e+01	1.257952e+03
1.380000e-06	4.668375e-06	1.924018e-08	3.361855e+01	1.263995e+03
1.390000e-06	4.716232e-06	1.932792e-08	3.396318e+01	1.269688e+03
1.400000e-06	4.762475e-06	1.941088e-08	3.429619e+01	1.275072e+03
1.410000e-06	4.807199e-06	1.949004e-08	3.461826e+01	1.280185e+03
1.420000e-06	4.850307e-06	1.956397e-08	3.492870e+01	1.285064e+03
1.430000e-06	4.891518e-06	1.963389e-08	3.522547e+01	1.289729e+03
1.440000e-06	4.930940e-06	1.970026e-08	3.550936e+01	1.294190e+03
1.450000e-06	4.968727e-06	1.976261e-08	3.578148e+01	1.298442e+03
1.460000e-06	5.004949e-06	1.982222e-08	3.604233e+01	1.302465e+03
1.470000e-06	5.039395e-06	1.987986e-08	3.629038e+01	1.306236e+03
1.480000e-06	5.071901e-06	1.993468e-08	3.652447e+01	1.309733e+03
1.490000e-06	5.102706e-06	1.998388e-08	3.674631e+01	1.312937e+03
1.500000e-06	5.131843e-06	2.002698e-08	3.695613e+01	1.315845e+03
1.510000e-06	5.159270e-06	2.006660e-08	3.715365e+01	1.318463e+03
1.520000e-06	5.184688e-06	2.010309e-08	3.733668e+01	1.320811e+03
1.530000e-06	5.208039e-06	2.013630e-08	3.750484e+01	1.322913e+03
1.540000e-06	5.229580e-06	2.016399e-08	3.765997e+01	1.324798e+03
1.550000e-06	5.249496e-06	2.018751e-08	3.780339e+01	1.326487e+03
1.560000e-06	5.267584e-06	2.020782e-08	3.793365e+01	1.327996e+03
1.570000e-06	5.283588e-06	2.022448e-08	3.804890e+01	1.329331e+03
1.580000e-06	5.297710e-06	2.024094e-08	3.815059e+01	1.330487e+03
1.590000e-06	5.309903e-06	2.025581e-08	3.823840e+01	1.331458e+03
1.600000e-06	5.319850e-06	2.026939e-08	3.831003e+01	1.332236e+03
1.610000e-06	5.327689e-06	2.028076e-08	3.836649e+01	1.332819e+03
1.620000e-06	5.333694e-06	2.028898e-08	3.840973e+01	1.333210e+03
1.630000e-06	5.337969e-06	2.029425e-08	3.844052e+01	1.333423e+03
1.640000e-06	5.340335e-06	2.029751e-08	3.845755e+01	1.333473e+03
1.650000e-06	5.340675e-06	2.029915e-08	3.846000e+01	1.333380e+03
1.660000e-06	5.339291e-06	2.029202e-08	3.845003e+01	1.333155e+03
1.670000e-06	5.336291e-06	2.028577e-08	3.842843e+01	1.332804e+03
1.680000e-06	5.331582e-06	2.028058e-08	3.839452e+01	1.332321e+03
1.690000e-06	5.324891e-06	2.027135e-08	3.834633e+01	1.331690e+03
1.700000e-06	5.316415e-06	2.026064e-08	3.828530e+01	1.330890e+03
1.710000e-06	5.306463e-06	2.025085e-08	3.821363e+01	1.329901e+03
1.720000e-06	5.294832e-06	2.025509e-08	3.812987e+01	1.328709e+03
1.730000e-06	5.281168e-06	2.024644e-08	3.803147e+01	1.327312e+03
1.740000e-06	5.265496e-06	2.011418e-08	3.791861e+01	1.325723e+03
1.750000e-06	5.247652e-06	2.008944e-08	3.779011e+01	1.323968e+03
1.760000e-06	5.227179e-06	2.011663e-08	3.764268e+01	1.322083e+03
1.770000e-06	5.204322e-06	2.010183e-08	3.747808e+01	1.320106e+03
1.780000e-06	5.179944e-06	2.022774e-08	3.730252e+01	1.318068e+03
1.790000e-06	5.154888e-06	2.002627e-08	3.712209e+01	1.315989e+03
1.800000e-06	5.128736e-06	1.989339e-08	3.693376e+01	1.313872e+03
1.810000e-06	5.100422e-06	2.009168e-08	3.672986e+01	1.311700e+03
1.820000e-06	5.070192e-06	1.984634e-08	3.651216e+01	1.309441e+03
1.830000e-06	5.038300e-06	1.983311e-08	3.628250e+01	1.307053e+03
1.840000e-06	5.004399e-06	2.005653e-08	3.603836e+01	1.304492e+03
1.850000e-06	4.969003e-06	1.975609e-08	3.578346e+01	1.301718e+03
1.860000e-06	4.932025e-06	1.977912e-08	3.551717e+01	1.298702e+03
1.870000e-06	4.893036e-06	1.983854e-08	3.523640e+01	1.295428e+03
1.880000e-06	4.852347e-06	1.961516e-08	3.494339e+01	1.291894e+03
1.890000e-06	4.809847e-06	1.972309e-08	3.463733e+01	1.288108e+03
1.900000e-06	4.765691e-06	1.954656e-08	3.431935e+01	1.284085e+03
1.910000e-06	4.719838e-06	1.945274e-08	3.398914e+01	1.279839e+03
1.920000e-06	4.671957e-06	1.958687e-08	3.364434e+01	1.275381e+03
1.930000e-06	4.622448e-06	1.934960e-08	3.328780e+01	1.270714e+03
1.940000e-06	4.571202e-06	1.932703e-08	3.291877e+01	1.265835e+03
1.950000e-06	4.517826e-06	1.925211e-08	3.253439e+01	1.260736e+03
1.960000e-06	4.462616e-06	1.913788e-08	3.213680e+01	1.255403e+03
1.970000e-06	4.405748e-06	1.911443e-08	3.172728e+01	1.249825e+03
1.980000e-06	4.347291e-06	1.891389e-08	3.130631e+01	1.243991e+03
1.990000e-06	4.287479e-06	1.893155e-08	3.087558e+01	1.237895e+03
2.000000e-06	4.226196e-06	1.883028e-08	3.043427e+01	1.231534e+03
2.010000e-06	4.163206e-06	1.868134e-08	2.998065e+01	1.224908e+03
2.020000e-06	4.098581e-06	1.860593e-08	2.951527e+01	1.218018e+03
2.030000e-06	4.032570e-06	1.844182e-08	2.903990e+01	1.210861e+03
2.040000e-06	3.965261e-06	1.842610e-08	2.855518e+01	1.203435e+03
2.050000e-06	3.896543e-06	1.826320e-08	2.806032e+01	1.195731e+03
2.060000e-06	3.826205e-06	1.812892e-08	2.755379e+01	1.187737e+03
2.070000e-06	3.754449e-06	1.804195e-08	2.703705e+01	1.179441e+03
2.080000e-06	3.681520e-06	1.786460e-08	2.651187e+01	1.170827e+03
2.090000e-06	3.607207e-06	1.775197e-08	2.597672e+01	1.161883e+03
2.100000e-06	3.531508e-06	1.758510e-08	2.543158e+01	1.152594e+03
2.110000e-06	3.454260e-06	1.747397e-08	2.487529e+01	1.142951e+03
2.120000e-06	3.375515e-06	1.731562e-08	2.430822e+01	1.132940e+03
2.130000e-06	3.295645e-06	1.713824e-08	2.373305e+01	1.122550e+03
2.140000e-06	3.214669e-06	1.698976e-08	2.314992e+01	1.111765e+03
2.150000e-06	3.132584e-06	1.680527e-08	2.255879e+01	1.100569e+03
2.160000e-06	3.049477e-06	1.664742e-08	2.196031e+01	1.088941e+03
2.170000e-06	2.965460e-06	1.645368e-08	2.135528e+01	1.076857e+03
2.180000e-06	2.880271e-06	1.626968e-08	2.074180e+01	1.064293e+03
2.190000e-06	2.793780e-06	1.606584e-08	2.011895e+01	1.051222e+03
2.200000e-06	2.706211e-06	1.585290e-08	1.948834e+01	1.037615e+03
2.210000e-06	2.617696e-06	1.564561e-08	1.885091e+01	1.023443e+03
2.220000e-06	2.528280e-06	1.541680e-08	1.820700e+01	1.008676e+03
2.230000e-06	2.437943e-06	1.518667e-08	1.755645e+01	9.932827e+02
2.240000e-06	2.346850e-06	1.493880e-08	1.690045e+01	9.772280e+02
2.250000e-06	2.255137e-06	1.469552e-08	1.624000e+01	9.604755e+02
2.260000e-06	2.162698e-06	1.442867e-08	1.557432e+01	9.429860e+02
2.270000e-06	2.069307e-06	1.414844e-08	1.490178e+01	9.247177e+02
2.280000e-06	1.974866e-06	1.386034e-08	1.422167e+01	9.056267e+02
2.290000e-06	1.879601e-06	1.355626e-08	1.353564e+01	8.856667e+02
2.300000e-06	1.783724e-06	1.323887e-08	1.284520e+01	8.647886e+02
2.310000e-06	1.687354e-06	1.290299e-08	1.215120e+01	8.429397e+02
2.320000e-06	1.590542e-06	1.255722e-08	1.145403e+01	8.200617e+02
2.330000e-06	1.493179e-06	1.219300e-08	1.075289e+01	7.960901e+02
2.340000e-06	1.395229e-06	1.180969e-08	1.004752e+01	7.709533e+02
2.350000e-06	1.296792e-06	1.140781e-08	9.338636e+00	7.445739e+02
2.360000e-06	1.197956e-06	1.099157e-08	8.626883e+00	7.168715e+02
2.370000e-06	1.098864e-06	1.055471e-08	7.913290e+00	6.877686e+02
2.380000e-06	9.995827e-07	1.009134e-08	7.198332e+00	6.571985e+02
2.390000e-06	9.000946e-07	9.598487e-09	6.481885e+00	6.251147e+02
2.400000e-06	8.003718e-07	9.078831e-09	5.763747e+00	5.915007e+02
2.410000e-06	7.004134e-07	8.539664e-09	5.043913e+00	5.563786e+02
2.420000e-06	6.002361e-07	7.979095e-09	4.322503e+00	5.198150e+02
2.430000e-06	4.997942e-07	7.400450e-09	3.599187e+00	4.819223e+02
2.440000e-06	3.991517e-07	6.808498e-09	2.874426e+00	4.428554e+02
2.450000e-06	2.983035e-07	6.200377e-09	2.148184e+00	4.028020e+02
2.460000e-06	1.973358e-07	5.574057e-09	1.421082e+00	3.619695e+02
2.470000e-06	9.626028e-08	4.937869e-09	6.932027e-01	3.205667e+02
2.480000e-06	-4.982111e-09	4.298364e-09	-3.587786e-02	2.787851e+02
2.490000e-06	-1.062422e-07	3.655386e-09	-7.650856e-01	2.367802e+02
2.500000e-06	-2.074668e-07	3.010332e-09	-1.494038e+00	1.946564e+02
2.510000e-06	-3.086189e-07	2.363874e-09	-2.222468e+00	1.524572e+02
2.520000e-06	-4.096008e-07	1.717678e-09	-2.949673e+00	1.101618e+02
2.530000e-06	-5.103313e-07	1.070081e-09	-3.675068e+00	6.769108e+01
2.540000e-06	-6.108758e-07	4.189412e-10	-4.399123e+00	2.491955e+01
2.550000e-06	-7.112641e-07	-2.397555e-10	-5.122053e+00	-1.830415e+01
2.560000e-06	-8.114197e-07	-9.100750e-10	-5.843306e+00	-6.213287e+01
2.570000e-06	-9.113391e-07	-1.593634e-09	-6.562860e+00	-1.066941e+02
2.580000e-06	-1.010934e-06	-2.288982e-09	-7.280079e+00	-1.520643e+02
2.590000e-06	-1.110176e-06	-2.994386e-09	-7.994754e+00	-1.982476e+02
2.600000e-06	-1.209114e-06	-3.711430e-09	-8.707238e+00	-2.451619e+02
2.610000e-06	-1.307626e-06	-4.436477e-09	-9.416658e+00	-2.926342e+02
2.620000e-06	-1.405608e-06	-5.166758e-09	-1.012226e+01	-3.404064e+02
2.630000e-06	-1.503083e-06	-5.897904e-09	-1.082420e+01	-3.881515e+02
2.640000e-06	-1.600003e-06	-6.621638e-09	-1.152216e+01	-4.354971e+02
2.650000e-06	-1.696322e-06	-7.332828e-09	-1.221579e+01	-4.820553e+02
2.660000e-06	-1.792193e-06	-8.027906e-09	-1.290619e+01	-5.274528e+02
2.670000e-06	-1.887677e-06	-8.702327e-09	-1.359380e+01	-5.713599e+02
2.680000e-06	-1.982493e-06	-9.348815e-09	-1.427660e+01	-6.135122e+02
2.690000e-06	-2.076288e-06	-9.964251e-09	-1.495205e+01	-6.537246e+02
2.700000e-06	-2.169049e-06	-1.054982e-08	-1.562005e+01	-6.918950e+02
2.710000e-06	-2.261020e-06	-1.110635e-08	-1.628236e+01	-7.279991e+02
2.720000e-06	-2.352241e-06	-1.163084e-08	-1.693928e+01	-7.620773e+02
2.730000e-06	-2.442635e-06	-1.212182e-08	-1.759024e+01	-7.942167e+02
2.740000e-06	-2.532070e-06	-1.258601e-08	-1.823429e+01	-8.245318e+02
2.750000e-06	-2.620589e-06	-1.302554e-08	-1.887175e+01	-8.531467e+02
2.760000e-06	-2.708428e-06	-1.344071e-08	-1.950430e+01	-8.801817e+02
2.770000e-06	-2.795514e-06	-1.383473e-08	-2.013144e+01	-9.057443e+02
2.780000e-06	-2.881402e-06	-1.420846e-08	-2.074995e+01	-9.299270e+02
2.790000e-06	-2.965994e-06	-1.455802e-08	-2.135912e+01	-9.528082e+02
2.800000e-06	-3.049554e-06	-1.488538e-08	-2.196087e+01	-9.744568e+02
2.810000e-06	-3.132169e-06	-1.519624e-08	-2.255581e+01	-9.949371e+02
2.820000e-06	-3.213782e-06	-1.549289e-08	-2.314353e+01	-1.014313e+03
2.830000e-06	-3.294344e-06	-1.577419e-08	-2.372368e+01	-1.032650e+03
2.840000e-06	-3.373869e-06	-1.604042e-08	-2.429637e+01	-1.050015e+03
2.850000e-06	-3.452047e-06	-1.629451e-08	-2.485936e+01	-1.066475e+03
2.860000e-06	-3.528680e-06	-1.653552e-08	-2.541122e+01	-1.082094e+03
2.870000e-06	-3.603882e-06	-1.676444e-08	-2.595277e+01	-1.096930e+03
2.880000e-06	-3.677651e-06	-1.698330e-08	-2.648400e+01	-1.111034e+03
2.890000e-06	-3.750156e-06	-1.719060e-08	-2.700614e+01	-1.124447e+03
2.900000e-06	-3.821451e-06	-1.738606e-08	-2.751956e+01	-1.137206e+03
2.910000e-06	-3.891202e-06	-1.756922e-08	-2.802186e+01	-1.149342e+03
2.920000e-06	-3.959428e-06	-1.774308e-08	-2.851318e+01	-1.160884e+03
2.930000e-06	-4.026322e-06	-1.791030e-08	-2.899490e+01	-1.171859e+03
2.940000e-06	-4.091782e-06	-1.806964e-08	-2.946630e+01	-1.182293e+03
