# Temperatura_=_66.1
# Concentracion g/m^3_=_28200.0
# C_Vs_to_Am_M_A/Vsm_=_65563218390.804596
# pendiente_HvsI_1/m_=_3716.3
# ordenada_HvsI_A/m_=_1297.0
# frecuencia_Hz_=_301744.33981703763

Tiempo_(s)	Campo_(V.s)	Magnetizacion_(V.s)	Campo_(kA/m)	Magnetizacion_(A/m)
0.000000e+00	-5.326715e-06	-2.217188e-08	-3.830045e+01	-1.449768e+03
1.000000e-08	-5.324447e-06	-2.216906e-08	-3.828415e+01	-1.449395e+03
2.000000e-08	-5.320305e-06	-2.216072e-08	-3.825437e+01	-1.448867e+03
3.000000e-08	-5.314543e-06	-2.214922e-08	-3.821294e+01	-1.448176e+03
4.000000e-08	-5.307247e-06	-2.213397e-08	-3.816048e+01	-1.447308e+03
5.000000e-08	-5.298201e-06	-2.211486e-08	-3.809544e+01	-1.446244e+03
6.000000e-08	-5.287066e-06	-2.209169e-08	-3.801537e+01	-1.444967e+03
7.000000e-08	-5.274028e-06	-2.206189e-08	-3.792163e+01	-1.443467e+03
8.000000e-08	-5.259019e-06	-2.203840e-08	-3.781371e+01	-1.441749e+03
9.000000e-08	-5.241742e-06	-2.205189e-08	-3.768948e+01	-1.439832e+03
1.000000e-07	-5.222447e-06	-2.203288e-08	-3.755074e+01	-1.437747e+03
1.100000e-07	-5.201290e-06	-2.196501e-08	-3.739862e+01	-1.435534e+03
1.200000e-07	-5.178335e-06	-2.191439e-08	-3.723357e+01	-1.433237e+03
1.300000e-07	-5.153843e-06	-2.183982e-08	-3.705747e+01	-1.430891e+03
1.400000e-07	-5.127775e-06	-2.178769e-08	-3.687003e+01	-1.428519e+03
1.500000e-07	-5.100004e-06	-2.183773e-08	-3.667035e+01	-1.426124e+03
1.600000e-07	-5.070716e-06	-2.174460e-08	-3.645976e+01	-1.423685e+03
1.700000e-07	-5.040018e-06	-2.166329e-08	-3.623903e+01	-1.421166e+03
1.800000e-07	-5.007456e-06	-2.169867e-08	-3.600490e+01	-1.418513e+03
1.900000e-07	-4.972850e-06	-2.157153e-08	-3.575608e+01	-1.415668e+03
2.000000e-07	-4.936744e-06	-2.152195e-08	-3.549647e+01	-1.412576e+03
2.100000e-07	-4.899045e-06	-2.154283e-08	-3.522540e+01	-1.409193e+03
2.200000e-07	-4.859531e-06	-2.142588e-08	-3.494129e+01	-1.405491e+03
2.300000e-07	-4.818181e-06	-2.135678e-08	-3.464397e+01	-1.401461e+03
2.400000e-07	-4.774855e-06	-2.128160e-08	-3.433244e+01	-1.397110e+03
2.500000e-07	-4.729746e-06	-2.117253e-08	-3.400809e+01	-1.392458e+03
2.600000e-07	-4.682909e-06	-2.115464e-08	-3.367133e+01	-1.387530e+03
2.700000e-07	-4.634064e-06	-2.106926e-08	-3.332011e+01	-1.382352e+03
2.800000e-07	-4.583048e-06	-2.096531e-08	-3.295330e+01	-1.376941e+03
2.900000e-07	-4.530076e-06	-2.088141e-08	-3.257242e+01	-1.371306e+03
3.000000e-07	-4.475518e-06	-2.077038e-08	-3.218013e+01	-1.365443e+03
3.100000e-07	-4.419454e-06	-2.067863e-08	-3.177701e+01	-1.359341e+03
3.200000e-07	-4.361538e-06	-2.060265e-08	-3.136059e+01	-1.352986e+03
3.300000e-07	-4.301853e-06	-2.051416e-08	-3.093143e+01	-1.346359e+03
3.400000e-07	-4.240726e-06	-2.039476e-08	-3.049191e+01	-1.339448e+03
3.500000e-07	-4.178206e-06	-2.027867e-08	-3.004238e+01	-1.332243e+03
3.600000e-07	-4.114325e-06	-2.015608e-08	-2.958306e+01	-1.324741e+03
3.700000e-07	-4.048925e-06	-2.003144e-08	-2.911282e+01	-1.316942e+03
3.800000e-07	-3.981876e-06	-1.993433e-08	-2.863072e+01	-1.308847e+03
3.900000e-07	-3.913356e-06	-1.980663e-08	-2.813804e+01	-1.300457e+03
4.000000e-07	-3.843522e-06	-1.965748e-08	-2.763591e+01	-1.291767e+03
4.100000e-07	-3.772460e-06	-1.952584e-08	-2.712496e+01	-1.282766e+03
4.200000e-07	-3.700166e-06	-1.938091e-08	-2.660515e+01	-1.273442e+03
4.300000e-07	-3.626429e-06	-1.923456e-08	-2.607496e+01	-1.263775e+03
4.400000e-07	-3.551127e-06	-1.908117e-08	-2.553352e+01	-1.253747e+03
4.500000e-07	-3.474409e-06	-1.891998e-08	-2.498190e+01	-1.243339e+03
4.600000e-07	-3.396353e-06	-1.875021e-08	-2.442066e+01	-1.232537e+03
4.700000e-07	-3.316883e-06	-1.858077e-08	-2.384925e+01	-1.221327e+03
4.800000e-07	-3.236138e-06	-1.841413e-08	-2.326867e+01	-1.209699e+03
4.900000e-07	-3.154268e-06	-1.822843e-08	-2.268000e+01	-1.197642e+03
5.000000e-07	-3.071341e-06	-1.803387e-08	-2.208373e+01	-1.185143e+03
5.100000e-07	-2.987519e-06	-1.783033e-08	-2.148103e+01	-1.172183e+03
5.200000e-07	-2.902803e-06	-1.762275e-08	-2.087190e+01	-1.158736e+03
5.300000e-07	-2.817101e-06	-1.740890e-08	-2.025568e+01	-1.144771e+03
5.400000e-07	-2.730462e-06	-1.718945e-08	-1.963273e+01	-1.130251e+03
5.500000e-07	-2.642942e-06	-1.696296e-08	-1.900344e+01	-1.115136e+03
5.600000e-07	-2.554450e-06	-1.671720e-08	-1.836716e+01	-1.099387e+03
5.700000e-07	-2.464782e-06	-1.646121e-08	-1.772242e+01	-1.082965e+03
5.800000e-07	-2.373956e-06	-1.620315e-08	-1.706935e+01	-1.065836e+03
5.900000e-07	-2.282276e-06	-1.593884e-08	-1.641016e+01	-1.047966e+03
6.000000e-07	-2.189895e-06	-1.565591e-08	-1.574591e+01	-1.029325e+03
6.100000e-07	-2.096743e-06	-1.535539e-08	-1.507612e+01	-1.009878e+03
6.200000e-07	-2.002804e-06	-1.504112e-08	-1.440068e+01	-9.895895e+02
6.300000e-07	-1.908168e-06	-1.471404e-08	-1.372022e+01	-9.684132e+02
6.400000e-07	-1.812934e-06	-1.437703e-08	-1.303546e+01	-9.462950e+02
6.500000e-07	-1.717146e-06	-1.402632e-08	-1.234672e+01	-9.231712e+02
6.600000e-07	-1.620690e-06	-1.365640e-08	-1.165318e+01	-8.989685e+02
6.700000e-07	-1.523472e-06	-1.326629e-08	-1.095416e+01	-8.736063e+02
6.800000e-07	-1.425553e-06	-1.285764e-08	-1.025010e+01	-8.469985e+02
6.900000e-07	-1.326994e-06	-1.242935e-08	-9.541430e+00	-8.190563e+02
7.000000e-07	-1.227936e-06	-1.198227e-08	-8.829176e+00	-7.896916e+02
7.100000e-07	-1.128509e-06	-1.151333e-08	-8.114274e+00	-7.588204e+02
7.200000e-07	-1.028760e-06	-1.102022e-08	-7.397053e+00	-7.263673e+02
7.300000e-07	-9.287503e-07	-1.049944e-08	-6.677954e+00	-6.922716e+02
7.400000e-07	-8.284929e-07	-9.949662e-09	-5.957078e+00	-6.564944e+02
7.500000e-07	-7.280043e-07	-9.376026e-09	-5.234539e+00	-6.190265e+02
7.600000e-07	-6.273208e-07	-8.778310e-09	-4.510598e+00	-5.798968e+02
7.700000e-07	-5.264557e-07	-8.157892e-09	-3.785352e+00	-5.391787e+02
7.800000e-07	-4.253795e-07	-7.517015e-09	-3.058589e+00	-4.969938e+02
7.900000e-07	-3.241278e-07	-6.857154e-09	-2.330563e+00	-4.535100e+02
8.000000e-07	-2.227660e-07	-6.179903e-09	-1.601745e+00	-4.089329e+02
8.100000e-07	-1.213245e-07	-5.489015e-09	-8.723542e-01	-3.634913e+02
8.200000e-07	-1.980274e-08	-4.788723e-09	-1.423868e-01	-3.174157e+02
8.300000e-07	8.177257e-08	-4.082019e-09	5.879659e-01	-2.709143e+02
8.400000e-07	1.833214e-07	-3.370788e-09	1.318128e+00	-2.241486e+02
8.500000e-07	2.848441e-07	-2.656573e-09	2.048103e+00	-1.772127e+02
8.600000e-07	3.862909e-07	-1.939915e-09	2.777531e+00	-1.301214e+02
8.700000e-07	4.875773e-07	-1.219080e-09	3.505807e+00	-8.280932e+01
8.800000e-07	5.886849e-07	-4.926663e-10	4.232796e+00	-3.514255e+01
8.900000e-07	6.895983e-07	2.430936e-10	4.958390e+00	1.305708e+01
9.000000e-07	7.903202e-07	9.873418e-10	5.682607e+00	6.197862e+01
9.100000e-07	8.907941e-07	1.744261e-09	6.405040e+00	1.117837e+02
9.200000e-07	9.909736e-07	2.516176e-09	7.125356e+00	1.625689e+02
9.300000e-07	1.090879e-06	3.304147e-09	7.843700e+00	2.143358e+02
9.400000e-07	1.190444e-06	4.108328e-09	8.559600e+00	2.669713e+02
9.500000e-07	1.289656e-06	4.921069e-09	9.272962e+00	3.202444e+02
9.600000e-07	1.388438e-06	5.736764e-09	9.983226e+00	3.738180e+02
9.700000e-07	1.486576e-06	6.550484e-09	1.068887e+01	4.272746e+02
9.800000e-07	1.583947e-06	7.356822e-09	1.138899e+01	4.801526e+02
9.900000e-07	1.680542e-06	8.145137e-09	1.208353e+01	5.319865e+02
1.000000e-06	1.776401e-06	8.908475e-09	1.277278e+01	5.823463e+02
1.010000e-06	1.871619e-06	9.644704e-09	1.345742e+01	6.308701e+02
1.020000e-06	1.966219e-06	1.034932e-08	1.413763e+01	6.772857e+02
1.030000e-06	2.060126e-06	1.101848e-08	1.481283e+01	7.214199e+02
1.040000e-06	2.153369e-06	1.165283e-08	1.548328e+01	7.631958e+02
1.050000e-06	2.245916e-06	1.225051e-08	1.614872e+01	8.026193e+02
1.060000e-06	2.337682e-06	1.281162e-08	1.680854e+01	8.397598e+02
1.070000e-06	2.428697e-06	1.334272e-08	1.746296e+01	8.747282e+02
1.080000e-06	2.518886e-06	1.384338e-08	1.811144e+01	9.076565e+02
1.090000e-06	2.607988e-06	1.431497e-08	1.875211e+01	9.386810e+02
1.100000e-06	2.695963e-06	1.475871e-08	1.938467e+01	9.679320e+02
1.110000e-06	2.783026e-06	1.517678e-08	2.001068e+01	9.955287e+02
1.120000e-06	2.869183e-06	1.557142e-08	2.063016e+01	1.021579e+03
1.130000e-06	2.954404e-06	1.594581e-08	2.124293e+01	1.046181e+03
1.140000e-06	3.038717e-06	1.629987e-08	2.184916e+01	1.069428e+03
1.150000e-06	3.122133e-06	1.663273e-08	2.244894e+01	1.091410e+03
1.160000e-06	3.204508e-06	1.694845e-08	2.304124e+01	1.112215e+03
1.170000e-06	3.285647e-06	1.724761e-08	2.362465e+01	1.131926e+03
1.180000e-06	3.365538e-06	1.753115e-08	2.419908e+01	1.150624e+03
1.190000e-06	3.444203e-06	1.780174e-08	2.476471e+01	1.168378e+03
1.200000e-06	3.521727e-06	1.806021e-08	2.532213e+01	1.185252e+03
1.210000e-06	3.598074e-06	1.830374e-08	2.587108e+01	1.201296e+03
1.220000e-06	3.673092e-06	1.853354e-08	2.641048e+01	1.216553e+03
1.230000e-06	3.746484e-06	1.875251e-08	2.693819e+01	1.231062e+03
1.240000e-06	3.818268e-06	1.896043e-08	2.745433e+01	1.244855e+03
1.250000e-06	3.888718e-06	1.915760e-08	2.796089e+01	1.257969e+03
1.260000e-06	3.957830e-06	1.934521e-08	2.845782e+01	1.270438e+03
1.270000e-06	4.025625e-06	1.952309e-08	2.894528e+01	1.282301e+03
1.280000e-06	4.091992e-06	1.969303e-08	2.942248e+01	1.293595e+03
1.290000e-06	4.156693e-06	1.985678e-08	2.988770e+01	1.304353e+03
1.300000e-06	4.219835e-06	2.001433e-08	3.034170e+01	1.314605e+03
1.310000e-06	4.281555e-06	2.016515e-08	3.078548e+01	1.324368e+03
1.320000e-06	4.341889e-06	2.030874e-08	3.121930e+01	1.333654e+03
1.330000e-06	4.400822e-06	2.044452e-08	3.164304e+01	1.342467e+03
1.340000e-06	4.458022e-06	2.057198e-08	3.205433e+01	1.350805e+03
1.350000e-06	4.513441e-06	2.069022e-08	3.245281e+01	1.358671e+03
1.360000e-06	4.567295e-06	2.080032e-08	3.284003e+01	1.366070e+03
1.370000e-06	4.619430e-06	2.090402e-08	3.321490e+01	1.373021e+03
1.380000e-06	4.669518e-06	2.100361e-08	3.357504e+01	1.379549e+03
1.390000e-06	4.717628e-06	2.109812e-08	3.392097e+01	1.385691e+03
1.400000e-06	4.764068e-06	2.118650e-08	3.425488e+01	1.391492e+03
1.410000e-06	4.808937e-06	2.126955e-08	3.457750e+01	1.396994e+03
1.420000e-06	4.852295e-06	2.134804e-08	3.488925e+01	1.402236e+03
1.430000e-06	4.893833e-06	2.142399e-08	3.518792e+01	1.407243e+03
1.440000e-06	4.933491e-06	2.149653e-08	3.547307e+01	1.412029e+03
1.450000e-06	4.971562e-06	2.156537e-08	3.574682e+01	1.416593e+03
1.460000e-06	5.008048e-06	2.163115e-08	3.600916e+01	1.420920e+03
1.470000e-06	5.042820e-06	2.169382e-08	3.625918e+01	1.424990e+03
1.480000e-06	5.075632e-06	2.175105e-08	3.649510e+01	1.428781e+03
1.490000e-06	5.106588e-06	2.180168e-08	3.671769e+01	1.432276e+03
1.500000e-06	5.135876e-06	2.184782e-08	3.692827e+01	1.435467e+03
1.510000e-06	5.163526e-06	2.189187e-08	3.712708e+01	1.438358e+03
1.520000e-06	5.189249e-06	2.193337e-08	3.731204e+01	1.440962e+03
1.530000e-06	5.212921e-06	2.197066e-08	3.748225e+01	1.443300e+03
1.540000e-06	5.234792e-06	2.200305e-08	3.763951e+01	1.445397e+03
1.550000e-06	5.254949e-06	2.203020e-08	3.778444e+01	1.447274e+03
1.560000e-06	5.273362e-06	2.205388e-08	3.791684e+01	1.448947e+03
1.570000e-06	5.289779e-06	2.207352e-08	3.803488e+01	1.450425e+03
1.580000e-06	5.304148e-06	2.209061e-08	3.813819e+01	1.451707e+03
1.590000e-06	5.316537e-06	2.210695e-08	3.822728e+01	1.452790e+03
1.600000e-06	5.326831e-06	2.212110e-08	3.830129e+01	1.453666e+03
1.610000e-06	5.335014e-06	2.213290e-08	3.836013e+01	1.454333e+03
1.620000e-06	5.341253e-06	2.214127e-08	3.840499e+01	1.454792e+03
1.630000e-06	5.345732e-06	2.214602e-08	3.843720e+01	1.455050e+03
1.640000e-06	5.348333e-06	2.214928e-08	3.845590e+01	1.455120e+03
1.650000e-06	5.348904e-06	2.215088e-08	3.846000e+01	1.455016e+03
1.660000e-06	5.347620e-06	2.214635e-08	3.845077e+01	1.454752e+03
1.670000e-06	5.344654e-06	2.213692e-08	3.842944e+01	1.454334e+03
1.680000e-06	5.340070e-06	2.212931e-08	3.839649e+01	1.453759e+03
1.690000e-06	5.333666e-06	2.211981e-08	3.835044e+01	1.453019e+03
1.700000e-06	5.325404e-06	2.210695e-08	3.829103e+01	1.452096e+03
1.710000e-06	5.315587e-06	2.209177e-08	3.822044e+01	1.450972e+03
1.720000e-06	5.304105e-06	2.208070e-08	3.813788e+01	1.449630e+03
1.730000e-06	5.290709e-06	2.206539e-08	3.804157e+01	1.448066e+03
1.740000e-06	5.275354e-06	2.198949e-08	3.793116e+01	1.446288e+03
1.750000e-06	5.257803e-06	2.193787e-08	3.780496e+01	1.444318e+03
1.760000e-06	5.237660e-06	2.194451e-08	3.766013e+01	1.442191e+03
1.770000e-06	5.215048e-06	2.193359e-08	3.749754e+01	1.439950e+03
1.780000e-06	5.190806e-06	2.196449e-08	3.732324e+01	1.437634e+03
1.790000e-06	5.165727e-06	2.188839e-08	3.714291e+01	1.435279e+03
1.800000e-06	5.139582e-06	2.174920e-08	3.695493e+01	1.432900e+03
1.810000e-06	5.111484e-06	2.182550e-08	3.675289e+01	1.430494e+03
1.820000e-06	5.081402e-06	2.176331e-08	3.653659e+01	1.428036e+03
1.830000e-06	5.049672e-06	2.165993e-08	3.630844e+01	1.425483e+03
1.840000e-06	5.016046e-06	2.175583e-08	3.606667e+01	1.422780e+03
1.850000e-06	4.980723e-06	2.163431e-08	3.581269e+01	1.419869e+03
1.860000e-06	4.943829e-06	2.154424e-08	3.554741e+01	1.416697e+03
1.870000e-06	4.904981e-06	2.158504e-08	3.526808e+01	1.413224e+03
1.880000e-06	4.864420e-06	2.145246e-08	3.497644e+01	1.409428e+03
1.890000e-06	4.822200e-06	2.145168e-08	3.467286e+01	1.405303e+03
1.900000e-06	4.778207e-06	2.139975e-08	3.435655e+01	1.400863e+03
1.910000e-06	4.732405e-06	2.124500e-08	3.402721e+01	1.396129e+03
1.920000e-06	4.684610e-06	2.126756e-08	3.368356e+01	1.391127e+03
1.930000e-06	4.635181e-06	2.114928e-08	3.332815e+01	1.385880e+03
1.940000e-06	4.584094e-06	2.106362e-08	3.296082e+01	1.380403e+03
1.950000e-06	4.530935e-06	2.102771e-08	3.257859e+01	1.374702e+03
1.960000e-06	4.475876e-06	2.089470e-08	3.218270e+01	1.368772e+03
1.970000e-06	4.419161e-06	2.081771e-08	3.177491e+01	1.362599e+03
1.980000e-06	4.360892e-06	2.067204e-08	3.135594e+01	1.356166e+03
1.990000e-06	4.301165e-06	2.058518e-08	3.092649e+01	1.349459e+03
2.000000e-06	4.239911e-06	2.051942e-08	3.048606e+01	1.342463e+03
2.010000e-06	4.177066e-06	2.038650e-08	3.003418e+01	1.335173e+03
2.020000e-06	4.112612e-06	2.029200e-08	2.957075e+01	1.327585e+03
2.030000e-06	4.046688e-06	2.013282e-08	2.909673e+01	1.319700e+03
2.040000e-06	3.979443e-06	2.002524e-08	2.861322e+01	1.311520e+03
2.050000e-06	3.910821e-06	1.990246e-08	2.811981e+01	1.303044e+03
2.060000e-06	3.840618e-06	1.975228e-08	2.761504e+01	1.294266e+03
2.070000e-06	3.768880e-06	1.965039e-08	2.709922e+01	1.285174e+03
2.080000e-06	3.695911e-06	1.948290e-08	2.657455e+01	1.275752e+03
2.090000e-06	3.621650e-06	1.933317e-08	2.604060e+01	1.265983e+03
2.100000e-06	3.545993e-06	1.917544e-08	2.549661e+01	1.255847e+03
2.110000e-06	3.468875e-06	1.902241e-08	2.494211e+01	1.245327e+03
2.120000e-06	3.390256e-06	1.886671e-08	2.437682e+01	1.234409e+03
2.130000e-06	3.310387e-06	1.867980e-08	2.380254e+01	1.223080e+03
2.140000e-06	3.229416e-06	1.851260e-08	2.322034e+01	1.211330e+03
2.150000e-06	3.147308e-06	1.832007e-08	2.262995e+01	1.199147e+03
2.160000e-06	3.064170e-06	1.812950e-08	2.203217e+01	1.186518e+03
2.170000e-06	2.980168e-06	1.793147e-08	2.142818e+01	1.173420e+03
2.180000e-06	2.895046e-06	1.772973e-08	2.081613e+01	1.159828e+03
2.190000e-06	2.808560e-06	1.751681e-08	2.019427e+01	1.145707e+03
2.200000e-06	2.720927e-06	1.728389e-08	1.956417e+01	1.131021e+03
2.210000e-06	2.632375e-06	1.705861e-08	1.892746e+01	1.115728e+03
2.220000e-06	2.542947e-06	1.681648e-08	1.828445e+01	1.099789e+03
2.230000e-06	2.452637e-06	1.655848e-08	1.763509e+01	1.083168e+03
2.240000e-06	2.361550e-06	1.628570e-08	1.698015e+01	1.065829e+03
2.250000e-06	2.269801e-06	1.601455e-08	1.632046e+01	1.047741e+03
2.260000e-06	2.177291e-06	1.573353e-08	1.565528e+01	1.028872e+03
2.270000e-06	2.083777e-06	1.543536e-08	1.498289e+01	1.009188e+03
2.280000e-06	1.989285e-06	1.512591e-08	1.430348e+01	9.886502e+02
2.290000e-06	1.894009e-06	1.479876e-08	1.361842e+01	9.672097e+02
2.300000e-06	1.798056e-06	1.445429e-08	1.292849e+01	9.448103e+02
2.310000e-06	1.701588e-06	1.409383e-08	1.223486e+01	9.213851e+02
2.320000e-06	1.604645e-06	1.372432e-08	1.153781e+01	8.968588e+02
2.330000e-06	1.507177e-06	1.333870e-08	1.083699e+01	8.711487e+02
2.340000e-06	1.409174e-06	1.292994e-08	1.013232e+01	8.441678e+02
2.350000e-06	1.310668e-06	1.249474e-08	9.424041e+00	8.158272e+02
2.360000e-06	1.211796e-06	1.203768e-08	8.713124e+00	7.860394e+02
2.370000e-06	1.112640e-06	1.156195e-08	8.000166e+00	7.547225e+02
2.380000e-06	1.013227e-06	1.106699e-08	7.285365e+00	7.218046e+02
2.390000e-06	9.135965e-07	1.054513e-08	6.568995e+00	6.872304e+02
2.400000e-06	8.137408e-07	9.991462e-09	5.851007e+00	6.509687e+02
2.410000e-06	7.136209e-07	9.409856e-09	5.131118e+00	6.130203e+02
2.420000e-06	6.131985e-07	8.800831e-09	4.409055e+00	5.734262e+02
2.430000e-06	5.125301e-07	8.168333e-09	3.685224e+00	5.322736e+02
2.440000e-06	4.117123e-07	7.518877e-09	2.960318e+00	4.896977e+02
2.450000e-06	3.107652e-07	6.854578e-09	2.234482e+00	4.458783e+02
2.460000e-06	2.096034e-07	6.171806e-09	1.507103e+00	4.010294e+02
2.470000e-06	1.082702e-07	5.472978e-09	7.784910e-01	3.553827e+02
2.480000e-06	6.893769e-09	4.764062e-09	4.956798e-02	3.091649e+02
2.490000e-06	-9.456011e-08	4.049310e-09	-6.799116e-01	2.625732e+02
2.500000e-06	-1.959877e-07	3.331342e-09	-1.409202e+00	2.157517e+02
2.510000e-06	-2.972286e-07	2.611219e-09	-2.137151e+00	1.687726e+02
2.520000e-06	-3.983333e-07	1.890449e-09	-2.864120e+00	1.216273e+02
2.530000e-06	-4.992908e-07	1.167723e-09	-3.590030e+00	7.422910e+01
2.540000e-06	-6.000364e-07	4.380060e-10	-4.314416e+00	2.642852e+01
2.550000e-06	-7.005473e-07	-3.006614e-10	-5.037116e+00	-2.195946e+01
2.560000e-06	-8.007991e-07	-1.049833e-09	-5.757952e+00	-7.112002e+01
2.570000e-06	-9.007425e-07	-1.814670e-09	-6.476571e+00	-1.211999e+02
2.580000e-06	-1.000403e-06	-2.595801e-09	-7.193153e+00	-1.722711e+02
2.590000e-06	-1.099779e-06	-3.390354e-09	-7.907694e+00	-2.243038e+02
2.600000e-06	-1.198859e-06	-4.196686e-09	-8.620109e+00	-2.771510e+02
2.610000e-06	-1.297604e-06	-5.012360e-09	-9.330106e+00	-3.305494e+02
2.620000e-06	-1.395830e-06	-5.832550e-09	-1.003638e+01	-3.841357e+02
2.630000e-06	-1.493497e-06	-6.648814e-09	-1.073863e+01	-4.374760e+02
2.640000e-06	-1.590687e-06	-7.453199e-09	-1.143745e+01	-4.901032e+02
2.650000e-06	-1.687374e-06	-8.239784e-09	-1.213266e+01	-5.415582e+02
2.660000e-06	-1.783430e-06	-9.002533e-09	-1.282332e+01	-5.914277e+02
2.670000e-06	-1.878928e-06	-9.737588e-09	-1.350998e+01	-6.393736e+02
2.680000e-06	-1.973853e-06	-1.043935e-08	-1.419252e+01	-6.851516e+02
2.690000e-06	-2.067926e-06	-1.110606e-08	-1.486892e+01	-7.286168e+02
2.700000e-06	-2.160949e-06	-1.173736e-08	-1.553778e+01	-7.697178e+02
2.710000e-06	-2.253036e-06	-1.233327e-08	-1.619991e+01	-8.084806e+02
2.720000e-06	-2.344413e-06	-1.289416e-08	-1.685694e+01	-8.449888e+02
2.730000e-06	-2.435033e-06	-1.342066e-08	-1.750852e+01	-8.793613e+02
2.740000e-06	-2.524757e-06	-1.391773e-08	-1.815366e+01	-9.117327e+02
2.750000e-06	-2.613589e-06	-1.438673e-08	-1.879238e+01	-9.422386e+02
2.760000e-06	-2.701614e-06	-1.482804e-08	-1.942530e+01	-9.710062e+02
2.770000e-06	-2.788853e-06	-1.524239e-08	-2.005257e+01	-9.981514e+02
2.780000e-06	-2.875104e-06	-1.563521e-08	-2.067274e+01	-1.023779e+03
2.790000e-06	-2.960113e-06	-1.600748e-08	-2.128398e+01	-1.047986e+03
2.800000e-06	-3.043951e-06	-1.635632e-08	-2.188680e+01	-1.070863e+03
2.810000e-06	-3.126757e-06	-1.668572e-08	-2.248219e+01	-1.092501e+03
2.820000e-06	-3.208584e-06	-1.700056e-08	-2.307055e+01	-1.112986e+03
2.830000e-06	-3.289412e-06	-1.729958e-08	-2.365172e+01	-1.132401e+03
2.840000e-06	-3.369153e-06	-1.758181e-08	-2.422508e+01	-1.150823e+03
2.850000e-06	-3.447573e-06	-1.784996e-08	-2.478894e+01	-1.168321e+03
2.860000e-06	-3.524446e-06	-1.810493e-08	-2.534168e+01	-1.184953e+03
2.870000e-06	-3.599910e-06	-1.834644e-08	-2.588428e+01	-1.200769e+03
2.880000e-06	-3.674072e-06	-1.857653e-08	-2.641752e+01	-1.215810e+03
2.890000e-06	-3.746873e-06	-1.879807e-08	-2.694098e+01	-1.230112e+03
2.900000e-06	-3.818400e-06	-1.901035e-08	-2.745529e+01	-1.243708e+03
2.910000e-06	-3.888491e-06	-1.921102e-08	-2.795925e+01	-1.256635e+03
2.920000e-06	-3.956977e-06	-1.940011e-08	-2.845168e+01	-1.268928e+03
2.930000e-06	-4.024096e-06	-1.958003e-08	-2.893429e+01	-1.280625e+03
2.940000e-06	-4.089894e-06	-1.975016e-08	-2.940739e+01	-1.291764e+03
