# Temperatura_=_74.21
# Concentracion g/m^3_=_28200.0
# C_Vs_to_Am_M_A/Vsm_=_65563218390.804596
# pendiente_HvsI_1/m_=_3716.3
# ordenada_HvsI_A/m_=_1297.0
# frecuencia_Hz_=_301747.12162919267

Tiempo_(s)	Campo_(V.s)	Magnetizacion_(V.s)	Campo_(kA/m)	Magnetizacion_(A/m)
0.000000e+00	-5.325436e-06	-2.422445e-08	-3.830078e+01	-1.584896e+03
1.000000e-08	-5.323094e-06	-2.421993e-08	-3.828394e+01	-1.584454e+03
2.000000e-08	-5.318926e-06	-2.420932e-08	-3.825396e+01	-1.583861e+03
3.000000e-08	-5.313204e-06	-2.419864e-08	-3.821281e+01	-1.583109e+03
4.000000e-08	-5.305875e-06	-2.418632e-08	-3.816010e+01	-1.582177e+03
5.000000e-08	-5.296793e-06	-2.416628e-08	-3.809478e+01	-1.581040e+03
6.000000e-08	-5.285700e-06	-2.413980e-08	-3.801500e+01	-1.579671e+03
7.000000e-08	-5.272695e-06	-2.410350e-08	-3.792147e+01	-1.578053e+03
8.000000e-08	-5.257792e-06	-2.407784e-08	-3.781428e+01	-1.576185e+03
9.000000e-08	-5.240695e-06	-2.410690e-08	-3.769132e+01	-1.574082e+03
1.000000e-07	-5.221452e-06	-2.408503e-08	-3.755292e+01	-1.571777e+03
1.100000e-07	-5.200260e-06	-2.400252e-08	-3.740051e+01	-1.569315e+03
1.200000e-07	-5.177240e-06	-2.394948e-08	-3.723495e+01	-1.566743e+03
1.300000e-07	-5.152747e-06	-2.383874e-08	-3.705879e+01	-1.564104e+03
1.400000e-07	-5.126779e-06	-2.379131e-08	-3.687203e+01	-1.561424e+03
1.500000e-07	-5.099124e-06	-2.388943e-08	-3.667314e+01	-1.558705e+03
1.600000e-07	-5.069944e-06	-2.375067e-08	-3.646327e+01	-1.555929e+03
1.700000e-07	-5.039313e-06	-2.367687e-08	-3.624297e+01	-1.553056e+03
1.800000e-07	-5.006835e-06	-2.373658e-08	-3.600939e+01	-1.550028e+03
1.900000e-07	-4.972273e-06	-2.353717e-08	-3.576082e+01	-1.546788e+03
2.000000e-07	-4.936093e-06	-2.349758e-08	-3.550061e+01	-1.543280e+03
2.100000e-07	-4.898309e-06	-2.353212e-08	-3.522886e+01	-1.539461e+03
2.200000e-07	-4.858757e-06	-2.337587e-08	-3.494441e+01	-1.535308e+03
2.300000e-07	-4.817405e-06	-2.332287e-08	-3.464700e+01	-1.530816e+03
2.400000e-07	-4.774064e-06	-2.325337e-08	-3.433529e+01	-1.525997e+03
2.500000e-07	-4.728953e-06	-2.313354e-08	-3.401085e+01	-1.520870e+03
2.600000e-07	-4.682137e-06	-2.311417e-08	-3.367414e+01	-1.515462e+03
2.700000e-07	-4.633324e-06	-2.299795e-08	-3.332308e+01	-1.509793e+03
2.800000e-07	-4.582360e-06	-2.287897e-08	-3.295654e+01	-1.503874e+03
2.900000e-07	-4.529434e-06	-2.279832e-08	-3.257590e+01	-1.497707e+03
3.000000e-07	-4.474893e-06	-2.269751e-08	-3.218363e+01	-1.491283e+03
3.100000e-07	-4.418792e-06	-2.260187e-08	-3.178015e+01	-1.484588e+03
3.200000e-07	-4.360884e-06	-2.250408e-08	-3.136368e+01	-1.477605e+03
3.300000e-07	-4.301231e-06	-2.240223e-08	-3.093465e+01	-1.470320e+03
3.400000e-07	-4.240138e-06	-2.226146e-08	-3.049526e+01	-1.462722e+03
3.500000e-07	-4.177679e-06	-2.213628e-08	-3.004606e+01	-1.454809e+03
3.600000e-07	-4.113841e-06	-2.201356e-08	-2.958693e+01	-1.446582e+03
3.700000e-07	-4.048465e-06	-2.188460e-08	-2.911674e+01	-1.438042e+03
3.800000e-07	-3.981456e-06	-2.177443e-08	-2.863482e+01	-1.429191e+03
3.900000e-07	-3.912960e-06	-2.161782e-08	-2.814219e+01	-1.420026e+03
4.000000e-07	-3.843118e-06	-2.145506e-08	-2.763988e+01	-1.410536e+03
4.100000e-07	-3.772053e-06	-2.131901e-08	-2.712878e+01	-1.400704e+03
4.200000e-07	-3.699828e-06	-2.116333e-08	-2.660933e+01	-1.390510e+03
4.300000e-07	-3.626168e-06	-2.100201e-08	-2.607957e+01	-1.379930e+03
4.400000e-07	-3.550869e-06	-2.083351e-08	-2.553801e+01	-1.368943e+03
4.500000e-07	-3.474138e-06	-2.065770e-08	-2.498616e+01	-1.357529e+03
4.600000e-07	-3.396087e-06	-2.047066e-08	-2.442482e+01	-1.345677e+03
4.700000e-07	-3.316690e-06	-2.028618e-08	-2.385378e+01	-1.333376e+03
4.800000e-07	-3.236007e-06	-2.010286e-08	-2.327351e+01	-1.320619e+03
4.900000e-07	-3.154131e-06	-1.989656e-08	-2.268465e+01	-1.307400e+03
5.000000e-07	-3.071166e-06	-1.968388e-08	-2.208797e+01	-1.293706e+03
5.100000e-07	-2.987299e-06	-1.946234e-08	-2.148479e+01	-1.279520e+03
5.200000e-07	-2.902588e-06	-1.923575e-08	-2.087555e+01	-1.264815e+03
5.300000e-07	-2.816931e-06	-1.900259e-08	-2.025950e+01	-1.249559e+03
5.400000e-07	-2.730283e-06	-1.876160e-08	-1.963632e+01	-1.233714e+03
5.500000e-07	-2.642712e-06	-1.851436e-08	-1.900650e+01	-1.217237e+03
5.600000e-07	-2.554165e-06	-1.824952e-08	-1.836967e+01	-1.200086e+03
5.700000e-07	-2.464479e-06	-1.797553e-08	-1.772465e+01	-1.182221e+03
5.800000e-07	-2.373682e-06	-1.769457e-08	-1.707163e+01	-1.163602e+03
5.900000e-07	-2.281973e-06	-1.740277e-08	-1.641206e+01	-1.144192e+03
6.000000e-07	-2.189573e-06	-1.709220e-08	-1.574751e+01	-1.123954e+03
6.100000e-07	-2.096454e-06	-1.676770e-08	-1.507779e+01	-1.102845e+03
6.200000e-07	-2.002541e-06	-1.643049e-08	-1.440237e+01	-1.080818e+03
6.300000e-07	-1.907888e-06	-1.607613e-08	-1.372162e+01	-1.057819e+03
6.400000e-07	-1.812603e-06	-1.570866e-08	-1.303633e+01	-1.033783e+03
6.500000e-07	-1.716790e-06	-1.532521e-08	-1.234724e+01	-1.008638e+03
6.600000e-07	-1.620376e-06	-1.492366e-08	-1.165382e+01	-9.823030e+02
6.700000e-07	-1.523242e-06	-1.450212e-08	-1.095523e+01	-9.546907e+02
6.800000e-07	-1.425432e-06	-1.406125e-08	-1.025177e+01	-9.257098e+02
6.900000e-07	-1.326971e-06	-1.359731e-08	-9.543636e+00	-8.952668e+02
7.000000e-07	-1.227952e-06	-1.310835e-08	-8.831485e+00	-8.632686e+02
7.100000e-07	-1.128556e-06	-1.259292e-08	-8.116628e+00	-8.296257e+02
7.200000e-07	-1.028841e-06	-1.205222e-08	-7.399472e+00	-7.942562e+02
7.300000e-07	-9.288731e-07	-1.148703e-08	-6.680498e+00	-7.570922e+02
7.400000e-07	-8.286735e-07	-1.089396e-08	-5.959858e+00	-7.180868e+02
7.500000e-07	-7.282347e-07	-1.027276e-08	-5.237497e+00	-6.772231e+02
7.600000e-07	-6.275653e-07	-9.621485e-09	-4.513479e+00	-6.345233e+02
7.700000e-07	-5.266803e-07	-8.943699e-09	-3.787909e+00	-5.900564e+02
7.800000e-07	-4.256239e-07	-8.242116e-09	-3.061107e+00	-5.439420e+02
7.900000e-07	-3.244237e-07	-7.519323e-09	-2.333270e+00	-4.963491e+02
8.000000e-07	-2.230748e-07	-6.776492e-09	-1.604364e+00	-4.474884e+02
8.100000e-07	-1.216232e-07	-6.018019e-09	-8.747193e-01	-3.975972e+02
8.200000e-07	-2.009029e-08	-5.247968e-09	-1.444903e-01	-3.469178e+02
8.300000e-07	8.144171e-08	-4.466510e-09	5.857325e-01	-2.956728e+02
8.400000e-07	1.829076e-07	-3.679767e-09	1.315480e+00	-2.440398e+02
8.500000e-07	2.843127e-07	-2.888496e-09	2.044790e+00	-1.921294e+02
8.600000e-07	3.856526e-07	-2.093999e-09	2.773631e+00	-1.399726e+02
8.700000e-07	4.869243e-07	-1.295375e-09	3.501982e+00	-8.751785e+01
8.800000e-07	5.880591e-07	-4.896447e-10	4.229348e+00	-3.464258e+01
8.900000e-07	6.889779e-07	3.252359e-10	4.955160e+00	1.882319e+01
9.000000e-07	7.897075e-07	1.150787e-09	5.679613e+00	7.306296e+01
9.100000e-07	8.902560e-07	1.989168e-09	6.402762e+00	1.282341e+02
9.200000e-07	9.905192e-07	2.843845e-09	7.123860e+00	1.844283e+02
9.300000e-07	1.090459e-06	3.715550e-09	7.842629e+00	2.416386e+02
9.400000e-07	1.190035e-06	4.600467e-09	8.558789e+00	2.997371e+02
9.500000e-07	1.289210e-06	5.494159e-09	9.272055e+00	3.584699e+02
9.600000e-07	1.387926e-06	6.391639e-09	9.982029e+00	4.174669e+02
9.700000e-07	1.486000e-06	7.285860e-09	1.068738e+01	4.762685e+02
9.800000e-07	1.583294e-06	8.169865e-09	1.138712e+01	5.343639e+02
9.900000e-07	1.679826e-06	9.033487e-09	1.208138e+01	5.912353e+02
1.000000e-06	1.775648e-06	9.872410e-09	1.277054e+01	6.464021e+02
1.010000e-06	1.870855e-06	1.068181e-08	1.345528e+01	6.994587e+02
1.020000e-06	1.965422e-06	1.145344e-08	1.413540e+01	7.501017e+02
1.030000e-06	2.059279e-06	1.218205e-08	1.481043e+01	7.981417e+02
1.040000e-06	2.152463e-06	1.286840e-08	1.548061e+01	8.435021e+02
1.050000e-06	2.244980e-06	1.351506e-08	1.614600e+01	8.862047e+02
1.060000e-06	2.336812e-06	1.412302e-08	1.680646e+01	9.263469e+02
1.070000e-06	2.427886e-06	1.469684e-08	1.746147e+01	9.640745e+02
1.080000e-06	2.517973e-06	1.523691e-08	1.810938e+01	9.995562e+02
1.090000e-06	2.606952e-06	1.574471e-08	1.874932e+01	1.032962e+03
1.100000e-06	2.694904e-06	1.622289e-08	1.938187e+01	1.064449e+03
1.110000e-06	2.781963e-06	1.667493e-08	2.000801e+01	1.094154e+03
1.120000e-06	2.868136e-06	1.710100e-08	2.062776e+01	1.122195e+03
1.130000e-06	2.953361e-06	1.750292e-08	2.124071e+01	1.148677e+03
1.140000e-06	3.037666e-06	1.788206e-08	2.184703e+01	1.173694e+03
1.150000e-06	3.121056e-06	1.824064e-08	2.244678e+01	1.197338e+03
1.160000e-06	3.203374e-06	1.858154e-08	2.303882e+01	1.219703e+03
1.170000e-06	3.284433e-06	1.890501e-08	2.362179e+01	1.240882e+03
1.180000e-06	3.364295e-06	1.921294e-08	2.419617e+01	1.260965e+03
1.190000e-06	3.442998e-06	1.950379e-08	2.476220e+01	1.280038e+03
1.200000e-06	3.520503e-06	1.977877e-08	2.531962e+01	1.298173e+03
1.210000e-06	3.596823e-06	2.003857e-08	2.586852e+01	1.315432e+03
1.220000e-06	3.671815e-06	2.028681e-08	2.640786e+01	1.331859e+03
1.230000e-06	3.745185e-06	2.052309e-08	2.693554e+01	1.347492e+03
1.240000e-06	3.817007e-06	2.074636e-08	2.745209e+01	1.362361e+03
1.250000e-06	3.887488e-06	2.096032e-08	2.795899e+01	1.376494e+03
1.260000e-06	3.956630e-06	2.116423e-08	2.845626e+01	1.389925e+03
1.270000e-06	4.024488e-06	2.135744e-08	2.894430e+01	1.402691e+03
1.280000e-06	4.090839e-06	2.154080e-08	2.942150e+01	1.414837e+03
1.290000e-06	4.155464e-06	2.171579e-08	2.988629e+01	1.426408e+03
1.300000e-06	4.218549e-06	2.188408e-08	3.034000e+01	1.437448e+03
1.310000e-06	4.280242e-06	2.204478e-08	3.078370e+01	1.447992e+03
1.320000e-06	4.340613e-06	2.219891e-08	3.121789e+01	1.458063e+03
1.330000e-06	4.399534e-06	2.234683e-08	3.164165e+01	1.467672e+03
1.340000e-06	4.456720e-06	2.248813e-08	3.205293e+01	1.476817e+03
1.350000e-06	4.512194e-06	2.262172e-08	3.245191e+01	1.485490e+03
1.360000e-06	4.566073e-06	2.274762e-08	3.283941e+01	1.493685e+03
1.370000e-06	4.618208e-06	2.286681e-08	3.321436e+01	1.501399e+03
1.380000e-06	4.668324e-06	2.297724e-08	3.357480e+01	1.508642e+03
1.390000e-06	4.716493e-06	2.307921e-08	3.392123e+01	1.515439e+03
1.400000e-06	4.762998e-06	2.317586e-08	3.425570e+01	1.521825e+03
1.410000e-06	4.807929e-06	2.326731e-08	3.457885e+01	1.527844e+03
1.420000e-06	4.851309e-06	2.335371e-08	3.489084e+01	1.533541e+03
1.430000e-06	4.892862e-06	2.343667e-08	3.518969e+01	1.538955e+03
1.440000e-06	4.932515e-06	2.351650e-08	3.547487e+01	1.544112e+03
1.450000e-06	4.970521e-06	2.359124e-08	3.574822e+01	1.549022e+03
1.460000e-06	5.006979e-06	2.366100e-08	3.601042e+01	1.553683e+03
1.470000e-06	5.041741e-06	2.372748e-08	3.626043e+01	1.558078e+03
1.480000e-06	5.074562e-06	2.379037e-08	3.649648e+01	1.562186e+03
1.490000e-06	5.105573e-06	2.384742e-08	3.671951e+01	1.565988e+03
1.500000e-06	5.134938e-06	2.389820e-08	3.693071e+01	1.569473e+03
1.510000e-06	5.162651e-06	2.394560e-08	3.713002e+01	1.572639e+03
1.520000e-06	5.188425e-06	2.399033e-08	3.731539e+01	1.575500e+03
1.530000e-06	5.212100e-06	2.403162e-08	3.748566e+01	1.578073e+03
1.540000e-06	5.233904e-06	2.406793e-08	3.764248e+01	1.580383e+03
1.550000e-06	5.254054e-06	2.409986e-08	3.778740e+01	1.582453e+03
1.560000e-06	5.272417e-06	2.412783e-08	3.791947e+01	1.584298e+03
1.570000e-06	5.288731e-06	2.415106e-08	3.803679e+01	1.585925e+03
1.580000e-06	5.303066e-06	2.417041e-08	3.813990e+01	1.587331e+03
1.590000e-06	5.315476e-06	2.418718e-08	3.822915e+01	1.588509e+03
1.600000e-06	5.325724e-06	2.420101e-08	3.830285e+01	1.589449e+03
1.610000e-06	5.333826e-06	2.421290e-08	3.836112e+01	1.590146e+03
1.620000e-06	5.340004e-06	2.422342e-08	3.840555e+01	1.590602e+03
1.630000e-06	5.344434e-06	2.422966e-08	3.843741e+01	1.590829e+03
1.640000e-06	5.347011e-06	2.423158e-08	3.845595e+01	1.590847e+03
1.650000e-06	5.347574e-06	2.423194e-08	3.846000e+01	1.590679e+03
1.660000e-06	5.346324e-06	2.422568e-08	3.845101e+01	1.590346e+03
1.670000e-06	5.343457e-06	2.421579e-08	3.843039e+01	1.589860e+03
1.680000e-06	5.338951e-06	2.420851e-08	3.839798e+01	1.589222e+03
1.690000e-06	5.332545e-06	2.419775e-08	3.835191e+01	1.588420e+03
1.700000e-06	5.324303e-06	2.418310e-08	3.829263e+01	1.587431e+03
1.710000e-06	5.314495e-06	2.416715e-08	3.822209e+01	1.586228e+03
1.720000e-06	5.303017e-06	2.415920e-08	3.813954e+01	1.584788e+03
1.730000e-06	5.289656e-06	2.414713e-08	3.804345e+01	1.583098e+03
1.740000e-06	5.274296e-06	2.404662e-08	3.793298e+01	1.581159e+03
1.750000e-06	5.256728e-06	2.398932e-08	3.780663e+01	1.578993e+03
1.760000e-06	5.236601e-06	2.400128e-08	3.766187e+01	1.576637e+03
1.770000e-06	5.214001e-06	2.398422e-08	3.749933e+01	1.574137e+03
1.780000e-06	5.189789e-06	2.405229e-08	3.732520e+01	1.571542e+03
1.790000e-06	5.164817e-06	2.394226e-08	3.714560e+01	1.568888e+03
1.800000e-06	5.138811e-06	2.377058e-08	3.695856e+01	1.566196e+03
1.810000e-06	5.110682e-06	2.388509e-08	3.675626e+01	1.563463e+03
1.820000e-06	5.080482e-06	2.376501e-08	3.653906e+01	1.560663e+03
1.830000e-06	5.048698e-06	2.366354e-08	3.631047e+01	1.557750e+03
1.840000e-06	5.015048e-06	2.381528e-08	3.606845e+01	1.554667e+03
1.850000e-06	4.979759e-06	2.362433e-08	3.581466e+01	1.551354e+03
1.860000e-06	4.942841e-06	2.353737e-08	3.554914e+01	1.547759e+03
1.870000e-06	4.903935e-06	2.359874e-08	3.526932e+01	1.543846e+03
1.880000e-06	4.863346e-06	2.342649e-08	3.497741e+01	1.539594e+03
1.890000e-06	4.821071e-06	2.344649e-08	3.467336e+01	1.535006e+03
1.900000e-06	4.777043e-06	2.334816e-08	3.435671e+01	1.530095e+03
1.910000e-06	4.731300e-06	2.318558e-08	3.402773e+01	1.524885e+03
1.920000e-06	4.683606e-06	2.326215e-08	3.368471e+01	1.519399e+03
1.930000e-06	4.634199e-06	2.310213e-08	3.332937e+01	1.513656e+03
1.940000e-06	4.583113e-06	2.300584e-08	3.296196e+01	1.507666e+03
1.950000e-06	4.529988e-06	2.295340e-08	3.257988e+01	1.501425e+03
1.960000e-06	4.474996e-06	2.280749e-08	3.218438e+01	1.494925e+03
1.970000e-06	4.418315e-06	2.273831e-08	3.177673e+01	1.488148e+03
1.980000e-06	4.360021e-06	2.255970e-08	3.135747e+01	1.481079e+03
1.990000e-06	4.300337e-06	2.249596e-08	3.092822e+01	1.473704e+03
2.000000e-06	4.239175e-06	2.242138e-08	3.048834e+01	1.466015e+03
2.010000e-06	4.176310e-06	2.225255e-08	3.003621e+01	1.458011e+03
2.020000e-06	4.111773e-06	2.214430e-08	2.957206e+01	1.449693e+03
2.030000e-06	4.045826e-06	2.197077e-08	2.909777e+01	1.441063e+03
2.040000e-06	3.978588e-06	2.188594e-08	2.861419e+01	1.432122e+03
2.050000e-06	3.909898e-06	2.174340e-08	2.812016e+01	1.422864e+03
2.060000e-06	3.839646e-06	2.156985e-08	2.761491e+01	1.413277e+03
2.070000e-06	3.768002e-06	2.145606e-08	2.709964e+01	1.403343e+03
2.080000e-06	3.695153e-06	2.126358e-08	2.657571e+01	1.393040e+03
2.090000e-06	3.620957e-06	2.110992e-08	2.604209e+01	1.382345e+03
2.100000e-06	3.545371e-06	2.093662e-08	2.549847e+01	1.371236e+03
2.110000e-06	3.468391e-06	2.077431e-08	2.494483e+01	1.359697e+03
2.120000e-06	3.389887e-06	2.060003e-08	2.438023e+01	1.347716e+03
2.130000e-06	3.310094e-06	2.039154e-08	2.380635e+01	1.335284e+03
2.140000e-06	3.229213e-06	2.020746e-08	2.322465e+01	1.322395e+03
2.150000e-06	3.147226e-06	1.999273e-08	2.263499e+01	1.309041e+03
2.160000e-06	3.064167e-06	1.979454e-08	2.203763e+01	1.295207e+03
2.170000e-06	2.980167e-06	1.957918e-08	2.143349e+01	1.280874e+03
2.180000e-06	2.895045e-06	1.935331e-08	2.082130e+01	1.266015e+03
2.190000e-06	2.808578e-06	1.911602e-08	2.019942e+01	1.250593e+03
2.200000e-06	2.720987e-06	1.886358e-08	1.956946e+01	1.234571e+03
2.210000e-06	2.632475e-06	1.862016e-08	1.893288e+01	1.217904e+03
2.220000e-06	2.543086e-06	1.835246e-08	1.828999e+01	1.200552e+03
2.230000e-06	2.452812e-06	1.807459e-08	1.764073e+01	1.182475e+03
2.240000e-06	2.361751e-06	1.778401e-08	1.698582e+01	1.163633e+03
2.250000e-06	2.270017e-06	1.749145e-08	1.632607e+01	1.143989e+03
2.260000e-06	2.177534e-06	1.718103e-08	1.566093e+01	1.123505e+03
2.270000e-06	2.084158e-06	1.685254e-08	1.498936e+01	1.102138e+03
2.280000e-06	1.989718e-06	1.651498e-08	1.431014e+01	1.079838e+03
2.290000e-06	1.894369e-06	1.615978e-08	1.362439e+01	1.056548e+03
2.300000e-06	1.798430e-06	1.578848e-08	1.293439e+01	1.032202e+03
2.310000e-06	1.701970e-06	1.539874e-08	1.224065e+01	1.006725e+03
2.320000e-06	1.604998e-06	1.499626e-08	1.154322e+01	9.800327e+02
2.330000e-06	1.507515e-06	1.457192e-08	1.084211e+01	9.520376e+02
2.340000e-06	1.409504e-06	1.412185e-08	1.013722e+01	9.226474e+02
2.350000e-06	1.311040e-06	1.364843e-08	9.429060e+00	8.917683e+02
2.360000e-06	1.212241e-06	1.315539e-08	8.718491e+00	8.593079e+02
2.370000e-06	1.113178e-06	1.263873e-08	8.006030e+00	8.251784e+02
2.380000e-06	1.013863e-06	1.209310e-08	7.291746e+00	7.893013e+02
2.390000e-06	9.142398e-07	1.151745e-08	6.575255e+00	7.516136e+02
2.400000e-06	8.143563e-07	1.091057e-08	5.856888e+00	7.120763e+02
2.410000e-06	7.142646e-07	1.027740e-08	5.137024e+00	6.706826e+02
2.420000e-06	6.138960e-07	9.615423e-09	4.415168e+00	6.274677e+02
2.430000e-06	5.132881e-07	8.926359e-09	3.691592e+00	5.825144e+02
2.440000e-06	4.124543e-07	8.217782e-09	2.966390e+00	5.359571e+02
2.450000e-06	3.113888e-07	7.488982e-09	2.239522e+00	4.879779e+02
2.460000e-06	2.101530e-07	6.736215e-09	1.511430e+00	4.387967e+02
2.470000e-06	1.087713e-07	5.966091e-09	7.822885e-01	3.886548e+02
2.480000e-06	7.292938e-09	5.187529e-09	5.245114e-02	3.377914e+02
2.490000e-06	-9.419593e-08	4.401662e-09	-6.774615e-01	2.864189e+02
2.500000e-06	-1.955812e-07	3.609951e-09	-1.406629e+00	2.346975e+02
2.510000e-06	-2.968282e-07	2.816352e-09	-2.134802e+00	1.827161e+02
2.520000e-06	-3.979373e-07	2.021608e-09	-2.861984e+00	1.304817e+02
2.530000e-06	-4.989084e-07	1.220983e-09	-3.588172e+00	7.792075e+01
2.540000e-06	-5.996908e-07	4.112542e-10	-4.313004e+00	2.489425e+01
2.550000e-06	-7.002195e-07	-4.097270e-10	-5.036011e+00	-2.877547e+01
2.560000e-06	-8.004271e-07	-1.243587e-09	-5.756708e+00	-8.326859e+01
2.570000e-06	-9.003388e-07	-2.092762e-09	-6.475278e+00	-1.387276e+02
2.580000e-06	-9.999599e-07	-2.956283e-09	-7.191758e+00	-1.952190e+02
2.590000e-06	-1.099306e-06	-3.833181e-09	-7.906258e+00	-2.527028e+02
2.600000e-06	-1.198393e-06	-4.724502e-09	-8.618894e+00	-3.110151e+02
2.610000e-06	-1.297060e-06	-5.624697e-09	-9.328518e+00	-3.698667e+02
2.620000e-06	-1.395239e-06	-6.526365e-09	-1.003462e+01	-4.288590e+02
2.630000e-06	-1.492880e-06	-7.423056e-09	-1.073686e+01	-4.875133e+02
2.640000e-06	-1.589997e-06	-8.307030e-09	-1.143533e+01	-5.453122e+02
2.650000e-06	-1.686616e-06	-9.170620e-09	-1.213022e+01	-6.017440e+02
2.660000e-06	-1.782684e-06	-1.000674e-08	-1.282114e+01	-6.563464e+02
2.670000e-06	-1.878203e-06	-1.080976e-08	-1.350812e+01	-7.087406e+02
2.680000e-06	-1.973091e-06	-1.157413e-08	-1.419056e+01	-7.586553e+02
2.690000e-06	-2.067174e-06	-1.229672e-08	-1.486721e+01	-8.059340e+02
2.700000e-06	-2.160234e-06	-1.297873e-08	-1.553650e+01	-8.505302e+02
2.710000e-06	-2.252291e-06	-1.362177e-08	-1.619858e+01	-8.924898e+02
2.720000e-06	-2.343627e-06	-1.422821e-08	-1.685548e+01	-9.319270e+02
2.730000e-06	-2.434253e-06	-1.479874e-08	-1.750726e+01	-9.689964e+02
2.740000e-06	-2.523985e-06	-1.533503e-08	-1.815262e+01	-1.003869e+03
2.750000e-06	-2.612759e-06	-1.583887e-08	-1.879108e+01	-1.036712e+03
2.760000e-06	-2.700681e-06	-1.631257e-08	-1.942342e+01	-1.067678e+03
2.770000e-06	-2.787847e-06	-1.675838e-08	-2.005032e+01	-1.096898e+03
2.780000e-06	-2.874030e-06	-1.717829e-08	-2.067016e+01	-1.124485e+03
2.790000e-06	-2.958996e-06	-1.757585e-08	-2.128123e+01	-1.150540e+03
2.800000e-06	-3.042866e-06	-1.795342e-08	-2.188443e+01	-1.175156e+03
2.810000e-06	-3.125754e-06	-1.831015e-08	-2.248057e+01	-1.198427e+03
2.820000e-06	-3.207619e-06	-1.864709e-08	-2.306935e+01	-1.220444e+03
2.830000e-06	-3.288416e-06	-1.896622e-08	-2.365044e+01	-1.241302e+03
2.840000e-06	-3.368175e-06	-1.926857e-08	-2.422407e+01	-1.261090e+03
2.850000e-06	-3.446716e-06	-1.955613e-08	-2.478894e+01	-1.279889e+03
2.860000e-06	-3.523694e-06	-1.983083e-08	-2.534257e+01	-1.297769e+03
2.870000e-06	-3.599159e-06	-2.009215e-08	-2.588532e+01	-1.314787e+03
2.880000e-06	-3.673249e-06	-2.033908e-08	-2.641817e+01	-1.330986e+03
2.890000e-06	-3.746013e-06	-2.057460e-08	-2.694149e+01	-1.346398e+03
2.900000e-06	-3.817542e-06	-2.080116e-08	-2.745593e+01	-1.361055e+03
2.910000e-06	-3.887624e-06	-2.101873e-08	-2.795997e+01	-1.374985e+03
2.920000e-06	-3.956058e-06	-2.122488e-08	-2.845215e+01	-1.388223e+03
2.930000e-06	-4.023059e-06	-2.141904e-08	-2.893402e+01	-1.400808e+03
2.940000e-06	-4.088737e-06	-2.160256e-08	-2.940638e+01	-1.412786e+03
