# Temperatura_=_56.98
# Concentracion g/m^3_=_28200.0
# C_Vs_to_Am_M_A/Vsm_=_65563218390.804596
# pendiente_HvsI_1/m_=_3716.3
# ordenada_HvsI_A/m_=_1297.0
# frecuencia_Hz_=_301745.799208135

Tiempo_(s)	Campo_(V.s)	Magnetizacion_(V.s)	Campo_(kA/m)	Magnetizacion_(A/m)
0.000000e+00	-5.309385e-06	-2.145455e-08	-3.830459e+01	-1.403217e+03
1.000000e-08	-5.307088e-06	-2.144995e-08	-3.828801e+01	-1.402873e+03
2.000000e-08	-5.302977e-06	-2.144011e-08	-3.825836e+01	-1.402388e+03
3.000000e-08	-5.297273e-06	-2.142943e-08	-3.821720e+01	-1.401747e+03
4.000000e-08	-5.289980e-06	-2.141619e-08	-3.816459e+01	-1.400935e+03
5.000000e-08	-5.281010e-06	-2.139797e-08	-3.809988e+01	-1.399933e+03
6.000000e-08	-5.270129e-06	-2.137602e-08	-3.802138e+01	-1.398731e+03
7.000000e-08	-5.257302e-06	-2.134431e-08	-3.792883e+01	-1.397328e+03
8.000000e-08	-5.242492e-06	-2.132537e-08	-3.782198e+01	-1.395733e+03
9.000000e-08	-5.225433e-06	-2.135134e-08	-3.769891e+01	-1.393967e+03
1.000000e-07	-5.206226e-06	-2.133097e-08	-3.756034e+01	-1.392056e+03
1.100000e-07	-5.185106e-06	-2.125753e-08	-3.740798e+01	-1.390028e+03
1.200000e-07	-5.162219e-06	-2.120800e-08	-3.724286e+01	-1.387908e+03
1.300000e-07	-5.137864e-06	-2.110703e-08	-3.706715e+01	-1.385711e+03
1.400000e-07	-5.111994e-06	-2.108408e-08	-3.688051e+01	-1.383440e+03
1.500000e-07	-5.084384e-06	-2.116320e-08	-3.668132e+01	-1.381086e+03
1.600000e-07	-5.055256e-06	-2.102905e-08	-3.647117e+01	-1.378631e+03
1.700000e-07	-5.024789e-06	-2.098778e-08	-3.625137e+01	-1.376047e+03
1.800000e-07	-4.992490e-06	-2.104511e-08	-3.601834e+01	-1.373304e+03
1.900000e-07	-4.958029e-06	-2.086353e-08	-3.576972e+01	-1.370373e+03
2.000000e-07	-4.921969e-06	-2.082215e-08	-3.550957e+01	-1.367230e+03
2.100000e-07	-4.884404e-06	-2.083498e-08	-3.523856e+01	-1.363857e+03
2.200000e-07	-4.845067e-06	-2.068426e-08	-3.495476e+01	-1.360242e+03
2.300000e-07	-4.803894e-06	-2.064637e-08	-3.465772e+01	-1.356379e+03
2.400000e-07	-4.760746e-06	-2.060372e-08	-3.434643e+01	-1.352268e+03
2.500000e-07	-4.715799e-06	-2.051487e-08	-3.402216e+01	-1.347909e+03
2.600000e-07	-4.669095e-06	-2.050045e-08	-3.368521e+01	-1.343305e+03
2.700000e-07	-4.620524e-06	-2.039303e-08	-3.333480e+01	-1.338456e+03
2.800000e-07	-4.569940e-06	-2.027076e-08	-3.296985e+01	-1.333361e+03
2.900000e-07	-4.517299e-06	-2.019974e-08	-3.259007e+01	-1.328020e+03
3.000000e-07	-4.462911e-06	-2.013243e-08	-3.219770e+01	-1.322428e+03
3.100000e-07	-4.406995e-06	-2.005437e-08	-3.179429e+01	-1.316582e+03
3.200000e-07	-4.349302e-06	-1.996069e-08	-3.137806e+01	-1.310477e+03
3.300000e-07	-4.289883e-06	-1.986889e-08	-3.094938e+01	-1.304110e+03
3.400000e-07	-4.229040e-06	-1.973860e-08	-3.051043e+01	-1.297476e+03
3.500000e-07	-4.166731e-06	-1.962089e-08	-3.006091e+01	-1.290571e+03
3.600000e-07	-4.103057e-06	-1.952386e-08	-2.960153e+01	-1.283391e+03
3.700000e-07	-4.037987e-06	-1.942143e-08	-2.913208e+01	-1.275932e+03
3.800000e-07	-3.971259e-06	-1.932221e-08	-2.865067e+01	-1.268187e+03
3.900000e-07	-3.902950e-06	-1.917527e-08	-2.815786e+01	-1.260152e+03
4.000000e-07	-3.833374e-06	-1.902700e-08	-2.765590e+01	-1.251817e+03
4.100000e-07	-3.762602e-06	-1.890826e-08	-2.714531e+01	-1.243174e+03
4.200000e-07	-3.690708e-06	-1.877667e-08	-2.662663e+01	-1.234212e+03
4.300000e-07	-3.617442e-06	-1.863877e-08	-2.609805e+01	-1.224917e+03
4.400000e-07	-3.542508e-06	-1.849119e-08	-2.555745e+01	-1.215277e+03
4.500000e-07	-3.466105e-06	-1.833505e-08	-2.500623e+01	-1.205275e+03
4.600000e-07	-3.388437e-06	-1.816787e-08	-2.444590e+01	-1.194897e+03
4.700000e-07	-3.309414e-06	-1.800769e-08	-2.387578e+01	-1.184124e+03
4.800000e-07	-3.228950e-06	-1.784938e-08	-2.329528e+01	-1.172942e+03
4.900000e-07	-3.147254e-06	-1.766715e-08	-2.270588e+01	-1.161332e+03
5.000000e-07	-3.064445e-06	-1.747920e-08	-2.210846e+01	-1.149278e+03
5.100000e-07	-2.980730e-06	-1.728587e-08	-2.150449e+01	-1.136759e+03
5.200000e-07	-2.896255e-06	-1.708509e-08	-2.089505e+01	-1.123755e+03
5.300000e-07	-2.810842e-06	-1.687734e-08	-2.027883e+01	-1.110239e+03
5.400000e-07	-2.724403e-06	-1.666387e-08	-1.965522e+01	-1.096182e+03
5.500000e-07	-2.637071e-06	-1.644443e-08	-1.902516e+01	-1.081551e+03
5.600000e-07	-2.548943e-06	-1.620946e-08	-1.838936e+01	-1.066309e+03
5.700000e-07	-2.459759e-06	-1.596656e-08	-1.774594e+01	-1.050418e+03
5.800000e-07	-2.369320e-06	-1.571728e-08	-1.709347e+01	-1.033839e+03
5.900000e-07	-2.277901e-06	-1.545459e-08	-1.643393e+01	-1.016535e+03
6.000000e-07	-2.185778e-06	-1.517214e-08	-1.576931e+01	-9.984675e+02
6.100000e-07	-2.092977e-06	-1.487741e-08	-1.509979e+01	-9.796026e+02
6.200000e-07	-1.999371e-06	-1.457773e-08	-1.442447e+01	-9.599042e+02
6.300000e-07	-1.904983e-06	-1.426664e-08	-1.374351e+01	-9.393337e+02
6.400000e-07	-1.809975e-06	-1.394151e-08	-1.305808e+01	-9.178473e+02
6.500000e-07	-1.714412e-06	-1.359884e-08	-1.236864e+01	-8.953921e+02
6.600000e-07	-1.618334e-06	-1.323768e-08	-1.167548e+01	-8.719052e+02
6.700000e-07	-1.521666e-06	-1.285971e-08	-1.097807e+01	-8.473120e+02
6.800000e-07	-1.424254e-06	-1.246607e-08	-1.027529e+01	-8.215279e+02
6.900000e-07	-1.326188e-06	-1.205386e-08	-9.567787e+00	-7.944612e+02
7.000000e-07	-1.227582e-06	-1.162047e-08	-8.856399e+00	-7.660181e+02
7.100000e-07	-1.128462e-06	-1.116238e-08	-8.141297e+00	-7.361095e+02
7.200000e-07	-1.029007e-06	-1.067876e-08	-7.423779e+00	-7.046583e+02
7.300000e-07	-9.292942e-07	-1.017275e-08	-6.704398e+00	-6.716073e+02
7.400000e-07	-8.293139e-07	-9.645651e-09	-5.983090e+00	-6.369272e+02
7.500000e-07	-7.290890e-07	-9.095852e-09	-5.260016e+00	-6.006229e+02
7.600000e-07	-6.286547e-07	-8.519182e-09	-4.535433e+00	-5.627387e+02
7.700000e-07	-5.280474e-07	-7.918195e-09	-3.809601e+00	-5.233611e+02
7.800000e-07	-4.273342e-07	-7.297595e-09	-3.083005e+00	-4.826181e+02
7.900000e-07	-3.265179e-07	-6.658234e-09	-2.355665e+00	-4.406750e+02
8.000000e-07	-2.255471e-07	-6.003153e-09	-1.627211e+00	-3.977259e+02
8.100000e-07	-1.244809e-07	-5.338862e-09	-8.980677e-01	-3.539810e+02
8.200000e-07	-2.335342e-08	-4.668082e-09	-1.684834e-01	-3.096496e+02
8.300000e-07	7.782840e-08	-3.991269e-09	5.614934e-01	-2.649216e+02
8.400000e-07	1.789998e-07	-3.309399e-09	1.291395e+00	-2.199474e+02
8.500000e-07	2.800853e-07	-2.625675e-09	2.020676e+00	-1.748213e+02
8.600000e-07	3.811295e-07	-1.940729e-09	2.749661e+00	-1.295698e+02
8.700000e-07	4.821089e-07	-1.251250e-09	3.478177e+00	-8.414834e+01
8.800000e-07	5.829203e-07	-5.566965e-10	4.205481e+00	-3.844805e+01
8.900000e-07	6.835736e-07	1.459908e-10	4.931645e+00	7.686991e+00
9.000000e-07	7.840922e-07	8.589285e-10	5.656837e+00	5.443298e+01
9.100000e-07	8.844196e-07	1.581850e-09	6.380650e+00	1.019533e+02
9.200000e-07	9.844275e-07	2.316790e-09	7.102157e+00	1.503639e+02
9.300000e-07	1.084091e-06	3.065171e-09	7.821182e+00	1.997016e+02
9.400000e-07	1.183401e-06	3.828971e-09	8.537652e+00	2.499014e+02
9.500000e-07	1.282219e-06	4.604111e-09	9.250572e+00	3.007867e+02
9.600000e-07	1.380426e-06	5.385762e-09	9.959089e+00	3.520733e+02
9.700000e-07	1.478077e-06	6.169305e-09	1.066359e+01	4.033895e+02
9.800000e-07	1.575133e-06	6.946944e-09	1.136380e+01	4.543064e+02
9.900000e-07	1.671420e-06	7.708959e-09	1.205847e+01	5.043764e+02
1.000000e-06	1.766964e-06	8.448535e-09	1.274777e+01	5.531731e+02
1.010000e-06	1.861923e-06	9.163671e-09	1.343286e+01	6.003260e+02
1.020000e-06	1.956333e-06	9.848550e-09	1.411398e+01	6.455461e+02
1.030000e-06	2.050020e-06	1.049981e-08	1.478988e+01	6.886399e+02
1.040000e-06	2.142991e-06	1.111836e-08	1.546062e+01	7.295089e+02
1.050000e-06	2.235362e-06	1.170371e-08	1.612703e+01	7.681395e+02
1.060000e-06	2.327027e-06	1.225715e-08	1.678835e+01	8.045838e+02
1.070000e-06	2.417857e-06	1.277888e-08	1.744364e+01	8.389380e+02
1.080000e-06	2.507737e-06	1.327059e-08	1.809208e+01	8.713204e+02
1.090000e-06	2.596523e-06	1.373595e-08	1.873263e+01	9.018548e+02
1.100000e-06	2.684231e-06	1.417417e-08	1.936540e+01	9.306597e+02
1.110000e-06	2.771037e-06	1.458624e-08	1.999166e+01	9.578434e+02
1.120000e-06	2.856936e-06	1.497539e-08	2.061138e+01	9.835047e+02
1.130000e-06	2.941957e-06	1.534369e-08	2.122476e+01	1.007736e+03
1.140000e-06	3.026141e-06	1.569094e-08	2.183211e+01	1.030628e+03
1.150000e-06	3.109373e-06	1.601668e-08	2.243259e+01	1.052270e+03
1.160000e-06	3.191513e-06	1.632665e-08	2.302518e+01	1.072752e+03
1.170000e-06	3.272461e-06	1.662342e-08	2.360919e+01	1.092160e+03
1.180000e-06	3.352218e-06	1.690489e-08	2.418460e+01	1.110573e+03
1.190000e-06	3.430788e-06	1.717077e-08	2.475144e+01	1.128062e+03
1.200000e-06	3.508189e-06	1.742348e-08	2.530984e+01	1.144682e+03
1.210000e-06	3.584349e-06	1.766340e-08	2.585931e+01	1.160479e+03
1.220000e-06	3.659106e-06	1.788993e-08	2.639864e+01	1.175489e+03
1.230000e-06	3.732296e-06	1.810470e-08	2.692667e+01	1.189741e+03
1.240000e-06	3.803953e-06	1.830727e-08	2.744364e+01	1.203270e+03
1.250000e-06	3.874180e-06	1.850032e-08	2.795029e+01	1.216112e+03
1.260000e-06	3.943111e-06	1.868481e-08	2.844760e+01	1.228309e+03
1.270000e-06	4.010742e-06	1.886074e-08	2.893552e+01	1.239908e+03
1.280000e-06	4.076880e-06	1.902934e-08	2.941267e+01	1.250957e+03
1.290000e-06	4.141419e-06	1.919127e-08	2.987829e+01	1.261497e+03
1.300000e-06	4.204419e-06	1.934696e-08	3.033280e+01	1.271557e+03
1.310000e-06	4.266002e-06	1.949526e-08	3.077709e+01	1.281154e+03
1.320000e-06	4.326204e-06	1.963571e-08	3.121142e+01	1.290291e+03
1.330000e-06	4.384897e-06	1.976824e-08	3.163486e+01	1.298959e+03
1.340000e-06	4.441896e-06	1.989195e-08	3.204608e+01	1.307147e+03
1.350000e-06	4.497210e-06	2.000842e-08	3.244515e+01	1.314848e+03
1.360000e-06	4.550880e-06	2.011824e-08	3.283234e+01	1.322066e+03
1.370000e-06	4.602752e-06	2.022058e-08	3.320658e+01	1.328822e+03
1.380000e-06	4.652643e-06	2.031717e-08	3.356652e+01	1.335152e+03
1.390000e-06	4.700663e-06	2.040825e-08	3.391296e+01	1.341108e+03
1.400000e-06	4.747019e-06	2.049445e-08	3.424739e+01	1.346744e+03
1.410000e-06	4.791881e-06	2.057675e-08	3.457105e+01	1.352114e+03
1.420000e-06	4.835145e-06	2.065519e-08	3.488318e+01	1.357258e+03
1.430000e-06	4.876538e-06	2.073092e-08	3.518181e+01	1.362198e+03
1.440000e-06	4.916139e-06	2.080318e-08	3.546751e+01	1.366939e+03
1.450000e-06	4.954096e-06	2.087004e-08	3.574135e+01	1.371462e+03
1.460000e-06	4.990479e-06	2.093282e-08	3.600384e+01	1.375742e+03
1.470000e-06	5.025140e-06	2.099297e-08	3.625390e+01	1.379745e+03
1.480000e-06	5.057908e-06	2.104964e-08	3.649030e+01	1.383446e+03
1.490000e-06	5.088884e-06	2.110128e-08	3.671378e+01	1.386827e+03
1.500000e-06	5.118176e-06	2.114749e-08	3.692511e+01	1.389888e+03
1.510000e-06	5.145828e-06	2.118951e-08	3.712460e+01	1.392644e+03
1.520000e-06	5.171527e-06	2.122764e-08	3.731001e+01	1.395119e+03
1.530000e-06	5.195162e-06	2.126302e-08	3.748052e+01	1.397342e+03
1.540000e-06	5.216975e-06	2.129565e-08	3.763789e+01	1.399342e+03
1.550000e-06	5.237123e-06	2.132208e-08	3.778325e+01	1.401138e+03
1.560000e-06	5.255496e-06	2.134309e-08	3.791580e+01	1.402742e+03
1.570000e-06	5.271874e-06	2.136121e-08	3.803396e+01	1.404154e+03
1.580000e-06	5.286274e-06	2.137739e-08	3.813785e+01	1.405368e+03
1.590000e-06	5.298676e-06	2.139294e-08	3.822732e+01	1.406376e+03
1.600000e-06	5.308860e-06	2.140778e-08	3.830079e+01	1.407174e+03
1.610000e-06	5.316909e-06	2.142044e-08	3.835887e+01	1.407764e+03
1.620000e-06	5.323119e-06	2.142919e-08	3.840367e+01	1.408153e+03
1.630000e-06	5.327599e-06	2.143274e-08	3.843599e+01	1.408359e+03
1.640000e-06	5.330264e-06	2.143424e-08	3.845521e+01	1.408399e+03
1.650000e-06	5.330927e-06	2.143623e-08	3.846000e+01	1.408290e+03
1.660000e-06	5.329744e-06	2.143196e-08	3.845147e+01	1.408042e+03
1.670000e-06	5.326927e-06	2.142411e-08	3.843114e+01	1.407658e+03
1.680000e-06	5.322463e-06	2.141775e-08	3.839893e+01	1.407129e+03
1.690000e-06	5.316120e-06	2.140931e-08	3.835317e+01	1.406440e+03
1.700000e-06	5.307938e-06	2.139767e-08	3.829415e+01	1.405574e+03
1.710000e-06	5.298199e-06	2.138476e-08	3.822388e+01	1.404515e+03
1.720000e-06	5.286853e-06	2.138009e-08	3.814203e+01	1.403254e+03
1.730000e-06	5.273648e-06	2.136762e-08	3.804676e+01	1.401794e+03
1.740000e-06	5.258433e-06	2.127957e-08	3.793699e+01	1.400147e+03
1.750000e-06	5.240972e-06	2.123152e-08	3.781102e+01	1.398336e+03
1.760000e-06	5.220953e-06	2.124450e-08	3.766659e+01	1.396388e+03
1.770000e-06	5.198473e-06	2.124142e-08	3.750441e+01	1.394331e+03
1.780000e-06	5.174373e-06	2.129831e-08	3.733054e+01	1.392187e+03
1.790000e-06	5.149470e-06	2.118923e-08	3.715088e+01	1.389968e+03
1.800000e-06	5.123492e-06	2.106137e-08	3.696346e+01	1.387674e+03
1.810000e-06	5.095613e-06	2.115725e-08	3.676233e+01	1.385293e+03
1.820000e-06	5.065768e-06	2.102771e-08	3.654701e+01	1.382803e+03
1.830000e-06	5.034175e-06	2.094509e-08	3.631908e+01	1.380175e+03
1.840000e-06	5.000632e-06	2.108408e-08	3.607709e+01	1.377381e+03
1.850000e-06	4.965438e-06	2.092929e-08	3.582318e+01	1.374391e+03
1.860000e-06	4.928672e-06	2.086676e-08	3.555793e+01	1.371183e+03
1.870000e-06	4.889975e-06	2.093101e-08	3.527875e+01	1.367740e+03
1.880000e-06	4.849607e-06	2.078529e-08	3.498752e+01	1.364054e+03
1.890000e-06	4.807507e-06	2.077917e-08	3.468379e+01	1.360119e+03
1.900000e-06	4.763681e-06	2.067372e-08	3.436760e+01	1.355936e+03
1.910000e-06	4.718198e-06	2.053815e-08	3.403946e+01	1.351506e+03
1.920000e-06	4.670740e-06	2.062698e-08	3.369708e+01	1.346831e+03
1.930000e-06	4.621580e-06	2.051310e-08	3.334241e+01	1.341912e+03
1.940000e-06	4.570763e-06	2.041477e-08	3.297579e+01	1.336746e+03
1.950000e-06	4.517941e-06	2.034675e-08	3.259471e+01	1.331333e+03
1.960000e-06	4.463137e-06	2.022216e-08	3.219933e+01	1.325668e+03
1.970000e-06	4.406558e-06	2.016324e-08	3.179113e+01	1.319747e+03
1.980000e-06	4.348434e-06	2.000192e-08	3.137180e+01	1.313567e+03
1.990000e-06	4.288964e-06	1.995967e-08	3.094275e+01	1.307123e+03
2.000000e-06	4.228096e-06	1.991169e-08	3.050362e+01	1.300411e+03
2.010000e-06	4.165536e-06	1.974859e-08	3.005228e+01	1.293427e+03
2.020000e-06	4.101276e-06	1.963965e-08	2.958868e+01	1.286167e+03
2.030000e-06	4.035600e-06	1.949228e-08	2.911486e+01	1.278626e+03
2.040000e-06	3.968604e-06	1.942759e-08	2.863152e+01	1.270798e+03
2.050000e-06	3.900257e-06	1.931127e-08	2.813842e+01	1.262677e+03
2.060000e-06	3.830354e-06	1.915660e-08	2.763411e+01	1.254255e+03
2.070000e-06	3.758925e-06	1.905754e-08	2.711878e+01	1.245521e+03
2.080000e-06	3.686264e-06	1.888485e-08	2.659457e+01	1.236464e+03
2.090000e-06	3.612330e-06	1.874412e-08	2.606117e+01	1.227071e+03
2.100000e-06	3.537079e-06	1.859321e-08	2.551827e+01	1.217329e+03
2.110000e-06	3.460391e-06	1.845183e-08	2.496501e+01	1.207220e+03
2.120000e-06	3.382091e-06	1.830021e-08	2.440011e+01	1.196730e+03
2.130000e-06	3.302479e-06	1.811750e-08	2.382575e+01	1.185841e+03
2.140000e-06	3.221805e-06	1.796079e-08	2.324373e+01	1.174537e+03
2.150000e-06	3.140050e-06	1.777054e-08	2.265391e+01	1.162802e+03
2.160000e-06	3.057210e-06	1.759319e-08	2.205625e+01	1.150616e+03
2.170000e-06	2.973450e-06	1.740684e-08	2.145197e+01	1.137960e+03
2.180000e-06	2.888661e-06	1.720693e-08	2.084026e+01	1.124811e+03
2.190000e-06	2.802551e-06	1.699471e-08	2.021902e+01	1.111143e+03
2.200000e-06	2.715262e-06	1.676857e-08	1.958927e+01	1.096925e+03
2.210000e-06	2.627057e-06	1.655267e-08	1.895291e+01	1.082122e+03
2.220000e-06	2.537981e-06	1.631526e-08	1.831028e+01	1.066698e+03
2.230000e-06	2.448022e-06	1.606712e-08	1.766127e+01	1.050614e+03
2.240000e-06	2.357257e-06	1.581178e-08	1.700644e+01	1.033831e+03
2.250000e-06	2.265784e-06	1.555966e-08	1.634651e+01	1.016311e+03
2.260000e-06	2.173649e-06	1.528819e-08	1.568180e+01	9.980186e+02
2.270000e-06	2.080679e-06	1.499054e-08	1.501107e+01	9.789185e+02
2.280000e-06	1.986718e-06	1.468285e-08	1.433319e+01	9.589741e+02
2.290000e-06	1.891762e-06	1.436196e-08	1.364812e+01	9.381459e+02
2.300000e-06	1.796088e-06	1.403072e-08	1.295789e+01	9.163877e+02
2.310000e-06	1.699928e-06	1.368545e-08	1.226414e+01	8.936438e+02
2.320000e-06	1.603274e-06	1.333014e-08	1.156683e+01	8.698481e+02
2.330000e-06	1.506168e-06	1.295416e-08	1.086626e+01	8.449228e+02
2.340000e-06	1.408520e-06	1.255205e-08	1.016177e+01	8.187809e+02
2.350000e-06	1.310297e-06	1.212809e-08	9.453144e+00	7.913296e+02
2.360000e-06	1.211704e-06	1.168975e-08	8.741843e+00	7.624757e+02
2.370000e-06	1.112854e-06	1.123628e-08	8.028689e+00	7.321326e+02
2.380000e-06	1.013742e-06	1.075556e-08	7.313648e+00	7.002282e+02
2.390000e-06	9.144184e-07	1.024290e-08	6.597076e+00	6.667125e+02
2.400000e-06	8.148156e-07	9.700335e-09	5.878492e+00	6.315653e+02
2.410000e-06	7.148843e-07	9.135799e-09	5.157537e+00	5.948024e+02
2.420000e-06	6.147173e-07	8.548518e-09	4.434881e+00	5.564801e+02
2.430000e-06	5.143902e-07	7.940690e-09	3.711071e+00	5.166967e+02
2.440000e-06	4.138958e-07	7.318094e-09	2.986053e+00	4.755916e+02
2.450000e-06	3.132932e-07	6.677935e-09	2.260255e+00	4.333394e+02
2.460000e-06	2.125744e-07	6.016062e-09	1.533619e+00	3.901404e+02
2.470000e-06	1.116733e-07	5.338357e-09	8.056675e-01	3.462062e+02
2.480000e-06	1.067918e-08	4.655190e-09	7.704500e-02	3.017427e+02
2.490000e-06	-9.039617e-08	3.968302e-09	-6.521637e-01	2.569303e+02
2.500000e-06	-1.914801e-07	3.276571e-09	-1.381434e+00	2.119050e+02
2.510000e-06	-2.924040e-07	2.583059e-09	-2.109550e+00	1.667426e+02
2.520000e-06	-3.932121e-07	1.889494e-09	-2.836831e+00	1.214492e+02
2.530000e-06	-4.939631e-07	1.192901e-09	-3.563699e+00	7.596088e+01
2.540000e-06	-5.945153e-07	4.912276e-10	-4.289134e+00	3.015289e+01
2.550000e-06	-6.948291e-07	-2.188913e-10	-5.012848e+00	-1.613948e+01
2.560000e-06	-7.948982e-07	-9.392119e-10	-5.734797e+00	-6.309233e+01
2.570000e-06	-8.946353e-07	-1.670197e-09	-6.454351e+00	-1.108590e+02
2.580000e-06	-9.940374e-07	-2.412278e-09	-7.171488e+00	-1.595357e+02
2.590000e-06	-1.093107e-06	-3.167427e-09	-7.886227e+00	-2.091320e+02
2.600000e-06	-1.191855e-06	-3.937047e-09	-8.598645e+00	-2.595514e+02
2.610000e-06	-1.290227e-06	-4.716851e-09	-9.308346e+00	-3.105855e+02
2.620000e-06	-1.388126e-06	-5.501189e-09	-1.001464e+01	-3.619226e+02
2.630000e-06	-1.485458e-06	-6.285416e-09	-1.071684e+01	-4.131708e+02
2.640000e-06	-1.582282e-06	-7.061897e-09	-1.141538e+01	-4.638921e+02
2.650000e-06	-1.678749e-06	-7.822284e-09	-1.211134e+01	-5.136408e+02
2.660000e-06	-1.774751e-06	-8.561687e-09	-1.280395e+01	-5.620033e+02
2.670000e-06	-1.870047e-06	-9.277402e-09	-1.349146e+01	-6.086303e+02
2.680000e-06	-1.964518e-06	-9.962781e-09	-1.417302e+01	-6.532592e+02
2.690000e-06	-2.058151e-06	-1.061207e-08	-1.484854e+01	-6.957242e+02
2.700000e-06	-2.150959e-06	-1.122710e-08	-1.551810e+01	-7.359527e+02
2.710000e-06	-2.242896e-06	-1.181135e-08	-1.618139e+01	-7.739518e+02
2.720000e-06	-2.334012e-06	-1.236457e-08	-1.683874e+01	-8.097887e+02
2.730000e-06	-2.424326e-06	-1.288351e-08	-1.749031e+01	-8.435677e+02
2.740000e-06	-2.513713e-06	-1.337059e-08	-1.813520e+01	-8.754104e+02
2.750000e-06	-2.602272e-06	-1.383074e-08	-1.877411e+01	-9.054399e+02
2.760000e-06	-2.690073e-06	-1.426381e-08	-1.940755e+01	-9.337718e+02
2.770000e-06	-2.776985e-06	-1.467188e-08	-2.003457e+01	-9.605117e+02
2.780000e-06	-2.862883e-06	-1.506077e-08	-2.065428e+01	-9.857561e+02
2.790000e-06	-2.947637e-06	-1.542734e-08	-2.126574e+01	-1.009597e+03
2.800000e-06	-3.031258e-06	-1.576946e-08	-2.186903e+01	-1.032123e+03
2.810000e-06	-3.113896e-06	-1.609234e-08	-2.246522e+01	-1.053425e+03
2.820000e-06	-3.195560e-06	-1.640086e-08	-2.305438e+01	-1.073593e+03
2.830000e-06	-3.276201e-06	-1.669603e-08	-2.363617e+01	-1.092709e+03
2.840000e-06	-3.355698e-06	-1.697639e-08	-2.420970e+01	-1.110853e+03
2.850000e-06	-3.433879e-06	-1.724252e-08	-2.477374e+01	-1.128089e+03
2.860000e-06	-3.510559e-06	-1.749425e-08	-2.532694e+01	-1.144471e+03
2.870000e-06	-3.585747e-06	-1.773188e-08	-2.586939e+01	-1.160040e+03
2.880000e-06	-3.659613e-06	-1.795792e-08	-2.640230e+01	-1.174831e+03
2.890000e-06	-3.732201e-06	-1.817432e-08	-2.692598e+01	-1.188875e+03
2.900000e-06	-3.803481e-06	-1.838038e-08	-2.744023e+01	-1.202204e+03
2.910000e-06	-3.873298e-06	-1.857520e-08	-2.794393e+01	-1.214857e+03
2.920000e-06	-3.941583e-06	-1.875921e-08	-2.843657e+01	-1.226880e+03
2.930000e-06	-4.008469e-06	-1.893398e-08	-2.891912e+01	-1.238318e+03
2.940000e-06	-4.074036e-06	-1.910140e-08	-2.939215e+01	-1.249219e+03
