# Temperatura_=_66.1
# Concentracion g/m^3_=_28200.0
# C_Vs_to_Am_M_A/Vsm_=_65563218390.804596
# pendiente_HvsI_1/m_=_3716.3
# ordenada_HvsI_A/m_=_1297.0
# frecuencia_Hz_=_301745.362997017

Tiempo_(s)	Campo_(V.s)	Magnetizacion_(V.s)	Campo_(kA/m)	Magnetizacion_(A/m)
0.000000e+00	-5.324750e-06	-2.216603e-08	-3.830544e+01	-1.450914e+03
1.000000e-08	-5.322382e-06	-2.216251e-08	-3.828841e+01	-1.450576e+03
2.000000e-08	-5.318178e-06	-2.215154e-08	-3.825817e+01	-1.450072e+03
3.000000e-08	-5.312391e-06	-2.214178e-08	-3.821654e+01	-1.449390e+03
4.000000e-08	-5.305052e-06	-2.213182e-08	-3.816374e+01	-1.448519e+03
5.000000e-08	-5.295961e-06	-2.211364e-08	-3.809834e+01	-1.447447e+03
6.000000e-08	-5.284831e-06	-2.208795e-08	-3.801827e+01	-1.446165e+03
7.000000e-08	-5.271812e-06	-2.204784e-08	-3.792462e+01	-1.444675e+03
8.000000e-08	-5.256788e-06	-2.202605e-08	-3.781654e+01	-1.442985e+03
9.000000e-08	-5.239528e-06	-2.208450e-08	-3.769237e+01	-1.441112e+03
1.000000e-07	-5.220180e-06	-2.205745e-08	-3.755319e+01	-1.439082e+03
1.100000e-07	-5.198869e-06	-2.196208e-08	-3.739988e+01	-1.436920e+03
1.200000e-07	-5.175791e-06	-2.192785e-08	-3.723386e+01	-1.434649e+03
1.300000e-07	-5.151272e-06	-2.178216e-08	-3.705747e+01	-1.432288e+03
1.400000e-07	-5.125228e-06	-2.175276e-08	-3.687012e+01	-1.429842e+03
1.500000e-07	-5.097478e-06	-2.192929e-08	-3.667048e+01	-1.427308e+03
1.600000e-07	-5.068172e-06	-2.171724e-08	-3.645966e+01	-1.424668e+03
1.700000e-07	-5.037446e-06	-2.168441e-08	-3.623863e+01	-1.421896e+03
1.800000e-07	-5.004826e-06	-2.181744e-08	-3.600396e+01	-1.418961e+03
1.900000e-07	-4.970094e-06	-2.151202e-08	-3.575411e+01	-1.415830e+03
2.000000e-07	-4.933868e-06	-2.149306e-08	-3.549350e+01	-1.412475e+03
2.100000e-07	-4.896009e-06	-2.154761e-08	-3.522115e+01	-1.408873e+03
2.200000e-07	-4.856338e-06	-2.133822e-08	-3.493576e+01	-1.405010e+03
2.300000e-07	-4.814877e-06	-2.134123e-08	-3.463750e+01	-1.400881e+03
2.400000e-07	-4.771439e-06	-2.131350e-08	-3.432501e+01	-1.396487e+03
2.500000e-07	-4.726220e-06	-2.119070e-08	-3.399971e+01	-1.391833e+03
2.600000e-07	-4.679275e-06	-2.118589e-08	-3.366200e+01	-1.386928e+03
2.700000e-07	-4.630379e-06	-2.104881e-08	-3.331024e+01	-1.381777e+03
2.800000e-07	-4.579373e-06	-2.093099e-08	-3.294331e+01	-1.376381e+03
2.900000e-07	-4.526393e-06	-2.087106e-08	-3.256219e+01	-1.370738e+03
3.000000e-07	-4.471742e-06	-2.080731e-08	-3.216903e+01	-1.364841e+03
3.100000e-07	-4.415546e-06	-2.071782e-08	-3.176477e+01	-1.358682e+03
3.200000e-07	-4.357571e-06	-2.059815e-08	-3.134771e+01	-1.352252e+03
3.300000e-07	-4.297878e-06	-2.050653e-08	-3.091829e+01	-1.345542e+03
3.400000e-07	-4.236750e-06	-2.036492e-08	-3.047854e+01	-1.338548e+03
3.500000e-07	-4.174219e-06	-2.025873e-08	-3.002870e+01	-1.331269e+03
3.600000e-07	-4.110290e-06	-2.016666e-08	-2.956881e+01	-1.323704e+03
3.700000e-07	-4.044840e-06	-2.005181e-08	-2.909797e+01	-1.315855e+03
3.800000e-07	-3.977739e-06	-1.994228e-08	-2.861526e+01	-1.307722e+03
3.900000e-07	-3.909150e-06	-1.977517e-08	-2.812183e+01	-1.299304e+03
4.000000e-07	-3.839273e-06	-1.962407e-08	-2.761915e+01	-1.290591e+03
4.100000e-07	-3.768193e-06	-1.951028e-08	-2.710781e+01	-1.281571e+03
4.200000e-07	-3.695895e-06	-1.937660e-08	-2.658771e+01	-1.272229e+03
4.300000e-07	-3.622162e-06	-1.923374e-08	-2.605729e+01	-1.262543e+03
4.400000e-07	-3.546840e-06	-1.907578e-08	-2.551543e+01	-1.252492e+03
4.500000e-07	-3.470049e-06	-1.891436e-08	-2.496301e+01	-1.242059e+03
4.600000e-07	-3.391905e-06	-1.874137e-08	-2.440085e+01	-1.231226e+03
4.700000e-07	-3.312453e-06	-1.857453e-08	-2.382928e+01	-1.219980e+03
4.800000e-07	-3.231735e-06	-1.840806e-08	-2.324861e+01	-1.208310e+03
4.900000e-07	-3.149833e-06	-1.821381e-08	-2.265942e+01	-1.196206e+03
5.000000e-07	-3.066849e-06	-1.802170e-08	-2.206245e+01	-1.183656e+03
5.100000e-07	-2.982920e-06	-1.782027e-08	-2.145868e+01	-1.170645e+03
5.200000e-07	-2.898144e-06	-1.761158e-08	-2.084881e+01	-1.157151e+03
5.300000e-07	-2.812451e-06	-1.739680e-08	-2.023235e+01	-1.143145e+03
5.400000e-07	-2.725851e-06	-1.717685e-08	-1.960936e+01	-1.128595e+03
5.500000e-07	-2.638354e-06	-1.695392e-08	-1.897992e+01	-1.113460e+03
5.600000e-07	-2.549853e-06	-1.671216e-08	-1.834326e+01	-1.097700e+03
5.700000e-07	-2.460145e-06	-1.646075e-08	-1.769791e+01	-1.081273e+03
5.800000e-07	-2.369294e-06	-1.619607e-08	-1.704434e+01	-1.064141e+03
5.900000e-07	-2.277553e-06	-1.592060e-08	-1.638438e+01	-1.046265e+03
6.000000e-07	-2.185080e-06	-1.562851e-08	-1.571914e+01	-1.027612e+03
6.100000e-07	-2.091909e-06	-1.532960e-08	-1.504887e+01	-1.008146e+03
6.200000e-07	-1.997962e-06	-1.502654e-08	-1.437303e+01	-9.878300e+02
6.300000e-07	-1.903326e-06	-1.470614e-08	-1.369224e+01	-9.666215e+02
6.400000e-07	-1.808093e-06	-1.436861e-08	-1.300715e+01	-9.444688e+02
6.500000e-07	-1.712272e-06	-1.401102e-08	-1.231783e+01	-9.213106e+02
6.600000e-07	-1.615808e-06	-1.363782e-08	-1.162388e+01	-8.970751e+02
6.700000e-07	-1.518614e-06	-1.325009e-08	-1.092468e+01	-8.716809e+02
6.800000e-07	-1.420732e-06	-1.284736e-08	-1.022053e+01	-8.450394e+02
6.900000e-07	-1.322260e-06	-1.242304e-08	-9.512141e+00	-8.170580e+02
7.000000e-07	-1.223308e-06	-1.197409e-08	-8.800291e+00	-7.876446e+02
7.100000e-07	-1.123971e-06	-1.149723e-08	-8.085678e+00	-7.567123e+02
7.200000e-07	-1.024290e-06	-1.099658e-08	-7.368584e+00	-7.241852e+02
7.300000e-07	-9.242846e-07	-1.047689e-08	-6.649163e+00	-6.900045e+02
7.400000e-07	-8.240368e-07	-9.932917e-09	-5.927996e+00	-6.541361e+02
7.500000e-07	-7.236023e-07	-9.364567e-09	-5.205485e+00	-6.165767e+02
7.600000e-07	-6.229373e-07	-8.764731e-09	-4.481317e+00	-5.773616e+02
7.700000e-07	-5.220677e-07	-8.137302e-09	-3.755676e+00	-5.365694e+02
7.800000e-07	-4.210294e-07	-7.490939e-09	-3.028822e+00	-4.943240e+02
7.900000e-07	-3.198540e-07	-6.828663e-09	-2.300981e+00	-4.507928e+02
8.000000e-07	-2.185964e-07	-6.151569e-09	-1.572550e+00	-4.061782e+02
8.100000e-07	-1.172112e-07	-5.462333e-09	-8.431996e-01	-3.607039e+02
8.200000e-07	-1.569019e-08	-4.764651e-09	-1.128728e-01	-3.145952e+02
8.300000e-07	8.583987e-08	-4.059233e-09	6.175191e-01	-2.680562e+02
8.400000e-07	1.873483e-07	-3.348533e-09	1.347755e+00	-2.212465e+02
8.500000e-07	2.888055e-07	-2.633427e-09	2.077623e+00	-1.742610e+02
8.600000e-07	3.901457e-07	-1.915304e-09	2.806649e+00	-1.271177e+02
8.700000e-07	4.913942e-07	-1.193129e-09	3.535016e+00	-7.975542e+01
8.800000e-07	5.924823e-07	-4.660959e-10	4.262228e+00	-3.204426e+01
8.900000e-07	6.933729e-07	2.698074e-10	4.988020e+00	1.619144e+01
9.000000e-07	7.940542e-07	1.015692e-09	5.712306e+00	6.514055e+01
9.100000e-07	8.944880e-07	1.773792e-09	6.434811e+00	1.149669e+02
9.200000e-07	9.946658e-07	2.546124e-09	7.155476e+00	1.657709e+02
9.300000e-07	1.094569e-06	3.334047e-09	7.874162e+00	2.175579e+02
9.400000e-07	1.194149e-06	4.137923e-09	8.590525e+00	2.702175e+02
9.500000e-07	1.293307e-06	4.950665e-09	9.303859e+00	3.235186e+02
9.600000e-07	1.391957e-06	5.767570e-09	1.001353e+01	3.771207e+02
9.700000e-07	1.489961e-06	6.582996e-09	1.071855e+01	4.305998e+02
9.800000e-07	1.587169e-06	7.391697e-09	1.141785e+01	4.834861e+02
9.900000e-07	1.683584e-06	8.181464e-09	1.211145e+01	5.353059e+02
1.000000e-06	1.779354e-06	8.944138e-09	1.280040e+01	5.856229e+02
1.010000e-06	1.874495e-06	9.679602e-09	1.348483e+01	6.340723e+02
1.020000e-06	1.968999e-06	1.038295e-08	1.416468e+01	6.803836e+02
1.030000e-06	2.062866e-06	1.105037e-08	1.483995e+01	7.243898e+02
1.040000e-06	2.156008e-06	1.168130e-08	1.551000e+01	7.660228e+02
1.050000e-06	2.248416e-06	1.227542e-08	1.617477e+01	8.052991e+02
1.060000e-06	2.340191e-06	1.283384e-08	1.683498e+01	8.422982e+02
1.070000e-06	2.431279e-06	1.336261e-08	1.749026e+01	8.771385e+02
1.080000e-06	2.521369e-06	1.386246e-08	1.813835e+01	9.099560e+02
1.090000e-06	2.610267e-06	1.433423e-08	1.877787e+01	9.408879e+02
1.100000e-06	2.698106e-06	1.477774e-08	1.940977e+01	9.700621e+02
1.110000e-06	2.785063e-06	1.519453e-08	2.003532e+01	9.975936e+02
1.120000e-06	2.871155e-06	1.558765e-08	2.065466e+01	1.023586e+03
1.130000e-06	2.956325e-06	1.596090e-08	2.126736e+01	1.048133e+03
1.140000e-06	3.040583e-06	1.631520e-08	2.187349e+01	1.071327e+03
1.150000e-06	3.124003e-06	1.664770e-08	2.247360e+01	1.093257e+03
1.160000e-06	3.206322e-06	1.696200e-08	2.306580e+01	1.114011e+03
1.170000e-06	3.287347e-06	1.726013e-08	2.364868e+01	1.133674e+03
1.180000e-06	3.367210e-06	1.754277e-08	2.422320e+01	1.152324e+03
1.190000e-06	3.445856e-06	1.781100e-08	2.478897e+01	1.170032e+03
1.200000e-06	3.523294e-06	1.806666e-08	2.534604e+01	1.186857e+03
1.210000e-06	3.599618e-06	1.831009e-08	2.589511e+01	1.202849e+03
1.220000e-06	3.674525e-06	1.854106e-08	2.643397e+01	1.218048e+03
1.230000e-06	3.747700e-06	1.876037e-08	2.696039e+01	1.232492e+03
1.240000e-06	3.819337e-06	1.896647e-08	2.747573e+01	1.246216e+03
1.250000e-06	3.889676e-06	1.916161e-08	2.798174e+01	1.259258e+03
1.260000e-06	3.958670e-06	1.934910e-08	2.847807e+01	1.271661e+03
1.270000e-06	4.026423e-06	1.952835e-08	2.896548e+01	1.283468e+03
1.280000e-06	4.092717e-06	1.970038e-08	2.944238e+01	1.294720e+03
1.290000e-06	4.157272e-06	1.986477e-08	2.990679e+01	1.305454e+03
1.300000e-06	4.220318e-06	2.002124e-08	3.036033e+01	1.315698e+03
1.310000e-06	4.281942e-06	2.017073e-08	3.080364e+01	1.325466e+03
1.320000e-06	4.342251e-06	2.031344e-08	3.123749e+01	1.334766e+03
1.330000e-06	4.401214e-06	2.044935e-08	3.166167e+01	1.343593e+03
1.340000e-06	4.458433e-06	2.057711e-08	3.207329e+01	1.351942e+03
1.350000e-06	4.513824e-06	2.069675e-08	3.247176e+01	1.359812e+03
1.360000e-06	4.567551e-06	2.081060e-08	3.285827e+01	1.367208e+03
1.370000e-06	4.619538e-06	2.091608e-08	3.323225e+01	1.374149e+03
1.380000e-06	4.669484e-06	2.101253e-08	3.359156e+01	1.380665e+03
1.390000e-06	4.717446e-06	2.110378e-08	3.393660e+01	1.386799e+03
1.400000e-06	4.763744e-06	2.119251e-08	3.426966e+01	1.392597e+03
1.410000e-06	4.808512e-06	2.127719e-08	3.459171e+01	1.398105e+03
1.420000e-06	4.851814e-06	2.135697e-08	3.490321e+01	1.403359e+03
1.430000e-06	4.893241e-06	2.143390e-08	3.520124e+01	1.408385e+03
1.440000e-06	4.932774e-06	2.150684e-08	3.548563e+01	1.413190e+03
1.450000e-06	4.970701e-06	2.157473e-08	3.575847e+01	1.417771e+03
1.460000e-06	5.007057e-06	2.163904e-08	3.602001e+01	1.422110e+03
1.470000e-06	5.041661e-06	2.170122e-08	3.626895e+01	1.426186e+03
1.480000e-06	5.074292e-06	2.176005e-08	3.650369e+01	1.429978e+03
1.490000e-06	5.105189e-06	2.181258e-08	3.672595e+01	1.433472e+03
1.500000e-06	5.134463e-06	2.185976e-08	3.693655e+01	1.436662e+03
1.510000e-06	5.162103e-06	2.190350e-08	3.713539e+01	1.439553e+03
1.520000e-06	5.187781e-06	2.194274e-08	3.732011e+01	1.442159e+03
1.530000e-06	5.211377e-06	2.197852e-08	3.748986e+01	1.444499e+03
1.540000e-06	5.233155e-06	2.201137e-08	3.764653e+01	1.446593e+03
1.550000e-06	5.253311e-06	2.203980e-08	3.779153e+01	1.448461e+03
1.560000e-06	5.271627e-06	2.206334e-08	3.792329e+01	1.450116e+03
1.570000e-06	5.287855e-06	2.208262e-08	3.804003e+01	1.451565e+03
1.580000e-06	5.302130e-06	2.209975e-08	3.814272e+01	1.452812e+03
1.590000e-06	5.314458e-06	2.211572e-08	3.823141e+01	1.453859e+03
1.600000e-06	5.324586e-06	2.212906e-08	3.830427e+01	1.454705e+03
1.610000e-06	5.332576e-06	2.214095e-08	3.836175e+01	1.455353e+03
1.620000e-06	5.338728e-06	2.215213e-08	3.840600e+01	1.455811e+03
1.630000e-06	5.343168e-06	2.215947e-08	3.843795e+01	1.456086e+03
1.640000e-06	5.345750e-06	2.216182e-08	3.845652e+01	1.456188e+03
1.650000e-06	5.346234e-06	2.216285e-08	3.846000e+01	1.456125e+03
1.660000e-06	5.344894e-06	2.215655e-08	3.845036e+01	1.455901e+03
1.670000e-06	5.341959e-06	2.214754e-08	3.842925e+01	1.455515e+03
1.680000e-06	5.337384e-06	2.214158e-08	3.839633e+01	1.454961e+03
1.690000e-06	5.330905e-06	2.213215e-08	3.834973e+01	1.454226e+03
1.700000e-06	5.322588e-06	2.212043e-08	3.828989e+01	1.453298e+03
1.710000e-06	5.312712e-06	2.210772e-08	3.821884e+01	1.452165e+03
1.720000e-06	5.301099e-06	2.210457e-08	3.813531e+01	1.450823e+03
1.730000e-06	5.287547e-06	2.209801e-08	3.803781e+01	1.449273e+03
1.740000e-06	5.272058e-06	2.196658e-08	3.792639e+01	1.447528e+03
1.750000e-06	5.254430e-06	2.191930e-08	3.779958e+01	1.445607e+03
1.760000e-06	5.234224e-06	2.195157e-08	3.765422e+01	1.443536e+03
1.770000e-06	5.211491e-06	2.193146e-08	3.749068e+01	1.441339e+03
1.780000e-06	5.187160e-06	2.205930e-08	3.731565e+01	1.439041e+03
1.790000e-06	5.162169e-06	2.189548e-08	3.713586e+01	1.436654e+03
1.800000e-06	5.136125e-06	2.169376e-08	3.694850e+01	1.434184e+03
1.810000e-06	5.107963e-06	2.189406e-08	3.674591e+01	1.431621e+03
1.820000e-06	5.077837e-06	2.168940e-08	3.652919e+01	1.428945e+03
1.830000e-06	5.046096e-06	2.160389e-08	3.630085e+01	1.426129e+03
1.840000e-06	5.012383e-06	2.187897e-08	3.605833e+01	1.423141e+03
1.850000e-06	4.977031e-06	2.162314e-08	3.580401e+01	1.419948e+03
1.860000e-06	4.940096e-06	2.157437e-08	3.553830e+01	1.416524e+03
1.870000e-06	4.901165e-06	2.168197e-08	3.525824e+01	1.412847e+03
1.880000e-06	4.860554e-06	2.143590e-08	3.496609e+01	1.408907e+03
1.890000e-06	4.818210e-06	2.149314e-08	3.466148e+01	1.404701e+03
1.900000e-06	4.774114e-06	2.136731e-08	3.434425e+01	1.400232e+03
1.910000e-06	4.728319e-06	2.121306e-08	3.401481e+01	1.395505e+03
1.920000e-06	4.680575e-06	2.136636e-08	3.367135e+01	1.390528e+03
1.930000e-06	4.631182e-06	2.116018e-08	3.331602e+01	1.385306e+03
1.940000e-06	4.580097e-06	2.107058e-08	3.294852e+01	1.379839e+03
1.950000e-06	4.526930e-06	2.099689e-08	3.256605e+01	1.374124e+03
1.960000e-06	4.471852e-06	2.086734e-08	3.216982e+01	1.368152e+03
1.970000e-06	4.415037e-06	2.084906e-08	3.176111e+01	1.361916e+03
1.980000e-06	4.356689e-06	2.064062e-08	3.134136e+01	1.355406e+03
1.990000e-06	4.296986e-06	2.063385e-08	3.091187e+01	1.348615e+03
2.000000e-06	4.235833e-06	2.055779e-08	3.047195e+01	1.341538e+03
2.010000e-06	4.173031e-06	2.035794e-08	3.002016e+01	1.334176e+03
2.020000e-06	4.108485e-06	2.026853e-08	2.955582e+01	1.326529e+03
2.030000e-06	4.042500e-06	2.009878e-08	2.908113e+01	1.318599e+03
2.040000e-06	3.975186e-06	2.006537e-08	2.859689e+01	1.310384e+03
2.050000e-06	3.906496e-06	1.991966e-08	2.810274e+01	1.301881e+03
2.060000e-06	3.836308e-06	1.974759e-08	2.759782e+01	1.293082e+03
2.070000e-06	3.764609e-06	1.965374e-08	2.708203e+01	1.283971e+03
2.080000e-06	3.691671e-06	1.945909e-08	2.655733e+01	1.274532e+03
2.090000e-06	3.617441e-06	1.932780e-08	2.602333e+01	1.264743e+03
2.100000e-06	3.541793e-06	1.915826e-08	2.547912e+01	1.254584e+03
2.110000e-06	3.464678e-06	1.902144e-08	2.492437e+01	1.244038e+03
2.120000e-06	3.386091e-06	1.885994e-08	2.435903e+01	1.233087e+03
2.130000e-06	3.306252e-06	1.866175e-08	2.378468e+01	1.221720e+03
2.140000e-06	3.225302e-06	1.849978e-08	2.320233e+01	1.209926e+03
2.150000e-06	3.143247e-06	1.829654e-08	2.261205e+01	1.197696e+03
2.160000e-06	3.060148e-06	1.812389e-08	2.201424e+01	1.185015e+03
2.170000e-06	2.976124e-06	1.792301e-08	2.140979e+01	1.171867e+03
2.180000e-06	2.890993e-06	1.771423e-08	2.079737e+01	1.158230e+03
2.190000e-06	2.804549e-06	1.749460e-08	2.017550e+01	1.144072e+03
2.200000e-06	2.716980e-06	1.725999e-08	1.954554e+01	1.129358e+03
2.210000e-06	2.628482e-06	1.703496e-08	1.890890e+01	1.114048e+03
2.220000e-06	2.539058e-06	1.678618e-08	1.826560e+01	1.098100e+03
2.230000e-06	2.448694e-06	1.653721e-08	1.761553e+01	1.081475e+03
2.240000e-06	2.357591e-06	1.627366e-08	1.696015e+01	1.064133e+03
2.250000e-06	2.265847e-06	1.601032e-08	1.630016e+01	1.046038e+03
2.260000e-06	2.173329e-06	1.572211e-08	1.563460e+01	1.027155e+03
2.270000e-06	2.079896e-06	1.541334e-08	1.496246e+01	1.007450e+03
2.280000e-06	1.985504e-06	1.509984e-08	1.428342e+01	9.868828e+02
2.290000e-06	1.890225e-06	1.477326e-08	1.359799e+01	9.654094e+02
2.300000e-06	1.794245e-06	1.443359e-08	1.290753e+01	9.429754e+02
2.310000e-06	1.697730e-06	1.407511e-08	1.221321e+01	9.195164e+02
2.320000e-06	1.600721e-06	1.370356e-08	1.151534e+01	8.949578e+02
2.330000e-06	1.503226e-06	1.330961e-08	1.081398e+01	8.692157e+02
2.340000e-06	1.405191e-06	1.289425e-08	1.010873e+01	8.422001e+02
2.350000e-06	1.306695e-06	1.246017e-08	9.400167e+00	8.138181e+02
2.360000e-06	1.207871e-06	1.201318e-08	8.689241e+00	7.839784e+02
2.370000e-06	1.108800e-06	1.154343e-08	7.976537e+00	7.525968e+02
2.380000e-06	1.009487e-06	1.104059e-08	7.262094e+00	7.196015e+02
2.390000e-06	9.099072e-07	1.050643e-08	6.545735e+00	6.849402e+02
2.400000e-06	8.100306e-07	9.945646e-09	5.827237e+00	6.485866e+02
2.410000e-06	7.098374e-07	9.366187e-09	5.106463e+00	6.105480e+02
2.420000e-06	6.093331e-07	8.761981e-09	4.383450e+00	5.708715e+02
2.430000e-06	5.086211e-07	8.134941e-09	3.658944e+00	5.296487e+02
2.440000e-06	4.078186e-07	7.489744e-09	2.933785e+00	4.870164e+02
2.450000e-06	3.068423e-07	6.823024e-09	2.207377e+00	4.431529e+02
2.460000e-06	2.056766e-07	6.133753e-09	1.479607e+00	3.982687e+02
2.470000e-06	1.043574e-07	5.429592e-09	7.507315e-01	3.525898e+02
2.480000e-06	2.899361e-09	4.720058e-09	2.085757e-02	3.063381e+02
2.490000e-06	-9.855891e-08	4.004972e-09	-7.090179e-01	2.597072e+02
2.500000e-06	-1.999136e-07	3.286074e-09	-1.438148e+00	2.128400e+02
2.510000e-06	-3.011324e-07	2.566968e-09	-2.166301e+00	1.658104e+02
2.520000e-06	-4.022601e-07	1.847215e-09	-2.893799e+00	1.186133e+02
2.530000e-06	-5.032565e-07	1.123693e-09	-3.620351e+00	7.116633e+01
2.540000e-06	-6.040027e-07	3.932190e-10	-4.345104e+00	2.332371e+01
2.550000e-06	-7.044849e-07	-3.464136e-10	-5.067958e+00	-2.509767e+01
2.560000e-06	-8.047004e-07	-1.097405e-09	-5.788893e+00	-7.428355e+01
2.570000e-06	-9.046295e-07	-1.863542e-09	-6.507768e+00	-1.243834e+02
2.580000e-06	-1.004237e-06	-2.644893e-09	-7.224330e+00	-1.754732e+02
2.590000e-06	-1.103529e-06	-3.439550e-09	-7.938624e+00	-2.275269e+02
2.600000e-06	-1.202513e-06	-4.247050e-09	-8.650695e+00	-2.803993e+02
2.610000e-06	-1.301138e-06	-5.060999e-09	-9.360188e+00	-3.338262e+02
2.620000e-06	-1.399302e-06	-5.876801e-09	-1.006637e+01	-3.874399e+02
2.630000e-06	-1.496882e-06	-6.690908e-09	-1.076834e+01	-4.407994e+02
2.640000e-06	-1.593891e-06	-7.495237e-09	-1.146621e+01	-4.934292e+02
2.650000e-06	-1.690434e-06	-8.283621e-09	-1.216072e+01	-5.448623e+02
2.660000e-06	-1.786492e-06	-9.048456e-09	-1.285175e+01	-5.946798e+02
2.670000e-06	-1.882030e-06	-9.782979e-09	-1.353904e+01	-6.425423e+02
2.680000e-06	-1.976907e-06	-1.048239e-08	-1.422157e+01	-6.882083e+02
2.690000e-06	-2.070877e-06	-1.114313e-08	-1.489757e+01	-7.315401e+02
2.700000e-06	-2.163805e-06	-1.176916e-08	-1.556609e+01	-7.724956e+02
2.710000e-06	-2.255846e-06	-1.236492e-08	-1.622821e+01	-8.111119e+02
2.720000e-06	-2.347151e-06	-1.292882e-08	-1.688505e+01	-8.474816e+02
2.730000e-06	-2.437676e-06	-1.345627e-08	-1.753627e+01	-8.817306e+02
2.740000e-06	-2.527313e-06	-1.394870e-08	-1.818110e+01	-9.139965e+02
2.750000e-06	-2.616047e-06	-1.441378e-08	-1.881945e+01	-9.444144e+02
2.760000e-06	-2.704012e-06	-1.485345e-08	-1.945225e+01	-9.731088e+02
2.770000e-06	-2.791177e-06	-1.526736e-08	-2.007931e+01	-1.000191e+03
2.780000e-06	-2.877207e-06	-1.565988e-08	-2.069819e+01	-1.025762e+03
2.790000e-06	-2.961987e-06	-1.602988e-08	-2.130809e+01	-1.049914e+03
2.800000e-06	-3.045780e-06	-1.637636e-08	-2.191088e+01	-1.072739e+03
2.810000e-06	-3.128613e-06	-1.670363e-08	-2.250677e+01	-1.094325e+03
2.820000e-06	-3.210377e-06	-1.701646e-08	-2.309497e+01	-1.114759e+03
2.830000e-06	-3.291097e-06	-1.731712e-08	-2.367566e+01	-1.134125e+03
2.840000e-06	-3.370750e-06	-1.760292e-08	-2.424866e+01	-1.152500e+03
2.850000e-06	-3.449031e-06	-1.787210e-08	-2.481181e+01	-1.169951e+03
2.860000e-06	-3.525733e-06	-1.812475e-08	-2.536359e+01	-1.186535e+03
2.870000e-06	-3.601009e-06	-1.836331e-08	-2.590512e+01	-1.202297e+03
2.880000e-06	-3.674979e-06	-1.859210e-08	-2.643724e+01	-1.217277e+03
2.890000e-06	-3.747676e-06	-1.881149e-08	-2.696022e+01	-1.231512e+03
2.900000e-06	-3.819140e-06	-1.902129e-08	-2.747431e+01	-1.245038e+03
2.910000e-06	-3.889090e-06	-1.921974e-08	-2.797753e+01	-1.257895e+03
2.920000e-06	-3.957480e-06	-1.940691e-08	-2.846951e+01	-1.270124e+03
2.930000e-06	-4.024522e-06	-1.958426e-08	-2.895180e+01	-1.281769e+03
2.940000e-06	-4.090154e-06	-1.975208e-08	-2.942395e+01	-1.292870e+03
