# Temperatura_=_89.6
# Concentracion g/m^3_=_28200.0
# C_Vs_to_Am_M_A/Vsm_=_65563218390.804596
# pendiente_HvsI_1/m_=_3716.3
# ordenada_HvsI_A/m_=_1297.0
# frecuencia_Hz_=_301747.218390538

Tiempo_(s)	Campo_(V.s)	Magnetizacion_(V.s)	Campo_(kA/m)	Magnetizacion_(A/m)
0.000000e+00	-5.340575e-06	-2.733934e-08	-3.830217e+01	-1.789989e+03
1.000000e-08	-5.338153e-06	-2.733521e-08	-3.828480e+01	-1.789481e+03
2.000000e-08	-5.333904e-06	-2.732598e-08	-3.825433e+01	-1.788758e+03
3.000000e-08	-5.328089e-06	-2.731269e-08	-3.821262e+01	-1.787813e+03
4.000000e-08	-5.320632e-06	-2.729440e-08	-3.815914e+01	-1.786638e+03
5.000000e-08	-5.311384e-06	-2.726886e-08	-3.809281e+01	-1.785223e+03
6.000000e-08	-5.300130e-06	-2.723881e-08	-3.801210e+01	-1.783561e+03
7.000000e-08	-5.286956e-06	-2.720092e-08	-3.791762e+01	-1.781649e+03
8.000000e-08	-5.271834e-06	-2.718104e-08	-3.780916e+01	-1.779495e+03
9.000000e-08	-5.254500e-06	-2.719960e-08	-3.768485e+01	-1.777117e+03
1.000000e-07	-5.235097e-06	-2.716132e-08	-3.754569e+01	-1.774540e+03
1.100000e-07	-5.213793e-06	-2.707961e-08	-3.739290e+01	-1.771799e+03
1.200000e-07	-5.190730e-06	-2.701765e-08	-3.722749e+01	-1.768929e+03
1.300000e-07	-5.166100e-06	-2.690757e-08	-3.705085e+01	-1.765957e+03
1.400000e-07	-5.139832e-06	-2.688543e-08	-3.686246e+01	-1.762902e+03
1.500000e-07	-5.111906e-06	-2.694503e-08	-3.666217e+01	-1.759763e+03
1.600000e-07	-5.082502e-06	-2.680483e-08	-3.645129e+01	-1.756522e+03
1.700000e-07	-5.051664e-06	-2.675691e-08	-3.623012e+01	-1.753143e+03
1.800000e-07	-5.018907e-06	-2.676624e-08	-3.599519e+01	-1.749578e+03
1.900000e-07	-4.984069e-06	-2.657217e-08	-3.574533e+01	-1.745772e+03
2.000000e-07	-4.947666e-06	-2.654598e-08	-3.548426e+01	-1.741674e+03
2.100000e-07	-4.909638e-06	-2.655434e-08	-3.521152e+01	-1.737241e+03
2.200000e-07	-4.869882e-06	-2.640398e-08	-3.492640e+01	-1.732447e+03
2.300000e-07	-4.828345e-06	-2.633676e-08	-3.462850e+01	-1.727282e+03
2.400000e-07	-4.784802e-06	-2.624562e-08	-3.431621e+01	-1.721751e+03
2.500000e-07	-4.739419e-06	-2.612102e-08	-3.399073e+01	-1.715870e+03
2.600000e-07	-4.692284e-06	-2.606886e-08	-3.365268e+01	-1.709661e+03
2.700000e-07	-4.643155e-06	-2.595824e-08	-3.330033e+01	-1.703144e+03
2.800000e-07	-4.591893e-06	-2.584285e-08	-3.293268e+01	-1.696332e+03
2.900000e-07	-4.538700e-06	-2.573326e-08	-3.255119e+01	-1.689229e+03
3.000000e-07	-4.483839e-06	-2.561361e-08	-3.215773e+01	-1.681830e+03
3.100000e-07	-4.427408e-06	-2.549456e-08	-3.175301e+01	-1.674121e+03
3.200000e-07	-4.369213e-06	-2.538100e-08	-3.133564e+01	-1.666087e+03
3.300000e-07	-4.309345e-06	-2.527521e-08	-3.090627e+01	-1.657713e+03
3.400000e-07	-4.248064e-06	-2.512246e-08	-3.046677e+01	-1.648987e+03
3.500000e-07	-4.185376e-06	-2.497081e-08	-3.001718e+01	-1.639904e+03
3.600000e-07	-4.121239e-06	-2.482765e-08	-2.955719e+01	-1.630463e+03
3.700000e-07	-4.055492e-06	-2.467785e-08	-2.908566e+01	-1.620666e+03
3.800000e-07	-3.988110e-06	-2.453734e-08	-2.860240e+01	-1.610515e+03
3.900000e-07	-3.919325e-06	-2.437066e-08	-2.810908e+01	-1.600005e+03
4.000000e-07	-3.849243e-06	-2.420244e-08	-2.760646e+01	-1.589131e+03
4.100000e-07	-3.777959e-06	-2.403891e-08	-2.709521e+01	-1.577876e+03
4.200000e-07	-3.705463e-06	-2.385698e-08	-2.657528e+01	-1.566223e+03
4.300000e-07	-3.631398e-06	-2.367039e-08	-2.604409e+01	-1.554151e+03
4.400000e-07	-3.555722e-06	-2.347590e-08	-2.550135e+01	-1.541638e+03
4.500000e-07	-3.478688e-06	-2.327665e-08	-2.494887e+01	-1.528668e+03
4.600000e-07	-3.400359e-06	-2.306664e-08	-2.438710e+01	-1.515226e+03
4.700000e-07	-3.320569e-06	-2.285878e-08	-2.381485e+01	-1.501300e+03
4.800000e-07	-3.239443e-06	-2.264858e-08	-2.323302e+01	-1.486878e+03
4.900000e-07	-3.157223e-06	-2.241778e-08	-2.264334e+01	-1.471945e+03
5.000000e-07	-3.073964e-06	-2.217820e-08	-2.204622e+01	-1.456481e+03
5.100000e-07	-2.989802e-06	-2.192927e-08	-2.144262e+01	-1.440457e+03
5.200000e-07	-2.904753e-06	-2.167422e-08	-2.083265e+01	-1.423837e+03
5.300000e-07	-2.818754e-06	-2.140966e-08	-2.021587e+01	-1.406581e+03
5.400000e-07	-2.731830e-06	-2.113449e-08	-1.959246e+01	-1.388644e+03
5.500000e-07	-2.644079e-06	-2.085061e-08	-1.896312e+01	-1.369985e+03
5.600000e-07	-2.555264e-06	-2.055250e-08	-1.832615e+01	-1.350567e+03
5.700000e-07	-2.465153e-06	-2.024277e-08	-1.767988e+01	-1.330355e+03
5.800000e-07	-2.374017e-06	-1.992278e-08	-1.702626e+01	-1.309318e+03
5.900000e-07	-2.282084e-06	-1.959343e-08	-1.636692e+01	-1.287426e+03
6.000000e-07	-2.189365e-06	-1.924629e-08	-1.570195e+01	-1.264641e+03
6.100000e-07	-2.095878e-06	-1.888009e-08	-1.503147e+01	-1.240915e+03
6.200000e-07	-2.001610e-06	-1.849698e-08	-1.435538e+01	-1.216187e+03
6.300000e-07	-1.906628e-06	-1.809898e-08	-1.367418e+01	-1.190381e+03
6.400000e-07	-1.811127e-06	-1.768836e-08	-1.298925e+01	-1.163407e+03
6.500000e-07	-1.715110e-06	-1.726069e-08	-1.230063e+01	-1.135167e+03
6.600000e-07	-1.618345e-06	-1.681210e-08	-1.160664e+01	-1.105554e+03
6.700000e-07	-1.520725e-06	-1.633845e-08	-1.090652e+01	-1.074466e+03
6.800000e-07	-1.422348e-06	-1.583879e-08	-1.020096e+01	-1.041797e+03
6.900000e-07	-1.323417e-06	-1.531304e-08	-9.491440e+00	-1.007451e+03
7.000000e-07	-1.224082e-06	-1.476158e-08	-8.779019e+00	-9.713321e+02
7.100000e-07	-1.124422e-06	-1.418409e-08	-8.064264e+00	-9.333472e+02
7.200000e-07	-1.024544e-06	-1.357733e-08	-7.347947e+00	-8.934078e+02
7.300000e-07	-9.244262e-07	-1.293866e-08	-6.629909e+00	-8.514320e+02
7.400000e-07	-8.240646e-07	-1.226682e-08	-5.910125e+00	-8.073526e+02
7.500000e-07	-7.233983e-07	-1.156264e-08	-5.188154e+00	-7.611285e+02
7.600000e-07	-6.224074e-07	-1.082419e-08	-4.463855e+00	-7.127591e+02
7.700000e-07	-5.212156e-07	-1.005419e-08	-3.738116e+00	-6.622980e+02
7.800000e-07	-4.198589e-07	-9.256193e-09	-3.011194e+00	-6.098631e+02
7.900000e-07	-3.183791e-07	-8.430269e-09	-2.283389e+00	-5.556390e+02
8.000000e-07	-2.168186e-07	-7.579980e-09	-1.555005e+00	-4.998690e+02
8.100000e-07	-1.151346e-07	-6.710648e-09	-8.257362e-01	-4.428357e+02
8.200000e-07	-1.336151e-08	-5.826705e-09	-9.582769e-02	-3.848317e+02
8.300000e-07	8.842730e-08	-4.932738e-09	6.341934e-01	-3.261247e+02
8.400000e-07	1.902119e-07	-4.033855e-09	1.364184e+00	-2.669220e+02
8.500000e-07	2.919019e-07	-3.129340e-09	2.093497e+00	-2.073414e+02
8.600000e-07	3.935344e-07	-2.218135e-09	2.822396e+00	-1.473956e+02
8.700000e-07	4.950932e-07	-1.299096e-09	3.550768e+00	-8.699326e+01
8.800000e-07	5.965170e-07	-3.700217e-10	4.278172e+00	-2.595937e+01
8.900000e-07	6.977836e-07	5.751918e-10	5.004447e+00	3.592721e+01
9.000000e-07	7.987927e-07	1.537109e-09	5.728877e+00	9.888423e+01
9.100000e-07	8.995324e-07	2.514104e-09	6.451373e+00	1.630723e+02
9.200000e-07	9.999383e-07	3.508688e-09	7.171476e+00	2.285458e+02
9.300000e-07	1.100025e-06	4.521483e-09	7.889287e+00	2.952163e+02
9.400000e-07	1.199853e-06	5.552117e-09	8.605248e+00	3.628360e+02
9.500000e-07	1.299337e-06	6.590991e-09	9.318741e+00	4.310032e+02
9.600000e-07	1.398339e-06	7.628631e-09	1.002878e+01	4.991893e+02
9.700000e-07	1.496686e-06	8.658457e-09	1.073411e+01	5.667844e+02
9.800000e-07	1.594232e-06	9.668975e-09	1.143370e+01	6.331516e+02
9.900000e-07	1.690972e-06	1.064871e-08	1.212751e+01	6.976845e+02
1.000000e-06	1.787017e-06	1.159139e-08	1.281634e+01	7.598578e+02
1.010000e-06	1.882441e-06	1.249319e-08	1.350072e+01	8.192641e+02
1.020000e-06	1.977234e-06	1.334916e-08	1.418056e+01	8.756338e+02
1.030000e-06	2.071348e-06	1.415644e-08	1.485554e+01	9.288373e+02
1.040000e-06	2.164762e-06	1.491424e-08	1.552550e+01	9.788700e+02
1.050000e-06	2.257470e-06	1.562341e-08	1.619039e+01	1.025827e+03
1.060000e-06	2.349483e-06	1.628999e-08	1.685030e+01	1.069869e+03
1.070000e-06	2.440756e-06	1.692040e-08	1.750490e+01	1.111197e+03
1.080000e-06	2.531116e-06	1.751297e-08	1.815296e+01	1.150017e+03
1.090000e-06	2.620297e-06	1.806807e-08	1.879256e+01	1.186525e+03
1.100000e-06	2.708398e-06	1.858952e-08	1.942441e+01	1.220899e+03
1.110000e-06	2.795643e-06	1.907963e-08	2.005012e+01	1.253292e+03
1.120000e-06	2.882000e-06	1.954106e-08	2.066947e+01	1.283837e+03
1.130000e-06	2.967394e-06	1.997839e-08	2.128191e+01	1.312654e+03
1.140000e-06	3.051838e-06	2.039236e-08	2.188754e+01	1.339857e+03
1.150000e-06	3.135412e-06	2.078257e-08	2.248692e+01	1.365555e+03
1.160000e-06	3.217957e-06	2.115253e-08	2.307893e+01	1.389857e+03
1.170000e-06	3.299256e-06	2.150404e-08	2.366199e+01	1.412868e+03
1.180000e-06	3.379271e-06	2.183840e-08	2.423586e+01	1.434689e+03
1.190000e-06	3.458067e-06	2.215519e-08	2.480097e+01	1.455412e+03
1.200000e-06	3.535678e-06	2.245453e-08	2.535759e+01	1.475114e+03
1.210000e-06	3.612097e-06	2.273738e-08	2.590566e+01	1.493862e+03
1.220000e-06	3.687129e-06	2.300478e-08	2.644379e+01	1.511708e+03
1.230000e-06	3.760565e-06	2.326029e-08	2.697047e+01	1.528695e+03
1.240000e-06	3.832509e-06	2.350424e-08	2.748645e+01	1.544861e+03
1.250000e-06	3.903108e-06	2.373816e-08	2.799278e+01	1.560242e+03
1.260000e-06	3.972365e-06	2.396263e-08	2.848948e+01	1.574877e+03
1.270000e-06	4.040310e-06	2.417560e-08	2.897677e+01	1.588805e+03
1.280000e-06	4.106785e-06	2.437580e-08	2.945353e+01	1.602071e+03
1.290000e-06	4.171548e-06	2.456414e-08	2.991801e+01	1.614718e+03
1.300000e-06	4.234739e-06	2.474432e-08	3.037120e+01	1.626788e+03
1.310000e-06	4.296495e-06	2.491699e-08	3.081411e+01	1.638315e+03
1.320000e-06	4.356906e-06	2.508508e-08	3.124737e+01	1.649327e+03
1.330000e-06	4.415938e-06	2.524834e-08	3.167075e+01	1.659839e+03
1.340000e-06	4.473213e-06	2.540310e-08	3.208152e+01	1.669861e+03
1.350000e-06	4.528714e-06	2.554811e-08	3.247957e+01	1.679394e+03
1.360000e-06	4.582630e-06	2.568532e-08	3.286625e+01	1.688438e+03
1.370000e-06	4.634822e-06	2.581800e-08	3.324057e+01	1.696994e+03
1.380000e-06	4.684982e-06	2.594292e-08	3.360031e+01	1.705070e+03
1.390000e-06	4.733135e-06	2.605904e-08	3.394566e+01	1.712678e+03
1.400000e-06	4.779621e-06	2.616849e-08	3.427905e+01	1.719842e+03
1.410000e-06	4.824560e-06	2.627067e-08	3.460135e+01	1.726590e+03
1.420000e-06	4.867906e-06	2.636558e-08	3.491223e+01	1.732954e+03
1.430000e-06	4.909390e-06	2.645569e-08	3.520975e+01	1.738968e+03
1.440000e-06	4.949043e-06	2.654260e-08	3.549414e+01	1.744660e+03
1.450000e-06	4.987077e-06	2.662476e-08	3.576691e+01	1.750050e+03
1.460000e-06	5.023560e-06	2.670217e-08	3.602856e+01	1.755153e+03
1.470000e-06	5.058364e-06	2.677526e-08	3.627817e+01	1.759969e+03
1.480000e-06	5.091214e-06	2.684476e-08	3.651378e+01	1.764494e+03
1.490000e-06	5.122245e-06	2.690952e-08	3.673633e+01	1.768720e+03
1.500000e-06	5.151564e-06	2.696796e-08	3.694660e+01	1.772633e+03
1.510000e-06	5.179144e-06	2.702222e-08	3.714440e+01	1.776227e+03
1.520000e-06	5.204777e-06	2.707281e-08	3.732824e+01	1.779497e+03
1.530000e-06	5.228384e-06	2.711895e-08	3.749755e+01	1.782443e+03
1.540000e-06	5.250143e-06	2.715995e-08	3.765360e+01	1.785075e+03
1.550000e-06	5.270180e-06	2.719484e-08	3.779730e+01	1.787403e+03
1.560000e-06	5.288420e-06	2.722469e-08	3.792812e+01	1.789441e+03
1.570000e-06	5.304656e-06	2.725006e-08	3.804456e+01	1.791205e+03
1.580000e-06	5.318912e-06	2.727033e-08	3.814681e+01	1.792707e+03
1.590000e-06	5.331171e-06	2.728676e-08	3.823473e+01	1.793956e+03
1.600000e-06	5.341241e-06	2.730145e-08	3.830695e+01	1.794961e+03
1.610000e-06	5.349208e-06	2.731542e-08	3.836409e+01	1.795726e+03
1.620000e-06	5.355332e-06	2.732746e-08	3.840801e+01	1.796258e+03
1.630000e-06	5.359726e-06	2.733490e-08	3.843952e+01	1.796559e+03
1.640000e-06	5.362187e-06	2.733887e-08	3.845717e+01	1.796637e+03
1.650000e-06	5.362582e-06	2.733935e-08	3.846000e+01	1.796496e+03
1.660000e-06	5.361160e-06	2.733119e-08	3.844981e+01	1.796140e+03
1.670000e-06	5.358146e-06	2.731835e-08	3.842819e+01	1.795569e+03
1.680000e-06	5.353518e-06	2.730700e-08	3.839499e+01	1.794782e+03
1.690000e-06	5.346973e-06	2.729390e-08	3.834806e+01	1.793771e+03
1.700000e-06	5.338611e-06	2.727685e-08	3.828809e+01	1.792528e+03
1.710000e-06	5.328688e-06	2.725563e-08	3.821692e+01	1.791042e+03
1.720000e-06	5.317030e-06	2.724105e-08	3.813331e+01	1.789307e+03
1.730000e-06	5.303404e-06	2.721096e-08	3.803558e+01	1.787323e+03
1.740000e-06	5.287764e-06	2.711432e-08	3.792342e+01	1.785102e+03
1.750000e-06	5.269960e-06	2.706672e-08	3.779572e+01	1.782662e+03
1.760000e-06	5.249623e-06	2.706833e-08	3.764987e+01	1.780034e+03
1.770000e-06	5.226840e-06	2.705972e-08	3.748647e+01	1.777252e+03
1.780000e-06	5.202478e-06	2.709492e-08	3.731175e+01	1.774348e+03
1.790000e-06	5.177332e-06	2.695897e-08	3.713140e+01	1.771351e+03
1.800000e-06	5.151008e-06	2.682285e-08	3.694261e+01	1.768271e+03
1.810000e-06	5.122640e-06	2.690331e-08	3.673916e+01	1.765104e+03
1.820000e-06	5.092350e-06	2.679653e-08	3.652192e+01	1.761827e+03
1.830000e-06	5.060416e-06	2.675610e-08	3.629289e+01	1.758399e+03
1.840000e-06	5.026578e-06	2.686397e-08	3.605021e+01	1.754769e+03
1.850000e-06	4.991088e-06	2.668198e-08	3.579567e+01	1.750883e+03
1.860000e-06	4.953975e-06	2.661259e-08	3.552951e+01	1.746692e+03
1.870000e-06	4.914923e-06	2.663579e-08	3.524943e+01	1.742157e+03
1.880000e-06	4.874121e-06	2.648270e-08	3.495680e+01	1.737256e+03
1.890000e-06	4.831567e-06	2.646949e-08	3.465160e+01	1.731984e+03
1.900000e-06	4.787324e-06	2.636518e-08	3.433430e+01	1.726350e+03
1.910000e-06	4.741354e-06	2.623111e-08	3.400461e+01	1.720372e+03
1.920000e-06	4.693398e-06	2.622563e-08	3.366067e+01	1.714072e+03
1.930000e-06	4.643790e-06	2.606509e-08	3.330488e+01	1.707468e+03
1.940000e-06	4.592410e-06	2.598647e-08	3.293639e+01	1.700572e+03
1.950000e-06	4.538891e-06	2.590051e-08	3.255255e+01	1.693384e+03
1.960000e-06	4.483509e-06	2.576078e-08	3.215536e+01	1.685897e+03
1.970000e-06	4.426485e-06	2.566027e-08	3.174639e+01	1.678096e+03
1.980000e-06	4.367946e-06	2.546592e-08	3.132655e+01	1.669965e+03
1.990000e-06	4.308017e-06	2.538872e-08	3.089675e+01	1.661490e+03
2.000000e-06	4.246552e-06	2.528223e-08	3.045592e+01	1.652661e+03
2.010000e-06	4.183353e-06	2.510559e-08	3.000267e+01	1.643474e+03
2.020000e-06	4.118519e-06	2.498316e-08	2.953768e+01	1.633930e+03
2.030000e-06	4.052335e-06	2.480545e-08	2.906302e+01	1.624031e+03
2.040000e-06	3.984843e-06	2.468007e-08	2.857897e+01	1.613776e+03
2.050000e-06	3.915849e-06	2.450484e-08	2.808415e+01	1.603162e+03
2.060000e-06	3.845261e-06	2.432734e-08	2.757790e+01	1.592179e+03
2.070000e-06	3.773303e-06	2.418549e-08	2.706182e+01	1.580812e+03
2.080000e-06	3.700159e-06	2.397862e-08	2.653724e+01	1.569040e+03
2.090000e-06	3.625631e-06	2.379887e-08	2.600273e+01	1.556842e+03
2.100000e-06	3.549688e-06	2.359993e-08	2.545807e+01	1.544200e+03
2.110000e-06	3.472238e-06	2.341080e-08	2.490261e+01	1.531095e+03
2.120000e-06	3.393275e-06	2.320391e-08	2.433629e+01	1.517514e+03
2.130000e-06	3.313161e-06	2.297976e-08	2.376172e+01	1.503447e+03
2.140000e-06	3.231962e-06	2.277346e-08	2.317937e+01	1.488879e+03
2.150000e-06	3.149638e-06	2.253725e-08	2.258895e+01	1.473796e+03
2.160000e-06	3.066361e-06	2.230660e-08	2.199169e+01	1.458174e+03
2.170000e-06	2.982166e-06	2.205637e-08	2.138785e+01	1.441983e+03
2.180000e-06	2.896723e-06	2.179839e-08	2.077506e+01	1.425184e+03
2.190000e-06	2.809934e-06	2.153168e-08	2.015262e+01	1.407736e+03
2.200000e-06	2.722069e-06	2.125342e-08	1.952246e+01	1.389596e+03
2.210000e-06	2.633347e-06	2.097387e-08	1.888615e+01	1.370723e+03
2.220000e-06	2.543732e-06	2.067380e-08	1.824344e+01	1.351079e+03
2.230000e-06	2.453168e-06	2.036222e-08	1.759392e+01	1.330634e+03
2.240000e-06	2.361866e-06	2.003583e-08	1.693911e+01	1.309355e+03
2.250000e-06	2.269975e-06	1.970568e-08	1.628008e+01	1.287211e+03
2.260000e-06	2.177276e-06	1.935731e-08	1.561525e+01	1.264161e+03
2.270000e-06	2.083446e-06	1.899060e-08	1.494231e+01	1.240154e+03
2.280000e-06	1.988575e-06	1.861006e-08	1.426190e+01	1.215125e+03
2.290000e-06	1.892962e-06	1.820915e-08	1.357617e+01	1.188994e+03
2.300000e-06	1.796816e-06	1.779017e-08	1.288661e+01	1.161668e+03
2.310000e-06	1.700167e-06	1.735341e-08	1.219346e+01	1.133045e+03
2.320000e-06	1.602996e-06	1.690192e-08	1.149656e+01	1.103020e+03
2.330000e-06	1.505318e-06	1.642589e-08	1.079602e+01	1.071489e+03
2.340000e-06	1.407092e-06	1.592001e-08	1.009155e+01	1.038350e+03
2.350000e-06	1.308354e-06	1.538429e-08	9.383405e+00	1.003506e+03
2.360000e-06	1.209244e-06	1.482292e-08	8.672601e+00	9.668618e+02
2.370000e-06	1.109851e-06	1.423519e-08	7.959762e+00	9.283261e+02
2.380000e-06	1.010245e-06	1.361828e-08	7.245395e+00	8.878115e+02
2.390000e-06	9.104836e-07	1.297125e-08	6.529914e+00	8.452395e+02
2.400000e-06	8.105223e-07	1.228926e-08	5.813000e+00	8.005488e+02
2.410000e-06	7.102499e-07	1.157384e-08	5.093854e+00	7.537084e+02
2.420000e-06	6.095513e-07	1.082240e-08	4.371653e+00	7.047320e+02
2.430000e-06	5.084800e-07	1.003879e-08	3.646777e+00	6.536907e+02
2.440000e-06	4.071893e-07	9.232339e-09	2.920329e+00	6.007218e+02
2.450000e-06	3.057800e-07	8.401937e-09	2.193029e+00	5.460278e+02
2.460000e-06	2.041678e-07	7.546643e-09	1.464275e+00	4.898657e+02
2.470000e-06	1.024012e-07	6.671539e-09	7.344133e-01	4.325243e+02
2.480000e-06	5.510963e-10	5.781752e-09	3.952418e-03	3.742930e+02
2.490000e-06	-1.013192e-07	4.880034e-09	-7.266532e-01	3.154254e+02
2.500000e-06	-2.030548e-07	3.970219e-09	-1.456292e+00	2.561059e+02
2.510000e-06	-3.046114e-07	3.056196e-09	-2.184648e+00	1.964232e+02
2.520000e-06	-4.059971e-07	2.139296e-09	-2.911778e+00	1.363593e+02
2.530000e-06	-5.072675e-07	1.215760e-09	-3.638081e+00	7.579599e+01
2.540000e-06	-6.083195e-07	2.801325e-10	-4.362818e+00	1.454066e+01
2.550000e-06	-7.090504e-07	-6.711904e-10	-5.085252e+00	-4.763226e+01
2.560000e-06	-8.094491e-07	-1.639175e-09	-5.805303e+00	-1.109297e+02
2.570000e-06	-9.095691e-07	-2.625585e-09	-6.523356e+00	-1.754864e+02
2.580000e-06	-1.009433e-06	-3.629868e-09	-7.239572e+00	-2.413190e+02
2.590000e-06	-1.109052e-06	-4.649919e-09	-7.954033e+00	-3.082942e+02
2.600000e-06	-1.208398e-06	-5.684305e-09	-8.666531e+00	-3.761188e+02
2.610000e-06	-1.307328e-06	-6.726819e-09	-9.376051e+00	-4.443510e+02
2.620000e-06	-1.405741e-06	-7.769357e-09	-1.008186e+01	-5.124340e+02
2.630000e-06	-1.503593e-06	-8.803199e-09	-1.078364e+01	-5.797442e+02
2.640000e-06	-1.600875e-06	-9.815540e-09	-1.148134e+01	-6.456477e+02
2.650000e-06	-1.697616e-06	-1.079364e-08	-1.217517e+01	-7.095567e+02
2.660000e-06	-1.793855e-06	-1.173212e-08	-1.286538e+01	-7.709764e+02
2.670000e-06	-1.889632e-06	-1.263015e-08	-1.355229e+01	-8.295376e+02
2.680000e-06	-1.984853e-06	-1.348264e-08	-1.423520e+01	-8.850113e+02
2.690000e-06	-2.079216e-06	-1.428358e-08	-1.491197e+01	-9.373056e+02
2.700000e-06	-2.172516e-06	-1.503510e-08	-1.558111e+01	-9.864474e+02
2.710000e-06	-2.264870e-06	-1.574310e-08	-1.624346e+01	-1.032554e+03
2.720000e-06	-2.356463e-06	-1.640709e-08	-1.690036e+01	-1.075801e+03
2.730000e-06	-2.447287e-06	-1.702849e-08	-1.755175e+01	-1.116392e+03
2.740000e-06	-2.537206e-06	-1.761572e-08	-1.819663e+01	-1.154534e+03
2.750000e-06	-2.626147e-06	-1.817169e-08	-1.883451e+01	-1.190416e+03
2.760000e-06	-2.714308e-06	-1.869174e-08	-1.946679e+01	-1.224211e+03
2.770000e-06	-2.801739e-06	-1.917625e-08	-2.009384e+01	-1.256064e+03
2.780000e-06	-2.888064e-06	-1.963254e-08	-2.071296e+01	-1.286105e+03
2.790000e-06	-2.973134e-06	-2.006220e-08	-2.132307e+01	-1.314451e+03
2.800000e-06	-3.057122e-06	-2.046844e-08	-2.192543e+01	-1.341214e+03
2.810000e-06	-3.140111e-06	-2.085613e-08	-2.252062e+01	-1.366503e+03
2.820000e-06	-3.222035e-06	-2.122662e-08	-2.310817e+01	-1.390427e+03
2.830000e-06	-3.302857e-06	-2.157681e-08	-2.368782e+01	-1.413089e+03
2.840000e-06	-3.382632e-06	-2.190538e-08	-2.425996e+01	-1.434589e+03
2.850000e-06	-3.461188e-06	-2.221709e-08	-2.482336e+01	-1.455014e+03
2.860000e-06	-3.538270e-06	-2.251447e-08	-2.537619e+01	-1.474439e+03
2.870000e-06	-3.613864e-06	-2.279751e-08	-2.591834e+01	-1.492925e+03
2.880000e-06	-3.688029e-06	-2.306689e-08	-2.645024e+01	-1.510522e+03
2.890000e-06	-3.760850e-06	-2.332341e-08	-2.697251e+01	-1.527272e+03
2.900000e-06	-3.832490e-06	-2.356703e-08	-2.748630e+01	-1.543212e+03
2.910000e-06	-3.902673e-06	-2.379913e-08	-2.798965e+01	-1.558377e+03
2.920000e-06	-3.971199e-06	-2.402201e-08	-2.848112e+01	-1.572807e+03
2.930000e-06	-4.038351e-06	-2.423586e-08	-2.896273e+01	-1.586543e+03
2.940000e-06	-4.104166e-06	-2.443885e-08	-2.943475e+01	-1.599629e+03
