# Temperatura_=_33.85
# Concentracion g/m^3_=_28200.0
# C_Vs_to_Am_M_A/Vsm_=_65563218390.804596
# pendiente_HvsI_1/m_=_3716.3
# ordenada_HvsI_A/m_=_1297.0
# frecuencia_Hz_=_301747.15856767993

Tiempo_(s)	Campo_(V.s)	Magnetizacion_(V.s)	Campo_(kA/m)	Magnetizacion_(A/m)
0.000000e+00	-5.351625e-06	-1.924086e-08	-3.829780e+01	-1.258018e+03
1.000000e-08	-5.348845e-06	-1.923437e-08	-3.827791e+01	-1.257662e+03
2.000000e-08	-5.344302e-06	-1.922449e-08	-3.824540e+01	-1.257180e+03
3.000000e-08	-5.338166e-06	-1.921610e-08	-3.820149e+01	-1.256570e+03
4.000000e-08	-5.330419e-06	-1.920397e-08	-3.814605e+01	-1.255818e+03
5.000000e-08	-5.320825e-06	-1.918493e-08	-3.807739e+01	-1.254905e+03
6.000000e-08	-5.309196e-06	-1.916041e-08	-3.799417e+01	-1.253814e+03
7.000000e-08	-5.295706e-06	-1.912178e-08	-3.789763e+01	-1.252531e+03
8.000000e-08	-5.280105e-06	-1.913256e-08	-3.778599e+01	-1.251056e+03
9.000000e-08	-5.262197e-06	-1.917735e-08	-3.765783e+01	-1.249401e+03
1.000000e-07	-5.242272e-06	-1.911313e-08	-3.751524e+01	-1.247591e+03
1.100000e-07	-5.220521e-06	-1.905276e-08	-3.735959e+01	-1.245662e+03
1.200000e-07	-5.197049e-06	-1.901722e-08	-3.719161e+01	-1.243650e+03
1.300000e-07	-5.172058e-06	-1.886631e-08	-3.701277e+01	-1.241587e+03
1.400000e-07	-5.145461e-06	-1.894760e-08	-3.682243e+01	-1.239492e+03
1.500000e-07	-5.117172e-06	-1.900128e-08	-3.661999e+01	-1.237369e+03
1.600000e-07	-5.087442e-06	-1.876596e-08	-3.640723e+01	-1.235199e+03
1.700000e-07	-5.056281e-06	-1.887482e-08	-3.618423e+01	-1.232947e+03
1.800000e-07	-5.023090e-06	-1.884995e-08	-3.594672e+01	-1.230567e+03
1.900000e-07	-4.987889e-06	-1.862151e-08	-3.569480e+01	-1.228009e+03
2.000000e-07	-4.951197e-06	-1.875660e-08	-3.543223e+01	-1.225227e+03
2.100000e-07	-4.912842e-06	-1.868153e-08	-3.515775e+01	-1.222187e+03
2.200000e-07	-4.872745e-06	-1.852143e-08	-3.487080e+01	-1.218871e+03
2.300000e-07	-4.830734e-06	-1.854749e-08	-3.457015e+01	-1.215279e+03
2.400000e-07	-4.786718e-06	-1.842102e-08	-3.425517e+01	-1.211423e+03
2.500000e-07	-4.740923e-06	-1.837450e-08	-3.392744e+01	-1.207327e+03
2.600000e-07	-4.693384e-06	-1.837730e-08	-3.358724e+01	-1.203014e+03
2.700000e-07	-4.643854e-06	-1.826925e-08	-3.323279e+01	-1.198506e+03
2.800000e-07	-4.592123e-06	-1.818126e-08	-3.286259e+01	-1.193815e+03
2.900000e-07	-4.538486e-06	-1.809529e-08	-3.247874e+01	-1.188943e+03
3.000000e-07	-4.483265e-06	-1.802939e-08	-3.208357e+01	-1.183881e+03
3.100000e-07	-4.426437e-06	-1.795020e-08	-3.167689e+01	-1.178612e+03
3.200000e-07	-4.367779e-06	-1.788443e-08	-3.125711e+01	-1.173117e+03
3.300000e-07	-4.307501e-06	-1.780441e-08	-3.082575e+01	-1.167376e+03
3.400000e-07	-4.245814e-06	-1.766489e-08	-3.038430e+01	-1.161377e+03
3.500000e-07	-4.182665e-06	-1.757687e-08	-2.993238e+01	-1.155110e+03
3.600000e-07	-4.118111e-06	-1.747313e-08	-2.947041e+01	-1.148573e+03
3.700000e-07	-4.051952e-06	-1.738624e-08	-2.899696e+01	-1.141769e+03
3.800000e-07	-3.984191e-06	-1.730553e-08	-2.851204e+01	-1.134699e+03
3.900000e-07	-3.915071e-06	-1.715948e-08	-2.801740e+01	-1.127365e+03
4.000000e-07	-3.844690e-06	-1.704106e-08	-2.751373e+01	-1.119765e+03
4.100000e-07	-3.773099e-06	-1.691564e-08	-2.700141e+01	-1.111889e+03
4.200000e-07	-3.700141e-06	-1.679280e-08	-2.647930e+01	-1.103726e+03
4.300000e-07	-3.625555e-06	-1.666272e-08	-2.594554e+01	-1.095259e+03
4.400000e-07	-3.549434e-06	-1.653081e-08	-2.540080e+01	-1.086472e+03
4.500000e-07	-3.471993e-06	-1.638985e-08	-2.484660e+01	-1.077348e+03
4.600000e-07	-3.393156e-06	-1.623395e-08	-2.428243e+01	-1.067870e+03
4.700000e-07	-3.312865e-06	-1.609758e-08	-2.370784e+01	-1.058027e+03
4.800000e-07	-3.231338e-06	-1.594448e-08	-2.312441e+01	-1.047804e+03
4.900000e-07	-3.148774e-06	-1.577582e-08	-2.253355e+01	-1.037187e+03
5.000000e-07	-3.065207e-06	-1.559973e-08	-2.193553e+01	-1.026162e+03
5.100000e-07	-2.980780e-06	-1.542026e-08	-2.133134e+01	-1.014709e+03
5.200000e-07	-2.895430e-06	-1.523781e-08	-2.072055e+01	-1.002805e+03
5.300000e-07	-2.809030e-06	-1.505022e-08	-2.010224e+01	-9.904221e+02
5.400000e-07	-2.721676e-06	-1.485657e-08	-1.947711e+01	-9.775307e+02
5.500000e-07	-2.633533e-06	-1.465408e-08	-1.884634e+01	-9.640995e+02
5.600000e-07	-2.544393e-06	-1.443460e-08	-1.820843e+01	-9.500968e+02
5.700000e-07	-2.453892e-06	-1.420810e-08	-1.756078e+01	-9.354916e+02
5.800000e-07	-2.362323e-06	-1.397875e-08	-1.690548e+01	-9.202537e+02
5.900000e-07	-2.270085e-06	-1.373864e-08	-1.624539e+01	-9.043531e+02
6.000000e-07	-2.177133e-06	-1.347949e-08	-1.558020e+01	-8.877586e+02
6.100000e-07	-2.083335e-06	-1.320778e-08	-1.490896e+01	-8.704365e+02
6.200000e-07	-1.988760e-06	-1.293057e-08	-1.423215e+01	-8.523493e+02
6.300000e-07	-1.893532e-06	-1.264221e-08	-1.355067e+01	-8.334540e+02
6.400000e-07	-1.797763e-06	-1.234646e-08	-1.286532e+01	-8.137025e+02
6.500000e-07	-1.701427e-06	-1.203419e-08	-1.217591e+01	-7.930407e+02
6.600000e-07	-1.604326e-06	-1.170095e-08	-1.148103e+01	-7.714094e+02
6.700000e-07	-1.506416e-06	-1.134925e-08	-1.078036e+01	-7.487451e+02
6.800000e-07	-1.407757e-06	-1.098196e-08	-1.007432e+01	-7.249812e+02
6.900000e-07	-1.308508e-06	-1.059944e-08	-9.364069e+00	-7.000499e+02
7.000000e-07	-1.208879e-06	-1.019951e-08	-8.651097e+00	-6.738846e+02
7.100000e-07	-1.108954e-06	-9.781537e-09	-7.935999e+00	-6.464233e+02
7.200000e-07	-1.008812e-06	-9.340817e-09	-7.219353e+00	-6.176137e+02
7.300000e-07	-9.084551e-07	-8.877788e-09	-6.501172e+00	-5.874192e+02
7.400000e-07	-8.077781e-07	-8.393829e-09	-5.780698e+00	-5.558255e+02
7.500000e-07	-7.068086e-07	-7.891948e-09	-5.058131e+00	-5.228482e+02
7.600000e-07	-6.056424e-07	-7.368559e-09	-4.334155e+00	-4.885381e+02
7.700000e-07	-5.042562e-07	-6.827536e-09	-3.608606e+00	-4.529855e+02
7.800000e-07	-4.026605e-07	-6.271465e-09	-2.881557e+00	-4.163196e+02
7.900000e-07	-3.009479e-07	-5.697812e-09	-2.153672e+00	-3.787038e+02
8.000000e-07	-1.991550e-07	-5.113600e-09	-1.425212e+00	-3.403256e+02
8.100000e-07	-9.727194e-08	-4.522600e-09	-6.961067e-01	-3.013825e+02
8.200000e-07	4.719030e-09	-3.928857e-09	3.377077e-02	-2.620635e+02
8.300000e-07	1.067579e-07	-3.329923e-09	7.639910e-01	-2.225307e+02
8.400000e-07	2.087721e-07	-2.728970e-09	1.494034e+00	-1.829014e+02
8.500000e-07	3.106934e-07	-2.127942e-09	2.223414e+00	-1.432356e+02
8.600000e-07	4.124867e-07	-1.525794e-09	2.951877e+00	-1.035290e+02
8.700000e-07	5.141887e-07	-9.223976e-10	3.679686e+00	-6.371487e+01
8.800000e-07	6.157664e-07	-3.136300e-10	4.406606e+00	-2.367530e+01
8.900000e-07	7.171683e-07	3.032012e-10	5.132268e+00	1.674063e+01
9.000000e-07	8.183459e-07	9.284174e-10	5.856324e+00	5.769201e+01
9.100000e-07	9.191883e-07	1.561076e-09	6.577982e+00	9.931851e+01
9.200000e-07	1.019686e-06	2.203946e-09	7.297172e+00	1.417135e+02
9.300000e-07	1.119948e-06	2.859834e-09	8.014681e+00	1.849016e+02
9.400000e-07	1.219978e-06	3.530330e-09	8.730519e+00	2.288235e+02
9.500000e-07	1.319633e-06	4.207664e-09	9.443681e+00	2.733310e+02
9.600000e-07	1.418773e-06	4.887844e-09	1.015316e+01	3.181915e+02
9.700000e-07	1.517228e-06	5.568752e-09	1.085773e+01	3.631036e+02
9.800000e-07	1.614880e-06	6.245126e-09	1.155656e+01	4.077201e+02
9.900000e-07	1.711758e-06	6.911397e-09	1.224985e+01	4.516754e+02
1.000000e-06	1.807935e-06	7.564743e-09	1.293812e+01	4.946150e+02
1.010000e-06	1.903467e-06	8.199130e-09	1.362177e+01	5.362221e+02
1.020000e-06	1.998351e-06	8.804942e-09	1.430079e+01	5.762390e+02
1.030000e-06	2.092523e-06	9.383492e-09	1.497471e+01	6.144805e+02
1.040000e-06	2.185990e-06	9.933534e-09	1.564359e+01	6.508381e+02
1.050000e-06	2.278781e-06	1.045497e-08	1.630763e+01	6.852765e+02
1.060000e-06	2.370929e-06	1.094818e-08	1.696707e+01	7.178226e+02
1.070000e-06	2.462362e-06	1.141410e-08	1.762138e+01	7.485493e+02
1.080000e-06	2.552724e-06	1.185492e-08	1.826804e+01	7.775588e+02
1.090000e-06	2.641846e-06	1.226994e-08	1.890583e+01	8.049651e+02
1.100000e-06	2.729971e-06	1.266349e-08	1.953647e+01	8.308812e+02
1.110000e-06	2.817246e-06	1.303708e-08	2.016104e+01	8.554091e+02
1.120000e-06	2.903645e-06	1.339318e-08	2.077934e+01	8.786362e+02
1.130000e-06	2.989071e-06	1.373008e-08	2.139067e+01	9.006354e+02
1.140000e-06	3.073552e-06	1.404666e-08	2.199524e+01	9.214685e+02
1.150000e-06	3.157171e-06	1.434260e-08	2.259364e+01	9.411910e+02
1.160000e-06	3.239658e-06	1.462297e-08	2.318395e+01	9.598575e+02
1.170000e-06	3.320903e-06	1.489130e-08	2.376536e+01	9.775247e+02
1.180000e-06	3.401005e-06	1.514670e-08	2.433859e+01	9.942535e+02
1.190000e-06	3.479945e-06	1.538883e-08	2.490351e+01	1.010108e+03
1.200000e-06	3.557632e-06	1.561931e-08	2.545946e+01	1.025152e+03
1.210000e-06	3.634024e-06	1.583737e-08	2.600615e+01	1.039447e+03
1.220000e-06	3.708987e-06	1.604126e-08	2.654260e+01	1.053049e+03
1.230000e-06	3.782295e-06	1.623439e-08	2.706722e+01	1.066004e+03
1.240000e-06	3.854134e-06	1.641826e-08	2.758132e+01	1.078349e+03
1.250000e-06	3.924637e-06	1.659708e-08	2.808586e+01	1.090110e+03
1.260000e-06	3.993771e-06	1.676865e-08	2.858060e+01	1.101309e+03
1.270000e-06	4.061630e-06	1.693112e-08	2.906622e+01	1.111960e+03
1.280000e-06	4.127892e-06	1.708440e-08	2.954041e+01	1.122076e+03
1.290000e-06	4.192417e-06	1.723049e-08	3.000217e+01	1.131669e+03
1.300000e-06	4.255461e-06	1.737018e-08	3.045333e+01	1.140756e+03
1.310000e-06	4.317106e-06	1.750373e-08	3.089448e+01	1.149350e+03
1.320000e-06	4.377469e-06	1.763048e-08	3.132646e+01	1.157470e+03
1.330000e-06	4.436354e-06	1.774884e-08	3.174786e+01	1.165136e+03
1.340000e-06	4.493427e-06	1.785804e-08	3.215629e+01	1.172368e+03
1.350000e-06	4.548800e-06	1.795969e-08	3.255255e+01	1.179187e+03
1.360000e-06	4.602525e-06	1.805597e-08	3.293702e+01	1.185618e+03
1.370000e-06	4.654364e-06	1.814713e-08	3.330800e+01	1.191686e+03
1.380000e-06	4.704097e-06	1.823378e-08	3.366390e+01	1.197419e+03
1.390000e-06	4.751994e-06	1.831615e-08	3.400667e+01	1.202847e+03
1.400000e-06	4.798300e-06	1.839480e-08	3.433805e+01	1.207998e+03
1.410000e-06	4.843066e-06	1.847006e-08	3.465841e+01	1.212899e+03
1.420000e-06	4.886239e-06	1.854192e-08	3.496737e+01	1.217571e+03
1.430000e-06	4.927532e-06	1.861059e-08	3.526287e+01	1.222027e+03
1.440000e-06	4.967014e-06	1.867453e-08	3.554542e+01	1.226271e+03
1.450000e-06	5.004817e-06	1.873438e-08	3.581594e+01	1.230300e+03
1.460000e-06	5.041075e-06	1.879138e-08	3.607542e+01	1.234100e+03
1.470000e-06	5.075559e-06	1.884535e-08	3.632220e+01	1.237655e+03
1.480000e-06	5.108069e-06	1.889478e-08	3.655485e+01	1.240950e+03
1.490000e-06	5.138819e-06	1.893925e-08	3.677491e+01	1.243973e+03
1.500000e-06	5.167925e-06	1.897997e-08	3.698320e+01	1.246720e+03
1.510000e-06	5.195243e-06	1.901803e-08	3.717869e+01	1.249198e+03
1.520000e-06	5.220497e-06	1.905383e-08	3.735941e+01	1.251420e+03
1.530000e-06	5.243789e-06	1.908589e-08	3.752610e+01	1.253409e+03
1.540000e-06	5.265298e-06	1.911323e-08	3.768002e+01	1.255188e+03
1.550000e-06	5.285111e-06	1.913642e-08	3.782181e+01	1.256779e+03
1.560000e-06	5.303091e-06	1.915744e-08	3.795048e+01	1.258196e+03
1.570000e-06	5.319015e-06	1.917459e-08	3.806444e+01	1.259447e+03
1.580000e-06	5.332969e-06	1.918852e-08	3.816430e+01	1.260533e+03
1.590000e-06	5.344904e-06	1.920221e-08	3.824971e+01	1.261447e+03
1.600000e-06	5.354612e-06	1.921461e-08	3.831918e+01	1.262181e+03
1.610000e-06	5.362294e-06	1.922489e-08	3.837415e+01	1.262730e+03
1.620000e-06	5.368156e-06	1.923338e-08	3.841611e+01	1.263093e+03
1.630000e-06	5.372174e-06	1.923854e-08	3.844486e+01	1.263277e+03
1.640000e-06	5.374209e-06	1.924247e-08	3.845942e+01	1.263293e+03
1.650000e-06	5.374290e-06	1.924350e-08	3.846000e+01	1.263158e+03
1.660000e-06	5.372619e-06	1.923572e-08	3.844804e+01	1.262886e+03
1.670000e-06	5.369333e-06	1.923157e-08	3.842453e+01	1.262488e+03
1.680000e-06	5.364259e-06	1.922552e-08	3.838822e+01	1.261966e+03
1.690000e-06	5.357249e-06	1.921614e-08	3.833805e+01	1.261310e+03
1.700000e-06	5.348575e-06	1.920473e-08	3.827598e+01	1.260508e+03
1.710000e-06	5.338345e-06	1.919373e-08	3.820277e+01	1.259538e+03
1.720000e-06	5.326341e-06	1.920077e-08	3.811687e+01	1.258385e+03
1.730000e-06	5.312327e-06	1.916512e-08	3.801658e+01	1.257039e+03
1.740000e-06	5.296348e-06	1.905319e-08	3.790222e+01	1.255503e+03
1.750000e-06	5.278111e-06	1.906543e-08	3.777172e+01	1.253794e+03
1.760000e-06	5.257151e-06	1.906605e-08	3.762172e+01	1.251941e+03
1.770000e-06	5.233915e-06	1.907079e-08	3.745544e+01	1.249980e+03
1.780000e-06	5.209318e-06	1.915245e-08	3.727941e+01	1.247947e+03
1.790000e-06	5.183971e-06	1.891727e-08	3.709802e+01	1.245872e+03
1.800000e-06	5.157379e-06	1.892015e-08	3.690772e+01	1.243768e+03
1.810000e-06	5.128546e-06	1.902494e-08	3.670139e+01	1.241631e+03
1.820000e-06	5.097798e-06	1.875015e-08	3.648135e+01	1.239438e+03
1.830000e-06	5.065440e-06	1.886733e-08	3.624978e+01	1.237149e+03
1.840000e-06	5.031195e-06	1.892155e-08	3.600472e+01	1.234716e+03
1.850000e-06	4.995425e-06	1.863047e-08	3.574873e+01	1.232090e+03
1.860000e-06	4.957903e-06	1.877027e-08	3.548022e+01	1.229227e+03
1.870000e-06	4.918442e-06	1.871767e-08	3.519782e+01	1.226098e+03
1.880000e-06	4.877383e-06	1.858979e-08	3.490399e+01	1.222692e+03
1.890000e-06	4.834565e-06	1.869577e-08	3.459757e+01	1.219012e+03
1.900000e-06	4.790078e-06	1.843624e-08	3.427921e+01	1.215075e+03
1.910000e-06	4.743719e-06	1.843184e-08	3.394745e+01	1.210905e+03
1.920000e-06	4.695346e-06	1.846121e-08	3.360128e+01	1.206527e+03
1.930000e-06	4.645387e-06	1.827867e-08	3.324376e+01	1.201958e+03
1.940000e-06	4.593538e-06	1.830884e-08	3.287271e+01	1.197209e+03
1.950000e-06	4.539531e-06	1.817691e-08	3.248622e+01	1.192276e+03
1.960000e-06	4.483773e-06	1.813281e-08	3.208720e+01	1.187148e+03
1.970000e-06	4.426388e-06	1.803219e-08	3.167654e+01	1.181807e+03
1.980000e-06	4.367486e-06	1.785406e-08	3.125502e+01	1.176234e+03
1.990000e-06	4.307147e-06	1.790285e-08	3.082321e+01	1.170410e+03
2.000000e-06	4.245142e-06	1.776448e-08	3.037949e+01	1.164324e+03
2.010000e-06	4.181430e-06	1.768507e-08	2.992354e+01	1.157970e+03
2.020000e-06	4.116223e-06	1.756388e-08	2.945690e+01	1.151346e+03
2.030000e-06	4.049692e-06	1.742032e-08	2.898079e+01	1.144455e+03
2.040000e-06	3.981802e-06	1.739477e-08	2.849495e+01	1.137299e+03
2.050000e-06	3.912283e-06	1.721457e-08	2.799745e+01	1.129879e+03
2.060000e-06	3.841185e-06	1.714257e-08	2.748865e+01	1.122190e+03
2.070000e-06	3.768877e-06	1.702344e-08	2.697119e+01	1.114223e+03
2.080000e-06	3.695362e-06	1.687217e-08	2.644510e+01	1.105963e+03
2.090000e-06	3.620462e-06	1.675319e-08	2.590909e+01	1.097394e+03
2.100000e-06	3.544087e-06	1.659672e-08	2.536253e+01	1.088499e+03
2.110000e-06	3.466135e-06	1.650158e-08	2.480468e+01	1.079262e+03
2.120000e-06	3.386812e-06	1.632744e-08	2.423703e+01	1.069667e+03
2.130000e-06	3.306391e-06	1.618337e-08	2.366151e+01	1.059702e+03
2.140000e-06	3.224858e-06	1.602564e-08	2.307804e+01	1.049353e+03
2.150000e-06	3.142236e-06	1.585402e-08	2.248676e+01	1.038606e+03
2.160000e-06	3.058687e-06	1.569795e-08	2.188886e+01	1.027445e+03
2.170000e-06	2.974092e-06	1.551578e-08	2.128348e+01	1.015848e+03
2.180000e-06	2.888048e-06	1.534852e-08	2.066772e+01	1.003792e+03
2.190000e-06	2.800730e-06	1.514392e-08	2.004285e+01	9.912482e+02
2.200000e-06	2.712529e-06	1.494690e-08	1.941166e+01	9.781857e+02
2.210000e-06	2.623465e-06	1.474423e-08	1.877429e+01	9.645731e+02
2.220000e-06	2.533466e-06	1.452978e-08	1.813023e+01	9.503790e+02
2.230000e-06	2.442591e-06	1.429733e-08	1.747990e+01	9.355727e+02
2.240000e-06	2.351031e-06	1.405572e-08	1.682467e+01	9.201241e+02
2.250000e-06	2.258751e-06	1.382410e-08	1.616428e+01	9.040028e+02
2.260000e-06	2.165479e-06	1.357022e-08	1.549680e+01	8.871773e+02
2.270000e-06	2.071136e-06	1.330677e-08	1.482166e+01	8.696125e+02
2.280000e-06	1.975937e-06	1.302826e-08	1.414039e+01	8.512694e+02
2.290000e-06	1.880124e-06	1.273389e-08	1.345472e+01	8.321035e+02
2.300000e-06	1.783734e-06	1.242313e-08	1.276493e+01	8.120645e+02
2.310000e-06	1.686798e-06	1.210271e-08	1.207122e+01	7.910966e+02
2.320000e-06	1.589346e-06	1.177531e-08	1.137383e+01	7.691393e+02
2.330000e-06	1.491290e-06	1.143041e-08	1.067211e+01	7.461279e+02
2.340000e-06	1.392679e-06	1.106172e-08	9.966420e+00	7.219951e+02
2.350000e-06	1.293675e-06	1.067139e-08	9.257921e+00	6.966732e+02
2.360000e-06	1.194407e-06	1.026843e-08	8.547526e+00	6.700967e+02
2.370000e-06	1.094973e-06	9.848766e-09	7.835951e+00	6.422060e+02
2.380000e-06	9.953327e-07	9.409652e-09	7.122894e+00	6.129533e+02
2.390000e-06	8.954187e-07	8.945994e-09	6.407880e+00	5.823083e+02
2.400000e-06	7.951491e-07	8.455900e-09	5.690321e+00	5.502655e+02
2.410000e-06	6.944806e-07	7.941757e-09	4.969908e+00	5.168513e+02
2.420000e-06	5.934540e-07	7.406037e-09	4.246931e+00	4.821291e+02
2.430000e-06	4.921095e-07	6.854677e-09	3.521680e+00	4.462017e+02
2.440000e-06	3.904727e-07	6.292513e-09	2.794338e+00	4.092102e+02
2.450000e-06	2.886276e-07	5.717141e-09	2.065504e+00	3.713270e+02
2.460000e-06	1.865983e-07	5.128229e-09	1.335352e+00	3.327447e+02
2.470000e-06	8.436441e-08	4.528059e-09	6.037366e-01	2.936600e+02
2.480000e-06	-1.788719e-08	3.921353e-09	-1.280060e-01	2.542554e+02
2.490000e-06	-1.200334e-07	3.311369e-09	-8.589945e-01	2.146802e+02
2.500000e-06	-2.221046e-07	2.700667e-09	-1.589446e+00	1.750347e+02
2.510000e-06	-3.240688e-07	2.092137e-09	-2.319132e+00	1.353583e+02
2.520000e-06	-4.259249e-07	1.484172e-09	-3.048044e+00	9.562604e+01
2.530000e-06	-5.276333e-07	8.748459e-10	-3.775899e+00	5.575332e+01
2.540000e-06	-6.290334e-07	2.610368e-10	-4.501548e+00	1.560911e+01
2.550000e-06	-7.300908e-07	-3.600169e-10	-5.224745e+00	-2.496301e+01
2.560000e-06	-8.308184e-07	-9.895847e-10	-5.945581e+00	-6.611892e+01
2.570000e-06	-9.311350e-07	-1.630184e-09	-6.663476e+00	-1.079862e+02
2.580000e-06	-1.031040e-06	-2.280989e-09	-7.378424e+00	-1.506383e+02
2.590000e-06	-1.130674e-06	-2.943283e-09	-8.091434e+00	-1.940741e+02
2.600000e-06	-1.230030e-06	-3.619578e-09	-8.802457e+00	-2.382057e+02
2.610000e-06	-1.329019e-06	-4.304141e-09	-9.510852e+00	-2.828567e+02
2.620000e-06	-1.427565e-06	-4.993588e-09	-1.021607e+01	-3.277705e+02
2.630000e-06	-1.525575e-06	-5.682923e-09	-1.091747e+01	-3.726280e+02
2.640000e-06	-1.623018e-06	-6.363978e-09	-1.161479e+01	-4.170729e+02
2.650000e-06	-1.719859e-06	-7.030907e-09	-1.230782e+01	-4.607401e+02
2.660000e-06	-1.816144e-06	-7.680924e-09	-1.299686e+01	-5.032845e+02
2.670000e-06	-1.911944e-06	-8.311484e-09	-1.368243e+01	-5.444064e+02
2.680000e-06	-2.007155e-06	-8.917513e-09	-1.436379e+01	-5.838702e+02
2.690000e-06	-2.101594e-06	-9.496189e-09	-1.503963e+01	-6.215154e+02
2.700000e-06	-2.195030e-06	-1.004579e-08	-1.570828e+01	-6.572577e+02
2.710000e-06	-2.287419e-06	-1.056490e-08	-1.636945e+01	-6.910835e+02
2.720000e-06	-2.378959e-06	-1.105253e-08	-1.702453e+01	-7.230361e+02
2.730000e-06	-2.469705e-06	-1.151291e-08	-1.767393e+01	-7.531999e+02
2.740000e-06	-2.559569e-06	-1.194862e-08	-1.831703e+01	-7.816825e+02
2.750000e-06	-2.648511e-06	-1.236154e-08	-1.895353e+01	-8.085990e+02
2.760000e-06	-2.736594e-06	-1.275408e-08	-1.958387e+01	-8.340594e+02
2.770000e-06	-2.823938e-06	-1.312385e-08	-2.020893e+01	-8.581614e+02
2.780000e-06	-2.910307e-06	-1.347263e-08	-2.082701e+01	-8.809876e+02
2.790000e-06	-2.995415e-06	-1.380250e-08	-2.143607e+01	-9.026067e+02
2.800000e-06	-3.079415e-06	-1.411587e-08	-2.203720e+01	-9.230780e+02
2.810000e-06	-3.162421e-06	-1.441314e-08	-2.263122e+01	-9.424561e+02
2.820000e-06	-3.244362e-06	-1.469268e-08	-2.321761e+01	-9.607961e+02
2.830000e-06	-3.325216e-06	-1.495632e-08	-2.379623e+01	-9.781559e+02
2.840000e-06	-3.405010e-06	-1.520601e-08	-2.436725e+01	-9.945976e+02
2.850000e-06	-3.483561e-06	-1.544494e-08	-2.492939e+01	-1.010185e+03
2.860000e-06	-3.560592e-06	-1.567431e-08	-2.548064e+01	-1.024983e+03
2.870000e-06	-3.636105e-06	-1.589374e-08	-2.602104e+01	-1.039051e+03
2.880000e-06	-3.710233e-06	-1.610452e-08	-2.655152e+01	-1.052442e+03
2.890000e-06	-3.782979e-06	-1.630345e-08	-2.707211e+01	-1.065198e+03
2.900000e-06	-3.854508e-06	-1.648885e-08	-2.758400e+01	-1.077354e+03
2.910000e-06	-3.924642e-06	-1.666150e-08	-2.808590e+01	-1.088934e+03
2.920000e-06	-3.993136e-06	-1.682547e-08	-2.857606e+01	-1.099956e+03
2.930000e-06	-4.060161e-06	-1.698366e-08	-2.905571e+01	-1.110434e+03
2.940000e-06	-4.125741e-06	-1.713430e-08	-2.952502e+01	-1.120382e+03
