# Temperatura_=_43.95
# Concentracion g/m^3_=_28200.0
# C_Vs_to_Am_M_A/Vsm_=_65563218390.804596
# pendiente_HvsI_1/m_=_3716.3
# ordenada_HvsI_A/m_=_1297.0
# frecuencia_Hz_=_301748.5087518909

Tiempo_(s)	Campo_(V.s)	Magnetizacion_(V.s)	Campo_(kA/m)	Magnetizacion_(A/m)
0.000000e+00	-5.326560e-06	-2.050306e-08	-3.830236e+01	-1.341108e+03
1.000000e-08	-5.324222e-06	-2.050241e-08	-3.828555e+01	-1.340770e+03
2.000000e-08	-5.320044e-06	-2.049401e-08	-3.825551e+01	-1.340297e+03
3.000000e-08	-5.314278e-06	-2.048464e-08	-3.821404e+01	-1.339680e+03
4.000000e-08	-5.306927e-06	-2.047394e-08	-3.816118e+01	-1.338906e+03
5.000000e-08	-5.297918e-06	-2.045581e-08	-3.809640e+01	-1.337958e+03
6.000000e-08	-5.286919e-06	-2.043083e-08	-3.801731e+01	-1.336820e+03
7.000000e-08	-5.273996e-06	-2.039296e-08	-3.792438e+01	-1.335487e+03
8.000000e-08	-5.259137e-06	-2.036825e-08	-3.781754e+01	-1.333961e+03
9.000000e-08	-5.242014e-06	-2.041867e-08	-3.769441e+01	-1.332258e+03
1.000000e-07	-5.222734e-06	-2.040503e-08	-3.755577e+01	-1.330406e+03
1.100000e-07	-5.201563e-06	-2.032048e-08	-3.740353e+01	-1.328436e+03
1.200000e-07	-5.178619e-06	-2.028561e-08	-3.723854e+01	-1.326381e+03
1.300000e-07	-5.154150e-06	-2.016781e-08	-3.706259e+01	-1.324267e+03
1.400000e-07	-5.128118e-06	-2.012321e-08	-3.687540e+01	-1.322108e+03
1.500000e-07	-5.100392e-06	-2.026351e-08	-3.667603e+01	-1.319901e+03
1.600000e-07	-5.071162e-06	-2.009422e-08	-3.646584e+01	-1.317627e+03
1.700000e-07	-5.040502e-06	-2.003304e-08	-3.624537e+01	-1.315257e+03
1.800000e-07	-5.008029e-06	-2.015207e-08	-3.601186e+01	-1.312748e+03
1.900000e-07	-4.973478e-06	-1.992587e-08	-3.576341e+01	-1.310060e+03
2.000000e-07	-4.937374e-06	-1.991812e-08	-3.550379e+01	-1.307154e+03
2.100000e-07	-4.899658e-06	-1.998710e-08	-3.523258e+01	-1.304004e+03
2.200000e-07	-4.860180e-06	-1.980104e-08	-3.494871e+01	-1.300592e+03
2.300000e-07	-4.818921e-06	-1.977365e-08	-3.465202e+01	-1.296917e+03
2.400000e-07	-4.775634e-06	-1.971324e-08	-3.434075e+01	-1.292984e+03
2.500000e-07	-4.730555e-06	-1.959505e-08	-3.401659e+01	-1.288808e+03
2.600000e-07	-4.683680e-06	-1.963653e-08	-3.367952e+01	-1.284401e+03
2.700000e-07	-4.634828e-06	-1.952846e-08	-3.332823e+01	-1.279778e+03
2.800000e-07	-4.583868e-06	-1.939798e-08	-3.296180e+01	-1.274944e+03
2.900000e-07	-4.530899e-06	-1.933370e-08	-3.258090e+01	-1.269899e+03
3.000000e-07	-4.476274e-06	-1.925351e-08	-3.218810e+01	-1.264637e+03
3.100000e-07	-4.420184e-06	-1.918055e-08	-3.178477e+01	-1.259146e+03
3.200000e-07	-4.362287e-06	-1.911447e-08	-3.136844e+01	-1.253415e+03
3.300000e-07	-4.302604e-06	-1.903946e-08	-3.093927e+01	-1.247431e+03
3.400000e-07	-4.241498e-06	-1.890000e-08	-3.049987e+01	-1.241184e+03
3.500000e-07	-4.178991e-06	-1.879102e-08	-3.005039e+01	-1.234667e+03
3.600000e-07	-4.115133e-06	-1.868811e-08	-2.959120e+01	-1.227877e+03
3.700000e-07	-4.049721e-06	-1.858106e-08	-2.912083e+01	-1.220810e+03
3.800000e-07	-3.982651e-06	-1.851699e-08	-2.863855e+01	-1.213467e+03
3.900000e-07	-3.914126e-06	-1.838181e-08	-2.814580e+01	-1.205842e+03
4.000000e-07	-3.844318e-06	-1.822651e-08	-2.764382e+01	-1.197931e+03
4.100000e-07	-3.773323e-06	-1.811438e-08	-2.713330e+01	-1.189726e+03
4.200000e-07	-3.701173e-06	-1.798409e-08	-2.661449e+01	-1.181215e+03
4.300000e-07	-3.627546e-06	-1.785130e-08	-2.608505e+01	-1.172386e+03
4.400000e-07	-3.552259e-06	-1.771056e-08	-2.554367e+01	-1.163225e+03
4.500000e-07	-3.475560e-06	-1.756227e-08	-2.499214e+01	-1.153716e+03
4.600000e-07	-3.397521e-06	-1.740011e-08	-2.443098e+01	-1.143845e+03
4.700000e-07	-3.318032e-06	-1.724875e-08	-2.385939e+01	-1.133596e+03
4.800000e-07	-3.237262e-06	-1.710512e-08	-2.327858e+01	-1.122954e+03
4.900000e-07	-3.155386e-06	-1.693249e-08	-2.268983e+01	-1.111902e+03
5.000000e-07	-3.072396e-06	-1.675348e-08	-2.209306e+01	-1.100421e+03
5.100000e-07	-2.988503e-06	-1.656388e-08	-2.148980e+01	-1.088491e+03
5.200000e-07	-2.903759e-06	-1.637170e-08	-2.088042e+01	-1.076088e+03
5.300000e-07	-2.818066e-06	-1.617341e-08	-2.026422e+01	-1.063185e+03
5.400000e-07	-2.731393e-06	-1.596883e-08	-1.964097e+01	-1.049754e+03
5.500000e-07	-2.643887e-06	-1.576091e-08	-1.901173e+01	-1.035763e+03
5.600000e-07	-2.555504e-06	-1.553387e-08	-1.837618e+01	-1.021178e+03
5.700000e-07	-2.465893e-06	-1.529870e-08	-1.773181e+01	-1.005964e+03
5.800000e-07	-2.375067e-06	-1.506048e-08	-1.707869e+01	-9.900856e+02
5.900000e-07	-2.283399e-06	-1.481460e-08	-1.641952e+01	-9.735054e+02
6.000000e-07	-2.191033e-06	-1.454621e-08	-1.575533e+01	-9.561859e+02
6.100000e-07	-2.097927e-06	-1.426192e-08	-1.508582e+01	-9.380886e+02
6.200000e-07	-2.004059e-06	-1.396893e-08	-1.441084e+01	-9.191739e+02
6.300000e-07	-1.909452e-06	-1.366576e-08	-1.373053e+01	-8.993997e+02
6.400000e-07	-1.814223e-06	-1.335498e-08	-1.304576e+01	-8.787208e+02
6.500000e-07	-1.718468e-06	-1.302904e-08	-1.235720e+01	-8.570869e+02
6.600000e-07	-1.622099e-06	-1.268200e-08	-1.166423e+01	-8.344414e+02
6.700000e-07	-1.524987e-06	-1.231491e-08	-1.096592e+01	-8.107203e+02
6.800000e-07	-1.427133e-06	-1.193292e-08	-1.026226e+01	-7.858517e+02
6.900000e-07	-1.328563e-06	-1.153403e-08	-9.553463e+00	-7.597572e+02
7.000000e-07	-1.229453e-06	-1.111686e-08	-8.840781e+00	-7.323548e+02
7.100000e-07	-1.129970e-06	-1.067867e-08	-8.125419e+00	-7.035638e+02
7.200000e-07	-1.030202e-06	-1.021684e-08	-7.408002e+00	-6.733117e+02
7.300000e-07	-9.301968e-07	-9.729470e-09	-6.688883e+00	-6.415428e+02
7.400000e-07	-8.299791e-07	-9.219328e-09	-5.968234e+00	-6.082276e+02
7.500000e-07	-7.295193e-07	-8.691994e-09	-5.245846e+00	-5.733708e+02
7.600000e-07	-6.287824e-07	-8.141678e-09	-4.521464e+00	-5.370187e+02
7.700000e-07	-5.278750e-07	-7.567516e-09	-3.795856e+00	-4.992627e+02
7.800000e-07	-4.268498e-07	-6.974224e-09	-3.069402e+00	-4.602378e+02
7.900000e-07	-3.256700e-07	-6.364044e-09	-2.341836e+00	-4.201174e+02
8.000000e-07	-2.243006e-07	-5.737759e-09	-1.612906e+00	-3.791020e+02
8.100000e-07	-1.227782e-07	-5.100551e-09	-8.828767e-01	-3.374035e+02
8.200000e-07	-2.119715e-08	-4.458937e-09	-1.524250e-01	-2.952269e+02
8.300000e-07	8.040658e-08	-3.813996e-09	5.781896e-01	-2.527511e+02
8.400000e-07	1.820069e-07	-3.165241e-09	1.308780e+00	-2.101111e+02
8.500000e-07	2.835854e-07	-2.514192e-09	2.039213e+00	-1.673841e+02
8.600000e-07	3.850518e-07	-1.862524e-09	2.768840e+00	-1.245823e+02
8.700000e-07	4.863694e-07	-1.208938e-09	3.497398e+00	-8.165335e+01
8.800000e-07	5.875838e-07	-5.522667e-10	4.225213e+00	-3.848965e+01
8.900000e-07	6.885733e-07	1.111502e-10	4.951410e+00	5.054416e+00
9.000000e-07	7.893101e-07	7.819233e-10	5.675791e+00	4.913872e+01
9.100000e-07	8.898342e-07	1.462571e-09	6.398642e+00	9.390984e+01
9.200000e-07	9.900674e-07	2.154292e-09	7.119402e+00	1.394731e+02
9.300000e-07	1.090045e-06	2.858697e-09	7.838323e+00	1.858678e+02
9.400000e-07	1.189731e-06	3.577906e-09	8.555150e+00	2.330492e+02
9.500000e-07	1.289036e-06	4.307487e-09	9.269232e+00	2.808798e+02
9.600000e-07	1.387856e-06	5.041793e-09	9.979830e+00	3.291314e+02
9.700000e-07	1.485979e-06	5.777021e-09	1.068541e+01	3.774978e+02
9.800000e-07	1.583269e-06	6.510971e-09	1.138501e+01	4.256166e+02
9.900000e-07	1.679765e-06	7.235230e-09	1.207890e+01	4.730979e+02
1.000000e-06	1.775600e-06	7.942107e-09	1.276803e+01	5.195550e+02
1.010000e-06	1.870824e-06	8.627259e-09	1.345277e+01	5.646342e+02
1.020000e-06	1.965365e-06	9.284844e-09	1.413259e+01	6.080394e+02
1.030000e-06	2.059198e-06	9.912711e-09	1.480733e+01	6.495490e+02
1.040000e-06	2.152343e-06	1.050998e-08	1.547712e+01	6.890233e+02
1.050000e-06	2.244829e-06	1.107754e-08	1.614218e+01	7.264029e+02
1.060000e-06	2.336712e-06	1.161397e-08	1.680289e+01	7.616982e+02
1.070000e-06	2.427864e-06	1.212131e-08	1.745835e+01	7.949745e+02
1.080000e-06	2.518030e-06	1.259865e-08	1.810671e+01	8.263337e+02
1.090000e-06	2.607009e-06	1.304834e-08	1.874654e+01	8.558965e+02
1.100000e-06	2.694927e-06	1.347061e-08	1.937875e+01	8.837877e+02
1.110000e-06	2.781999e-06	1.386853e-08	2.000487e+01	9.101255e+02
1.120000e-06	2.868220e-06	1.424468e-08	2.062487e+01	9.350159e+02
1.130000e-06	2.953520e-06	1.460268e-08	2.123825e+01	9.585518e+02
1.140000e-06	3.037878e-06	1.494256e-08	2.184485e+01	9.808143e+02
1.150000e-06	3.121340e-06	1.526242e-08	2.244501e+01	1.001877e+03
1.160000e-06	3.203766e-06	1.556565e-08	2.303772e+01	1.021809e+03
1.170000e-06	3.284898e-06	1.585292e-08	2.362112e+01	1.040677e+03
1.180000e-06	3.364796e-06	1.612483e-08	2.419566e+01	1.058549e+03
1.190000e-06	3.443555e-06	1.637984e-08	2.476200e+01	1.075489e+03
1.200000e-06	3.521143e-06	1.662407e-08	2.531993e+01	1.091561e+03
1.210000e-06	3.597554e-06	1.685722e-08	2.586938e+01	1.106823e+03
1.220000e-06	3.672563e-06	1.707695e-08	2.640876e+01	1.121327e+03
1.230000e-06	3.745920e-06	1.728452e-08	2.693626e+01	1.135119e+03
1.240000e-06	3.817727e-06	1.748184e-08	2.745261e+01	1.148238e+03
1.250000e-06	3.888140e-06	1.766961e-08	2.795893e+01	1.160719e+03
1.260000e-06	3.957201e-06	1.784937e-08	2.845554e+01	1.172593e+03
1.270000e-06	4.024990e-06	1.802025e-08	2.894300e+01	1.183889e+03
1.280000e-06	4.091299e-06	1.818350e-08	2.941981e+01	1.194633e+03
1.290000e-06	4.155949e-06	1.833988e-08	2.988470e+01	1.204849e+03
1.300000e-06	4.219060e-06	1.848910e-08	3.033852e+01	1.214558e+03
1.310000e-06	4.280738e-06	1.863071e-08	3.078203e+01	1.223777e+03
1.320000e-06	4.341122e-06	1.876495e-08	3.121624e+01	1.232520e+03
1.330000e-06	4.400140e-06	1.889183e-08	3.164063e+01	1.240796e+03
1.340000e-06	4.457380e-06	1.901060e-08	3.205224e+01	1.248614e+03
1.350000e-06	4.512839e-06	1.912072e-08	3.245103e+01	1.255983e+03
1.360000e-06	4.566736e-06	1.922386e-08	3.283860e+01	1.262919e+03
1.370000e-06	4.618908e-06	1.932139e-08	3.321376e+01	1.269442e+03
1.380000e-06	4.669063e-06	1.941310e-08	3.357442e+01	1.275580e+03
1.390000e-06	4.717265e-06	1.950010e-08	3.392103e+01	1.281368e+03
1.400000e-06	4.763739e-06	1.958396e-08	3.425522e+01	1.286843e+03
1.410000e-06	4.808642e-06	1.966514e-08	3.457810e+01	1.292043e+03
1.420000e-06	4.852071e-06	1.974259e-08	3.489040e+01	1.296999e+03
1.430000e-06	4.893670e-06	1.981576e-08	3.518952e+01	1.301732e+03
1.440000e-06	4.933375e-06	1.988468e-08	3.547504e+01	1.306251e+03
1.450000e-06	4.971455e-06	1.994813e-08	3.574886e+01	1.310552e+03
1.460000e-06	5.007888e-06	2.000682e-08	3.601084e+01	1.314621e+03
1.470000e-06	5.042587e-06	2.006348e-08	3.626036e+01	1.318439e+03
1.480000e-06	5.075368e-06	2.011817e-08	3.649608e+01	1.321983e+03
1.490000e-06	5.106332e-06	2.016876e-08	3.671874e+01	1.325240e+03
1.500000e-06	5.135700e-06	2.021377e-08	3.692992e+01	1.328203e+03
1.510000e-06	5.163386e-06	2.025491e-08	3.712901e+01	1.330877e+03
1.520000e-06	5.189057e-06	2.029144e-08	3.731360e+01	1.333275e+03
1.530000e-06	5.212653e-06	2.032382e-08	3.748328e+01	1.335420e+03
1.540000e-06	5.234471e-06	2.035340e-08	3.764016e+01	1.337336e+03
1.550000e-06	5.254652e-06	2.037972e-08	3.778528e+01	1.339045e+03
1.560000e-06	5.273005e-06	2.040150e-08	3.791725e+01	1.340563e+03
1.570000e-06	5.289352e-06	2.041865e-08	3.803480e+01	1.341899e+03
1.580000e-06	5.303720e-06	2.043358e-08	3.813812e+01	1.343053e+03
1.590000e-06	5.316112e-06	2.044811e-08	3.822723e+01	1.344023e+03
1.600000e-06	5.326393e-06	2.046210e-08	3.830116e+01	1.344804e+03
1.610000e-06	5.334588e-06	2.047435e-08	3.836009e+01	1.345393e+03
1.620000e-06	5.340867e-06	2.048425e-08	3.840524e+01	1.345792e+03
1.630000e-06	5.345336e-06	2.049003e-08	3.843738e+01	1.346011e+03
1.640000e-06	5.347904e-06	2.049119e-08	3.845584e+01	1.346063e+03
1.650000e-06	5.348482e-06	2.049124e-08	3.846000e+01	1.345962e+03
1.660000e-06	5.347233e-06	2.048527e-08	3.845101e+01	1.345719e+03
1.670000e-06	5.344305e-06	2.047661e-08	3.842996e+01	1.345342e+03
1.680000e-06	5.339829e-06	2.047134e-08	3.839778e+01	1.344828e+03
1.690000e-06	5.333496e-06	2.046293e-08	3.835224e+01	1.344167e+03
1.700000e-06	5.325255e-06	2.045309e-08	3.829298e+01	1.343344e+03
1.710000e-06	5.315485e-06	2.044163e-08	3.822272e+01	1.342342e+03
1.720000e-06	5.304084e-06	2.043860e-08	3.814074e+01	1.341148e+03
1.730000e-06	5.290692e-06	2.043716e-08	3.804444e+01	1.339758e+03
1.740000e-06	5.275272e-06	2.032373e-08	3.793356e+01	1.338178e+03
1.750000e-06	5.257738e-06	2.027154e-08	3.780747e+01	1.336429e+03
1.760000e-06	5.237633e-06	2.030255e-08	3.766290e+01	1.334539e+03
1.770000e-06	5.215010e-06	2.028504e-08	3.750023e+01	1.332541e+03
1.780000e-06	5.190745e-06	2.038462e-08	3.732574e+01	1.330466e+03
1.790000e-06	5.165727e-06	2.026191e-08	3.714584e+01	1.328338e+03
1.800000e-06	5.139768e-06	2.007318e-08	3.695917e+01	1.326165e+03
1.810000e-06	5.111755e-06	2.025395e-08	3.675773e+01	1.323940e+03
1.820000e-06	5.081637e-06	2.010165e-08	3.654116e+01	1.321642e+03
1.830000e-06	5.049919e-06	1.997989e-08	3.631308e+01	1.319235e+03
1.840000e-06	5.016291e-06	2.021491e-08	3.607127e+01	1.316679e+03
1.850000e-06	4.981005e-06	1.999436e-08	3.581754e+01	1.313931e+03
1.860000e-06	4.944144e-06	1.991282e-08	3.555247e+01	1.310957e+03
1.870000e-06	4.905290e-06	2.002709e-08	3.527308e+01	1.307732e+03
1.880000e-06	4.864725e-06	1.982737e-08	3.498138e+01	1.304244e+03
1.890000e-06	4.822453e-06	1.989948e-08	3.467742e+01	1.300494e+03
1.900000e-06	4.778449e-06	1.979342e-08	3.436099e+01	1.296489e+03
1.910000e-06	4.732758e-06	1.958825e-08	3.403243e+01	1.292244e+03
1.920000e-06	4.685092e-06	1.974045e-08	3.368967e+01	1.287774e+03
1.930000e-06	4.635712e-06	1.959068e-08	3.333460e+01	1.283089e+03
1.940000e-06	4.584632e-06	1.951277e-08	3.296729e+01	1.278195e+03
1.950000e-06	4.531427e-06	1.947793e-08	3.258470e+01	1.273088e+03
1.960000e-06	4.476349e-06	1.933060e-08	3.218864e+01	1.267760e+03
1.970000e-06	4.419658e-06	1.929952e-08	3.178098e+01	1.262202e+03
1.980000e-06	4.361420e-06	1.911024e-08	3.136221e+01	1.256399e+03
1.990000e-06	4.301808e-06	1.908254e-08	3.093354e+01	1.250339e+03
2.000000e-06	4.240725e-06	1.905082e-08	3.049431e+01	1.244015e+03
2.010000e-06	4.177945e-06	1.889530e-08	3.004287e+01	1.237420e+03
2.020000e-06	4.113453e-06	1.880933e-08	2.957912e+01	1.230550e+03
2.030000e-06	4.047478e-06	1.862288e-08	2.910471e+01	1.223404e+03
2.040000e-06	3.980235e-06	1.858197e-08	2.862117e+01	1.215979e+03
2.050000e-06	3.911654e-06	1.847043e-08	2.812802e+01	1.208272e+03
2.060000e-06	3.841423e-06	1.831323e-08	2.762300e+01	1.200277e+03
2.070000e-06	3.769675e-06	1.824241e-08	2.710707e+01	1.191985e+03
2.080000e-06	3.696745e-06	1.806602e-08	2.658264e+01	1.183384e+03
2.090000e-06	3.622491e-06	1.794622e-08	2.604870e+01	1.174461e+03
2.100000e-06	3.546847e-06	1.779505e-08	2.550476e+01	1.165201e+03
2.110000e-06	3.469741e-06	1.766700e-08	2.495030e+01	1.155590e+03
2.120000e-06	3.391090e-06	1.752435e-08	2.438473e+01	1.145611e+03
2.130000e-06	3.311192e-06	1.733721e-08	2.381020e+01	1.135251e+03
2.140000e-06	3.230241e-06	1.719081e-08	2.322810e+01	1.124492e+03
2.150000e-06	3.148194e-06	1.700447e-08	2.263811e+01	1.113319e+03
2.160000e-06	3.065121e-06	1.684478e-08	2.204075e+01	1.101711e+03
2.170000e-06	2.981162e-06	1.666347e-08	2.143702e+01	1.089648e+03
2.180000e-06	2.896004e-06	1.647577e-08	2.082466e+01	1.077104e+03
2.190000e-06	2.809460e-06	1.627625e-08	2.020234e+01	1.064052e+03
2.200000e-06	2.721857e-06	1.605736e-08	1.957239e+01	1.050464e+03
2.210000e-06	2.633391e-06	1.585588e-08	1.893625e+01	1.036306e+03
2.220000e-06	2.544037e-06	1.562849e-08	1.829372e+01	1.021544e+03
2.230000e-06	2.453713e-06	1.538937e-08	1.764422e+01	1.006143e+03
2.240000e-06	2.362624e-06	1.513477e-08	1.698922e+01	9.900670e+02
2.250000e-06	2.270929e-06	1.489133e-08	1.632986e+01	9.732786e+02
2.260000e-06	2.178468e-06	1.463197e-08	1.566498e+01	9.557400e+02
2.270000e-06	2.085019e-06	1.435136e-08	1.499301e+01	9.374124e+02
2.280000e-06	1.990534e-06	1.406220e-08	1.431358e+01	9.182557e+02
2.290000e-06	1.895219e-06	1.375417e-08	1.362819e+01	8.982270e+02
2.300000e-06	1.799309e-06	1.343420e-08	1.293852e+01	8.772798e+02
2.310000e-06	1.702858e-06	1.309927e-08	1.224495e+01	8.553621e+02
2.320000e-06	1.605880e-06	1.275640e-08	1.154760e+01	8.324154e+02
2.330000e-06	1.508413e-06	1.239292e-08	1.084673e+01	8.083732e+02
2.340000e-06	1.410354e-06	1.200635e-08	1.014161e+01	7.831617e+02
2.350000e-06	1.311755e-06	1.159730e-08	9.432598e+00	7.567011e+02
2.360000e-06	1.212828e-06	1.117363e-08	8.721232e+00	7.289092e+02
2.370000e-06	1.113672e-06	1.073527e-08	8.008222e+00	6.997067e+02
2.380000e-06	1.014286e-06	1.027549e-08	7.293554e+00	6.690251e+02
2.390000e-06	9.146786e-07	9.786770e-09	6.577293e+00	6.368153e+02
2.400000e-06	8.148609e-07	9.264896e-09	5.859522e+00	6.030565e+02
2.410000e-06	7.148234e-07	8.721198e-09	5.140170e+00	5.677650e+02
2.420000e-06	6.144964e-07	8.156058e-09	4.418736e+00	5.309997e+02
2.430000e-06	5.138644e-07	7.569984e-09	3.695109e+00	4.928647e+02
2.440000e-06	4.130338e-07	6.969517e-09	2.970054e+00	4.535068e+02
2.450000e-06	3.120705e-07	6.356058e-09	2.244045e+00	4.131086e+02
2.460000e-06	2.109388e-07	5.726943e-09	1.516824e+00	3.718755e+02
2.470000e-06	1.096645e-07	5.086376e-09	7.885785e-01	3.300194e+02
2.480000e-06	8.313442e-09	4.440250e-09	5.978051e-02	2.877398e+02
2.490000e-06	-9.308658e-08	3.790818e-09	-6.693693e-01	2.452049e+02
2.500000e-06	-1.944667e-07	3.138037e-09	-1.398376e+00	2.025341e+02
2.510000e-06	-2.957714e-07	2.483145e-09	-2.126840e+00	1.597865e+02
2.520000e-06	-3.969452e-07	1.828229e-09	-2.854363e+00	1.169556e+02
2.530000e-06	-4.979804e-07	1.171049e-09	-3.580890e+00	7.397173e+01
2.540000e-06	-5.988439e-07	5.102738e-10	-4.306182e+00	3.071448e+01
2.550000e-06	-6.994534e-07	-1.573645e-10	-5.029647e+00	-1.296850e+01
2.560000e-06	-7.997560e-07	-8.346809e-10	-5.750906e+00	-5.723622e+01
2.570000e-06	-8.997725e-07	-1.524576e-09	-6.470106e+00	-1.022262e+02
2.580000e-06	-9.995352e-07	-2.225828e-09	-7.187482e+00	-1.480272e+02
2.590000e-06	-1.099000e-06	-2.935419e-09	-7.902717e+00	-1.946561e+02
2.600000e-06	-1.198099e-06	-3.658304e-09	-8.615323e+00	-2.420419e+02
2.610000e-06	-1.296774e-06	-4.391930e-09	-9.324875e+00	-2.900207e+02
2.620000e-06	-1.394937e-06	-5.130644e-09	-1.003075e+01	-3.383401e+02
2.630000e-06	-1.492549e-06	-5.870811e-09	-1.073266e+01	-3.866754e+02
2.640000e-06	-1.589624e-06	-6.605774e-09	-1.143070e+01	-4.346531e+02
2.650000e-06	-1.686205e-06	-7.328082e-09	-1.212520e+01	-4.818812e+02
2.660000e-06	-1.782303e-06	-8.033233e-09	-1.281623e+01	-5.279794e+02
2.670000e-06	-1.877885e-06	-8.718490e-09	-1.350354e+01	-5.726083e+02
2.680000e-06	-1.972893e-06	-9.377285e-09	-1.418673e+01	-6.154918e+02
2.690000e-06	-2.067064e-06	-1.000475e-08	-1.486389e+01	-6.564314e+02
2.700000e-06	-2.160185e-06	-1.059972e-08	-1.553351e+01	-6.953109e+02
2.710000e-06	-2.252329e-06	-1.116396e-08	-1.619610e+01	-7.320919e+02
2.720000e-06	-2.343671e-06	-1.169774e-08	-1.685293e+01	-7.668026e+02
2.730000e-06	-2.434234e-06	-1.219841e-08	-1.750415e+01	-7.995205e+02
2.740000e-06	-2.523928e-06	-1.266988e-08	-1.814912e+01	-8.303545e+02
2.750000e-06	-2.612738e-06	-1.311602e-08	-1.878774e+01	-8.594280e+02
2.760000e-06	-2.700796e-06	-1.353630e-08	-1.942095e+01	-8.868646e+02
2.770000e-06	-2.788080e-06	-1.393351e-08	-2.004859e+01	-9.127794e+02
2.780000e-06	-2.874241e-06	-1.431080e-08	-2.066816e+01	-9.372748e+02
2.790000e-06	-2.959152e-06	-1.466617e-08	-2.127874e+01	-9.604398e+02
2.800000e-06	-3.042986e-06	-1.499966e-08	-2.188158e+01	-9.823530e+02
2.810000e-06	-3.125833e-06	-1.531506e-08	-2.247732e+01	-1.003086e+03
2.820000e-06	-3.207689e-06	-1.561528e-08	-2.306593e+01	-1.022708e+03
2.830000e-06	-3.288509e-06	-1.590016e-08	-2.364709e+01	-1.041286e+03
2.840000e-06	-3.368279e-06	-1.616942e-08	-2.422071e+01	-1.058886e+03
2.850000e-06	-3.446819e-06	-1.642490e-08	-2.478547e+01	-1.075573e+03
2.860000e-06	-3.523816e-06	-1.666697e-08	-2.533914e+01	-1.091409e+03
2.870000e-06	-3.599291e-06	-1.689774e-08	-2.588187e+01	-1.106450e+03
2.880000e-06	-3.673362e-06	-1.712025e-08	-2.641450e+01	-1.120747e+03
2.890000e-06	-3.746124e-06	-1.733313e-08	-2.693773e+01	-1.134343e+03
2.900000e-06	-3.817697e-06	-1.753398e-08	-2.745239e+01	-1.147278e+03
2.910000e-06	-3.887812e-06	-1.772188e-08	-2.795657e+01	-1.159583e+03
2.920000e-06	-3.956297e-06	-1.789811e-08	-2.844904e+01	-1.171290e+03
2.930000e-06	-4.023375e-06	-1.806589e-08	-2.893138e+01	-1.182426e+03
2.940000e-06	-4.089116e-06	-1.822683e-08	-2.940412e+01	-1.193018e+03
