# Temperatura_=_71.21
# Concentracion g/m^3_=_28200.0
# C_Vs_to_Am_M_A/Vsm_=_65563218390.804596
# pendiente_HvsI_1/m_=_3716.3
# ordenada_HvsI_A/m_=_1297.0
# frecuencia_Hz_=_301748.4600319928

Tiempo_(s)	Campo_(V.s)	Magnetizacion_(V.s)	Campo_(kA/m)	Magnetizacion_(A/m)
0.000000e+00	-5.325281e-06	-2.343153e-08	-3.829847e+01	-1.533475e+03
1.000000e-08	-5.322927e-06	-2.342911e-08	-3.828154e+01	-1.533012e+03
2.000000e-08	-5.318708e-06	-2.341773e-08	-3.825119e+01	-1.532383e+03
3.000000e-08	-5.312920e-06	-2.340426e-08	-3.820956e+01	-1.531587e+03
4.000000e-08	-5.305536e-06	-2.338828e-08	-3.815646e+01	-1.530614e+03
5.000000e-08	-5.296315e-06	-2.336504e-08	-3.809015e+01	-1.529450e+03
6.000000e-08	-5.285038e-06	-2.333720e-08	-3.800904e+01	-1.528078e+03
7.000000e-08	-5.271950e-06	-2.329742e-08	-3.791492e+01	-1.526487e+03
8.000000e-08	-5.256926e-06	-2.327566e-08	-3.780687e+01	-1.524676e+03
9.000000e-08	-5.239658e-06	-2.332645e-08	-3.768268e+01	-1.522655e+03
1.000000e-07	-5.220296e-06	-2.329906e-08	-3.754343e+01	-1.520448e+03
1.100000e-07	-5.199046e-06	-2.320559e-08	-3.739061e+01	-1.518090e+03
1.200000e-07	-5.176019e-06	-2.316355e-08	-3.722500e+01	-1.515620e+03
1.300000e-07	-5.151480e-06	-2.303453e-08	-3.704852e+01	-1.513072e+03
1.400000e-07	-5.125416e-06	-2.300291e-08	-3.686107e+01	-1.510473e+03
1.500000e-07	-5.097664e-06	-2.314000e-08	-3.666149e+01	-1.507830e+03
1.600000e-07	-5.068414e-06	-2.293951e-08	-3.645113e+01	-1.505130e+03
1.700000e-07	-5.037761e-06	-2.288934e-08	-3.623068e+01	-1.502341e+03
1.800000e-07	-5.005228e-06	-2.298909e-08	-3.599670e+01	-1.499414e+03
1.900000e-07	-4.970568e-06	-2.273591e-08	-3.574744e+01	-1.496292e+03
2.000000e-07	-4.934346e-06	-2.275649e-08	-3.548693e+01	-1.492920e+03
2.100000e-07	-4.896588e-06	-2.282081e-08	-3.521538e+01	-1.489249e+03
2.200000e-07	-4.857050e-06	-2.261972e-08	-3.493103e+01	-1.485249e+03
2.300000e-07	-4.815574e-06	-2.257905e-08	-3.463274e+01	-1.480908e+03
2.400000e-07	-4.772090e-06	-2.249053e-08	-3.432002e+01	-1.476231e+03
2.500000e-07	-4.726886e-06	-2.236176e-08	-3.399491e+01	-1.471238e+03
2.600000e-07	-4.679938e-06	-2.238594e-08	-3.365728e+01	-1.465958e+03
2.700000e-07	-4.631091e-06	-2.226498e-08	-3.330597e+01	-1.460420e+03
2.800000e-07	-4.580168e-06	-2.213765e-08	-3.293975e+01	-1.454645e+03
2.900000e-07	-4.527195e-06	-2.205033e-08	-3.255877e+01	-1.448643e+03
3.000000e-07	-4.472468e-06	-2.195462e-08	-3.216519e+01	-1.442415e+03
3.100000e-07	-4.416162e-06	-2.187374e-08	-3.176025e+01	-1.435946e+03
3.200000e-07	-4.358094e-06	-2.178410e-08	-3.134263e+01	-1.429217e+03
3.300000e-07	-4.298352e-06	-2.169366e-08	-3.091298e+01	-1.422205e+03
3.400000e-07	-4.237176e-06	-2.154243e-08	-3.047301e+01	-1.414892e+03
3.500000e-07	-4.174560e-06	-2.141525e-08	-3.002268e+01	-1.407262e+03
3.600000e-07	-4.110613e-06	-2.129434e-08	-2.956279e+01	-1.399310e+03
3.700000e-07	-4.045134e-06	-2.117642e-08	-2.909188e+01	-1.391036e+03
3.800000e-07	-3.977975e-06	-2.108890e-08	-2.860888e+01	-1.382442e+03
3.900000e-07	-3.909351e-06	-2.093108e-08	-2.811535e+01	-1.373531e+03
4.000000e-07	-3.839431e-06	-2.076521e-08	-2.761250e+01	-1.364302e+03
4.100000e-07	-3.768333e-06	-2.063101e-08	-2.710118e+01	-1.354748e+03
4.200000e-07	-3.696047e-06	-2.047854e-08	-2.658131e+01	-1.344854e+03
4.300000e-07	-3.622281e-06	-2.032612e-08	-2.605079e+01	-1.334602e+03
4.400000e-07	-3.546934e-06	-2.016192e-08	-2.550891e+01	-1.323968e+03
4.500000e-07	-3.470225e-06	-1.998833e-08	-2.495724e+01	-1.312929e+03
4.600000e-07	-3.392161e-06	-1.980100e-08	-2.439581e+01	-1.301465e+03
4.700000e-07	-3.312697e-06	-1.962572e-08	-2.382433e+01	-1.289558e+03
4.800000e-07	-3.231969e-06	-1.945616e-08	-2.324374e+01	-1.277197e+03
4.900000e-07	-3.150071e-06	-1.925613e-08	-2.265474e+01	-1.264371e+03
5.000000e-07	-3.067092e-06	-1.905122e-08	-2.205798e+01	-1.251071e+03
5.100000e-07	-2.983190e-06	-1.883460e-08	-2.145457e+01	-1.237281e+03
5.200000e-07	-2.898403e-06	-1.861173e-08	-2.084479e+01	-1.222983e+03
5.300000e-07	-2.812680e-06	-1.838228e-08	-2.022829e+01	-1.208149e+03
5.400000e-07	-2.726000e-06	-1.814899e-08	-1.960490e+01	-1.192745e+03
5.500000e-07	-2.638430e-06	-1.791099e-08	-1.897512e+01	-1.176732e+03
5.600000e-07	-2.549961e-06	-1.764980e-08	-1.833886e+01	-1.160066e+03
5.700000e-07	-2.460308e-06	-1.738287e-08	-1.769410e+01	-1.142706e+03
5.800000e-07	-2.369486e-06	-1.711335e-08	-1.704092e+01	-1.124608e+03
5.900000e-07	-2.277806e-06	-1.683467e-08	-1.638157e+01	-1.105733e+03
6.000000e-07	-2.185373e-06	-1.653194e-08	-1.571681e+01	-1.086044e+03
6.100000e-07	-2.092183e-06	-1.621205e-08	-1.504661e+01	-1.065503e+03
6.200000e-07	-1.998226e-06	-1.587977e-08	-1.437088e+01	-1.044068e+03
6.300000e-07	-1.903537e-06	-1.553157e-08	-1.368989e+01	-1.021693e+03
6.400000e-07	-1.808236e-06	-1.517530e-08	-1.300451e+01	-9.983219e+02
6.500000e-07	-1.712384e-06	-1.480490e-08	-1.231516e+01	-9.738897e+02
6.600000e-07	-1.615932e-06	-1.441511e-08	-1.162149e+01	-9.483205e+02
6.700000e-07	-1.518784e-06	-1.400284e-08	-1.092282e+01	-9.215289e+02
6.800000e-07	-1.420941e-06	-1.357174e-08	-1.021915e+01	-8.934227e+02
6.900000e-07	-1.322402e-06	-1.312114e-08	-9.510475e+00	-8.639050e+02
7.000000e-07	-1.223329e-06	-1.265031e-08	-8.797962e+00	-8.328784e+02
7.100000e-07	-1.123947e-06	-1.215431e-08	-8.083224e+00	-8.002497e+02
7.200000e-07	-1.024256e-06	-1.163025e-08	-7.366266e+00	-7.659354e+02
7.300000e-07	-9.242566e-07	-1.107849e-08	-6.647088e+00	-7.298685e+02
7.400000e-07	-8.240050e-07	-1.049982e-08	-5.926096e+00	-6.920065e+02
7.500000e-07	-7.235264e-07	-9.898294e-09	-5.203472e+00	-6.523396e+02
7.600000e-07	-6.228183e-07	-9.268374e-09	-4.479197e+00	-6.108993e+02
7.700000e-07	-5.219182e-07	-8.611926e-09	-3.753542e+00	-5.677641e+02
7.800000e-07	-4.208355e-07	-7.931935e-09	-3.026573e+00	-5.230627e+02
7.900000e-07	-3.196126e-07	-7.229951e-09	-2.298596e+00	-4.769708e+02
8.000000e-07	-2.182759e-07	-6.509772e-09	-1.569801e+00	-4.297023e+02
8.100000e-07	-1.168289e-07	-5.777010e-09	-8.402124e-01	-3.814929e+02
8.200000e-07	-1.529522e-08	-5.035021e-09	-1.100005e-01	-3.325789e+02
8.300000e-07	8.629930e-08	-4.283819e-09	6.206491e-01	-2.831719e+02
8.400000e-07	1.878363e-07	-3.526791e-09	1.350885e+00	-2.334345e+02
8.500000e-07	2.892759e-07	-2.768345e-09	2.080421e+00	-1.834595e+02
8.600000e-07	3.906175e-07	-2.009405e-09	2.809251e+00	-1.332592e+02
8.700000e-07	4.918448e-07	-1.243050e-09	3.537260e+00	-8.276463e+01
8.800000e-07	5.929452e-07	-4.676188e-10	4.264356e+00	-3.183923e+01
8.900000e-07	6.938650e-07	3.208157e-10	4.990153e+00	1.969590e+01
9.000000e-07	7.945902e-07	1.122338e-09	5.714550e+00	7.202685e+01
9.100000e-07	8.950994e-07	1.933906e-09	6.437394e+00	1.253072e+02
9.200000e-07	9.953761e-07	2.757803e-09	7.158566e+00	1.796198e+02
9.300000e-07	1.095365e-06	3.596875e-09	7.877665e+00	2.349456e+02
9.400000e-07	1.194997e-06	4.451693e-09	8.594201e+00	2.911449e+02
9.500000e-07	1.294206e-06	5.315490e-09	9.307700e+00	3.479551e+02
9.600000e-07	1.392871e-06	6.182573e-09	1.001728e+01	4.050039e+02
9.700000e-07	1.490837e-06	7.046488e-09	1.072184e+01	4.618375e+02
9.800000e-07	1.588043e-06	7.901006e-09	1.142092e+01	5.179593e+02
9.900000e-07	1.684519e-06	8.737531e-09	1.211475e+01	5.728729e+02
1.000000e-06	1.780364e-06	9.549642e-09	1.280406e+01	6.261235e+02
1.010000e-06	1.875572e-06	1.032944e-08	1.348878e+01	6.773321e+02
1.020000e-06	1.970132e-06	1.106967e-08	1.416884e+01	7.262181e+02
1.030000e-06	2.063979e-06	1.177112e-08	1.484376e+01	7.726087e+02
1.040000e-06	2.157080e-06	1.243257e-08	1.551333e+01	8.164350e+02
1.050000e-06	2.249588e-06	1.305682e-08	1.617863e+01	8.577178e+02
1.060000e-06	2.341469e-06	1.364494e-08	1.683942e+01	8.965457e+02
1.070000e-06	2.432489e-06	1.420194e-08	1.749402e+01	9.330512e+02
1.080000e-06	2.522462e-06	1.472694e-08	1.814110e+01	9.673883e+02
1.090000e-06	2.611372e-06	1.521956e-08	1.878052e+01	9.997142e+02
1.100000e-06	2.699290e-06	1.568228e-08	1.941281e+01	1.030177e+03
1.110000e-06	2.786309e-06	1.611744e-08	2.003863e+01	1.058911e+03
1.120000e-06	2.872402e-06	1.652785e-08	2.065780e+01	1.086034e+03
1.130000e-06	2.957559e-06	1.691626e-08	2.127023e+01	1.111653e+03
1.140000e-06	3.041860e-06	1.728276e-08	2.187651e+01	1.135866e+03
1.150000e-06	3.125272e-06	1.762750e-08	2.247640e+01	1.158768e+03
1.160000e-06	3.207552e-06	1.795701e-08	2.306814e+01	1.180447e+03
1.170000e-06	3.288603e-06	1.827106e-08	2.365104e+01	1.200992e+03
1.180000e-06	3.368438e-06	1.856956e-08	2.422520e+01	1.220483e+03
1.190000e-06	3.447057e-06	1.885192e-08	2.479061e+01	1.238995e+03
1.200000e-06	3.524507e-06	1.911961e-08	2.534762e+01	1.256593e+03
1.210000e-06	3.600771e-06	1.937280e-08	2.589610e+01	1.273330e+03
1.220000e-06	3.675619e-06	1.961256e-08	2.643439e+01	1.289252e+03
1.230000e-06	3.748840e-06	1.984120e-08	2.696099e+01	1.304399e+03
1.240000e-06	3.820589e-06	2.005932e-08	2.747699e+01	1.318805e+03
1.250000e-06	3.890963e-06	2.026676e-08	2.798310e+01	1.332506e+03
1.260000e-06	3.959986e-06	2.046404e-08	2.847951e+01	1.345538e+03
1.270000e-06	4.027758e-06	2.065241e-08	2.896691e+01	1.357938e+03
1.280000e-06	4.094084e-06	2.083210e-08	2.944392e+01	1.369746e+03
1.290000e-06	4.158690e-06	2.100327e-08	2.990855e+01	1.380998e+03
1.300000e-06	4.221703e-06	2.116709e-08	3.036173e+01	1.391726e+03
1.310000e-06	4.283337e-06	2.132396e-08	3.080499e+01	1.401952e+03
1.320000e-06	4.343656e-06	2.147365e-08	3.123880e+01	1.411691e+03
1.330000e-06	4.402501e-06	2.161522e-08	3.166200e+01	1.420950e+03
1.340000e-06	4.459574e-06	2.175004e-08	3.207246e+01	1.429732e+03
1.350000e-06	4.514930e-06	2.187624e-08	3.247057e+01	1.438035e+03
1.360000e-06	4.568753e-06	2.199334e-08	3.285765e+01	1.445865e+03
1.370000e-06	4.620816e-06	2.210519e-08	3.323208e+01	1.453232e+03
1.380000e-06	4.670801e-06	2.221190e-08	3.359156e+01	1.460159e+03
1.390000e-06	4.718808e-06	2.231165e-08	3.393682e+01	1.466677e+03
1.400000e-06	4.765153e-06	2.240516e-08	3.427013e+01	1.472822e+03
1.410000e-06	4.810012e-06	2.249418e-08	3.459275e+01	1.478637e+03
1.420000e-06	4.853308e-06	2.257691e-08	3.490412e+01	1.484157e+03
1.430000e-06	4.894708e-06	2.265520e-08	3.520186e+01	1.489413e+03
1.440000e-06	4.934281e-06	2.273024e-08	3.548646e+01	1.494422e+03
1.450000e-06	4.972303e-06	2.280263e-08	3.575991e+01	1.499187e+03
1.460000e-06	5.008777e-06	2.287216e-08	3.602223e+01	1.503701e+03
1.470000e-06	5.043522e-06	2.293762e-08	3.627210e+01	1.507948e+03
1.480000e-06	5.076284e-06	2.299896e-08	3.650772e+01	1.511907e+03
1.490000e-06	5.107193e-06	2.305412e-08	3.673001e+01	1.515563e+03
1.500000e-06	5.136479e-06	2.310335e-08	3.694064e+01	1.518907e+03
1.510000e-06	5.164144e-06	2.314883e-08	3.713959e+01	1.521937e+03
1.520000e-06	5.189784e-06	2.319021e-08	3.732400e+01	1.524666e+03
1.530000e-06	5.213324e-06	2.322711e-08	3.749329e+01	1.527112e+03
1.540000e-06	5.235092e-06	2.326100e-08	3.764984e+01	1.529299e+03
1.550000e-06	5.255169e-06	2.329242e-08	3.779424e+01	1.531249e+03
1.560000e-06	5.273391e-06	2.332031e-08	3.792529e+01	1.532980e+03
1.570000e-06	5.289603e-06	2.334274e-08	3.804188e+01	1.534505e+03
1.580000e-06	5.303866e-06	2.336161e-08	3.814445e+01	1.535826e+03
1.590000e-06	5.316165e-06	2.337842e-08	3.823291e+01	1.536940e+03
1.600000e-06	5.326252e-06	2.339254e-08	3.830545e+01	1.537840e+03
1.610000e-06	5.334204e-06	2.340426e-08	3.836264e+01	1.538520e+03
1.620000e-06	5.340345e-06	2.341375e-08	3.840680e+01	1.538979e+03
1.630000e-06	5.344795e-06	2.341956e-08	3.843881e+01	1.539219e+03
1.640000e-06	5.347304e-06	2.342142e-08	3.845685e+01	1.539251e+03
1.650000e-06	5.347742e-06	2.342319e-08	3.846000e+01	1.539089e+03
1.660000e-06	5.346394e-06	2.341776e-08	3.845031e+01	1.538746e+03
1.670000e-06	5.343407e-06	2.340788e-08	3.842883e+01	1.538234e+03
1.680000e-06	5.338817e-06	2.340015e-08	3.839582e+01	1.537557e+03
1.690000e-06	5.332343e-06	2.338947e-08	3.834925e+01	1.536710e+03
1.700000e-06	5.324027e-06	2.337518e-08	3.828945e+01	1.535683e+03
1.710000e-06	5.314184e-06	2.335973e-08	3.821866e+01	1.534459e+03
1.720000e-06	5.302657e-06	2.335382e-08	3.813576e+01	1.533025e+03
1.730000e-06	5.289185e-06	2.334219e-08	3.803887e+01	1.531369e+03
1.740000e-06	5.273714e-06	2.321386e-08	3.792761e+01	1.529495e+03
1.750000e-06	5.256041e-06	2.316345e-08	3.780050e+01	1.527417e+03
1.760000e-06	5.235737e-06	2.319189e-08	3.765448e+01	1.525162e+03
1.770000e-06	5.212974e-06	2.317550e-08	3.749078e+01	1.522767e+03
1.780000e-06	5.188643e-06	2.327772e-08	3.731579e+01	1.520270e+03
1.790000e-06	5.163561e-06	2.311981e-08	3.713540e+01	1.517705e+03
1.800000e-06	5.137368e-06	2.293695e-08	3.694703e+01	1.515092e+03
1.810000e-06	5.109099e-06	2.312745e-08	3.674372e+01	1.512434e+03
1.820000e-06	5.078896e-06	2.296167e-08	3.652651e+01	1.509712e+03
1.830000e-06	5.047085e-06	2.288446e-08	3.629773e+01	1.506887e+03
1.840000e-06	5.013337e-06	2.310433e-08	3.605502e+01	1.503909e+03
1.850000e-06	4.977971e-06	2.283705e-08	3.580068e+01	1.500720e+03
1.860000e-06	4.941003e-06	2.278095e-08	3.553481e+01	1.497266e+03
1.870000e-06	4.902054e-06	2.287721e-08	3.525470e+01	1.493502e+03
1.880000e-06	4.861451e-06	2.267217e-08	3.496268e+01	1.489404e+03
1.890000e-06	4.819080e-06	2.275687e-08	3.465796e+01	1.484964e+03
1.900000e-06	4.774971e-06	2.261735e-08	3.434073e+01	1.480193e+03
1.910000e-06	4.729117e-06	2.242459e-08	3.401096e+01	1.475114e+03
1.920000e-06	4.681243e-06	2.254774e-08	3.366666e+01	1.469756e+03
1.930000e-06	4.631801e-06	2.235276e-08	3.331108e+01	1.464147e+03
1.940000e-06	4.580671e-06	2.229693e-08	3.294336e+01	1.458306e+03
1.950000e-06	4.527386e-06	2.224443e-08	3.256015e+01	1.452239e+03
1.960000e-06	4.472259e-06	2.208451e-08	3.216369e+01	1.445942e+03
1.970000e-06	4.415434e-06	2.203833e-08	3.175501e+01	1.439400e+03
1.980000e-06	4.357017e-06	2.182296e-08	3.133489e+01	1.432591e+03
1.990000e-06	4.297276e-06	2.179510e-08	3.090524e+01	1.425494e+03
2.000000e-06	4.236097e-06	2.172991e-08	3.046525e+01	1.418090e+03
2.010000e-06	4.173218e-06	2.155688e-08	3.001303e+01	1.410368e+03
2.020000e-06	4.108633e-06	2.145472e-08	2.954855e+01	1.402322e+03
2.030000e-06	4.042647e-06	2.124972e-08	2.907399e+01	1.393955e+03
2.040000e-06	3.975335e-06	2.119319e-08	2.858989e+01	1.385269e+03
2.050000e-06	3.906596e-06	2.104621e-08	2.809554e+01	1.376266e+03
2.060000e-06	3.836315e-06	2.088358e-08	2.759009e+01	1.366944e+03
2.070000e-06	3.764574e-06	2.079234e-08	2.707414e+01	1.357294e+03
2.080000e-06	3.691639e-06	2.059027e-08	2.654960e+01	1.347299e+03
2.090000e-06	3.617347e-06	2.045163e-08	2.601531e+01	1.336939e+03
2.100000e-06	3.541640e-06	2.027255e-08	2.547084e+01	1.326190e+03
2.110000e-06	3.464470e-06	2.012393e-08	2.491585e+01	1.315030e+03
2.120000e-06	3.385797e-06	1.994704e-08	2.435005e+01	1.303440e+03
2.130000e-06	3.305932e-06	1.973511e-08	2.377567e+01	1.291403e+03
2.140000e-06	3.224977e-06	1.956590e-08	2.319345e+01	1.278909e+03
2.150000e-06	3.142921e-06	1.935316e-08	2.260332e+01	1.265948e+03
2.160000e-06	3.059819e-06	1.916795e-08	2.200567e+01	1.252508e+03
2.170000e-06	2.975781e-06	1.895735e-08	2.140128e+01	1.238574e+03
2.180000e-06	2.890549e-06	1.874321e-08	2.078831e+01	1.224125e+03
2.190000e-06	2.803933e-06	1.851018e-08	2.016539e+01	1.209131e+03
2.200000e-06	2.716254e-06	1.826039e-08	1.953481e+01	1.193556e+03
2.210000e-06	2.627679e-06	1.802770e-08	1.889779e+01	1.177360e+03
2.220000e-06	2.538232e-06	1.776794e-08	1.825451e+01	1.160499e+03
2.230000e-06	2.447925e-06	1.749628e-08	1.760504e+01	1.142930e+03
2.240000e-06	2.356859e-06	1.720487e-08	1.695011e+01	1.124613e+03
2.250000e-06	2.265166e-06	1.692253e-08	1.629067e+01	1.105509e+03
2.260000e-06	2.172760e-06	1.662515e-08	1.562610e+01	1.085579e+03
2.270000e-06	2.079355e-06	1.631103e-08	1.495435e+01	1.064785e+03
2.280000e-06	1.984895e-06	1.598590e-08	1.427501e+01	1.043086e+03
2.290000e-06	1.889602e-06	1.563851e-08	1.358968e+01	1.020431e+03
2.300000e-06	1.793677e-06	1.527448e-08	1.289981e+01	9.967629e+02
2.310000e-06	1.697236e-06	1.489206e-08	1.220621e+01	9.720128e+02
2.320000e-06	1.600283e-06	1.450226e-08	1.150895e+01	9.461022e+02
2.330000e-06	1.502772e-06	1.409342e-08	1.080766e+01	9.189436e+02
2.340000e-06	1.404746e-06	1.366008e-08	1.010268e+01	8.904429e+02
2.350000e-06	1.306281e-06	1.319945e-08	9.394535e+00	8.605027e+02
2.360000e-06	1.207445e-06	1.271948e-08	8.683726e+00	8.290264e+02
2.370000e-06	1.108348e-06	1.221980e-08	7.971042e+00	7.959228e+02
2.380000e-06	1.009043e-06	1.169299e-08	7.256856e+00	7.611125e+02
2.390000e-06	9.094704e-07	1.113544e-08	6.540748e+00	7.245346e+02
2.400000e-06	8.095957e-07	1.054410e-08	5.822467e+00	6.861551e+02
2.410000e-06	7.094306e-07	9.926318e-09	5.102097e+00	6.459751e+02
2.420000e-06	6.090060e-07	9.282889e-09	4.379862e+00	6.040392e+02
2.430000e-06	5.083637e-07	8.615753e-09	3.656061e+00	5.604401e+02
2.440000e-06	4.075037e-07	7.930331e-09	2.930694e+00	5.153204e+02
2.450000e-06	3.064784e-07	7.226239e-09	2.204137e+00	4.688680e+02
2.460000e-06	2.052423e-07	6.497643e-09	1.476066e+00	4.213049e+02
2.470000e-06	1.037890e-07	5.752530e-09	7.464317e-01	3.728695e+02
2.480000e-06	2.268629e-09	5.001368e-09	1.631557e-02	3.237936e+02
2.490000e-06	-9.919219e-08	4.243946e-09	-7.133725e-01	2.742772e+02
2.500000e-06	-2.005284e-07	3.479161e-09	-1.442164e+00	2.244646e+02
2.510000e-06	-3.017691e-07	2.710390e-09	-2.170269e+00	1.744264e+02
2.520000e-06	-4.028990e-07	1.941017e-09	-2.897577e+00	1.241512e+02
2.530000e-06	-5.038842e-07	1.167349e-09	-3.623845e+00	7.354875e+01
2.540000e-06	-6.046881e-07	3.878475e-10	-4.348808e+00	2.246724e+01
2.550000e-06	-7.052544e-07	-4.017274e-10	-5.072063e+00	-2.927812e+01
2.560000e-06	-8.055635e-07	-1.204652e-09	-5.793468e+00	-8.186826e+01
2.570000e-06	-9.055458e-07	-2.022949e-09	-6.512523e+00	-1.354403e+02
2.580000e-06	-1.005183e-06	-2.857559e-09	-7.229096e+00	-1.900505e+02
2.590000e-06	-1.104512e-06	-3.706751e-09	-7.943449e+00	-2.456467e+02
2.600000e-06	-1.203500e-06	-4.569288e-09	-8.655354e+00	-3.020538e+02
2.610000e-06	-1.302122e-06	-5.438987e-09	-9.364626e+00	-3.589755e+02
2.620000e-06	-1.400324e-06	-6.310388e-09	-1.007088e+01	-4.160130e+02
2.630000e-06	-1.497963e-06	-7.178969e-09	-1.077308e+01	-4.726959e+02
2.640000e-06	-1.594999e-06	-8.034946e-09	-1.147094e+01	-5.285232e+02
2.650000e-06	-1.691511e-06	-8.869449e-09	-1.216504e+01	-5.830066e+02
2.660000e-06	-1.787556e-06	-9.677356e-09	-1.285578e+01	-6.357096e+02
2.670000e-06	-1.883133e-06	-1.045435e-08	-1.354315e+01	-6.862797e+02
2.680000e-06	-1.978040e-06	-1.119373e-08	-1.422571e+01	-7.344668e+02
2.690000e-06	-2.072007e-06	-1.189145e-08	-1.490151e+01	-7.801287e+02
2.700000e-06	-2.165011e-06	-1.254870e-08	-1.557037e+01	-8.232240e+02
2.710000e-06	-2.257117e-06	-1.316960e-08	-1.623278e+01	-8.637951e+02
2.720000e-06	-2.348460e-06	-1.375629e-08	-1.688970e+01	-9.019458e+02
2.730000e-06	-2.439061e-06	-1.430963e-08	-1.754129e+01	-9.378169e+02
2.740000e-06	-2.528745e-06	-1.483023e-08	-1.818628e+01	-9.715647e+02
2.750000e-06	-2.617526e-06	-1.531881e-08	-1.882478e+01	-1.003345e+03
2.760000e-06	-2.705508e-06	-1.577808e-08	-1.945753e+01	-1.033302e+03
2.770000e-06	-2.792633e-06	-1.620672e-08	-2.008412e+01	-1.061565e+03
2.780000e-06	-2.878641e-06	-1.661096e-08	-2.070267e+01	-1.088249e+03
2.790000e-06	-2.963452e-06	-1.699634e-08	-2.131261e+01	-1.113458e+03
2.800000e-06	-3.047200e-06	-1.736334e-08	-2.191492e+01	-1.137289e+03
2.810000e-06	-3.129984e-06	-1.771037e-08	-2.251028e+01	-1.159833e+03
2.820000e-06	-3.211720e-06	-1.803702e-08	-2.309811e+01	-1.181181e+03
2.830000e-06	-3.292412e-06	-1.834735e-08	-2.367843e+01	-1.201418e+03
2.840000e-06	-3.372077e-06	-1.864218e-08	-2.425138e+01	-1.220623e+03
2.850000e-06	-3.450399e-06	-1.892317e-08	-2.481465e+01	-1.238869e+03
2.860000e-06	-3.527191e-06	-1.918982e-08	-2.536693e+01	-1.256216e+03
2.870000e-06	-3.602595e-06	-1.944099e-08	-2.590921e+01	-1.272718e+03
2.880000e-06	-3.676648e-06	-1.967835e-08	-2.644180e+01	-1.288416e+03
2.890000e-06	-3.749346e-06	-1.990588e-08	-2.696462e+01	-1.303349e+03
2.900000e-06	-3.820814e-06	-2.012593e-08	-2.747861e+01	-1.317551e+03
2.910000e-06	-3.890838e-06	-2.033632e-08	-2.798221e+01	-1.331058e+03
2.920000e-06	-3.959237e-06	-2.053557e-08	-2.847412e+01	-1.343907e+03
2.930000e-06	-4.026248e-06	-2.072436e-08	-2.895606e+01	-1.356135e+03
2.940000e-06	-4.091936e-06	-2.090275e-08	-2.942847e+01	-1.367782e+03
