# Temperatura_=_49.1
# Concentracion g/m^3_=_28200.0
# C_Vs_to_Am_M_A/Vsm_=_65563218390.804596
# pendiente_HvsI_1/m_=_3716.3
# ordenada_HvsI_A/m_=_1297.0
# frecuencia_Hz_=_301748.03889336326

Tiempo_(s)	Campo_(V.s)	Magnetizacion_(V.s)	Campo_(kA/m)	Magnetizacion_(A/m)
0.000000e+00	-5.292093e-06	-2.055904e-08	-3.830336e+01	-1.344239e+03
1.000000e-08	-5.289892e-06	-2.055520e-08	-3.828742e+01	-1.343936e+03
2.000000e-08	-5.285833e-06	-2.054391e-08	-3.825805e+01	-1.343499e+03
3.000000e-08	-5.280206e-06	-2.053365e-08	-3.821732e+01	-1.342915e+03
4.000000e-08	-5.272964e-06	-2.052434e-08	-3.816490e+01	-1.342163e+03
5.000000e-08	-5.264047e-06	-2.050840e-08	-3.810037e+01	-1.341222e+03
6.000000e-08	-5.253182e-06	-2.048663e-08	-3.802172e+01	-1.340076e+03
7.000000e-08	-5.240425e-06	-2.045099e-08	-3.792939e+01	-1.338721e+03
8.000000e-08	-5.225729e-06	-2.042305e-08	-3.782302e+01	-1.337167e+03
9.000000e-08	-5.208717e-06	-2.047131e-08	-3.769990e+01	-1.335436e+03
1.000000e-07	-5.189563e-06	-2.046125e-08	-3.756126e+01	-1.333563e+03
1.100000e-07	-5.168539e-06	-2.037142e-08	-3.740910e+01	-1.331585e+03
1.200000e-07	-5.145728e-06	-2.032859e-08	-3.724399e+01	-1.329535e+03
1.300000e-07	-5.121460e-06	-2.020625e-08	-3.706834e+01	-1.327438e+03
1.400000e-07	-5.095735e-06	-2.016303e-08	-3.688215e+01	-1.325301e+03
1.500000e-07	-5.068318e-06	-2.032375e-08	-3.668371e+01	-1.323113e+03
1.600000e-07	-5.039336e-06	-2.015752e-08	-3.647394e+01	-1.320848e+03
1.700000e-07	-5.008952e-06	-2.008724e-08	-3.625403e+01	-1.318469e+03
1.800000e-07	-4.976844e-06	-2.021977e-08	-3.602164e+01	-1.315932e+03
1.900000e-07	-4.942635e-06	-1.996959e-08	-3.577404e+01	-1.313197e+03
2.000000e-07	-4.906776e-06	-1.991991e-08	-3.551449e+01	-1.310231e+03
2.100000e-07	-4.869391e-06	-2.000607e-08	-3.524391e+01	-1.307014e+03
2.200000e-07	-4.830245e-06	-1.982720e-08	-3.496057e+01	-1.303538e+03
2.300000e-07	-4.789283e-06	-1.979151e-08	-3.466409e+01	-1.299806e+03
2.400000e-07	-4.746366e-06	-1.976504e-08	-3.435347e+01	-1.295830e+03
2.500000e-07	-4.701661e-06	-1.964699e-08	-3.402990e+01	-1.291621e+03
2.600000e-07	-4.655217e-06	-1.964804e-08	-3.369374e+01	-1.287190e+03
2.700000e-07	-4.606911e-06	-1.953790e-08	-3.334411e+01	-1.282544e+03
2.800000e-07	-4.556563e-06	-1.942576e-08	-3.297971e+01	-1.277681e+03
2.900000e-07	-4.504145e-06	-1.936342e-08	-3.260031e+01	-1.272595e+03
3.000000e-07	-4.449990e-06	-1.929518e-08	-3.220834e+01	-1.267276e+03
3.100000e-07	-4.394277e-06	-1.922565e-08	-3.180511e+01	-1.261713e+03
3.200000e-07	-4.336804e-06	-1.912167e-08	-3.138913e+01	-1.255897e+03
3.300000e-07	-4.277632e-06	-1.903722e-08	-3.096085e+01	-1.249820e+03
3.400000e-07	-4.217042e-06	-1.891639e-08	-3.052231e+01	-1.243481e+03
3.500000e-07	-4.154966e-06	-1.880441e-08	-3.007301e+01	-1.236880e+03
3.600000e-07	-4.091517e-06	-1.871248e-08	-2.961377e+01	-1.230015e+03
3.700000e-07	-4.026700e-06	-1.861169e-08	-2.914464e+01	-1.222887e+03
3.800000e-07	-3.960203e-06	-1.852239e-08	-2.866334e+01	-1.215491e+03
3.900000e-07	-3.892116e-06	-1.837739e-08	-2.817054e+01	-1.207821e+03
4.000000e-07	-3.822771e-06	-1.823088e-08	-2.766863e+01	-1.199864e+03
4.100000e-07	-3.752210e-06	-1.812426e-08	-2.715792e+01	-1.191608e+03
4.200000e-07	-3.680509e-06	-1.799799e-08	-2.663896e+01	-1.183036e+03
4.300000e-07	-3.607500e-06	-1.786718e-08	-2.611053e+01	-1.174134e+03
4.400000e-07	-3.532863e-06	-1.772374e-08	-2.557032e+01	-1.164887e+03
4.500000e-07	-3.456726e-06	-1.757421e-08	-2.501925e+01	-1.155285e+03
4.600000e-07	-3.379280e-06	-1.741241e-08	-2.445871e+01	-1.145316e+03
4.700000e-07	-3.300496e-06	-1.725556e-08	-2.388848e+01	-1.134969e+03
4.800000e-07	-3.220300e-06	-1.710815e-08	-2.330804e+01	-1.124233e+03
4.900000e-07	-3.138892e-06	-1.693351e-08	-2.271882e+01	-1.113094e+03
5.000000e-07	-3.056454e-06	-1.675460e-08	-2.212215e+01	-1.101536e+03
5.100000e-07	-2.973058e-06	-1.656667e-08	-2.151854e+01	-1.089537e+03
5.200000e-07	-2.888817e-06	-1.637250e-08	-2.090882e+01	-1.077074e+03
5.300000e-07	-2.803711e-06	-1.617323e-08	-2.029283e+01	-1.064121e+03
5.400000e-07	-2.717581e-06	-1.596956e-08	-1.966944e+01	-1.050647e+03
5.500000e-07	-2.630498e-06	-1.576145e-08	-1.903914e+01	-1.036622e+03
5.600000e-07	-2.542660e-06	-1.553562e-08	-1.840338e+01	-1.022011e+03
5.700000e-07	-2.453870e-06	-1.530156e-08	-1.776073e+01	-1.006782e+03
5.800000e-07	-2.363840e-06	-1.505737e-08	-1.710911e+01	-9.908966e+02
5.900000e-07	-2.272767e-06	-1.480517e-08	-1.644994e+01	-9.743192e+02
6.000000e-07	-2.180989e-06	-1.453804e-08	-1.578566e+01	-9.570109e+02
6.100000e-07	-2.088531e-06	-1.425949e-08	-1.511647e+01	-9.389320e+02
6.200000e-07	-1.995265e-06	-1.397266e-08	-1.444142e+01	-9.200415e+02
6.300000e-07	-1.901223e-06	-1.367095e-08	-1.376076e+01	-9.002964e+02
6.400000e-07	-1.806514e-06	-1.335524e-08	-1.307527e+01	-8.796511e+02
6.500000e-07	-1.711254e-06	-1.302397e-08	-1.238579e+01	-8.580560e+02
6.600000e-07	-1.615517e-06	-1.267897e-08	-1.169286e+01	-8.354560e+02
6.700000e-07	-1.519257e-06	-1.231867e-08	-1.099615e+01	-8.117893e+02
6.800000e-07	-1.422386e-06	-1.194289e-08	-1.029501e+01	-7.869863e+02
6.900000e-07	-1.324796e-06	-1.154645e-08	-9.588667e+00	-7.609705e+02
7.000000e-07	-1.226539e-06	-1.112700e-08	-8.877504e+00	-7.336610e+02
7.100000e-07	-1.127770e-06	-1.068409e-08	-8.162626e+00	-7.049774e+02
7.200000e-07	-1.028605e-06	-1.022111e-08	-7.444888e+00	-6.748462e+02
7.300000e-07	-9.290838e-07	-9.741009e-09	-6.724566e+00	-6.432099e+02
7.400000e-07	-8.292952e-07	-9.239299e-09	-6.002311e+00	-6.100358e+02
7.500000e-07	-7.293491e-07	-8.715054e-09	-5.278917e+00	-5.753255e+02
7.600000e-07	-6.292092e-07	-8.164145e-09	-4.554119e+00	-5.391212e+02
7.700000e-07	-5.288838e-07	-7.588677e-09	-3.827980e+00	-5.015095e+02
7.800000e-07	-4.284322e-07	-6.996781e-09	-3.100927e+00	-4.626206e+02
7.900000e-07	-3.279164e-07	-6.390194e-09	-2.373409e+00	-4.226221e+02
8.000000e-07	-2.273165e-07	-5.768194e-09	-1.645282e+00	-3.817084e+02
8.100000e-07	-1.266287e-07	-5.136060e-09	-9.165194e-01	-3.400856e+02
8.200000e-07	-2.585624e-08	-4.495772e-09	-1.871435e-01	-2.979538e+02
8.300000e-07	7.500660e-08	-3.848187e-09	5.428862e-01	-2.554887e+02
8.400000e-07	1.758523e-07	-3.198328e-09	1.272792e+00	-2.128246e+02
8.500000e-07	2.766155e-07	-2.548383e-09	2.002101e+00	-1.700411e+02
8.600000e-07	3.772979e-07	-1.897631e-09	2.730824e+00	-1.271564e+02
8.700000e-07	4.778925e-07	-1.243016e-09	3.458913e+00	-8.412670e+01
8.800000e-07	5.783697e-07	-5.843768e-10	4.186151e+00	-4.085485e+01
8.900000e-07	6.787259e-07	8.068299e-11	4.912514e+00	2.794117e+00
9.000000e-07	7.789369e-07	7.528941e-10	5.637826e+00	4.697088e+01
9.100000e-07	8.789667e-07	1.434935e-09	6.361826e+00	9.181586e+01
9.200000e-07	9.787832e-07	2.128927e-09	7.084283e+00	1.374323e+02
9.300000e-07	1.078297e-06	2.835281e-09	7.804548e+00	1.838619e+02
9.400000e-07	1.177395e-06	3.555071e-09	8.521802e+00	2.310662e+02
9.500000e-07	1.275942e-06	4.282841e-09	9.235071e+00	2.789166e+02
9.600000e-07	1.373799e-06	5.015928e-09	9.943345e+00	3.271947e+02
9.700000e-07	1.470912e-06	5.752234e-09	1.064623e+01	3.756033e+02
9.800000e-07	1.567354e-06	6.487261e-09	1.134426e+01	4.237864e+02
9.900000e-07	1.663234e-06	7.212692e-09	1.203823e+01	4.713568e+02
1.000000e-06	1.758490e-06	7.921038e-09	1.272768e+01	5.179270e+02
1.010000e-06	1.853112e-06	8.607880e-09	1.341254e+01	5.631393e+02
1.020000e-06	1.947167e-06	9.267692e-09	1.409329e+01	6.066915e+02
1.030000e-06	2.040557e-06	9.897790e-09	1.476924e+01	6.483552e+02
1.040000e-06	2.133261e-06	1.049845e-08	1.544022e+01	6.879850e+02
1.050000e-06	2.225418e-06	1.106736e-08	1.610723e+01	7.255169e+02
1.060000e-06	2.316965e-06	1.160315e-08	1.676984e+01	7.609597e+02
1.070000e-06	2.407570e-06	1.210988e-08	1.742562e+01	7.943786e+02
1.080000e-06	2.497020e-06	1.258733e-08	1.807305e+01	8.258772e+02
1.090000e-06	2.585427e-06	1.303910e-08	1.871292e+01	8.555784e+02
1.100000e-06	2.672934e-06	1.346539e-08	1.934628e+01	8.836089e+02
1.110000e-06	2.759559e-06	1.386730e-08	1.997327e+01	9.100883e+02
1.120000e-06	2.845294e-06	1.424697e-08	2.059380e+01	9.351226e+02
1.130000e-06	2.930109e-06	1.460671e-08	2.120768e+01	9.588037e+02
1.140000e-06	3.014113e-06	1.494785e-08	2.181569e+01	9.812113e+02
1.150000e-06	3.097219e-06	1.526954e-08	2.241719e+01	1.002417e+03
1.160000e-06	3.179149e-06	1.557394e-08	2.301020e+01	1.022489e+03
1.170000e-06	3.259854e-06	1.586140e-08	2.359433e+01	1.041494e+03
1.180000e-06	3.339318e-06	1.613389e-08	2.416947e+01	1.059498e+03
1.190000e-06	3.417607e-06	1.639240e-08	2.473612e+01	1.076567e+03
1.200000e-06	3.494766e-06	1.663894e-08	2.529458e+01	1.092764e+03
1.210000e-06	3.570682e-06	1.687315e-08	2.584405e+01	1.108146e+03
1.220000e-06	3.645145e-06	1.709470e-08	2.638300e+01	1.122764e+03
1.230000e-06	3.718000e-06	1.730428e-08	2.691031e+01	1.136663e+03
1.240000e-06	3.789394e-06	1.750191e-08	2.742705e+01	1.149880e+03
1.250000e-06	3.859455e-06	1.769049e-08	2.793414e+01	1.162448e+03
1.260000e-06	3.928225e-06	1.787163e-08	2.843189e+01	1.174398e+03
1.270000e-06	3.995689e-06	1.804354e-08	2.892019e+01	1.185758e+03
1.280000e-06	4.061605e-06	1.820748e-08	2.939727e+01	1.196556e+03
1.290000e-06	4.125900e-06	1.836526e-08	2.986263e+01	1.206819e+03
1.300000e-06	4.188763e-06	1.851609e-08	3.031762e+01	1.216571e+03
1.310000e-06	4.250219e-06	1.865838e-08	3.076243e+01	1.225832e+03
1.320000e-06	4.310334e-06	1.879195e-08	3.119754e+01	1.234620e+03
1.330000e-06	4.368943e-06	1.891973e-08	3.162174e+01	1.242945e+03
1.340000e-06	4.425749e-06	1.903983e-08	3.203289e+01	1.250818e+03
1.350000e-06	4.480933e-06	1.915006e-08	3.243231e+01	1.258248e+03
1.360000e-06	4.534561e-06	1.925379e-08	3.282046e+01	1.265250e+03
1.370000e-06	4.586348e-06	1.935261e-08	3.319528e+01	1.271841e+03
1.380000e-06	4.636089e-06	1.944778e-08	3.355530e+01	1.278048e+03
1.390000e-06	4.683967e-06	1.953820e-08	3.390183e+01	1.283903e+03
1.400000e-06	4.730205e-06	1.962359e-08	3.423650e+01	1.289440e+03
1.410000e-06	4.774933e-06	1.970315e-08	3.456023e+01	1.294695e+03
1.420000e-06	4.818080e-06	1.977668e-08	3.487253e+01	1.299696e+03
1.430000e-06	4.859349e-06	1.984777e-08	3.517122e+01	1.304462e+03
1.440000e-06	4.898864e-06	1.991612e-08	3.545723e+01	1.309002e+03
1.450000e-06	4.936776e-06	1.998054e-08	3.573163e+01	1.313311e+03
1.460000e-06	4.973103e-06	2.004123e-08	3.599456e+01	1.317377e+03
1.470000e-06	5.007698e-06	2.009861e-08	3.624495e+01	1.321182e+03
1.480000e-06	5.040370e-06	2.015282e-08	3.648143e+01	1.324712e+03
1.490000e-06	5.071293e-06	2.020148e-08	3.670524e+01	1.327955e+03
1.500000e-06	5.100583e-06	2.024395e-08	3.691724e+01	1.330911e+03
1.510000e-06	5.128218e-06	2.028347e-08	3.711726e+01	1.333590e+03
1.520000e-06	5.153848e-06	2.032008e-08	3.730276e+01	1.336008e+03
1.530000e-06	5.177408e-06	2.035255e-08	3.747329e+01	1.338189e+03
1.540000e-06	5.199215e-06	2.038218e-08	3.763112e+01	1.340153e+03
1.550000e-06	5.219385e-06	2.040931e-08	3.777711e+01	1.341918e+03
1.560000e-06	5.237712e-06	2.043299e-08	3.790975e+01	1.343493e+03
1.570000e-06	5.254035e-06	2.045204e-08	3.802790e+01	1.344881e+03
1.580000e-06	5.268470e-06	2.046773e-08	3.813238e+01	1.346078e+03
1.590000e-06	5.280959e-06	2.048184e-08	3.822277e+01	1.347077e+03
1.600000e-06	5.291270e-06	2.049466e-08	3.829740e+01	1.347873e+03
1.610000e-06	5.299444e-06	2.050493e-08	3.835656e+01	1.348468e+03
1.620000e-06	5.305738e-06	2.051358e-08	3.840212e+01	1.348870e+03
1.630000e-06	5.310314e-06	2.052035e-08	3.843524e+01	1.349093e+03
1.640000e-06	5.313045e-06	2.052416e-08	3.845500e+01	1.349155e+03
1.650000e-06	5.313735e-06	2.052657e-08	3.846000e+01	1.349074e+03
1.660000e-06	5.312592e-06	2.052249e-08	3.845173e+01	1.348862e+03
1.670000e-06	5.309868e-06	2.051516e-08	3.843201e+01	1.348520e+03
1.680000e-06	5.305542e-06	2.050971e-08	3.840070e+01	1.348043e+03
1.690000e-06	5.299290e-06	2.049996e-08	3.835545e+01	1.347412e+03
1.700000e-06	5.291197e-06	2.048720e-08	3.829687e+01	1.346607e+03
1.710000e-06	5.281556e-06	2.047447e-08	3.822709e+01	1.345608e+03
1.720000e-06	5.270264e-06	2.047268e-08	3.814536e+01	1.344402e+03
1.730000e-06	5.257050e-06	2.047856e-08	3.804972e+01	1.342988e+03
1.740000e-06	5.241844e-06	2.036978e-08	3.793967e+01	1.341379e+03
1.750000e-06	5.224520e-06	2.030860e-08	3.781428e+01	1.339604e+03
1.760000e-06	5.204647e-06	2.033899e-08	3.767044e+01	1.337696e+03
1.770000e-06	5.182316e-06	2.032527e-08	3.750881e+01	1.335693e+03
1.780000e-06	5.158330e-06	2.043113e-08	3.733520e+01	1.333628e+03
1.790000e-06	5.133535e-06	2.031262e-08	3.715574e+01	1.331518e+03
1.800000e-06	5.107760e-06	2.010508e-08	3.696918e+01	1.329367e+03
1.810000e-06	5.079981e-06	2.028582e-08	3.676813e+01	1.327160e+03
1.820000e-06	5.050150e-06	2.014774e-08	3.655221e+01	1.324866e+03
1.830000e-06	5.018693e-06	2.001470e-08	3.632453e+01	1.322446e+03
1.840000e-06	4.985307e-06	2.026342e-08	3.608288e+01	1.319855e+03
1.850000e-06	4.950287e-06	2.006225e-08	3.582942e+01	1.317056e+03
1.860000e-06	4.913791e-06	1.995642e-08	3.556527e+01	1.314019e+03
1.870000e-06	4.875275e-06	2.008117e-08	3.528650e+01	1.310728e+03
1.880000e-06	4.835016e-06	1.987844e-08	3.499511e+01	1.307177e+03
1.890000e-06	4.793094e-06	1.990835e-08	3.469168e+01	1.303374e+03
1.900000e-06	4.749441e-06	1.982844e-08	3.437572e+01	1.299329e+03
1.910000e-06	4.704142e-06	1.964880e-08	3.404786e+01	1.295055e+03
1.920000e-06	4.656866e-06	1.979626e-08	3.370568e+01	1.290562e+03
1.930000e-06	4.607889e-06	1.963799e-08	3.335119e+01	1.285853e+03
1.940000e-06	4.557345e-06	1.953980e-08	3.298536e+01	1.280927e+03
1.950000e-06	4.504718e-06	1.950066e-08	3.260446e+01	1.275775e+03
1.960000e-06	4.450118e-06	1.935324e-08	3.220927e+01	1.270386e+03
1.970000e-06	4.393844e-06	1.935007e-08	3.180197e+01	1.264751e+03
1.980000e-06	4.335968e-06	1.916948e-08	3.138307e+01	1.258860e+03
1.990000e-06	4.276710e-06	1.912269e-08	3.095417e+01	1.252708e+03
2.000000e-06	4.216052e-06	1.909264e-08	3.051514e+01	1.246293e+03
2.010000e-06	4.153749e-06	1.890898e-08	3.006420e+01	1.239615e+03
2.020000e-06	4.089711e-06	1.882802e-08	2.960070e+01	1.232675e+03
2.030000e-06	4.024193e-06	1.867200e-08	2.912649e+01	1.225470e+03
2.040000e-06	3.957432e-06	1.863227e-08	2.864328e+01	1.217996e+03
2.050000e-06	3.889441e-06	1.852515e-08	2.815118e+01	1.210245e+03
2.060000e-06	3.819884e-06	1.834873e-08	2.764773e+01	1.202203e+03
2.070000e-06	3.748706e-06	1.826847e-08	2.713256e+01	1.193857e+03
2.080000e-06	3.676293e-06	1.808924e-08	2.660845e+01	1.185192e+03
2.090000e-06	3.602568e-06	1.796443e-08	2.607484e+01	1.176192e+03
2.100000e-06	3.527504e-06	1.781789e-08	2.553153e+01	1.166844e+03
2.110000e-06	3.451043e-06	1.768882e-08	2.497812e+01	1.157138e+03
2.120000e-06	3.373066e-06	1.755298e-08	2.441374e+01	1.147061e+03
2.130000e-06	3.293790e-06	1.736064e-08	2.383994e+01	1.136603e+03
2.140000e-06	3.213371e-06	1.721258e-08	2.325789e+01	1.125753e+03
2.150000e-06	3.131842e-06	1.702582e-08	2.266779e+01	1.114495e+03
2.160000e-06	3.049243e-06	1.686194e-08	2.206995e+01	1.102813e+03
2.170000e-06	2.965764e-06	1.668141e-08	2.146574e+01	1.090683e+03
2.180000e-06	2.881349e-06	1.648842e-08	2.085476e+01	1.078082e+03
2.190000e-06	2.795607e-06	1.628909e-08	2.023417e+01	1.064983e+03
2.200000e-06	2.708552e-06	1.606955e-08	1.960408e+01	1.051354e+03
2.210000e-06	2.620519e-06	1.586570e-08	1.896692e+01	1.037164e+03
2.220000e-06	2.531700e-06	1.563796e-08	1.832406e+01	1.022380e+03
2.230000e-06	2.442043e-06	1.540646e-08	1.767513e+01	1.006966e+03
2.240000e-06	2.351544e-06	1.515892e-08	1.702011e+01	9.908860e+02
2.250000e-06	2.260349e-06	1.491133e-08	1.636006e+01	9.741030e+02
2.260000e-06	2.168529e-06	1.464663e-08	1.569548e+01	9.565779e+02
2.270000e-06	2.075968e-06	1.436124e-08	1.502554e+01	9.382707e+02
2.280000e-06	1.982358e-06	1.407290e-08	1.434801e+01	9.191397e+02
2.290000e-06	1.887694e-06	1.376941e-08	1.366284e+01	8.991415e+02
2.300000e-06	1.792333e-06	1.345233e-08	1.297263e+01	8.782294e+02
2.310000e-06	1.696483e-06	1.311603e-08	1.227889e+01	8.563524e+02
2.320000e-06	1.600188e-06	1.276885e-08	1.158191e+01	8.334535e+02
2.330000e-06	1.503333e-06	1.240352e-08	1.088089e+01	8.094688e+02
2.340000e-06	1.405918e-06	1.201885e-08	1.017582e+01	7.843266e+02
2.350000e-06	1.308067e-06	1.161770e-08	9.467586e+00	7.579488e+02
2.360000e-06	1.209779e-06	1.120197e-08	8.756196e+00	7.302541e+02
2.370000e-06	1.111142e-06	1.076464e-08	8.042276e+00	7.011631e+02
2.380000e-06	1.012293e-06	1.029897e-08	7.326825e+00	6.706061e+02
2.390000e-06	9.132082e-07	9.805511e-09	6.609661e+00	6.385316e+02
2.400000e-06	8.138341e-07	9.285447e-09	5.890406e+00	6.049161e+02
2.410000e-06	7.142512e-07	8.746958e-09	5.169640e+00	5.697720e+02
2.420000e-06	6.144892e-07	8.187752e-09	4.447579e+00	5.331541e+02
2.430000e-06	5.145415e-07	7.608051e-09	3.724172e+00	4.951617e+02
2.440000e-06	4.144378e-07	7.011391e-09	2.999637e+00	4.559365e+02
2.450000e-06	3.142270e-07	6.398139e-09	2.274327e+00	4.156551e+02
2.460000e-06	2.139481e-07	5.767620e-09	1.548523e+00	3.745169e+02
2.470000e-06	1.135515e-07	5.125536e-09	8.218687e-01	3.327282e+02
2.480000e-06	1.306558e-08	4.479489e-09	9.456667e-02	2.904841e+02
2.490000e-06	-8.744102e-08	3.829173e-09	-6.328847e-01	2.479499e+02
2.500000e-06	-1.879432e-07	3.174703e-09	-1.360304e+00	2.052454e+02
2.510000e-06	-2.883415e-07	2.518229e-09	-2.086972e+00	1.624333e+02
2.520000e-06	-3.886634e-07	1.862492e-09	-2.813086e+00	1.195134e+02
2.530000e-06	-4.889345e-07	1.204352e-09	-3.538833e+00	7.642568e+01
2.540000e-06	-5.890966e-07	5.427292e-10	-4.263791e+00	3.306027e+01
2.550000e-06	-6.891097e-07	-1.235387e-10	-4.987670e+00	-1.072479e+01
2.560000e-06	-7.888909e-07	-7.990477e-10	-5.709871e+00	-5.508001e+01
2.570000e-06	-8.884339e-07	-1.489879e-09	-6.430348e+00	-1.001379e+02
2.580000e-06	-9.876521e-07	-2.195658e-09	-7.148475e+00	-1.459864e+02
2.590000e-06	-1.086483e-06	-2.910623e-09	-7.863799e+00	-1.926458e+02
2.600000e-06	-1.185005e-06	-3.634870e-09	-8.576887e+00	-2.400525e+02
2.610000e-06	-1.283134e-06	-4.366351e-09	-9.287130e+00	-2.880519e+02
2.620000e-06	-1.380751e-06	-5.102688e-09	-9.993662e+00	-3.364014e+02
2.630000e-06	-1.477826e-06	-5.841491e-09	-1.069628e+01	-3.847845e+02
2.640000e-06	-1.574367e-06	-6.575880e-09	-1.139503e+01	-4.328334e+02
2.650000e-06	-1.670449e-06	-7.299444e-09	-1.209045e+01	-4.801576e+02
2.660000e-06	-1.766158e-06	-8.008303e-09	-1.278318e+01	-5.263750e+02
2.670000e-06	-1.861303e-06	-8.697802e-09	-1.347182e+01	-5.711416e+02
2.680000e-06	-1.955565e-06	-9.358555e-09	-1.415408e+01	-6.141747e+02
2.690000e-06	-2.048795e-06	-9.987432e-09	-1.482886e+01	-6.552693e+02
2.700000e-06	-2.141117e-06	-1.058709e-08	-1.549707e+01	-6.943035e+02
2.710000e-06	-2.232764e-06	-1.115618e-08	-1.616040e+01	-7.312355e+02
2.720000e-06	-2.323674e-06	-1.169244e-08	-1.681840e+01	-7.660921e+02
2.730000e-06	-2.413731e-06	-1.219413e-08	-1.747022e+01	-7.989513e+02
2.740000e-06	-2.502894e-06	-1.266678e-08	-1.811556e+01	-8.299241e+02
2.750000e-06	-2.591220e-06	-1.311527e-08	-1.875485e+01	-8.591359e+02
2.760000e-06	-2.678864e-06	-1.353927e-08	-1.938921e+01	-8.867124e+02
2.770000e-06	-2.765695e-06	-1.394044e-08	-2.001768e+01	-9.127694e+02
2.780000e-06	-2.851312e-06	-1.432065e-08	-2.063736e+01	-9.374091e+02
2.790000e-06	-2.935713e-06	-1.467767e-08	-2.124824e+01	-9.607193e+02
2.800000e-06	-3.019121e-06	-1.501258e-08	-2.185194e+01	-9.827772e+02
2.810000e-06	-3.101538e-06	-1.532888e-08	-2.244845e+01	-1.003653e+03
2.820000e-06	-3.182927e-06	-1.562993e-08	-2.303754e+01	-1.023414e+03
2.830000e-06	-3.263267e-06	-1.591699e-08	-2.361903e+01	-1.042127e+03
2.840000e-06	-3.342545e-06	-1.618975e-08	-2.419283e+01	-1.059858e+03
2.850000e-06	-3.420463e-06	-1.644925e-08	-2.475679e+01	-1.076672e+03
2.860000e-06	-3.496865e-06	-1.669535e-08	-2.530977e+01	-1.092631e+03
2.870000e-06	-3.571929e-06	-1.692914e-08	-2.585307e+01	-1.107791e+03
2.880000e-06	-3.645683e-06	-1.715176e-08	-2.638689e+01	-1.122200e+03
2.890000e-06	-3.718176e-06	-1.736366e-08	-2.691159e+01	-1.135901e+03
2.900000e-06	-3.789437e-06	-1.756460e-08	-2.742736e+01	-1.148931e+03
2.910000e-06	-3.859115e-06	-1.775404e-08	-2.793168e+01	-1.161320e+03
2.920000e-06	-3.927196e-06	-1.793284e-08	-2.842444e+01	-1.173099e+03
2.930000e-06	-3.993958e-06	-1.810203e-08	-2.890766e+01	-1.184296e+03
2.940000e-06	-4.059370e-06	-1.826357e-08	-2.938110e+01	-1.194940e+03
