# Temperatura_=_69.58
# Concentracion g/m^3_=_28200.0
# C_Vs_to_Am_M_A/Vsm_=_65563218390.804596
# pendiente_HvsI_1/m_=_3716.3
# ordenada_HvsI_A/m_=_1297.0
# frecuencia_Hz_=_301749.0766070539

Tiempo_(s)	Campo_(V.s)	Magnetizacion_(V.s)	Campo_(kA/m)	Magnetizacion_(A/m)
0.000000e+00	-5.326289e-06	-2.338637e-08	-3.829590e+01	-1.529910e+03
1.000000e-08	-5.323784e-06	-2.338152e-08	-3.827789e+01	-1.529484e+03
2.000000e-08	-5.319465e-06	-2.337149e-08	-3.824684e+01	-1.528890e+03
3.000000e-08	-5.313513e-06	-2.335909e-08	-3.820404e+01	-1.528121e+03
4.000000e-08	-5.305982e-06	-2.334473e-08	-3.814990e+01	-1.527159e+03
5.000000e-08	-5.296757e-06	-2.332448e-08	-3.808357e+01	-1.525989e+03
6.000000e-08	-5.285528e-06	-2.330048e-08	-3.800283e+01	-1.524596e+03
7.000000e-08	-5.272373e-06	-2.327308e-08	-3.790824e+01	-1.522976e+03
8.000000e-08	-5.257223e-06	-2.325529e-08	-3.779932e+01	-1.521136e+03
9.000000e-08	-5.239750e-06	-2.325105e-08	-3.767369e+01	-1.519096e+03
1.000000e-07	-5.220163e-06	-2.321941e-08	-3.753286e+01	-1.516891e+03
1.100000e-07	-5.198711e-06	-2.316375e-08	-3.737862e+01	-1.514557e+03
1.200000e-07	-5.175556e-06	-2.310649e-08	-3.721214e+01	-1.512133e+03
1.300000e-07	-5.150918e-06	-2.303665e-08	-3.703499e+01	-1.509649e+03
1.400000e-07	-5.124775e-06	-2.301253e-08	-3.684702e+01	-1.507119e+03
1.500000e-07	-5.096993e-06	-2.301435e-08	-3.664727e+01	-1.504540e+03
1.600000e-07	-5.067666e-06	-2.293757e-08	-3.643641e+01	-1.501886e+03
1.700000e-07	-5.036861e-06	-2.288790e-08	-3.621492e+01	-1.499118e+03
1.800000e-07	-5.004132e-06	-2.286036e-08	-3.597960e+01	-1.496185e+03
1.900000e-07	-4.969366e-06	-2.275504e-08	-3.572963e+01	-1.493031e+03
2.000000e-07	-4.933030e-06	-2.270398e-08	-3.546838e+01	-1.489608e+03
2.100000e-07	-4.895091e-06	-2.268154e-08	-3.519559e+01	-1.485879e+03
2.200000e-07	-4.855419e-06	-2.259515e-08	-3.491036e+01	-1.481824e+03
2.300000e-07	-4.813915e-06	-2.252538e-08	-3.461195e+01	-1.477437e+03
2.400000e-07	-4.770395e-06	-2.245701e-08	-3.429904e+01	-1.472731e+03
2.500000e-07	-4.725020e-06	-2.236253e-08	-3.397279e+01	-1.467725e+03
2.600000e-07	-4.677907e-06	-2.227588e-08	-3.363405e+01	-1.462445e+03
2.700000e-07	-4.628905e-06	-2.219021e-08	-3.328173e+01	-1.456913e+03
2.800000e-07	-4.577819e-06	-2.210758e-08	-3.291442e+01	-1.451144e+03
2.900000e-07	-4.524747e-06	-2.201196e-08	-3.253283e+01	-1.445144e+03
3.000000e-07	-4.470000e-06	-2.191501e-08	-3.213920e+01	-1.438908e+03
3.100000e-07	-4.413630e-06	-2.182186e-08	-3.173390e+01	-1.432425e+03
3.200000e-07	-4.355505e-06	-2.171887e-08	-3.131598e+01	-1.425678e+03
3.300000e-07	-4.295754e-06	-2.161198e-08	-3.088638e+01	-1.418650e+03
3.400000e-07	-4.234525e-06	-2.149217e-08	-3.044614e+01	-1.411326e+03
3.500000e-07	-4.171900e-06	-2.136620e-08	-2.999587e+01	-1.403698e+03
3.600000e-07	-4.107858e-06	-2.124606e-08	-2.953541e+01	-1.395761e+03
3.700000e-07	-4.042179e-06	-2.112570e-08	-2.906318e+01	-1.387515e+03
3.800000e-07	-3.974899e-06	-2.099786e-08	-2.857944e+01	-1.378961e+03
3.900000e-07	-3.906267e-06	-2.086080e-08	-2.808597e+01	-1.370098e+03
4.000000e-07	-3.836358e-06	-2.071971e-08	-2.758333e+01	-1.360921e+03
4.100000e-07	-3.765243e-06	-2.057330e-08	-2.707201e+01	-1.351422e+03
4.200000e-07	-3.692872e-06	-2.041945e-08	-2.655167e+01	-1.341586e+03
4.300000e-07	-3.619038e-06	-2.026300e-08	-2.602081e+01	-1.331394e+03
4.400000e-07	-3.543639e-06	-2.010190e-08	-2.547869e+01	-1.320826e+03
4.500000e-07	-3.466811e-06	-1.993341e-08	-2.492629e+01	-1.309859e+03
4.600000e-07	-3.388657e-06	-1.975563e-08	-2.436437e+01	-1.298476e+03
4.700000e-07	-3.309107e-06	-1.957758e-08	-2.379241e+01	-1.286661e+03
4.800000e-07	-3.228276e-06	-1.939647e-08	-2.321123e+01	-1.274398e+03
4.900000e-07	-3.146238e-06	-1.920203e-08	-2.262138e+01	-1.261675e+03
5.000000e-07	-3.063148e-06	-1.899766e-08	-2.202397e+01	-1.248478e+03
5.100000e-07	-2.979152e-06	-1.878647e-08	-2.142004e+01	-1.234787e+03
5.200000e-07	-2.894258e-06	-1.856586e-08	-2.080965e+01	-1.220580e+03
5.300000e-07	-2.808405e-06	-1.833662e-08	-2.019237e+01	-1.205830e+03
5.400000e-07	-2.721590e-06	-1.810348e-08	-1.956817e+01	-1.190501e+03
5.500000e-07	-2.633956e-06	-1.786428e-08	-1.893809e+01	-1.174557e+03
5.600000e-07	-2.545316e-06	-1.761278e-08	-1.830077e+01	-1.157958e+03
5.700000e-07	-2.455447e-06	-1.734680e-08	-1.765461e+01	-1.140663e+03
5.800000e-07	-2.364496e-06	-1.706935e-08	-1.700067e+01	-1.122635e+03
5.900000e-07	-2.272714e-06	-1.678226e-08	-1.634077e+01	-1.103834e+03
6.000000e-07	-2.180212e-06	-1.648350e-08	-1.567568e+01	-1.084224e+03
6.100000e-07	-2.086987e-06	-1.617073e-08	-1.500539e+01	-1.063764e+03
6.200000e-07	-1.993005e-06	-1.584286e-08	-1.432966e+01	-1.042410e+03
6.300000e-07	-1.898278e-06	-1.549818e-08	-1.364858e+01	-1.020112e+03
6.400000e-07	-1.802989e-06	-1.513914e-08	-1.296345e+01	-9.968086e+02
6.500000e-07	-1.707175e-06	-1.476653e-08	-1.227455e+01	-9.724316e+02
6.600000e-07	-1.610642e-06	-1.437776e-08	-1.158048e+01	-9.469011e+02
6.700000e-07	-1.513411e-06	-1.396994e-08	-1.088139e+01	-9.201296e+02
6.800000e-07	-1.415531e-06	-1.354095e-08	-1.017764e+01	-8.920231e+02
6.900000e-07	-1.316972e-06	-1.308898e-08	-9.468997e+00	-8.624855e+02
7.000000e-07	-1.217942e-06	-1.261249e-08	-8.756978e+00	-8.314215e+02
7.100000e-07	-1.118537e-06	-1.211255e-08	-8.042258e+00	-7.987422e+02
7.200000e-07	-1.018768e-06	-1.158848e-08	-7.324923e+00	-7.643700e+02
7.300000e-07	-9.187208e-07	-1.103836e-08	-6.605582e+00	-7.282455e+02
7.400000e-07	-8.184094e-07	-1.046068e-08	-5.884346e+00	-6.903343e+02
7.500000e-07	-7.177983e-07	-9.855865e-09	-5.160954e+00	-6.506348e+02
7.600000e-07	-6.169596e-07	-9.224570e-09	-4.435926e+00	-6.091848e+02
7.700000e-07	-5.159885e-07	-8.566954e-09	-3.709946e+00	-5.660670e+02
7.800000e-07	-4.149109e-07	-7.887691e-09	-2.983200e+00	-5.214112e+02
7.900000e-07	-3.137427e-07	-7.189172e-09	-2.255803e+00	-4.753910e+02
8.000000e-07	-2.124230e-07	-6.471966e-09	-1.527316e+00	-4.282155e+02
8.100000e-07	-1.109531e-07	-5.740139e-09	-7.977501e-01	-3.801145e+02
8.200000e-07	-9.385204e-09	-4.997379e-09	-6.747941e-02	-3.313179e+02
8.300000e-07	9.222251e-08	-4.247037e-09	6.630779e-01	-2.820330e+02
8.400000e-07	1.938160e-07	-3.491291e-09	1.393533e+00	-2.324203e+02
8.500000e-07	2.953109e-07	-2.733979e-09	2.123279e+00	-1.825746e+02
8.600000e-07	3.966796e-07	-1.975617e-09	2.852118e+00	-1.325126e+02
8.700000e-07	4.978990e-07	-1.212611e-09	3.579883e+00	-8.217193e+01
8.800000e-07	5.989700e-07	-4.415931e-10	4.306582e+00	-3.142269e+01
8.900000e-07	6.999006e-07	3.424806e-10	5.032270e+00	1.990905e+01
9.000000e-07	8.006392e-07	1.140196e-09	5.756579e+00	7.200781e+01
9.100000e-07	9.011579e-07	1.950122e-09	6.479305e+00	1.250300e+02
9.200000e-07	1.001442e-06	2.773463e-09	7.200349e+00	1.790654e+02
9.300000e-07	1.101450e-06	3.610278e-09	7.919401e+00	2.341053e+02
9.400000e-07	1.201132e-06	4.460220e-09	8.636111e+00	2.900222e+02
9.500000e-07	1.300342e-06	5.319395e-09	9.349433e+00	3.465651e+02
9.600000e-07	1.398900e-06	6.182663e-09	1.005806e+01	4.033709e+02
9.700000e-07	1.496786e-06	7.043735e-09	1.076186e+01	4.599915e+02
9.800000e-07	1.594007e-06	7.894172e-09	1.146088e+01	5.159320e+02
9.900000e-07	1.690524e-06	8.726320e-09	1.215483e+01	5.706938e+02
1.000000e-06	1.786334e-06	9.534705e-09	1.284370e+01	6.238180e+02
1.010000e-06	1.881476e-06	1.031246e-08	1.352777e+01	6.749204e+02
1.020000e-06	1.975987e-06	1.105227e-08	1.420731e+01	7.237162e+02
1.030000e-06	2.069839e-06	1.175343e-08	1.488210e+01	7.700304e+02
1.040000e-06	2.162960e-06	1.241605e-08	1.555163e+01	8.137939e+02
1.050000e-06	2.255426e-06	1.303880e-08	1.621646e+01	8.550287e+02
1.060000e-06	2.347241e-06	1.362435e-08	1.687661e+01	8.938256e+02
1.070000e-06	2.438261e-06	1.417832e-08	1.753105e+01	9.303185e+02
1.080000e-06	2.528238e-06	1.470080e-08	1.817798e+01	9.646610e+02
1.090000e-06	2.617086e-06	1.519255e-08	1.881679e+01	9.970073e+02
1.100000e-06	2.704993e-06	1.565577e-08	1.944884e+01	1.027501e+03
1.110000e-06	2.791994e-06	1.609179e-08	2.007437e+01	1.056269e+03
1.120000e-06	2.878013e-06	1.650368e-08	2.069285e+01	1.083423e+03
1.130000e-06	2.963119e-06	1.689278e-08	2.130476e+01	1.109064e+03
1.140000e-06	3.047387e-06	1.725966e-08	2.191064e+01	1.133287e+03
1.150000e-06	3.130749e-06	1.760660e-08	2.251002e+01	1.156185e+03
1.160000e-06	3.212956e-06	1.793623e-08	2.310108e+01	1.177847e+03
1.170000e-06	3.293893e-06	1.824844e-08	2.368302e+01	1.198364e+03
1.180000e-06	3.373665e-06	1.854361e-08	2.425658e+01	1.217821e+03
1.190000e-06	3.452275e-06	1.882391e-08	2.482178e+01	1.236292e+03
1.200000e-06	3.529716e-06	1.909031e-08	2.537858e+01	1.253844e+03
1.210000e-06	3.605922e-06	1.934295e-08	2.592650e+01	1.270529e+03
1.220000e-06	3.680713e-06	1.958305e-08	2.646425e+01	1.286391e+03
1.230000e-06	3.753899e-06	1.981073e-08	2.699045e+01	1.301467e+03
1.240000e-06	3.825569e-06	2.002519e-08	2.750576e+01	1.315792e+03
1.250000e-06	3.895919e-06	2.022899e-08	2.801157e+01	1.329403e+03
1.260000e-06	3.964926e-06	2.042325e-08	2.850773e+01	1.342340e+03
1.270000e-06	4.032643e-06	2.060762e-08	2.899462e+01	1.354646e+03
1.280000e-06	4.098872e-06	2.078406e-08	2.947080e+01	1.366369e+03
1.290000e-06	4.163365e-06	2.095453e-08	2.993450e+01	1.377551e+03
1.300000e-06	4.226333e-06	2.111948e-08	3.038724e+01	1.388227e+03
1.310000e-06	4.287956e-06	2.127579e-08	3.083031e+01	1.398423e+03
1.320000e-06	4.348206e-06	2.142472e-08	3.126351e+01	1.408152e+03
1.330000e-06	4.406942e-06	2.156706e-08	3.168581e+01	1.417414e+03
1.340000e-06	4.463937e-06	2.169991e-08	3.209561e+01	1.426205e+03
1.350000e-06	4.519225e-06	2.182404e-08	3.249313e+01	1.434519e+03
1.360000e-06	4.572932e-06	2.194244e-08	3.287928e+01	1.442354e+03
1.370000e-06	4.624853e-06	2.205464e-08	3.325259e+01	1.449718e+03
1.380000e-06	4.674705e-06	2.215910e-08	3.361103e+01	1.456635e+03
1.390000e-06	4.722614e-06	2.225833e-08	3.395549e+01	1.463137e+03
1.400000e-06	4.768906e-06	2.235333e-08	3.428833e+01	1.469269e+03
1.410000e-06	4.813631e-06	2.244194e-08	3.460990e+01	1.475075e+03
1.420000e-06	4.856775e-06	2.252493e-08	3.492011e+01	1.480597e+03
1.430000e-06	4.898123e-06	2.260397e-08	3.521740e+01	1.485865e+03
1.440000e-06	4.937655e-06	2.267866e-08	3.550163e+01	1.490896e+03
1.450000e-06	4.975601e-06	2.274858e-08	3.577447e+01	1.495691e+03
1.460000e-06	5.011976e-06	2.281521e-08	3.603600e+01	1.500238e+03
1.470000e-06	5.046577e-06	2.288062e-08	3.628478e+01	1.504517e+03
1.480000e-06	5.079228e-06	2.294359e-08	3.651954e+01	1.508507e+03
1.490000e-06	5.110090e-06	2.300209e-08	3.674143e+01	1.512192e+03
1.500000e-06	5.139243e-06	2.305554e-08	3.695105e+01	1.515563e+03
1.510000e-06	5.166681e-06	2.310305e-08	3.714832e+01	1.518625e+03
1.520000e-06	5.192161e-06	2.314392e-08	3.733152e+01	1.521390e+03
1.530000e-06	5.215655e-06	2.317919e-08	3.750044e+01	1.523880e+03
1.540000e-06	5.237400e-06	2.321111e-08	3.765679e+01	1.526116e+03
1.550000e-06	5.257428e-06	2.324124e-08	3.780079e+01	1.528119e+03
1.560000e-06	5.275594e-06	2.326882e-08	3.793141e+01	1.529902e+03
1.570000e-06	5.291699e-06	2.329277e-08	3.804720e+01	1.531471e+03
1.580000e-06	5.305871e-06	2.331313e-08	3.814910e+01	1.532825e+03
1.590000e-06	5.318077e-06	2.333010e-08	3.823686e+01	1.533958e+03
1.600000e-06	5.328041e-06	2.334434e-08	3.830850e+01	1.534865e+03
1.610000e-06	5.335956e-06	2.335717e-08	3.836541e+01	1.535544e+03
1.620000e-06	5.342083e-06	2.336723e-08	3.840946e+01	1.536000e+03
1.630000e-06	5.346386e-06	2.337263e-08	3.844040e+01	1.536241e+03
1.640000e-06	5.348733e-06	2.337426e-08	3.845728e+01	1.536284e+03
1.650000e-06	5.349112e-06	2.337309e-08	3.846000e+01	1.536142e+03
1.660000e-06	5.347723e-06	2.336796e-08	3.845001e+01	1.535828e+03
1.670000e-06	5.344680e-06	2.336060e-08	3.842813e+01	1.535347e+03
1.680000e-06	5.339916e-06	2.335292e-08	3.839388e+01	1.534697e+03
1.690000e-06	5.333292e-06	2.334268e-08	3.834625e+01	1.533867e+03
1.700000e-06	5.324903e-06	2.332849e-08	3.828594e+01	1.532839e+03
1.710000e-06	5.314951e-06	2.331035e-08	3.821438e+01	1.531597e+03
1.720000e-06	5.303271e-06	2.329354e-08	3.813041e+01	1.530130e+03
1.730000e-06	5.289643e-06	2.326134e-08	3.803242e+01	1.528436e+03
1.740000e-06	5.274039e-06	2.320164e-08	3.792022e+01	1.526528e+03
1.750000e-06	5.256195e-06	2.316400e-08	3.779193e+01	1.524430e+03
1.760000e-06	5.235745e-06	2.315455e-08	3.764489e+01	1.522177e+03
1.770000e-06	5.212911e-06	2.315028e-08	3.748072e+01	1.519810e+03
1.780000e-06	5.188573e-06	2.314868e-08	3.730573e+01	1.517363e+03
1.790000e-06	5.163425e-06	2.306636e-08	3.712492e+01	1.514862e+03
1.800000e-06	5.137134e-06	2.297842e-08	3.693588e+01	1.512317e+03
1.810000e-06	5.108848e-06	2.298118e-08	3.673250e+01	1.509715e+03
1.820000e-06	5.078530e-06	2.293128e-08	3.651452e+01	1.507029e+03
1.830000e-06	5.046485e-06	2.290392e-08	3.628412e+01	1.504212e+03
1.840000e-06	5.012607e-06	2.292159e-08	3.604053e+01	1.501213e+03
1.850000e-06	4.977101e-06	2.282898e-08	3.578525e+01	1.497976e+03
1.860000e-06	4.939937e-06	2.276925e-08	3.551804e+01	1.494457e+03
1.870000e-06	4.900872e-06	2.274856e-08	3.523716e+01	1.490623e+03
1.880000e-06	4.860147e-06	2.265519e-08	3.494435e+01	1.486460e+03
1.890000e-06	4.817711e-06	2.260129e-08	3.463924e+01	1.481967e+03
1.900000e-06	4.773534e-06	2.254824e-08	3.432160e+01	1.477161e+03
1.910000e-06	4.727540e-06	2.247641e-08	3.399091e+01	1.472063e+03
1.920000e-06	4.679630e-06	2.240969e-08	3.364644e+01	1.466699e+03
1.930000e-06	4.630119e-06	2.229866e-08	3.329046e+01	1.461088e+03
1.940000e-06	4.578879e-06	2.222007e-08	3.292204e+01	1.455244e+03
1.950000e-06	4.525527e-06	2.213417e-08	3.253844e+01	1.449168e+03
1.960000e-06	4.470281e-06	2.203180e-08	3.214122e+01	1.442853e+03
1.970000e-06	4.413411e-06	2.193872e-08	3.173233e+01	1.436286e+03
1.980000e-06	4.355025e-06	2.181490e-08	3.131254e+01	1.429449e+03
1.990000e-06	4.295153e-06	2.172413e-08	3.088206e+01	1.422326e+03
2.000000e-06	4.233656e-06	2.162023e-08	3.043989e+01	1.414904e+03
2.010000e-06	4.170535e-06	2.148752e-08	2.998605e+01	1.407175e+03
2.020000e-06	4.105871e-06	2.137209e-08	2.952112e+01	1.399138e+03
2.030000e-06	4.039759e-06	2.124081e-08	2.904578e+01	1.390791e+03
2.040000e-06	3.972307e-06	2.111275e-08	2.856080e+01	1.382137e+03
2.050000e-06	3.903416e-06	2.097434e-08	2.806548e+01	1.373172e+03
2.060000e-06	3.833002e-06	2.083514e-08	2.755920e+01	1.363892e+03
2.070000e-06	3.761222e-06	2.070033e-08	2.704310e+01	1.354286e+03
2.080000e-06	3.688181e-06	2.054096e-08	2.651794e+01	1.344336e+03
2.090000e-06	3.613837e-06	2.038018e-08	2.598341e+01	1.334024e+03
2.100000e-06	3.538051e-06	2.021976e-08	2.543851e+01	1.323328e+03
2.110000e-06	3.460683e-06	2.005650e-08	2.488224e+01	1.312229e+03
2.120000e-06	3.381936e-06	1.987952e-08	2.431605e+01	1.300708e+03
2.130000e-06	3.302016e-06	1.969232e-08	2.374143e+01	1.288748e+03
2.140000e-06	3.220920e-06	1.950571e-08	2.315834e+01	1.276338e+03
2.150000e-06	3.138744e-06	1.930796e-08	2.256750e+01	1.263463e+03
2.160000e-06	3.055605e-06	1.910600e-08	2.196973e+01	1.250108e+03
2.170000e-06	2.971414e-06	1.890318e-08	2.136440e+01	1.236253e+03
2.180000e-06	2.885949e-06	1.869069e-08	2.074991e+01	1.221874e+03
2.190000e-06	2.799259e-06	1.846174e-08	2.012661e+01	1.206940e+03
2.200000e-06	2.711568e-06	1.822006e-08	1.949611e+01	1.191417e+03
2.210000e-06	2.622941e-06	1.797261e-08	1.885889e+01	1.175265e+03
2.220000e-06	2.533385e-06	1.771726e-08	1.821499e+01	1.158446e+03
2.230000e-06	2.442976e-06	1.744971e-08	1.756495e+01	1.140918e+03
2.240000e-06	2.351887e-06	1.717149e-08	1.691001e+01	1.122644e+03
2.250000e-06	2.260165e-06	1.688457e-08	1.625054e+01	1.103587e+03
2.260000e-06	2.167591e-06	1.658523e-08	1.558493e+01	1.083706e+03
2.270000e-06	2.073961e-06	1.627049e-08	1.491173e+01	1.062963e+03
2.280000e-06	1.979417e-06	1.594364e-08	1.423197e+01	1.041310e+03
2.290000e-06	1.884107e-06	1.560327e-08	1.354669e+01	1.018694e+03
2.300000e-06	1.788106e-06	1.524328e-08	1.285644e+01	9.950531e+02
2.310000e-06	1.691610e-06	1.486320e-08	1.216264e+01	9.703132e+02
2.320000e-06	1.594627e-06	1.446689e-08	1.146534e+01	9.443925e+02
2.330000e-06	1.497057e-06	1.405476e-08	1.076381e+01	9.172011e+02
2.340000e-06	1.398976e-06	1.362228e-08	1.005860e+01	8.886440e+02
2.350000e-06	1.300533e-06	1.316722e-08	9.350801e+00	8.586247e+02
2.360000e-06	1.201730e-06	1.268819e-08	8.640413e+00	8.270495e+02
2.370000e-06	1.102629e-06	1.218378e-08	7.927876e+00	7.938326e+02
2.380000e-06	1.003295e-06	1.165226e-08	7.213667e+00	7.589013e+02
2.390000e-06	9.036836e-07	1.109242e-08	6.497465e+00	7.222037e+02
2.400000e-06	8.037804e-07	1.050377e-08	5.779163e+00	6.837149e+02
2.410000e-06	7.035992e-07	9.887981e-09	5.058863e+00	6.434453e+02
2.420000e-06	6.031136e-07	9.245144e-09	4.336374e+00	6.014467e+02
2.430000e-06	5.024096e-07	8.576119e-09	3.612314e+00	5.578170e+02
2.440000e-06	4.015462e-07	7.886417e-09	2.887108e+00	5.127005e+02
2.450000e-06	3.004036e-07	7.179277e-09	2.159895e+00	4.662836e+02
2.460000e-06	1.990222e-07	6.455914e-09	1.430965e+00	4.187839e+02
2.470000e-06	9.754043e-08	5.717808e-09	7.013136e-01	3.704336e+02
2.480000e-06	-3.940748e-09	4.967834e-09	-2.833389e-02	3.214581e+02
2.490000e-06	-1.053925e-07	4.209999e-09	-7.577700e-01	2.720519e+02
2.500000e-06	-2.068202e-07	3.448028e-09	-1.487033e+00	2.223563e+02
2.510000e-06	-3.080990e-07	2.682491e-09	-2.215225e+00	1.724419e+02
2.520000e-06	-4.091894e-07	1.914137e-09	-2.942063e+00	1.222995e+02
2.530000e-06	-5.101575e-07	1.142023e-09	-3.668021e+00	7.184321e+01
2.540000e-06	-6.109592e-07	3.649651e-10	-4.392783e+00	2.092575e+01
2.550000e-06	-7.114673e-07	-4.203544e-10	-5.115434e+00	-3.063418e+01
2.560000e-06	-8.116910e-07	-1.218253e-09	-5.836041e+00	-8.301637e+01
2.570000e-06	-9.116842e-07	-2.031231e-09	-6.554990e+00	-1.363598e+02
2.580000e-06	-1.011426e-06	-2.861523e-09	-7.272132e+00	-1.907257e+02
2.590000e-06	-1.110780e-06	-3.708732e-09	-7.986483e+00	-2.460686e+02
2.600000e-06	-1.209713e-06	-4.569155e-09	-8.697809e+00	-3.022211e+02
2.610000e-06	-1.308261e-06	-5.437586e-09	-9.406368e+00	-3.588941e+02
2.620000e-06	-1.406393e-06	-6.307330e-09	-1.011194e+01	-4.156935e+02
2.630000e-06	-1.504026e-06	-7.172175e-09	-1.081391e+01	-4.721518e+02
2.640000e-06	-1.601055e-06	-8.024738e-09	-1.151155e+01	-5.277679e+02
2.650000e-06	-1.697533e-06	-8.855069e-09	-1.220523e+01	-5.820516e+02
2.660000e-06	-1.793500e-06	-9.657480e-09	-1.289523e+01	-6.345646e+02
2.670000e-06	-1.888971e-06	-1.042912e-08	-1.358166e+01	-6.849527e+02
2.680000e-06	-1.983845e-06	-1.116605e-08	-1.426380e+01	-7.329659e+02
2.690000e-06	-2.077827e-06	-1.186533e-08	-1.493953e+01	-7.784642e+02
2.700000e-06	-2.170785e-06	-1.252630e-08	-1.560790e+01	-8.214099e+02
2.710000e-06	-2.262891e-06	-1.314864e-08	-1.627014e+01	-8.618498e+02
2.720000e-06	-2.354222e-06	-1.373331e-08	-1.692681e+01	-8.998914e+02
2.730000e-06	-2.444711e-06	-1.428160e-08	-1.757742e+01	-9.356772e+02
2.740000e-06	-2.534353e-06	-1.479639e-08	-1.822194e+01	-9.693629e+02
2.750000e-06	-2.623105e-06	-1.528187e-08	-1.886007e+01	-1.001100e+03
2.760000e-06	-2.711011e-06	-1.574099e-08	-1.949211e+01	-1.031027e+03
2.770000e-06	-2.798123e-06	-1.617398e-08	-2.011844e+01	-1.059266e+03
2.780000e-06	-2.884201e-06	-1.658293e-08	-2.073734e+01	-1.085924e+03
2.790000e-06	-2.969005e-06	-1.696882e-08	-2.134708e+01	-1.111101e+03
2.800000e-06	-3.052704e-06	-1.733269e-08	-2.194888e+01	-1.134889e+03
2.810000e-06	-3.135456e-06	-1.767665e-08	-2.254386e+01	-1.157381e+03
2.820000e-06	-3.217182e-06	-1.800139e-08	-2.313147e+01	-1.178667e+03
2.830000e-06	-3.297854e-06	-1.830878e-08	-2.371150e+01	-1.198835e+03
2.840000e-06	-3.377471e-06	-1.860102e-08	-2.428394e+01	-1.217969e+03
2.850000e-06	-3.455856e-06	-1.888002e-08	-2.484753e+01	-1.236139e+03
2.860000e-06	-3.532743e-06	-1.914576e-08	-2.540034e+01	-1.253408e+03
2.870000e-06	-3.608114e-06	-1.939809e-08	-2.594226e+01	-1.269825e+03
2.880000e-06	-3.682072e-06	-1.963810e-08	-2.647401e+01	-1.285432e+03
2.890000e-06	-3.754640e-06	-1.986790e-08	-2.699578e+01	-1.300264e+03
2.900000e-06	-3.825944e-06	-2.008809e-08	-2.750845e+01	-1.314357e+03
2.910000e-06	-3.895857e-06	-2.029429e-08	-2.801113e+01	-1.327748e+03
2.920000e-06	-3.964198e-06	-2.048685e-08	-2.850250e+01	-1.340478e+03
2.930000e-06	-4.031107e-06	-2.067137e-08	-2.898357e+01	-1.352593e+03
2.940000e-06	-4.096646e-06	-2.084796e-08	-2.945479e+01	-1.364139e+03
