# Temperatura_=_33.76
# Concentracion g/m^3_=_28370.0
# C_Vs_to_Am_M_A/Vsm_=_65563218390.804596
# pendiente_HvsI_1/m_=_3716.3
# ordenada_HvsI_A/m_=_1297.0
# frecuencia_Hz_=_302403.6571067791

Tiempo_(s)	Campo_(V.s)	Magnetizacion_(V.s)	Campo_(kA/m)	Magnetizacion_(A/m)
0.000000e+00	-7.351329e-06	-2.614379e-08	-5.318584e+01	-1.712149e+03
1.000000e-08	-7.348079e-06	-2.614685e-08	-5.316233e+01	-1.711349e+03
2.000000e-08	-7.342421e-06	-2.613645e-08	-5.312140e+01	-1.710425e+03
3.000000e-08	-7.334504e-06	-2.612252e-08	-5.306412e+01	-1.709438e+03
4.000000e-08	-7.324054e-06	-2.611066e-08	-5.298852e+01	-1.708438e+03
5.000000e-08	-7.310801e-06	-2.609438e-08	-5.289263e+01	-1.707454e+03
6.000000e-08	-7.294788e-06	-2.607033e-08	-5.277678e+01	-1.706491e+03
7.000000e-08	-7.276461e-06	-2.604415e-08	-5.264418e+01	-1.705531e+03
8.000000e-08	-7.256121e-06	-2.600915e-08	-5.249703e+01	-1.704539e+03
9.000000e-08	-7.233334e-06	-2.607753e-08	-5.233217e+01	-1.703464e+03
1.000000e-07	-7.207524e-06	-2.609348e-08	-5.214543e+01	-1.702254e+03
1.100000e-07	-7.178779e-06	-2.597376e-08	-5.193747e+01	-1.700863e+03
1.200000e-07	-7.147545e-06	-2.591778e-08	-5.171149e+01	-1.699258e+03
1.300000e-07	-7.113820e-06	-2.590476e-08	-5.146750e+01	-1.697422e+03
1.400000e-07	-7.077789e-06	-2.582329e-08	-5.120682e+01	-1.695360e+03
1.500000e-07	-7.039938e-06	-2.569160e-08	-5.093297e+01	-1.693093e+03
1.600000e-07	-7.000026e-06	-2.583209e-08	-5.064422e+01	-1.690651e+03
1.700000e-07	-6.957541e-06	-2.584436e-08	-5.033684e+01	-1.688067e+03
1.800000e-07	-6.912697e-06	-2.560771e-08	-5.001240e+01	-1.685371e+03
1.900000e-07	-6.865447e-06	-2.572071e-08	-4.967055e+01	-1.682577e+03
2.000000e-07	-6.815281e-06	-2.562050e-08	-4.930761e+01	-1.679679e+03
2.100000e-07	-6.762378e-06	-2.548843e-08	-4.892486e+01	-1.676655e+03
2.200000e-07	-6.706936e-06	-2.552587e-08	-4.852375e+01	-1.673462e+03
2.300000e-07	-6.648935e-06	-2.542618e-08	-4.810412e+01	-1.670044e+03
2.400000e-07	-6.588488e-06	-2.541834e-08	-4.766680e+01	-1.666343e+03
2.500000e-07	-6.525632e-06	-2.528942e-08	-4.721204e+01	-1.662307e+03
2.600000e-07	-6.460311e-06	-2.524051e-08	-4.673945e+01	-1.657898e+03
2.700000e-07	-6.392467e-06	-2.518919e-08	-4.624861e+01	-1.653099e+03
2.800000e-07	-6.322248e-06	-2.508542e-08	-4.574059e+01	-1.647920e+03
2.900000e-07	-6.249678e-06	-2.501296e-08	-4.521555e+01	-1.642392e+03
3.000000e-07	-6.174608e-06	-2.492157e-08	-4.467243e+01	-1.636568e+03
3.100000e-07	-6.096924e-06	-2.487176e-08	-4.411040e+01	-1.630509e+03
3.200000e-07	-6.016668e-06	-2.473097e-08	-4.352976e+01	-1.624276e+03
3.300000e-07	-5.934239e-06	-2.465559e-08	-4.293339e+01	-1.617915e+03
3.400000e-07	-5.849850e-06	-2.458891e-08	-4.232285e+01	-1.611453e+03
3.500000e-07	-5.763609e-06	-2.444865e-08	-4.169891e+01	-1.604885e+03
3.600000e-07	-5.675435e-06	-2.434958e-08	-4.106098e+01	-1.598175e+03
3.700000e-07	-5.585090e-06	-2.425002e-08	-4.040735e+01	-1.591259e+03
3.800000e-07	-5.492645e-06	-2.413345e-08	-3.973852e+01	-1.584052e+03
3.900000e-07	-5.398306e-06	-2.399572e-08	-3.905600e+01	-1.576462e+03
4.000000e-07	-5.302058e-06	-2.387941e-08	-3.835965e+01	-1.568398e+03
4.100000e-07	-5.203933e-06	-2.374866e-08	-3.764973e+01	-1.559788e+03
4.200000e-07	-5.104006e-06	-2.359460e-08	-3.692677e+01	-1.550587e+03
4.300000e-07	-5.002243e-06	-2.345108e-08	-3.619054e+01	-1.540783e+03
4.400000e-07	-4.898634e-06	-2.330716e-08	-3.544094e+01	-1.530395e+03
4.500000e-07	-4.793249e-06	-2.314855e-08	-3.467849e+01	-1.519472e+03
4.600000e-07	-4.686230e-06	-2.297427e-08	-3.390422e+01	-1.508079e+03
4.700000e-07	-4.577536e-06	-2.279792e-08	-3.311783e+01	-1.496283e+03
4.800000e-07	-4.467254e-06	-2.261858e-08	-3.231996e+01	-1.484138e+03
4.900000e-07	-4.355352e-06	-2.242523e-08	-3.151036e+01	-1.471670e+03
5.000000e-07	-4.241695e-06	-2.222577e-08	-3.068808e+01	-1.458870e+03
5.100000e-07	-4.126302e-06	-2.202537e-08	-2.985322e+01	-1.445684e+03
5.200000e-07	-4.009281e-06	-2.180812e-08	-2.900659e+01	-1.432021e+03
5.300000e-07	-3.890834e-06	-2.157389e-08	-2.814965e+01	-1.417756e+03
5.400000e-07	-3.770932e-06	-2.133140e-08	-2.728217e+01	-1.402749e+03
5.500000e-07	-3.649523e-06	-2.108602e-08	-2.640379e+01	-1.386858e+03
5.600000e-07	-3.526767e-06	-2.082437e-08	-2.551567e+01	-1.369961e+03
5.700000e-07	-3.402672e-06	-2.054899e-08	-2.461786e+01	-1.351966e+03
5.800000e-07	-3.277338e-06	-2.025905e-08	-2.371109e+01	-1.332823e+03
5.900000e-07	-3.150886e-06	-1.995875e-08	-2.279622e+01	-1.312522e+03
6.000000e-07	-3.023248e-06	-1.964258e-08	-2.187278e+01	-1.291092e+03
6.100000e-07	-2.894415e-06	-1.930690e-08	-2.094069e+01	-1.268577e+03
6.200000e-07	-2.764441e-06	-1.895564e-08	-2.000034e+01	-1.245022e+03
6.300000e-07	-2.633447e-06	-1.858485e-08	-1.905263e+01	-1.220444e+03
6.400000e-07	-2.501451e-06	-1.819389e-08	-1.809765e+01	-1.194811e+03
6.500000e-07	-2.368490e-06	-1.777441e-08	-1.713569e+01	-1.168023e+03
6.600000e-07	-2.234806e-06	-1.733408e-08	-1.616851e+01	-1.139898e+03
6.700000e-07	-2.100512e-06	-1.686808e-08	-1.519691e+01	-1.110181e+03
6.800000e-07	-1.965481e-06	-1.637206e-08	-1.421999e+01	-1.078549e+03
6.900000e-07	-1.829676e-06	-1.584103e-08	-1.323745e+01	-1.044640e+03
7.000000e-07	-1.693088e-06	-1.527602e-08	-1.224926e+01	-1.008088e+03
7.100000e-07	-1.555858e-06	-1.467454e-08	-1.125642e+01	-9.685568e+02
7.200000e-07	-1.418116e-06	-1.402637e-08	-1.025987e+01	-9.257852e+02
7.300000e-07	-1.279832e-06	-1.333585e-08	-9.259410e+00	-8.796160e+02
7.400000e-07	-1.141166e-06	-1.259899e-08	-8.256179e+00	-8.300221e+02
7.500000e-07	-1.002152e-06	-1.181455e-08	-7.250431e+00	-7.771156e+02
7.600000e-07	-8.627734e-07	-1.097882e-08	-6.242046e+00	-7.211417e+02
7.700000e-07	-7.230505e-07	-1.009753e-08	-5.231170e+00	-6.624563e+02
7.800000e-07	-5.829939e-07	-9.170838e-09	-4.217880e+00	-6.014911e+02
7.900000e-07	-4.427082e-07	-8.201317e-09	-3.202932e+00	-5.387076e+02
8.000000e-07	-3.022256e-07	-7.199357e-09	-2.186560e+00	-4.745494e+02
8.100000e-07	-1.614661e-07	-6.177041e-09	-1.168185e+00	-4.093961e+02
8.200000e-07	-2.053462e-08	-5.148678e-09	-1.485651e-01	-3.435264e+02
8.300000e-07	1.203594e-07	-4.119609e-09	8.707832e-01	-2.770959e+02
8.400000e-07	2.611914e-07	-3.097072e-09	1.889684e+00	-2.101326e+02
8.500000e-07	4.019676e-07	-2.079899e-09	2.908180e+00	-1.425506e+02
8.600000e-07	5.425529e-07	-1.063616e-09	3.925295e+00	-7.418254e+01
8.700000e-07	6.828778e-07	-3.806364e-11	4.940526e+00	-4.824233e+00
8.800000e-07	8.229724e-07	1.005433e-09	5.954091e+00	6.571161e+01
8.900000e-07	9.627952e-07	2.075769e-09	6.965689e+00	1.375412e+02
9.000000e-07	1.102240e-06	3.179220e-09	7.974557e+00	2.106618e+02
9.100000e-07	1.241262e-06	4.314646e-09	8.980360e+00	2.849162e+02
9.200000e-07	1.379856e-06	5.477286e-09	9.983070e+00	3.599757e+02
9.300000e-07	1.517929e-06	6.651364e-09	1.098201e+01	4.353432e+02
9.400000e-07	1.655416e-06	7.823013e-09	1.197670e+01	5.103773e+02
9.500000e-07	1.792282e-06	8.972761e-09	1.296691e+01	5.843345e+02
9.600000e-07	1.928461e-06	1.008478e-08	1.395215e+01	6.564254e+02
9.700000e-07	2.063790e-06	1.114262e-08	1.493123e+01	7.258773e+02
9.800000e-07	2.198238e-06	1.213329e-08	1.590395e+01	7.919965e+02
9.900000e-07	2.331909e-06	1.305470e-08	1.687104e+01	8.542230e+02
1.000000e-06	2.464813e-06	1.390821e-08	1.783258e+01	9.121717e+02
1.010000e-06	2.596771e-06	1.469578e-08	1.878728e+01	9.656545e+02
1.020000e-06	2.727676e-06	1.542208e-08	1.973436e+01	1.014683e+03
1.030000e-06	2.857635e-06	1.609508e-08	2.067459e+01	1.059451e+03
1.040000e-06	2.986535e-06	1.672108e-08	2.160716e+01	1.100299e+03
1.050000e-06	3.114227e-06	1.729966e-08	2.253100e+01	1.137670e+03
1.060000e-06	3.240745e-06	1.783849e-08	2.344634e+01	1.172056e+03
1.070000e-06	3.366169e-06	1.834174e-08	2.435376e+01	1.203948e+03
1.080000e-06	3.490486e-06	1.881097e-08	2.525318e+01	1.233787e+03
1.090000e-06	3.613613e-06	1.924715e-08	2.614399e+01	1.261937e+03
1.100000e-06	3.735487e-06	1.965403e-08	2.702573e+01	1.288661e+03
1.110000e-06	3.855955e-06	2.003715e-08	2.789730e+01	1.314122e+03
1.120000e-06	3.974967e-06	2.039991e-08	2.875834e+01	1.338389e+03
1.130000e-06	4.092589e-06	2.074045e-08	2.960931e+01	1.361461e+03
1.140000e-06	4.208727e-06	2.105949e-08	3.044956e+01	1.383296e+03
1.150000e-06	4.323232e-06	2.136017e-08	3.127799e+01	1.403843e+03
1.160000e-06	4.435983e-06	2.164284e-08	3.209372e+01	1.423062e+03
1.170000e-06	4.547011e-06	2.190954e-08	3.289699e+01	1.440955e+03
1.180000e-06	4.656535e-06	2.216096e-08	3.368939e+01	1.457570e+03
1.190000e-06	4.764560e-06	2.240268e-08	3.447093e+01	1.473004e+03
1.200000e-06	4.870904e-06	2.263136e-08	3.524031e+01	1.487396e+03
1.210000e-06	4.975448e-06	2.284979e-08	3.599668e+01	1.500911e+03
1.220000e-06	5.078174e-06	2.305568e-08	3.673988e+01	1.513716e+03
1.230000e-06	5.179143e-06	2.324948e-08	3.747038e+01	1.525966e+03
1.240000e-06	5.278192e-06	2.343138e-08	3.818698e+01	1.537781e+03
1.250000e-06	5.375124e-06	2.360153e-08	3.888827e+01	1.549235e+03
1.260000e-06	5.470051e-06	2.376469e-08	3.957506e+01	1.560355e+03
1.270000e-06	5.563117e-06	2.392209e-08	4.024838e+01	1.571117e+03
1.280000e-06	5.654247e-06	2.407261e-08	4.090770e+01	1.581465e+03
1.290000e-06	5.743286e-06	2.421595e-08	4.155187e+01	1.591321e+03
1.300000e-06	5.830187e-06	2.435293e-08	4.218059e+01	1.600605e+03
1.310000e-06	5.915036e-06	2.448255e-08	4.279446e+01	1.609254e+03
1.320000e-06	5.997900e-06	2.460472e-08	4.339397e+01	1.617232e+03
1.330000e-06	6.078585e-06	2.471852e-08	4.397772e+01	1.624542e+03
1.340000e-06	6.156990e-06	2.482562e-08	4.454497e+01	1.631227e+03
1.350000e-06	6.233041e-06	2.492595e-08	4.509519e+01	1.637365e+03
1.360000e-06	6.306649e-06	2.501862e-08	4.562773e+01	1.643058e+03
1.370000e-06	6.377950e-06	2.510567e-08	4.614358e+01	1.648419e+03
1.380000e-06	6.447053e-06	2.518862e-08	4.664354e+01	1.653553e+03
1.390000e-06	6.513926e-06	2.526816e-08	4.712735e+01	1.658547e+03
1.400000e-06	6.578385e-06	2.534386e-08	4.759370e+01	1.663455e+03
1.410000e-06	6.640451e-06	2.541583e-08	4.804274e+01	1.668296e+03
1.420000e-06	6.700302e-06	2.548368e-08	4.847576e+01	1.673051e+03
1.430000e-06	6.757792e-06	2.554757e-08	4.889168e+01	1.677671e+03
1.440000e-06	6.812880e-06	2.560729e-08	4.929024e+01	1.682088e+03
1.450000e-06	6.865450e-06	2.566357e-08	4.967058e+01	1.686229e+03
1.460000e-06	6.915123e-06	2.571665e-08	5.002995e+01	1.690025e+03
1.470000e-06	6.962064e-06	2.576625e-08	5.036957e+01	1.693429e+03
1.480000e-06	7.006667e-06	2.581351e-08	5.069226e+01	1.696422e+03
1.490000e-06	7.048793e-06	2.585851e-08	5.099704e+01	1.699014e+03
1.500000e-06	7.088272e-06	2.589954e-08	5.128267e+01	1.701245e+03
1.510000e-06	7.125307e-06	2.593524e-08	5.155061e+01	1.703177e+03
1.520000e-06	7.159890e-06	2.596651e-08	5.180081e+01	1.704883e+03
1.530000e-06	7.191878e-06	2.599572e-08	5.203224e+01	1.706437e+03
1.540000e-06	7.221400e-06	2.602153e-08	5.224583e+01	1.707900e+03
1.550000e-06	7.248447e-06	2.604213e-08	5.244151e+01	1.709312e+03
1.560000e-06	7.272708e-06	2.605912e-08	5.261703e+01	1.710686e+03
1.570000e-06	7.294282e-06	2.607400e-08	5.277311e+01	1.712009e+03
1.580000e-06	7.313421e-06	2.608744e-08	5.291158e+01	1.713243e+03
1.590000e-06	7.329928e-06	2.609937e-08	5.303101e+01	1.714334e+03
1.600000e-06	7.343635e-06	2.610952e-08	5.313018e+01	1.715225e+03
1.610000e-06	7.354432e-06	2.611744e-08	5.320829e+01	1.715860e+03
1.620000e-06	7.362379e-06	2.612194e-08	5.326579e+01	1.716203e+03
1.630000e-06	7.367758e-06	2.612357e-08	5.330470e+01	1.716237e+03
1.640000e-06	7.370516e-06	2.612339e-08	5.332466e+01	1.715973e+03
1.650000e-06	7.370591e-06	2.612605e-08	5.332520e+01	1.715444e+03
1.660000e-06	7.368204e-06	2.611430e-08	5.330793e+01	1.714704e+03
1.670000e-06	7.363456e-06	2.610126e-08	5.327358e+01	1.713815e+03
1.680000e-06	7.356165e-06	2.609321e-08	5.322083e+01	1.712843e+03
1.690000e-06	7.346393e-06	2.608069e-08	5.315013e+01	1.711842e+03
1.700000e-06	7.334145e-06	2.606996e-08	5.306152e+01	1.710849e+03
1.710000e-06	7.319295e-06	2.606495e-08	5.295408e+01	1.709878e+03
1.720000e-06	7.302104e-06	2.606832e-08	5.282971e+01	1.708920e+03
1.730000e-06	7.282883e-06	2.605296e-08	5.269065e+01	1.707943e+03
1.740000e-06	7.261239e-06	2.589051e-08	5.253406e+01	1.706903e+03
1.750000e-06	7.236301e-06	2.588673e-08	5.235363e+01	1.705746e+03
1.760000e-06	7.207844e-06	2.595265e-08	5.214775e+01	1.704423e+03
1.770000e-06	7.176420e-06	2.590027e-08	5.192040e+01	1.702896e+03
1.780000e-06	7.142811e-06	2.588190e-08	5.167724e+01	1.701141e+03
1.790000e-06	7.107474e-06	2.603340e-08	5.142158e+01	1.699158e+03
1.800000e-06	7.070557e-06	2.589702e-08	5.115450e+01	1.696959e+03
1.810000e-06	7.031467e-06	2.571445e-08	5.087169e+01	1.694575e+03
1.820000e-06	6.989618e-06	2.593156e-08	5.056892e+01	1.692037e+03
1.830000e-06	6.945566e-06	2.571038e-08	5.025020e+01	1.689378e+03
1.840000e-06	6.899156e-06	2.578720e-08	4.991444e+01	1.686617e+03
1.850000e-06	6.850010e-06	2.581613e-08	4.955887e+01	1.683757e+03
1.860000e-06	6.798258e-06	2.559939e-08	4.918445e+01	1.680781e+03
1.870000e-06	6.743668e-06	2.570891e-08	4.878950e+01	1.677652e+03
1.880000e-06	6.686589e-06	2.546616e-08	4.837654e+01	1.674320e+03
1.890000e-06	6.627116e-06	2.550229e-08	4.794626e+01	1.670726e+03
1.900000e-06	6.565001e-06	2.547940e-08	4.749687e+01	1.666814e+03
1.910000e-06	6.500415e-06	2.529894e-08	4.702960e+01	1.662540e+03
1.920000e-06	6.433431e-06	2.536265e-08	4.654498e+01	1.657880e+03
1.930000e-06	6.364041e-06	2.518367e-08	4.604295e+01	1.652832e+03
1.940000e-06	6.292103e-06	2.517533e-08	4.552249e+01	1.647422e+03
1.950000e-06	6.217732e-06	2.504974e-08	4.498443e+01	1.641696e+03
1.960000e-06	6.140807e-06	2.497807e-08	4.442788e+01	1.635713e+03
1.970000e-06	6.061286e-06	2.494258e-08	4.385256e+01	1.629534e+03
1.980000e-06	5.979698e-06	2.474396e-08	4.326228e+01	1.623214e+03
1.990000e-06	5.896048e-06	2.474545e-08	4.265709e+01	1.616786e+03
2.000000e-06	5.810212e-06	2.459130e-08	4.203607e+01	1.610257e+03
2.010000e-06	5.722221e-06	2.450967e-08	4.139947e+01	1.603602e+03
2.020000e-06	5.632258e-06	2.438534e-08	4.074860e+01	1.596768e+03
2.030000e-06	5.540379e-06	2.426447e-08	4.008388e+01	1.589674e+03
2.040000e-06	5.446434e-06	2.415833e-08	3.940419e+01	1.582230e+03
2.050000e-06	5.350521e-06	2.399905e-08	3.871028e+01	1.574344e+03
2.060000e-06	5.252831e-06	2.391653e-08	3.800351e+01	1.565935e+03
2.070000e-06	5.153466e-06	2.376025e-08	3.728461e+01	1.556947e+03
2.080000e-06	5.052231e-06	2.363303e-08	3.655219e+01	1.547357e+03
2.090000e-06	4.949065e-06	2.345860e-08	3.580580e+01	1.537172e+03
2.100000e-06	4.844063e-06	2.331420e-08	3.504612e+01	1.526432e+03
2.110000e-06	4.737459e-06	2.314772e-08	3.427486e+01	1.515198e+03
2.120000e-06	4.629348e-06	2.297521e-08	3.349269e+01	1.503537e+03
2.130000e-06	4.519616e-06	2.280468e-08	3.269879e+01	1.491511e+03
2.140000e-06	4.408244e-06	2.261798e-08	3.189303e+01	1.479156e+03
2.150000e-06	4.295136e-06	2.242618e-08	3.107471e+01	1.466478e+03
2.160000e-06	4.180362e-06	2.221318e-08	3.024434e+01	1.453437e+03
2.170000e-06	4.063814e-06	2.201612e-08	2.940113e+01	1.439956e+03
2.180000e-06	3.945559e-06	2.179071e-08	2.854557e+01	1.425921e+03
2.190000e-06	3.825769e-06	2.156346e-08	2.767891e+01	1.411194e+03
2.200000e-06	3.704500e-06	2.131035e-08	2.680155e+01	1.395633e+03
2.210000e-06	3.581934e-06	2.105769e-08	2.591480e+01	1.379107e+03
2.220000e-06	3.458090e-06	2.078535e-08	2.501880e+01	1.361511e+03
2.230000e-06	3.332933e-06	2.050933e-08	2.411331e+01	1.342780e+03
2.240000e-06	3.206487e-06	2.021880e-08	2.319849e+01	1.322890e+03
2.250000e-06	3.078853e-06	1.991137e-08	2.227508e+01	1.301857e+03
2.260000e-06	2.950052e-06	1.958852e-08	2.134322e+01	1.279723e+03
2.270000e-06	2.820200e-06	1.924219e-08	2.040376e+01	1.256534e+03
2.280000e-06	2.689472e-06	1.888235e-08	1.945795e+01	1.232321e+03
2.290000e-06	2.557766e-06	1.850044e-08	1.850508e+01	1.207072e+03
2.300000e-06	2.425026e-06	1.809958e-08	1.754472e+01	1.180711e+03
2.310000e-06	2.291399e-06	1.766727e-08	1.657795e+01	1.153088e+03
2.320000e-06	2.157042e-06	1.721081e-08	1.560590e+01	1.123973e+03
2.330000e-06	2.022013e-06	1.672221e-08	1.462899e+01	1.093063e+03
2.340000e-06	1.886307e-06	1.620372e-08	1.364717e+01	1.060009e+03
2.350000e-06	1.749898e-06	1.565070e-08	1.266027e+01	1.024441e+03
2.360000e-06	1.612822e-06	1.506245e-08	1.166854e+01	9.860074e+02
2.370000e-06	1.475216e-06	1.443535e-08	1.067298e+01	9.444162e+02
2.380000e-06	1.337186e-06	1.375967e-08	9.674353e+00	8.994695e+02
2.390000e-06	1.198754e-06	1.303687e-08	8.672816e+00	8.510920e+02
2.400000e-06	1.059937e-06	1.226679e-08	7.668498e+00	7.993459e+02
2.410000e-06	9.207082e-07	1.144750e-08	6.661196e+00	7.444306e+02
2.420000e-06	7.810344e-07	1.057952e-08	5.650676e+00	6.866660e+02
2.430000e-06	6.410358e-07	9.665386e-09	4.637805e+00	6.264614e+02
2.440000e-06	5.007744e-07	8.708225e-09	3.623033e+00	5.642732e+02
2.450000e-06	3.602574e-07	7.713174e-09	2.606412e+00	5.005571e+02
2.460000e-06	2.195813e-07	6.694560e-09	1.588640e+00	4.357202e+02
2.470000e-06	7.876321e-08	5.665112e-09	5.698409e-01	3.700807e+02
2.480000e-06	-6.213382e-08	4.631513e-09	-4.495296e-01	3.038396e+02
2.490000e-06	-2.029835e-07	3.599711e-09	-1.468557e+00	2.370699e+02
2.500000e-06	-3.437407e-07	2.572887e-09	-2.486916e+00	1.697236e+02
2.510000e-06	-4.843807e-07	1.549603e-09	-3.504427e+00	1.016578e+02
2.520000e-06	-6.248417e-07	5.217708e-10	-4.520643e+00	3.267558e+01
2.530000e-06	-7.650969e-07	-5.200365e-10	-5.535370e+00	-3.742269e+01
2.540000e-06	-9.050609e-07	-1.582969e-09	-6.547990e+00	-1.087846e+02
2.550000e-06	-1.044628e-06	-2.674536e-09	-7.557741e+00	-1.814547e+02
2.560000e-06	-1.183720e-06	-3.799988e-09	-8.564052e+00	-2.553340e+02
2.570000e-06	-1.322306e-06	-4.955669e-09	-9.566697e+00	-3.301557e+02
2.580000e-06	-1.460423e-06	-6.131966e-09	-1.056596e+01	-4.054812e+02
2.590000e-06	-1.598040e-06	-7.315990e-09	-1.156160e+01	-4.807166e+02
2.600000e-06	-1.735083e-06	-8.487297e-09	-1.255309e+01	-5.551491e+02
2.610000e-06	-1.871433e-06	-9.623108e-09	-1.353955e+01	-6.279986e+02
2.620000e-06	-2.006969e-06	-1.070782e-08	-1.452014e+01	-6.984792e+02
2.630000e-06	-2.141715e-06	-1.173063e-08	-1.549501e+01	-7.658619e+02
2.640000e-06	-2.275747e-06	-1.268379e-08	-1.646471e+01	-8.295338e+02
2.650000e-06	-2.408962e-06	-1.356786e-08	-1.742851e+01	-8.890435e+02
2.660000e-06	-2.541218e-06	-1.438729e-08	-1.838536e+01	-9.441312e+02
2.670000e-06	-2.672463e-06	-1.514412e-08	-1.933490e+01	-9.947383e+02
2.680000e-06	-2.802777e-06	-1.584400e-08	-2.027770e+01	-1.040996e+03
2.690000e-06	-2.932181e-06	-1.649493e-08	-2.121393e+01	-1.083199e+03
2.700000e-06	-3.060477e-06	-1.710091e-08	-2.214212e+01	-1.121758e+03
2.710000e-06	-3.187573e-06	-1.766325e-08	-2.306165e+01	-1.157154e+03
2.720000e-06	-3.313583e-06	-1.818354e-08	-2.397331e+01	-1.189883e+03
2.730000e-06	-3.438454e-06	-1.866600e-08	-2.487674e+01	-1.220410e+03
2.740000e-06	-3.561994e-06	-1.911470e-08	-2.577053e+01	-1.249129e+03
2.750000e-06	-3.684268e-06	-1.953343e-08	-2.665517e+01	-1.276340e+03
2.760000e-06	-3.805304e-06	-1.992674e-08	-2.753085e+01	-1.302241e+03
2.770000e-06	-3.924831e-06	-2.029862e-08	-2.839561e+01	-1.326932e+03
2.780000e-06	-4.042820e-06	-2.064970e-08	-2.924924e+01	-1.350435e+03
2.790000e-06	-4.159353e-06	-2.098012e-08	-3.009234e+01	-1.372720e+03
2.800000e-06	-4.274177e-06	-2.129059e-08	-3.092308e+01	-1.393733e+03
2.810000e-06	-4.387178e-06	-2.158256e-08	-3.174063e+01	-1.413430e+03
2.820000e-06	-4.498425e-06	-2.185684e-08	-3.254548e+01	-1.431795e+03
2.830000e-06	-4.608029e-06	-2.211464e-08	-3.333845e+01	-1.448859e+03
2.840000e-06	-4.716150e-06	-2.235902e-08	-3.412069e+01	-1.464701e+03
2.850000e-06	-4.822773e-06	-2.259171e-08	-3.489209e+01	-1.479449e+03
2.860000e-06	-4.927786e-06	-2.281341e-08	-3.565185e+01	-1.493258e+03
2.870000e-06	-5.030938e-06	-2.302407e-08	-3.639814e+01	-1.506299e+03
2.880000e-06	-5.132146e-06	-2.322521e-08	-3.713036e+01	-1.518733e+03
2.890000e-06	-5.231488e-06	-2.341804e-08	-3.784909e+01	-1.530693e+03
2.900000e-06	-5.329050e-06	-2.359960e-08	-3.855494e+01	-1.542272e+03
2.910000e-06	-5.424753e-06	-2.376842e-08	-3.924733e+01	-1.553512e+03
2.920000e-06	-5.518422e-06	-2.392604e-08	-3.992502e+01	-1.564408e+03
2.930000e-06	-5.610097e-06	-2.407536e-08	-4.058828e+01	-1.574913e+03
2.940000e-06	-5.699794e-06	-2.421928e-08	-4.123722e+01	-1.584956e+03
