# Temperatura_=_40.86
# Concentracion g/m^3_=_28370.0
# C_Vs_to_Am_M_A/Vsm_=_65563218390.804596
# pendiente_HvsI_1/m_=_3716.3
# ordenada_HvsI_A/m_=_1297.0
# frecuencia_Hz_=_302401.0964462169

Tiempo_(s)	Campo_(V.s)	Magnetizacion_(V.s)	Campo_(kA/m)	Magnetizacion_(A/m)
0.000000e+00	-7.353923e-06	-2.616564e-08	-5.318374e+01	-1.712809e+03
1.000000e-08	-7.350190e-06	-2.616202e-08	-5.315675e+01	-1.712003e+03
2.000000e-08	-7.344018e-06	-2.614946e-08	-5.311211e+01	-1.711096e+03
3.000000e-08	-7.335470e-06	-2.613449e-08	-5.305029e+01	-1.710146e+03
4.000000e-08	-7.324386e-06	-2.611792e-08	-5.297013e+01	-1.709193e+03
5.000000e-08	-7.310548e-06	-2.609991e-08	-5.287006e+01	-1.708255e+03
6.000000e-08	-7.294041e-06	-2.608007e-08	-5.275068e+01	-1.707326e+03
7.000000e-08	-7.275281e-06	-2.605911e-08	-5.261500e+01	-1.706379e+03
8.000000e-08	-7.254440e-06	-2.604996e-08	-5.246428e+01	-1.705366e+03
9.000000e-08	-7.231059e-06	-2.608090e-08	-5.229519e+01	-1.704234e+03
1.000000e-07	-7.204665e-06	-2.605086e-08	-5.210431e+01	-1.702930e+03
1.100000e-07	-7.175396e-06	-2.596867e-08	-5.189264e+01	-1.701409e+03
1.200000e-07	-7.143617e-06	-2.592327e-08	-5.166281e+01	-1.699646e+03
1.300000e-07	-7.109359e-06	-2.588740e-08	-5.141505e+01	-1.697635e+03
1.400000e-07	-7.072893e-06	-2.582710e-08	-5.115133e+01	-1.695390e+03
1.500000e-07	-7.034613e-06	-2.578586e-08	-5.087449e+01	-1.692943e+03
1.600000e-07	-6.994203e-06	-2.583393e-08	-5.058224e+01	-1.690334e+03
1.700000e-07	-6.951289e-06	-2.576229e-08	-5.027189e+01	-1.687602e+03
1.800000e-07	-6.905961e-06	-2.566380e-08	-4.994408e+01	-1.684780e+03
1.900000e-07	-6.858071e-06	-2.568928e-08	-4.959774e+01	-1.681882e+03
2.000000e-07	-6.807293e-06	-2.560809e-08	-4.923051e+01	-1.678901e+03
2.100000e-07	-6.753826e-06	-2.552927e-08	-4.884383e+01	-1.675808e+03
2.200000e-07	-6.697875e-06	-2.547175e-08	-4.843919e+01	-1.672557e+03
2.300000e-07	-6.639375e-06	-2.539346e-08	-4.801612e+01	-1.669087e+03
2.400000e-07	-6.578429e-06	-2.536359e-08	-4.757536e+01	-1.665334e+03
2.500000e-07	-6.515123e-06	-2.529460e-08	-4.711752e+01	-1.661246e+03
2.600000e-07	-6.449246e-06	-2.522574e-08	-4.664110e+01	-1.656781e+03
2.700000e-07	-6.380818e-06	-2.514954e-08	-4.614623e+01	-1.651926e+03
2.800000e-07	-6.310087e-06	-2.508198e-08	-4.563470e+01	-1.646691e+03
2.900000e-07	-6.236958e-06	-2.499608e-08	-4.510583e+01	-1.641110e+03
3.000000e-07	-6.161301e-06	-2.491002e-08	-4.455868e+01	-1.635237e+03
3.100000e-07	-6.083035e-06	-2.486620e-08	-4.399265e+01	-1.629133e+03
3.200000e-07	-6.002221e-06	-2.476279e-08	-4.340821e+01	-1.622857e+03
3.300000e-07	-5.919307e-06	-2.463629e-08	-4.280857e+01	-1.616454e+03
3.400000e-07	-5.834535e-06	-2.452022e-08	-4.219549e+01	-1.609944e+03
3.500000e-07	-5.747892e-06	-2.442640e-08	-4.156889e+01	-1.603319e+03
3.600000e-07	-5.659221e-06	-2.433391e-08	-4.092762e+01	-1.596537e+03
3.700000e-07	-5.568382e-06	-2.421880e-08	-4.027067e+01	-1.589532e+03
3.800000e-07	-5.475521e-06	-2.409931e-08	-3.959910e+01	-1.582219e+03
3.900000e-07	-5.380777e-06	-2.396230e-08	-3.891391e+01	-1.574505e+03
4.000000e-07	-5.284094e-06	-2.382590e-08	-3.821469e+01	-1.566307e+03
4.100000e-07	-5.185546e-06	-2.369428e-08	-3.750199e+01	-1.557557e+03
4.200000e-07	-5.085223e-06	-2.357399e-08	-3.677645e+01	-1.548219e+03
4.300000e-07	-4.983058e-06	-2.343511e-08	-3.603760e+01	-1.538287e+03
4.400000e-07	-4.879082e-06	-2.327065e-08	-3.528564e+01	-1.527788e+03
4.500000e-07	-4.773385e-06	-2.310247e-08	-3.452123e+01	-1.516774e+03
4.600000e-07	-4.665972e-06	-2.293314e-08	-3.374442e+01	-1.505311e+03
4.700000e-07	-4.556873e-06	-2.276202e-08	-3.295541e+01	-1.493462e+03
4.800000e-07	-4.446225e-06	-2.258788e-08	-3.215520e+01	-1.481273e+03
4.900000e-07	-4.333966e-06	-2.240134e-08	-3.134334e+01	-1.468764e+03
5.000000e-07	-4.219969e-06	-2.218651e-08	-3.051892e+01	-1.455912e+03
5.100000e-07	-4.104250e-06	-2.196205e-08	-2.968203e+01	-1.442655e+03
5.200000e-07	-3.986949e-06	-2.174192e-08	-2.883371e+01	-1.428893e+03
5.300000e-07	-3.868148e-06	-2.152024e-08	-2.797454e+01	-1.414499e+03
5.400000e-07	-3.747856e-06	-2.128434e-08	-2.710458e+01	-1.399330e+03
5.500000e-07	-3.626141e-06	-2.103330e-08	-2.622434e+01	-1.383252e+03
5.600000e-07	-3.503077e-06	-2.076814e-08	-2.533434e+01	-1.366150e+03
5.700000e-07	-3.378667e-06	-2.048759e-08	-2.443460e+01	-1.347944e+03
5.800000e-07	-3.253067e-06	-2.019498e-08	-2.352626e+01	-1.328596e+03
5.900000e-07	-3.126332e-06	-1.989191e-08	-2.260971e+01	-1.308108e+03
6.000000e-07	-2.998371e-06	-1.957460e-08	-2.168429e+01	-1.286512e+03
6.100000e-07	-2.869316e-06	-1.923516e-08	-2.075096e+01	-1.263858e+03
6.200000e-07	-2.739145e-06	-1.887587e-08	-1.980956e+01	-1.240185e+03
6.300000e-07	-2.607874e-06	-1.850037e-08	-1.886021e+01	-1.215499e+03
6.400000e-07	-2.475640e-06	-1.810756e-08	-1.790388e+01	-1.189754e+03
6.500000e-07	-2.342537e-06	-1.769063e-08	-1.694128e+01	-1.162831e+03
6.600000e-07	-2.208755e-06	-1.724521e-08	-1.597377e+01	-1.134533e+03
6.700000e-07	-2.074280e-06	-1.677002e-08	-1.500124e+01	-1.104587e+03
6.800000e-07	-1.938886e-06	-1.626790e-08	-1.402207e+01	-1.072661e+03
6.900000e-07	-1.802682e-06	-1.573576e-08	-1.303704e+01	-1.038392e+03
7.000000e-07	-1.665929e-06	-1.516601e-08	-1.204804e+01	-1.001417e+03
7.100000e-07	-1.528685e-06	-1.455464e-08	-1.105548e+01	-9.614158e+02
7.200000e-07	-1.390933e-06	-1.389994e-08	-1.005926e+01	-9.181434e+02
7.300000e-07	-1.252660e-06	-1.320302e-08	-9.059270e+00	-8.714647e+02
7.400000e-07	-1.113930e-06	-1.245754e-08	-8.055965e+00	-8.213726e+02
7.500000e-07	-9.747709e-07	-1.166399e-08	-7.049567e+00	-7.679937e+02
7.600000e-07	-8.352471e-07	-1.082251e-08	-6.040527e+00	-7.115789e+02
7.700000e-07	-6.954023e-07	-9.928475e-09	-5.029166e+00	-6.524778e+02
7.800000e-07	-5.551836e-07	-8.984556e-09	-4.015101e+00	-5.911027e+02
7.900000e-07	-4.147025e-07	-8.001896e-09	-2.999138e+00	-5.278839e+02
8.000000e-07	-2.740325e-07	-6.992673e-09	-1.981810e+00	-4.632239e+02
8.100000e-07	-1.331601e-07	-5.963835e-09	-9.630169e-01	-3.974559e+02
8.200000e-07	7.819939e-09	-4.927603e-09	5.655398e-02	-3.308137e+02
8.300000e-07	1.487863e-07	-3.891437e-09	1.076026e+00	-2.634150e+02
8.400000e-07	2.897185e-07	-2.856197e-09	2.095251e+00	-1.952640e+02
8.500000e-07	4.305862e-07	-1.820079e-09	3.114010e+00	-1.262704e+02
8.600000e-07	5.713253e-07	-7.790910e-10	4.131838e+00	-5.628517e+01
8.700000e-07	7.118355e-07	2.708065e-10	5.148011e+00	1.485276e+01
8.800000e-07	8.519716e-07	1.343564e-09	6.161479e+00	8.726496e+01
8.900000e-07	9.917400e-07	2.446725e-09	7.172287e+00	1.609832e+02
9.000000e-07	1.131154e-06	3.581618e-09	8.180530e+00	2.359079e+02
9.100000e-07	1.270109e-06	4.746423e-09	9.185459e+00	3.117815e+02
9.200000e-07	1.408541e-06	5.932014e-09	1.018660e+01	3.881799e+02
9.300000e-07	1.546466e-06	7.123884e-09	1.118408e+01	4.645251e+02
9.400000e-07	1.683798e-06	8.303767e-09	1.217726e+01	5.401163e+02
9.500000e-07	1.820501e-06	9.453257e-09	1.316590e+01	6.141789e+02
9.600000e-07	1.956580e-06	1.055441e-08	1.415003e+01	6.859222e+02
9.700000e-07	2.091878e-06	1.159331e-08	1.512851e+01	7.546027e+02
9.800000e-07	2.226286e-06	1.256252e-08	1.610055e+01	8.195831e+02
9.900000e-07	2.359831e-06	1.345902e-08	1.706635e+01	8.803811e+02
1.000000e-06	2.492563e-06	1.428553e-08	1.802627e+01	9.367023e+02
1.010000e-06	2.624369e-06	1.504570e-08	1.897950e+01	9.884544e+02
1.020000e-06	2.755084e-06	1.574732e-08	1.992483e+01	1.035740e+03
1.030000e-06	2.884770e-06	1.639948e-08	2.086272e+01	1.078832e+03
1.040000e-06	3.013477e-06	1.700415e-08	2.179354e+01	1.118133e+03
1.050000e-06	3.141083e-06	1.756290e-08	2.271639e+01	1.154126e+03
1.060000e-06	3.267475e-06	1.808315e-08	2.363046e+01	1.187320e+03
1.070000e-06	3.392761e-06	1.856906e-08	2.453653e+01	1.218200e+03
1.080000e-06	3.516917e-06	1.902367e-08	2.543443e+01	1.247190e+03
1.090000e-06	3.639745e-06	1.944795e-08	2.632272e+01	1.274619e+03
1.100000e-06	3.761268e-06	1.984256e-08	2.720158e+01	1.300715e+03
1.110000e-06	3.881495e-06	2.021329e-08	2.807106e+01	1.325599e+03
1.120000e-06	4.000290e-06	2.056329e-08	2.893019e+01	1.349311e+03
1.130000e-06	4.117648e-06	2.089310e-08	2.977893e+01	1.371828e+03
1.140000e-06	4.233459e-06	2.120297e-08	3.061648e+01	1.393095e+03
1.150000e-06	4.347653e-06	2.149718e-08	3.144233e+01	1.413058e+03
1.160000e-06	4.460265e-06	2.177630e-08	3.225674e+01	1.431690e+03
1.170000e-06	4.571173e-06	2.203858e-08	3.305883e+01	1.449006e+03
1.180000e-06	4.680507e-06	2.228469e-08	3.384954e+01	1.465072e+03
1.190000e-06	4.788246e-06	2.251957e-08	3.462871e+01	1.480003e+03
1.200000e-06	4.894261e-06	2.274159e-08	3.539541e+01	1.493952e+03
1.210000e-06	4.998581e-06	2.294978e-08	3.614986e+01	1.507088e+03
1.220000e-06	5.101071e-06	2.314656e-08	3.689107e+01	1.519581e+03
1.230000e-06	5.201651e-06	2.333378e-08	3.761846e+01	1.531577e+03
1.240000e-06	5.300243e-06	2.351213e-08	3.833148e+01	1.543183e+03
1.250000e-06	5.396842e-06	2.367994e-08	3.903009e+01	1.554457e+03
1.260000e-06	5.491499e-06	2.384078e-08	3.971465e+01	1.565407e+03
1.270000e-06	5.584207e-06	2.399546e-08	4.038512e+01	1.575997e+03
1.280000e-06	5.674928e-06	2.414259e-08	4.104121e+01	1.586158e+03
1.290000e-06	5.763550e-06	2.428341e-08	4.168213e+01	1.595809e+03
1.300000e-06	5.850060e-06	2.441980e-08	4.230777e+01	1.604870e+03
1.310000e-06	5.934507e-06	2.454912e-08	4.291849e+01	1.613284e+03
1.320000e-06	6.016879e-06	2.466763e-08	4.351421e+01	1.621025e+03
1.330000e-06	6.097054e-06	2.477781e-08	4.409404e+01	1.628110e+03
1.340000e-06	6.175008e-06	2.488111e-08	4.465781e+01	1.634592e+03
1.350000e-06	6.250629e-06	2.497657e-08	4.520470e+01	1.640558e+03
1.360000e-06	6.323827e-06	2.506597e-08	4.573407e+01	1.646116e+03
1.370000e-06	6.394693e-06	2.515249e-08	4.624657e+01	1.651378e+03
1.380000e-06	6.463286e-06	2.523630e-08	4.674264e+01	1.656444e+03
1.390000e-06	6.529558e-06	2.531501e-08	4.722192e+01	1.661392e+03
1.400000e-06	6.593466e-06	2.538792e-08	4.768410e+01	1.666265e+03
1.410000e-06	6.655158e-06	2.545619e-08	4.813026e+01	1.671069e+03
1.420000e-06	6.714611e-06	2.552097e-08	4.856022e+01	1.675775e+03
1.430000e-06	6.771675e-06	2.558291e-08	4.897292e+01	1.680327e+03
1.440000e-06	6.826317e-06	2.564271e-08	4.936808e+01	1.684654e+03
1.450000e-06	6.878298e-06	2.569971e-08	4.974401e+01	1.688684e+03
1.460000e-06	6.927411e-06	2.575275e-08	5.009920e+01	1.692355e+03
1.470000e-06	6.973909e-06	2.580125e-08	5.043547e+01	1.695630e+03
1.480000e-06	7.017966e-06	2.584716e-08	5.075410e+01	1.698498e+03
1.490000e-06	7.059532e-06	2.589228e-08	5.105470e+01	1.700981e+03
1.500000e-06	7.098572e-06	2.593318e-08	5.133704e+01	1.703128e+03
1.510000e-06	7.135156e-06	2.596878e-08	5.160162e+01	1.705004e+03
1.520000e-06	7.169264e-06	2.600042e-08	5.184829e+01	1.706684e+03
1.530000e-06	7.200774e-06	2.602750e-08	5.207617e+01	1.708237e+03
1.540000e-06	7.229781e-06	2.605038e-08	5.228595e+01	1.709716e+03
1.550000e-06	7.256232e-06	2.607082e-08	5.247724e+01	1.711151e+03
1.560000e-06	7.279948e-06	2.609024e-08	5.264876e+01	1.712546e+03
1.570000e-06	7.301074e-06	2.610811e-08	5.280154e+01	1.713876e+03
1.580000e-06	7.319695e-06	2.612300e-08	5.293621e+01	1.715098e+03
1.590000e-06	7.335633e-06	2.613354e-08	5.305147e+01	1.716154e+03
1.600000e-06	7.348798e-06	2.613955e-08	5.314668e+01	1.716988e+03
1.610000e-06	7.359038e-06	2.614298e-08	5.322074e+01	1.717550e+03
1.620000e-06	7.366420e-06	2.614580e-08	5.327412e+01	1.717811e+03
1.630000e-06	7.371245e-06	2.614802e-08	5.330902e+01	1.717766e+03
1.640000e-06	7.373482e-06	2.614944e-08	5.332520e+01	1.717434e+03
1.650000e-06	7.373055e-06	2.614883e-08	5.332211e+01	1.716859e+03
1.660000e-06	7.370190e-06	2.613972e-08	5.330139e+01	1.716098e+03
1.670000e-06	7.364918e-06	2.613075e-08	5.326326e+01	1.715215e+03
1.680000e-06	7.357128e-06	2.612070e-08	5.320693e+01	1.714272e+03
1.690000e-06	7.346937e-06	2.610826e-08	5.313323e+01	1.713315e+03
1.700000e-06	7.334189e-06	2.609841e-08	5.304103e+01	1.712370e+03
1.710000e-06	7.318861e-06	2.609132e-08	5.293018e+01	1.711440e+03
1.720000e-06	7.301256e-06	2.608238e-08	5.280286e+01	1.710501e+03
1.730000e-06	7.281549e-06	2.603402e-08	5.266033e+01	1.709513e+03
1.740000e-06	7.259224e-06	2.594816e-08	5.249888e+01	1.708424e+03
1.750000e-06	7.233533e-06	2.595528e-08	5.231308e+01	1.707179e+03
1.760000e-06	7.204412e-06	2.597139e-08	5.210248e+01	1.705730e+03
1.770000e-06	7.172521e-06	2.594192e-08	5.187184e+01	1.704045e+03
1.780000e-06	7.138600e-06	2.595344e-08	5.162652e+01	1.702112e+03
1.790000e-06	7.103001e-06	2.597350e-08	5.136907e+01	1.699938e+03
1.800000e-06	7.065687e-06	2.584648e-08	5.109921e+01	1.697550e+03
1.810000e-06	7.025996e-06	2.578394e-08	5.081217e+01	1.694987e+03
1.820000e-06	6.983692e-06	2.582795e-08	5.050623e+01	1.692289e+03
1.830000e-06	6.939150e-06	2.574790e-08	5.018410e+01	1.689492e+03
1.840000e-06	6.892097e-06	2.578856e-08	4.984381e+01	1.686617e+03
1.850000e-06	6.842380e-06	2.572144e-08	4.948426e+01	1.683663e+03
1.860000e-06	6.790013e-06	2.563886e-08	4.910554e+01	1.680609e+03
1.870000e-06	6.734895e-06	2.564716e-08	4.870692e+01	1.677414e+03
1.880000e-06	6.677405e-06	2.551724e-08	4.829115e+01	1.674019e+03
1.890000e-06	6.617431e-06	2.549109e-08	4.785742e+01	1.670363e+03
1.900000e-06	6.554807e-06	2.541021e-08	4.740452e+01	1.666386e+03
1.910000e-06	6.489699e-06	2.533134e-08	4.693366e+01	1.662043e+03
1.920000e-06	6.422144e-06	2.529126e-08	4.644510e+01	1.657312e+03
1.930000e-06	6.352153e-06	2.518998e-08	4.593892e+01	1.652195e+03
1.940000e-06	6.279695e-06	2.515532e-08	4.541490e+01	1.646719e+03
1.950000e-06	6.204813e-06	2.501944e-08	4.487335e+01	1.640931e+03
1.960000e-06	6.127357e-06	2.493858e-08	4.431319e+01	1.634893e+03
1.970000e-06	6.047418e-06	2.487074e-08	4.373507e+01	1.628666e+03
1.980000e-06	5.965404e-06	2.477710e-08	4.314194e+01	1.622299e+03
1.990000e-06	5.881335e-06	2.471046e-08	4.253396e+01	1.615821e+03
2.000000e-06	5.795053e-06	2.457646e-08	4.190996e+01	1.609234e+03
2.010000e-06	5.706631e-06	2.446985e-08	4.127049e+01	1.602507e+03
2.020000e-06	5.616293e-06	2.433425e-08	4.061716e+01	1.595581e+03
2.030000e-06	5.523995e-06	2.423704e-08	3.994966e+01	1.588376e+03
2.040000e-06	5.429643e-06	2.414199e-08	3.926731e+01	1.580799e+03
2.050000e-06	5.333337e-06	2.402169e-08	3.857082e+01	1.572763e+03
2.060000e-06	5.235232e-06	2.387645e-08	3.786133e+01	1.564195e+03
2.070000e-06	5.135383e-06	2.371386e-08	3.713921e+01	1.555046e+03
2.080000e-06	5.033706e-06	2.357458e-08	3.640388e+01	1.545302e+03
2.090000e-06	4.930110e-06	2.342047e-08	3.565467e+01	1.534980e+03
2.100000e-06	4.824709e-06	2.327660e-08	3.489241e+01	1.524123e+03
2.110000e-06	4.717825e-06	2.311069e-08	3.411942e+01	1.512796e+03
2.120000e-06	4.609422e-06	2.293319e-08	3.333545e+01	1.501063e+03
2.130000e-06	4.499336e-06	2.273743e-08	3.253931e+01	1.488979e+03
2.140000e-06	4.387546e-06	2.255560e-08	3.173084e+01	1.476571e+03
2.150000e-06	4.274054e-06	2.237791e-08	3.091006e+01	1.463833e+03
2.160000e-06	4.158862e-06	2.218429e-08	3.007699e+01	1.450714e+03
2.170000e-06	4.041906e-06	2.197167e-08	2.923116e+01	1.437126e+03
2.180000e-06	3.923279e-06	2.173739e-08	2.837324e+01	1.422948e+03
2.190000e-06	3.803114e-06	2.149837e-08	2.750421e+01	1.408042e+03
2.200000e-06	3.681573e-06	2.124718e-08	2.662523e+01	1.392269e+03
2.210000e-06	3.558746e-06	2.099351e-08	2.573694e+01	1.375505e+03
2.220000e-06	3.434556e-06	2.072669e-08	2.483879e+01	1.357659e+03
2.230000e-06	3.309045e-06	2.044745e-08	2.393109e+01	1.338678e+03
2.240000e-06	3.182301e-06	2.014928e-08	2.301448e+01	1.318552e+03
2.250000e-06	3.054368e-06	1.984024e-08	2.208926e+01	1.297306e+03
2.260000e-06	2.925309e-06	1.951532e-08	2.115591e+01	1.274986e+03
2.270000e-06	2.795262e-06	1.917096e-08	2.021540e+01	1.251635e+03
2.280000e-06	2.664192e-06	1.880495e-08	1.926750e+01	1.227276e+03
2.290000e-06	2.532020e-06	1.841635e-08	1.831163e+01	1.201879e+03
2.300000e-06	2.398977e-06	1.800762e-08	1.734946e+01	1.175351e+03
2.310000e-06	2.265175e-06	1.757348e-08	1.638180e+01	1.147520e+03
2.320000e-06	2.130599e-06	1.711189e-08	1.540854e+01	1.118136e+03
2.330000e-06	1.995325e-06	1.661764e-08	1.443023e+01	1.086883e+03
2.340000e-06	1.859403e-06	1.609170e-08	1.344725e+01	1.053406e+03
2.350000e-06	1.722795e-06	1.553379e-08	1.245930e+01	1.017338e+03
2.360000e-06	1.585568e-06	1.494194e-08	1.146686e+01	9.783386e+02
2.370000e-06	1.447848e-06	1.430941e-08	1.047087e+01	9.361365e+02
2.380000e-06	1.309719e-06	1.362955e-08	9.471920e+00	8.905584e+02
2.390000e-06	1.171157e-06	1.289881e-08	8.469832e+00	8.415545e+02
2.400000e-06	1.032100e-06	1.211669e-08	7.464172e+00	7.892089e+02
2.410000e-06	8.925955e-07	1.128679e-08	6.455272e+00	7.337344e+02
2.420000e-06	7.526992e-07	1.041233e-08	5.443538e+00	6.754525e+02
2.430000e-06	6.125336e-07	9.492139e-09	4.429858e+00	6.147599e+02
2.440000e-06	4.721209e-07	8.524773e-09	3.414390e+00	5.520861e+02
2.450000e-06	3.315035e-07	7.518489e-09	2.397441e+00	4.878474e+02
2.460000e-06	1.908201e-07	6.487317e-09	1.380016e+00	4.224033e+02
2.470000e-06	5.007685e-08	5.442709e-09	3.621569e-01	3.560221e+02
2.480000e-06	-9.074495e-08	4.396419e-09	-6.562696e-01	2.888594e+02
2.490000e-06	-2.315966e-07	3.352481e-09	-1.674912e+00	2.209546e+02
2.500000e-06	-3.723557e-07	2.308475e-09	-2.692885e+00	1.522446e+02
2.510000e-06	-5.129974e-07	1.263026e-09	-3.710009e+00	8.259469e+01
2.520000e-06	-6.535322e-07	2.111680e-10	-4.726360e+00	1.184201e+01
2.530000e-06	-7.938759e-07	-8.555359e-10	-5.741329e+00	-6.015337e+01
2.540000e-06	-9.339147e-07	-1.948593e-09	-6.754094e+00	-1.334571e+02
2.550000e-06	-1.073525e-06	-3.071865e-09	-7.763755e+00	-2.080157e+02
2.560000e-06	-1.212660e-06	-4.227818e-09	-8.769984e+00	-2.836240e+02
2.570000e-06	-1.351228e-06	-5.411484e-09	-9.772115e+00	-3.599114e+02
2.580000e-06	-1.489234e-06	-6.609692e-09	-1.077017e+01	-4.363465e+02
2.590000e-06	-1.626740e-06	-7.806904e-09	-1.176462e+01	-5.122636e+02
2.600000e-06	-1.763684e-06	-8.979123e-09	-1.275501e+01	-5.869057e+02
2.610000e-06	-1.899910e-06	-1.010737e-08	-1.374019e+01	-6.594805e+02
2.620000e-06	-2.035337e-06	-1.117677e-08	-1.471961e+01	-7.292227e+02
2.630000e-06	-2.169984e-06	-1.217699e-08	-1.569337e+01	-7.954548e+02
2.640000e-06	-2.303834e-06	-1.310476e-08	-1.666138e+01	-8.576402e+02
2.650000e-06	-2.436910e-06	-1.396236e-08	-1.762379e+01	-9.154217e+02
2.660000e-06	-2.569068e-06	-1.475447e-08	-1.857956e+01	-9.686418e+02
2.670000e-06	-2.700165e-06	-1.548548e-08	-1.952766e+01	-1.017342e+03
2.680000e-06	-2.830254e-06	-1.616155e-08	-2.046846e+01	-1.061745e+03
2.690000e-06	-2.959380e-06	-1.679022e-08	-2.140231e+01	-1.102217e+03
2.700000e-06	-3.087457e-06	-1.737474e-08	-2.232857e+01	-1.139219e+03
2.710000e-06	-3.214429e-06	-1.791776e-08	-2.324683e+01	-1.173259e+03
2.720000e-06	-3.340313e-06	-1.842097e-08	-2.415722e+01	-1.204834e+03
2.730000e-06	-3.464982e-06	-1.888809e-08	-2.505883e+01	-1.234392e+03
2.740000e-06	-3.588257e-06	-1.932317e-08	-2.595036e+01	-1.262295e+03
2.750000e-06	-3.710244e-06	-1.972988e-08	-2.683257e+01	-1.288802e+03
2.760000e-06	-3.831008e-06	-2.011349e-08	-2.770594e+01	-1.314070e+03
2.770000e-06	-3.950270e-06	-2.047368e-08	-2.856844e+01	-1.338161e+03
2.780000e-06	-4.068031e-06	-2.081201e-08	-2.942010e+01	-1.361068e+03
2.790000e-06	-4.184353e-06	-2.113142e-08	-3.026134e+01	-1.382744e+03
2.800000e-06	-4.298950e-06	-2.143208e-08	-3.109011e+01	-1.403133e+03
2.810000e-06	-4.411764e-06	-2.171445e-08	-3.190599e+01	-1.422195e+03
2.820000e-06	-4.522924e-06	-2.197995e-08	-3.270990e+01	-1.439931e+03
2.830000e-06	-4.632377e-06	-2.223207e-08	-3.350146e+01	-1.456390e+03
2.840000e-06	-4.740215e-06	-2.247182e-08	-3.428135e+01	-1.471672e+03
2.850000e-06	-4.846571e-06	-2.269973e-08	-3.505052e+01	-1.485920e+03
2.860000e-06	-4.951277e-06	-2.291617e-08	-3.580775e+01	-1.499299e+03
2.870000e-06	-5.054117e-06	-2.312177e-08	-3.655150e+01	-1.511983e+03
2.880000e-06	-5.154985e-06	-2.331726e-08	-3.728097e+01	-1.524127e+03
2.890000e-06	-5.253913e-06	-2.350203e-08	-3.799643e+01	-1.535850e+03
2.900000e-06	-5.351080e-06	-2.367650e-08	-3.869914e+01	-1.547229e+03
2.910000e-06	-5.446381e-06	-2.384179e-08	-3.938835e+01	-1.558287e+03
2.920000e-06	-5.539683e-06	-2.399862e-08	-4.006312e+01	-1.569000e+03
2.930000e-06	-5.630959e-06	-2.414719e-08	-4.072323e+01	-1.579310e+03
2.940000e-06	-5.720186e-06	-2.428873e-08	-4.136852e+01	-1.589136e+03
