# Temperatura_=_62.06
# Concentracion g/m^3_=_28370.0
# C_Vs_to_Am_M_A/Vsm_=_65563218390.804596
# pendiente_HvsI_1/m_=_3716.3
# ordenada_HvsI_A/m_=_1297.0
# frecuencia_Hz_=_302396.2135677367

Tiempo_(s)	Campo_(V.s)	Magnetizacion_(V.s)	Campo_(kA/m)	Magnetizacion_(A/m)
0.000000e+00	-7.339619e-06	-2.653857e-08	-5.318741e+01	-1.737772e+03
1.000000e-08	-7.335999e-06	-2.653737e-08	-5.316118e+01	-1.736933e+03
2.000000e-08	-7.330073e-06	-2.652440e-08	-5.311824e+01	-1.735996e+03
3.000000e-08	-7.321834e-06	-2.650881e-08	-5.305853e+01	-1.735014e+03
4.000000e-08	-7.311022e-06	-2.649405e-08	-5.298018e+01	-1.734026e+03
5.000000e-08	-7.297477e-06	-2.647643e-08	-5.288202e+01	-1.733045e+03
6.000000e-08	-7.281228e-06	-2.645347e-08	-5.276427e+01	-1.732060e+03
7.000000e-08	-7.262622e-06	-2.642814e-08	-5.262944e+01	-1.731042e+03
8.000000e-08	-7.241929e-06	-2.640172e-08	-5.247949e+01	-1.729944e+03
9.000000e-08	-7.218716e-06	-2.644851e-08	-5.231128e+01	-1.728712e+03
1.000000e-07	-7.192479e-06	-2.643901e-08	-5.212115e+01	-1.727298e+03
1.100000e-07	-7.163424e-06	-2.634176e-08	-5.191060e+01	-1.725661e+03
1.200000e-07	-7.131922e-06	-2.629213e-08	-5.168232e+01	-1.723782e+03
1.300000e-07	-7.097850e-06	-2.626864e-08	-5.143541e+01	-1.721660e+03
1.400000e-07	-7.061510e-06	-2.619994e-08	-5.117206e+01	-1.719313e+03
1.500000e-07	-7.023421e-06	-2.610649e-08	-5.089604e+01	-1.716773e+03
1.600000e-07	-6.983289e-06	-2.619283e-08	-5.060523e+01	-1.714080e+03
1.700000e-07	-6.940594e-06	-2.614804e-08	-5.029583e+01	-1.711271e+03
1.800000e-07	-6.895471e-06	-2.597933e-08	-4.996884e+01	-1.708371e+03
1.900000e-07	-6.847889e-06	-2.604796e-08	-4.962404e+01	-1.705387e+03
2.000000e-07	-6.797399e-06	-2.596291e-08	-4.925815e+01	-1.702304e+03
2.100000e-07	-6.744153e-06	-2.586748e-08	-4.887230e+01	-1.699086e+03
2.200000e-07	-6.688411e-06	-2.584585e-08	-4.846836e+01	-1.695680e+03
2.300000e-07	-6.630149e-06	-2.574840e-08	-4.804615e+01	-1.692022e+03
2.400000e-07	-6.569436e-06	-2.572296e-08	-4.760619e+01	-1.688050e+03
2.500000e-07	-6.506389e-06	-2.562104e-08	-4.714932e+01	-1.683710e+03
2.600000e-07	-6.440896e-06	-2.556481e-08	-4.667471e+01	-1.678970e+03
2.700000e-07	-6.372872e-06	-2.549637e-08	-4.618177e+01	-1.673821e+03
2.800000e-07	-6.302538e-06	-2.539727e-08	-4.567208e+01	-1.668282e+03
2.900000e-07	-6.229845e-06	-2.530725e-08	-4.514530e+01	-1.662396e+03
3.000000e-07	-6.154568e-06	-2.521822e-08	-4.459980e+01	-1.656222e+03
3.100000e-07	-6.076663e-06	-2.516878e-08	-4.403525e+01	-1.649825e+03
3.200000e-07	-5.996199e-06	-2.504631e-08	-4.345216e+01	-1.643266e+03
3.300000e-07	-5.913575e-06	-2.495445e-08	-4.285341e+01	-1.636589e+03
3.400000e-07	-5.829051e-06	-2.484899e-08	-4.224090e+01	-1.629809e+03
3.500000e-07	-5.742618e-06	-2.471286e-08	-4.161456e+01	-1.622914e+03
3.600000e-07	-5.654197e-06	-2.461125e-08	-4.097380e+01	-1.615857e+03
3.700000e-07	-5.563649e-06	-2.450279e-08	-4.031764e+01	-1.608567e+03
3.800000e-07	-5.471046e-06	-2.438057e-08	-3.964658e+01	-1.600955e+03
3.900000e-07	-5.376566e-06	-2.423908e-08	-3.896191e+01	-1.592927e+03
4.000000e-07	-5.280187e-06	-2.411252e-08	-3.826350e+01	-1.584400e+03
4.100000e-07	-5.181848e-06	-2.397100e-08	-3.755087e+01	-1.575310e+03
4.200000e-07	-5.081700e-06	-2.382285e-08	-3.682513e+01	-1.565626e+03
4.300000e-07	-4.979859e-06	-2.367624e-08	-3.608713e+01	-1.555348e+03
4.400000e-07	-4.876255e-06	-2.352150e-08	-3.533636e+01	-1.544508e+03
4.500000e-07	-4.770898e-06	-2.335142e-08	-3.457288e+01	-1.533162e+03
4.600000e-07	-4.663812e-06	-2.317151e-08	-3.379686e+01	-1.521380e+03
4.700000e-07	-4.555038e-06	-2.299496e-08	-3.300862e+01	-1.509223e+03
4.800000e-07	-4.444740e-06	-2.281520e-08	-3.220933e+01	-1.496738e+03
4.900000e-07	-4.332820e-06	-2.262074e-08	-3.139829e+01	-1.483938e+03
5.000000e-07	-4.219177e-06	-2.240779e-08	-3.057476e+01	-1.470797e+03
5.100000e-07	-4.103778e-06	-2.218864e-08	-2.973851e+01	-1.457246e+03
5.200000e-07	-3.986699e-06	-2.196171e-08	-2.889009e+01	-1.443181e+03
5.300000e-07	-3.868221e-06	-2.172734e-08	-2.803152e+01	-1.428471e+03
5.400000e-07	-3.748365e-06	-2.148272e-08	-2.716296e+01	-1.412973e+03
5.500000e-07	-3.627109e-06	-2.123010e-08	-2.628427e+01	-1.396555e+03
5.600000e-07	-3.504401e-06	-2.096241e-08	-2.539506e+01	-1.379105e+03
5.700000e-07	-3.380280e-06	-2.068048e-08	-2.449560e+01	-1.360549e+03
5.800000e-07	-3.254933e-06	-2.038530e-08	-2.358726e+01	-1.340856e+03
5.900000e-07	-3.128475e-06	-2.007888e-08	-2.267086e+01	-1.320036e+03
6.000000e-07	-3.000889e-06	-1.975580e-08	-2.174629e+01	-1.298129e+03
6.100000e-07	-2.872129e-06	-1.940983e-08	-2.081322e+01	-1.275185e+03
6.200000e-07	-2.742319e-06	-1.904804e-08	-1.987254e+01	-1.251247e+03
6.300000e-07	-2.611427e-06	-1.867051e-08	-1.892401e+01	-1.226323e+03
6.400000e-07	-2.479480e-06	-1.827556e-08	-1.796784e+01	-1.200363e+03
6.500000e-07	-2.346622e-06	-1.785360e-08	-1.700507e+01	-1.173244e+03
6.600000e-07	-2.213040e-06	-1.740690e-08	-1.603706e+01	-1.144767e+03
6.700000e-07	-2.078843e-06	-1.693221e-08	-1.506458e+01	-1.114654e+03
6.800000e-07	-1.943877e-06	-1.642678e-08	-1.408653e+01	-1.082573e+03
6.900000e-07	-1.808157e-06	-1.589063e-08	-1.310303e+01	-1.048157e+03
7.000000e-07	-1.671809e-06	-1.532113e-08	-1.211496e+01	-1.011046e+03
7.100000e-07	-1.534863e-06	-1.471337e-08	-1.112256e+01	-9.709154e+02
7.200000e-07	-1.397341e-06	-1.405833e-08	-1.012599e+01	-9.275206e+02
7.300000e-07	-1.259307e-06	-1.335908e-08	-9.125716e+00	-8.807198e+02
7.400000e-07	-1.120803e-06	-1.261164e-08	-8.122034e+00	-8.304948e+02
7.500000e-07	-9.818137e-07	-1.181623e-08	-7.114828e+00	-7.769544e+02
7.600000e-07	-8.424994e-07	-1.097252e-08	-6.105271e+00	-7.203239e+02
7.700000e-07	-7.029207e-07	-1.007866e-08	-5.093798e+00	-6.609206e+02
7.800000e-07	-5.630604e-07	-9.133718e-09	-4.080283e+00	-5.991181e+02
7.900000e-07	-4.229758e-07	-8.142843e-09	-3.065144e+00	-5.353044e+02
8.000000e-07	-2.826642e-07	-7.117027e-09	-2.048360e+00	-4.698399e+02
8.100000e-07	-1.421934e-07	-6.067303e-09	-1.030421e+00	-4.030201e+02
8.200000e-07	-1.622145e-09	-5.006166e-09	-1.175506e-02	-3.350494e+02
8.300000e-07	1.390081e-07	-3.941473e-09	1.007339e+00	-2.660300e+02
8.400000e-07	2.796450e-07	-2.880713e-09	2.026481e+00	-1.959672e+02
8.500000e-07	4.201743e-07	-1.817769e-09	3.044843e+00	-1.247912e+02
8.600000e-07	5.605147e-07	-7.449642e-10	4.061836e+00	-5.239388e+01
8.700000e-07	7.006679e-07	3.433919e-10	5.077472e+00	2.132650e+01
8.800000e-07	8.405930e-07	1.455365e-09	6.091456e+00	9.641598e+01
8.900000e-07	9.801573e-07	2.598209e-09	7.102826e+00	1.728198e+02
9.000000e-07	1.119304e-06	3.774982e-09	8.111171e+00	2.503469e+02
9.100000e-07	1.258049e-06	4.979190e-09	9.116598e+00	3.286500e+02
9.200000e-07	1.396312e-06	6.202423e-09	1.011854e+01	4.072243e+02
9.300000e-07	1.534022e-06	7.427515e-09	1.111647e+01	4.854255e+02
9.400000e-07	1.671140e-06	8.633231e-09	1.211011e+01	5.625072e+02
9.500000e-07	1.807578e-06	9.797842e-09	1.309883e+01	6.376714e+02
9.600000e-07	1.943252e-06	1.090538e-08	1.408200e+01	7.101285e+02
9.700000e-07	2.078140e-06	1.194477e-08	1.505948e+01	7.791590e+02
9.800000e-07	2.212297e-06	1.291030e-08	1.603167e+01	8.441689e+02
9.900000e-07	2.345739e-06	1.380179e-08	1.699868e+01	9.047343e+02
1.000000e-06	2.478307e-06	1.462394e-08	1.795934e+01	9.606281e+02
1.010000e-06	2.609927e-06	1.538033e-08	1.891315e+01	1.011828e+03
1.020000e-06	2.740600e-06	1.607717e-08	1.986008e+01	1.058503e+03
1.030000e-06	2.870207e-06	1.672245e-08	2.079929e+01	1.100983e+03
1.040000e-06	2.998667e-06	1.732105e-08	2.173019e+01	1.139719e+03
1.050000e-06	3.125953e-06	1.787628e-08	2.265259e+01	1.175222e+03
1.060000e-06	3.252131e-06	1.839264e-08	2.356695e+01	1.208019e+03
1.070000e-06	3.377281e-06	1.887374e-08	2.447387e+01	1.238599e+03
1.080000e-06	3.501347e-06	1.932386e-08	2.537292e+01	1.267376e+03
1.090000e-06	3.624173e-06	1.974405e-08	2.626299e+01	1.294665e+03
1.100000e-06	3.745600e-06	2.013577e-08	2.714293e+01	1.320673e+03
1.110000e-06	3.865576e-06	2.050539e-08	2.801235e+01	1.345504e+03
1.120000e-06	3.984127e-06	2.085678e-08	2.887145e+01	1.369178e+03
1.130000e-06	4.101318e-06	2.118810e-08	2.972069e+01	1.391661e+03
1.140000e-06	4.217032e-06	2.149883e-08	3.055922e+01	1.412892e+03
1.150000e-06	4.331014e-06	2.179097e-08	3.138520e+01	1.432817e+03
1.160000e-06	4.443246e-06	2.206605e-08	3.219851e+01	1.451412e+03
1.170000e-06	4.553886e-06	2.232679e-08	3.300027e+01	1.468700e+03
1.180000e-06	4.663072e-06	2.257351e-08	3.379150e+01	1.484757e+03
1.190000e-06	4.770757e-06	2.280999e-08	3.457185e+01	1.499703e+03
1.200000e-06	4.876780e-06	2.303440e-08	3.534016e+01	1.513698e+03
1.210000e-06	4.980936e-06	2.324716e-08	3.609494e+01	1.526915e+03
1.220000e-06	5.083224e-06	2.344783e-08	3.683618e+01	1.539520e+03
1.230000e-06	5.183753e-06	2.363709e-08	3.756468e+01	1.551654e+03
1.240000e-06	5.282390e-06	2.381715e-08	3.827946e+01	1.563417e+03
1.250000e-06	5.378945e-06	2.398713e-08	3.897916e+01	1.574858e+03
1.260000e-06	5.473457e-06	2.414858e-08	3.966405e+01	1.585977e+03
1.270000e-06	5.566084e-06	2.430370e-08	4.033528e+01	1.596730e+03
1.280000e-06	5.656827e-06	2.445265e-08	4.099287e+01	1.607044e+03
1.290000e-06	5.745446e-06	2.459529e-08	4.163505e+01	1.616834e+03
1.300000e-06	5.831921e-06	2.473131e-08	4.226171e+01	1.626024e+03
1.310000e-06	5.916409e-06	2.486141e-08	4.287395e+01	1.634557e+03
1.320000e-06	5.998892e-06	2.498513e-08	4.347167e+01	1.642415e+03
1.330000e-06	6.079180e-06	2.510054e-08	4.405349e+01	1.649619e+03
1.340000e-06	6.157104e-06	2.520742e-08	4.461818e+01	1.656227e+03
1.350000e-06	6.232710e-06	2.530596e-08	4.516607e+01	1.662330e+03
1.360000e-06	6.305920e-06	2.539740e-08	4.569659e+01	1.668036e+03
1.370000e-06	6.376808e-06	2.548379e-08	4.621029e+01	1.673455e+03
1.380000e-06	6.445451e-06	2.556763e-08	4.670772e+01	1.678685e+03
1.390000e-06	6.511770e-06	2.564865e-08	4.718831e+01	1.683798e+03
1.400000e-06	6.575739e-06	2.572478e-08	4.765187e+01	1.688832e+03
1.410000e-06	6.637452e-06	2.579632e-08	4.809907e+01	1.693786e+03
1.420000e-06	6.696990e-06	2.586426e-08	4.853052e+01	1.698629e+03
1.430000e-06	6.754104e-06	2.592963e-08	4.894441e+01	1.703302e+03
1.440000e-06	6.808730e-06	2.599149e-08	4.934027e+01	1.707734e+03
1.450000e-06	6.860838e-06	2.604930e-08	4.971787e+01	1.711855e+03
1.460000e-06	6.910140e-06	2.610371e-08	5.007514e+01	1.715608e+03
1.470000e-06	6.956758e-06	2.615469e-08	5.041297e+01	1.718960e+03
1.480000e-06	7.000991e-06	2.620292e-08	5.073351e+01	1.721906e+03
1.490000e-06	7.042693e-06	2.624848e-08	5.103570e+01	1.724473e+03
1.500000e-06	7.081808e-06	2.629014e-08	5.131915e+01	1.726711e+03
1.510000e-06	7.118553e-06	2.632690e-08	5.158543e+01	1.728688e+03
1.520000e-06	7.152800e-06	2.636005e-08	5.183361e+01	1.730475e+03
1.530000e-06	7.184418e-06	2.639010e-08	5.206273e+01	1.732140e+03
1.540000e-06	7.213531e-06	2.641529e-08	5.227370e+01	1.733730e+03
1.550000e-06	7.240085e-06	2.643728e-08	5.246613e+01	1.735269e+03
1.560000e-06	7.263935e-06	2.645704e-08	5.263896e+01	1.736755e+03
1.570000e-06	7.285216e-06	2.647427e-08	5.279318e+01	1.738160e+03
1.580000e-06	7.304003e-06	2.648878e-08	5.292932e+01	1.739436e+03
1.590000e-06	7.320085e-06	2.650038e-08	5.304586e+01	1.740525e+03
1.600000e-06	7.333345e-06	2.650910e-08	5.314195e+01	1.741372e+03
1.610000e-06	7.343687e-06	2.651530e-08	5.321689e+01	1.741930e+03
1.620000e-06	7.351227e-06	2.652099e-08	5.327154e+01	1.742175e+03
1.630000e-06	7.356241e-06	2.652356e-08	5.330787e+01	1.742106e+03
1.640000e-06	7.358633e-06	2.652281e-08	5.332520e+01	1.741746e+03
1.650000e-06	7.358376e-06	2.652264e-08	5.332334e+01	1.741141e+03
1.660000e-06	7.355704e-06	2.651125e-08	5.330397e+01	1.740351e+03
1.670000e-06	7.350642e-06	2.650042e-08	5.326729e+01	1.739441e+03
1.680000e-06	7.343058e-06	2.649220e-08	5.321233e+01	1.738469e+03
1.690000e-06	7.333016e-06	2.648091e-08	5.313957e+01	1.737479e+03
1.700000e-06	7.320462e-06	2.646911e-08	5.304859e+01	1.736494e+03
1.710000e-06	7.305341e-06	2.645993e-08	5.293901e+01	1.735512e+03
1.720000e-06	7.287927e-06	2.645449e-08	5.281282e+01	1.734509e+03
1.730000e-06	7.268423e-06	2.642341e-08	5.267149e+01	1.733444e+03
1.740000e-06	7.246331e-06	2.630121e-08	5.251139e+01	1.732265e+03
1.750000e-06	7.220950e-06	2.629983e-08	5.232746e+01	1.730920e+03
1.760000e-06	7.192129e-06	2.633336e-08	5.211861e+01	1.729365e+03
1.770000e-06	7.160465e-06	2.628890e-08	5.188915e+01	1.727572e+03
1.780000e-06	7.126752e-06	2.628021e-08	5.164485e+01	1.725534e+03
1.790000e-06	7.091357e-06	2.636043e-08	5.138835e+01	1.723263e+03
1.800000e-06	7.054306e-06	2.623156e-08	5.111986e+01	1.720786e+03
1.810000e-06	7.014946e-06	2.613149e-08	5.083463e+01	1.718143e+03
1.820000e-06	6.972871e-06	2.625738e-08	5.052973e+01	1.715370e+03
1.830000e-06	6.928553e-06	2.609392e-08	5.020857e+01	1.712499e+03
1.840000e-06	6.881793e-06	2.614698e-08	4.986973e+01	1.709544e+03
1.850000e-06	6.832387e-06	2.611415e-08	4.951170e+01	1.706499e+03
1.860000e-06	6.780358e-06	2.597028e-08	4.913466e+01	1.703333e+03
1.870000e-06	6.725489e-06	2.601936e-08	4.873705e+01	1.700000e+03
1.880000e-06	6.668201e-06	2.584398e-08	4.832191e+01	1.696438e+03
1.890000e-06	6.608456e-06	2.585841e-08	4.788895e+01	1.692584e+03
1.900000e-06	6.546016e-06	2.578600e-08	4.743648e+01	1.688379e+03
1.910000e-06	6.481133e-06	2.564551e-08	4.696630e+01	1.683783e+03
1.920000e-06	6.413939e-06	2.565235e-08	4.647937e+01	1.678778e+03
1.930000e-06	6.344332e-06	2.551984e-08	4.597495e+01	1.673374e+03
1.940000e-06	6.272168e-06	2.549554e-08	4.545200e+01	1.667604e+03
1.950000e-06	6.197595e-06	2.536396e-08	4.491160e+01	1.661524e+03
1.960000e-06	6.120467e-06	2.527865e-08	4.435269e+01	1.655198e+03
1.970000e-06	6.040816e-06	2.520113e-08	4.377549e+01	1.648690e+03
1.980000e-06	5.959092e-06	2.505845e-08	4.318326e+01	1.642050e+03
1.990000e-06	5.875352e-06	2.502746e-08	4.257643e+01	1.635306e+03
2.000000e-06	5.789440e-06	2.488557e-08	4.195386e+01	1.628455e+03
2.010000e-06	5.701282e-06	2.478600e-08	4.131501e+01	1.621461e+03
2.020000e-06	5.611120e-06	2.464381e-08	4.066164e+01	1.614263e+03
2.030000e-06	5.519085e-06	2.452546e-08	3.999470e+01	1.606775e+03
2.040000e-06	5.425034e-06	2.441267e-08	3.931315e+01	1.598905e+03
2.050000e-06	5.329015e-06	2.427691e-08	3.861733e+01	1.590563e+03
2.060000e-06	5.231230e-06	2.416481e-08	3.790872e+01	1.581679e+03
2.070000e-06	5.131758e-06	2.400013e-08	3.718789e+01	1.572207e+03
2.080000e-06	5.030474e-06	2.385582e-08	3.645392e+01	1.562138e+03
2.090000e-06	4.927249e-06	2.368592e-08	3.570589e+01	1.551491e+03
2.100000e-06	4.822216e-06	2.353834e-08	3.494476e+01	1.540318e+03
2.110000e-06	4.715636e-06	2.336603e-08	3.417241e+01	1.528682e+03
2.120000e-06	4.607501e-06	2.318578e-08	3.338880e+01	1.516651e+03
2.130000e-06	4.497745e-06	2.299510e-08	3.259344e+01	1.504279e+03
2.140000e-06	4.386281e-06	2.280317e-08	3.178570e+01	1.491591e+03
2.150000e-06	4.273081e-06	2.261037e-08	3.096539e+01	1.478576e+03
2.160000e-06	4.158192e-06	2.240399e-08	3.013283e+01	1.465181e+03
2.170000e-06	4.041528e-06	2.219373e-08	2.928741e+01	1.451313e+03
2.180000e-06	3.923161e-06	2.195760e-08	2.842965e+01	1.436848e+03
2.190000e-06	3.803238e-06	2.171758e-08	2.756061e+01	1.421646e+03
2.200000e-06	3.681948e-06	2.146004e-08	2.668167e+01	1.405569e+03
2.210000e-06	3.559396e-06	2.120387e-08	2.579358e+01	1.388497e+03
2.220000e-06	3.435545e-06	2.092947e-08	2.489608e+01	1.370341e+03
2.230000e-06	3.310397e-06	2.064375e-08	2.398918e+01	1.351054e+03
2.240000e-06	3.183919e-06	2.033979e-08	2.307264e+01	1.330632e+03
2.250000e-06	3.056206e-06	2.002578e-08	2.214716e+01	1.309106e+03
2.260000e-06	2.927405e-06	1.969763e-08	2.121378e+01	1.286525e+03
2.270000e-06	2.797626e-06	1.934839e-08	2.027332e+01	1.262938e+03
2.280000e-06	2.666890e-06	1.898024e-08	1.932593e+01	1.238367e+03
2.290000e-06	2.535126e-06	1.858846e-08	1.837109e+01	1.212786e+03
2.300000e-06	2.402463e-06	1.817630e-08	1.740973e+01	1.186099e+03
2.310000e-06	2.268999e-06	1.773812e-08	1.644257e+01	1.158133e+03
2.320000e-06	2.134756e-06	1.727720e-08	1.546976e+01	1.128639e+03
2.330000e-06	1.999748e-06	1.678383e-08	1.449141e+01	1.097300e+03
2.340000e-06	1.864026e-06	1.625797e-08	1.350789e+01	1.063760e+03
2.350000e-06	1.727679e-06	1.569626e-08	1.251983e+01	1.027650e+03
2.360000e-06	1.590747e-06	1.510023e-08	1.152753e+01	9.886293e+02
2.370000e-06	1.453306e-06	1.446559e-08	1.053155e+01	9.464214e+02
2.380000e-06	1.315508e-06	1.378431e-08	9.532984e+00	9.008445e+02
2.390000e-06	1.177338e-06	1.305668e-08	8.531719e+00	8.518352e+02
2.400000e-06	1.038730e-06	1.227798e-08	7.527276e+00	7.994574e+02
2.410000e-06	8.996673e-07	1.144650e-08	6.519545e+00	7.438970e+02
2.420000e-06	7.602003e-07	1.056630e-08	5.508881e+00	6.854419e+02
2.430000e-06	6.204718e-07	9.638070e-09	4.496322e+00	6.244503e+02
2.440000e-06	4.804900e-07	8.662948e-09	3.481928e+00	5.613100e+02
2.450000e-06	3.402825e-07	7.647046e-09	2.465897e+00	4.963959e+02
2.460000e-06	1.999215e-07	6.602276e-09	1.448755e+00	4.300302e+02
2.470000e-06	5.947128e-08	5.538934e-09	4.309656e-01	3.624522e+02
2.480000e-06	-8.104309e-08	4.467128e-09	-5.872883e-01	2.938008e+02
2.490000e-06	-2.215358e-07	3.393835e-09	-1.605385e+00	2.241142e+02
2.500000e-06	-3.619140e-07	2.319577e-09	-2.622652e+00	1.533459e+02
2.510000e-06	-5.021817e-07	1.242514e-09	-3.639119e+00	8.139655e+01
2.520000e-06	-6.422966e-07	1.572089e-10	-4.654478e+00	8.156644e+00
2.530000e-06	-7.822098e-07	-9.466950e-10	-5.668376e+00	-6.644528e+01
2.540000e-06	-9.218606e-07	-2.079980e-09	-6.680371e+00	-1.423952e+02
2.550000e-06	-1.061075e-06	-3.247017e-09	-7.689202e+00	-2.195538e+02
2.560000e-06	-1.199767e-06	-4.445638e-09	-8.694251e+00	-2.976310e+02
2.570000e-06	-1.337981e-06	-5.668010e-09	-9.695837e+00	-3.761770e+02
2.580000e-06	-1.475732e-06	-6.900143e-09	-1.069407e+01	-4.545941e+02
2.590000e-06	-1.613008e-06	-8.123888e-09	-1.168885e+01	-5.321670e+02
2.600000e-06	-1.749700e-06	-9.315741e-09	-1.267941e+01	-6.081096e+02
2.610000e-06	-1.885754e-06	-1.045460e-08	-1.366534e+01	-6.816223e+02
2.620000e-06	-2.021137e-06	-1.152881e-08	-1.464641e+01	-7.519536e+02
2.630000e-06	-2.155747e-06	-1.253051e-08	-1.562188e+01	-8.184589e+02
2.640000e-06	-2.289472e-06	-1.345678e-08	-1.659093e+01	-8.806495e+02
2.650000e-06	-2.422269e-06	-1.431064e-08	-1.755326e+01	-9.382261e+02
2.660000e-06	-2.554171e-06	-1.509737e-08	-1.850910e+01	-9.910935e+02
2.670000e-06	-2.685132e-06	-1.582251e-08	-1.945812e+01	-1.039355e+03
2.680000e-06	-2.815134e-06	-1.649282e-08	-2.040020e+01	-1.083289e+03
2.690000e-06	-2.944120e-06	-1.711445e-08	-2.133491e+01	-1.123306e+03
2.700000e-06	-3.072082e-06	-1.769200e-08	-2.226221e+01	-1.159904e+03
2.710000e-06	-3.198963e-06	-1.822985e-08	-2.318166e+01	-1.193610e+03
2.720000e-06	-3.324598e-06	-1.872911e-08	-2.409209e+01	-1.224931e+03
2.730000e-06	-3.449016e-06	-1.919366e-08	-2.499370e+01	-1.254311e+03
2.740000e-06	-3.572175e-06	-1.962785e-08	-2.588619e+01	-1.282104e+03
2.750000e-06	-3.694053e-06	-2.003297e-08	-2.676939e+01	-1.308554e+03
2.760000e-06	-3.814606e-06	-2.041477e-08	-2.764299e+01	-1.333800e+03
2.770000e-06	-3.933736e-06	-2.077481e-08	-2.850628e+01	-1.357890e+03
2.780000e-06	-4.051366e-06	-2.111294e-08	-2.935870e+01	-1.380806e+03
2.790000e-06	-4.167387e-06	-2.143107e-08	-3.019946e+01	-1.402492e+03
2.800000e-06	-4.281775e-06	-2.172988e-08	-3.102839e+01	-1.422890e+03
2.810000e-06	-4.394428e-06	-2.201334e-08	-3.184474e+01	-1.441961e+03
2.820000e-06	-4.505350e-06	-2.228152e-08	-3.264855e+01	-1.459712e+03
2.830000e-06	-4.614661e-06	-2.253504e-08	-3.344068e+01	-1.476197e+03
2.840000e-06	-4.722469e-06	-2.277641e-08	-3.422192e+01	-1.491525e+03
2.850000e-06	-4.828775e-06	-2.300594e-08	-3.499228e+01	-1.505841e+03
2.860000e-06	-4.933407e-06	-2.322421e-08	-3.575051e+01	-1.519317e+03
2.870000e-06	-5.036150e-06	-2.343039e-08	-3.649505e+01	-1.532124e+03
2.880000e-06	-5.136941e-06	-2.362578e-08	-3.722545e+01	-1.544413e+03
2.890000e-06	-5.235897e-06	-2.381252e-08	-3.794254e+01	-1.556302e+03
2.900000e-06	-5.333079e-06	-2.398901e-08	-3.864678e+01	-1.567857e+03
2.910000e-06	-5.428345e-06	-2.415668e-08	-3.933714e+01	-1.579095e+03
2.920000e-06	-5.521562e-06	-2.431631e-08	-4.001265e+01	-1.589987e+03
2.930000e-06	-5.612806e-06	-2.446741e-08	-4.067386e+01	-1.600469e+03
2.940000e-06	-5.702081e-06	-2.461161e-08	-4.132080e+01	-1.610457e+03
