# Temperatura_=_65.98
# Concentracion g/m^3_=_28370.0
# C_Vs_to_Am_M_A/Vsm_=_65563218390.804596
# pendiente_HvsI_1/m_=_3716.3
# ordenada_HvsI_A/m_=_1297.0
# frecuencia_Hz_=_302398.9982143148

Tiempo_(s)	Campo_(V.s)	Magnetizacion_(V.s)	Campo_(kA/m)	Magnetizacion_(A/m)
0.000000e+00	-7.371976e-06	-2.675518e-08	-5.318423e+01	-1.752171e+03
1.000000e-08	-7.368314e-06	-2.675438e-08	-5.315781e+01	-1.751308e+03
2.000000e-08	-7.362279e-06	-2.674373e-08	-5.311427e+01	-1.750343e+03
3.000000e-08	-7.353868e-06	-2.672807e-08	-5.305359e+01	-1.749327e+03
4.000000e-08	-7.342896e-06	-2.671055e-08	-5.297444e+01	-1.748296e+03
5.000000e-08	-7.329206e-06	-2.669106e-08	-5.287567e+01	-1.747263e+03
6.000000e-08	-7.312816e-06	-2.666942e-08	-5.275742e+01	-1.746217e+03
7.000000e-08	-7.294099e-06	-2.664770e-08	-5.262239e+01	-1.745127e+03
8.000000e-08	-7.273287e-06	-2.662823e-08	-5.247225e+01	-1.743951e+03
9.000000e-08	-7.249946e-06	-2.666008e-08	-5.230386e+01	-1.742638e+03
1.000000e-07	-7.223622e-06	-2.664205e-08	-5.211394e+01	-1.741144e+03
1.100000e-07	-7.194430e-06	-2.655389e-08	-5.190334e+01	-1.739434e+03
1.200000e-07	-7.162724e-06	-2.650170e-08	-5.167460e+01	-1.737493e+03
1.300000e-07	-7.128475e-06	-2.646812e-08	-5.142752e+01	-1.735323e+03
1.400000e-07	-7.091959e-06	-2.641461e-08	-5.116408e+01	-1.732945e+03
1.500000e-07	-7.053639e-06	-2.634911e-08	-5.088763e+01	-1.730390e+03
1.600000e-07	-7.013243e-06	-2.638819e-08	-5.059619e+01	-1.727696e+03
1.700000e-07	-6.970327e-06	-2.634663e-08	-5.028658e+01	-1.724894e+03
1.800000e-07	-6.924934e-06	-2.620244e-08	-4.995910e+01	-1.722005e+03
1.900000e-07	-6.876968e-06	-2.623101e-08	-4.961305e+01	-1.719029e+03
2.000000e-07	-6.826115e-06	-2.617029e-08	-4.924618e+01	-1.715944e+03
2.100000e-07	-6.772565e-06	-2.608126e-08	-4.885985e+01	-1.712708e+03
2.200000e-07	-6.716546e-06	-2.605692e-08	-4.845571e+01	-1.709265e+03
2.300000e-07	-6.658024e-06	-2.596884e-08	-4.803351e+01	-1.705549e+03
2.400000e-07	-6.597040e-06	-2.591244e-08	-4.759355e+01	-1.701499e+03
2.500000e-07	-6.533644e-06	-2.581012e-08	-4.713618e+01	-1.697066e+03
2.600000e-07	-6.467721e-06	-2.575913e-08	-4.666059e+01	-1.692221e+03
2.700000e-07	-6.399274e-06	-2.569494e-08	-4.616679e+01	-1.686962e+03
2.800000e-07	-6.328521e-06	-2.560310e-08	-4.565635e+01	-1.681314e+03
2.900000e-07	-6.255352e-06	-2.552027e-08	-4.512848e+01	-1.675326e+03
3.000000e-07	-6.179624e-06	-2.542535e-08	-4.458215e+01	-1.669059e+03
3.100000e-07	-6.101312e-06	-2.534915e-08	-4.401717e+01	-1.662580e+03
3.200000e-07	-6.020445e-06	-2.522814e-08	-4.343377e+01	-1.655949e+03
3.300000e-07	-5.937498e-06	-2.513481e-08	-4.283536e+01	-1.649205e+03
3.400000e-07	-5.852610e-06	-2.503922e-08	-4.222295e+01	-1.642359e+03
3.500000e-07	-5.765815e-06	-2.491518e-08	-4.159677e+01	-1.635391e+03
3.600000e-07	-5.677029e-06	-2.480413e-08	-4.095624e+01	-1.628249e+03
3.700000e-07	-5.586041e-06	-2.469145e-08	-4.029982e+01	-1.620856e+03
3.800000e-07	-5.493047e-06	-2.456370e-08	-3.962892e+01	-1.613119e+03
3.900000e-07	-5.398213e-06	-2.441640e-08	-3.894475e+01	-1.604946e+03
4.000000e-07	-5.301445e-06	-2.428662e-08	-3.824663e+01	-1.596254e+03
4.100000e-07	-5.202699e-06	-2.415291e-08	-3.753424e+01	-1.586984e+03
4.200000e-07	-5.102134e-06	-2.400573e-08	-3.680873e+01	-1.577109e+03
4.300000e-07	-4.999805e-06	-2.385245e-08	-3.607048e+01	-1.566636e+03
4.400000e-07	-4.895711e-06	-2.369225e-08	-3.531952e+01	-1.555606e+03
4.500000e-07	-4.789846e-06	-2.352034e-08	-3.455576e+01	-1.544079e+03
4.600000e-07	-4.682253e-06	-2.333949e-08	-3.377955e+01	-1.532126e+03
4.700000e-07	-4.573031e-06	-2.315909e-08	-3.299157e+01	-1.519812e+03
4.800000e-07	-4.462284e-06	-2.297392e-08	-3.219261e+01	-1.507180e+03
4.900000e-07	-4.349841e-06	-2.277541e-08	-3.138140e+01	-1.494239e+03
5.000000e-07	-4.235555e-06	-2.256057e-08	-3.055690e+01	-1.480958e+03
5.100000e-07	-4.119524e-06	-2.233931e-08	-2.971981e+01	-1.467262e+03
5.200000e-07	-4.001919e-06	-2.211311e-08	-2.887136e+01	-1.453040e+03
5.300000e-07	-3.882944e-06	-2.187960e-08	-2.801303e+01	-1.438157e+03
5.400000e-07	-3.762524e-06	-2.163461e-08	-2.714427e+01	-1.422468e+03
5.500000e-07	-3.640599e-06	-2.137827e-08	-2.626466e+01	-1.405841e+03
5.600000e-07	-3.517281e-06	-2.110478e-08	-2.537500e+01	-1.388166e+03
5.700000e-07	-3.392609e-06	-2.081664e-08	-2.447557e+01	-1.369375e+03
5.800000e-07	-3.266741e-06	-2.051695e-08	-2.356751e+01	-1.349442e+03
5.900000e-07	-3.139824e-06	-2.020775e-08	-2.265188e+01	-1.328382e+03
6.000000e-07	-3.011690e-06	-1.988387e-08	-2.172747e+01	-1.306241e+03
6.100000e-07	-2.882231e-06	-1.953913e-08	-2.079351e+01	-1.283072e+03
6.200000e-07	-2.751724e-06	-1.917476e-08	-1.985198e+01	-1.258919e+03
6.300000e-07	-2.620297e-06	-1.879150e-08	-1.890381e+01	-1.233786e+03
6.400000e-07	-2.487807e-06	-1.838972e-08	-1.794798e+01	-1.207619e+03
6.500000e-07	-2.354370e-06	-1.796336e-08	-1.698532e+01	-1.180290e+03
6.600000e-07	-2.220244e-06	-1.751423e-08	-1.601768e+01	-1.151587e+03
6.700000e-07	-2.085488e-06	-1.703649e-08	-1.504550e+01	-1.121229e+03
6.800000e-07	-1.949995e-06	-1.652661e-08	-1.406800e+01	-1.088875e+03
6.900000e-07	-1.813637e-06	-1.598441e-08	-1.308426e+01	-1.054154e+03
7.000000e-07	-1.676455e-06	-1.540891e-08	-1.209458e+01	-1.016701e+03
7.100000e-07	-1.538706e-06	-1.479470e-08	-1.110081e+01	-9.761966e+02
7.200000e-07	-1.400512e-06	-1.413661e-08	-1.010382e+01	-9.323950e+02
7.300000e-07	-1.261852e-06	-1.343487e-08	-9.103480e+00	-8.851585e+02
7.400000e-07	-1.122780e-06	-1.268351e-08	-8.100157e+00	-8.344716e+02
7.500000e-07	-9.832859e-07	-1.188126e-08	-7.093797e+00	-7.804443e+02
7.600000e-07	-8.433664e-07	-1.102694e-08	-6.084365e+00	-7.232996e+02
7.700000e-07	-7.031120e-07	-1.012196e-08	-5.072516e+00	-6.633488e+02
7.800000e-07	-5.626163e-07	-9.165353e-09	-4.058927e+00	-6.009550e+02
7.900000e-07	-4.218393e-07	-8.164554e-09	-3.043308e+00	-5.364925e+02
8.000000e-07	-2.807687e-07	-7.129214e-09	-2.025572e+00	-4.703052e+02
8.100000e-07	-1.395469e-07	-6.068002e-09	-1.006744e+00	-4.026716e+02
8.200000e-07	1.770259e-09	-4.993275e-09	1.277132e-02	-3.337813e+02
8.300000e-07	1.431576e-07	-3.912661e-09	1.032793e+00	-2.637263e+02
8.400000e-07	2.844496e-07	-2.832319e-09	2.052127e+00	-1.925083e+02
8.500000e-07	4.255515e-07	-1.749556e-09	3.070090e+00	-1.200635e+02
8.600000e-07	5.665110e-07	-6.576453e-10	4.087025e+00	-4.629932e+01
8.700000e-07	7.072501e-07	4.518492e-10	5.102370e+00	2.885988e+01
8.800000e-07	8.476570e-07	1.587114e-09	6.115318e+00	1.054250e+02
8.900000e-07	9.877971e-07	2.753325e-09	7.126342e+00	1.832990e+02
9.000000e-07	1.127624e-06	3.951458e-09	8.135107e+00	2.622448e+02
9.100000e-07	1.267026e-06	5.176711e-09	9.140803e+00	3.418688e+02
9.200000e-07	1.405985e-06	6.420310e-09	1.014331e+01	4.216231e+02
9.300000e-07	1.544407e-06	7.663682e-09	1.114194e+01	5.008282e+02
9.400000e-07	1.682261e-06	8.881827e-09	1.213647e+01	5.787125e+02
9.500000e-07	1.819463e-06	1.005436e-08	1.312630e+01	6.544654e+02
9.600000e-07	1.955848e-06	1.116628e-08	1.411023e+01	7.272981e+02
9.700000e-07	2.091396e-06	1.220588e-08	1.508812e+01	7.965046e+02
9.800000e-07	2.226145e-06	1.317110e-08	1.606025e+01	8.615161e+02
9.900000e-07	2.360116e-06	1.406135e-08	1.702677e+01	9.219418e+02
1.000000e-06	2.493204e-06	1.487967e-08	1.798692e+01	9.775932e+02
1.010000e-06	2.625248e-06	1.562910e-08	1.893954e+01	1.028488e+03
1.020000e-06	2.756278e-06	1.631768e-08	1.988483e+01	1.074832e+03
1.030000e-06	2.886414e-06	1.695818e-08	2.082368e+01	1.116990e+03
1.040000e-06	3.015561e-06	1.755621e-08	2.175540e+01	1.155434e+03
1.050000e-06	3.143522e-06	1.811173e-08	2.267856e+01	1.190694e+03
1.060000e-06	3.270253e-06	1.862739e-08	2.359284e+01	1.223301e+03
1.070000e-06	3.395855e-06	1.910838e-08	2.449898e+01	1.253744e+03
1.080000e-06	3.520271e-06	1.955755e-08	2.539657e+01	1.282428e+03
1.090000e-06	3.643447e-06	1.997523e-08	2.628521e+01	1.309657e+03
1.100000e-06	3.765417e-06	2.036304e-08	2.716514e+01	1.335624e+03
1.110000e-06	3.885973e-06	2.073012e-08	2.803488e+01	1.360418e+03
1.120000e-06	4.005035e-06	2.108068e-08	2.889384e+01	1.384051e+03
1.130000e-06	4.122696e-06	2.141284e-08	2.974269e+01	1.406479e+03
1.140000e-06	4.238873e-06	2.172396e-08	3.058083e+01	1.427641e+03
1.150000e-06	4.353409e-06	2.201614e-08	3.140714e+01	1.447483e+03
1.160000e-06	4.466235e-06	2.229176e-08	3.222111e+01	1.465988e+03
1.170000e-06	4.577330e-06	2.255094e-08	3.302259e+01	1.483184e+03
1.180000e-06	4.686873e-06	2.279590e-08	3.381288e+01	1.499154e+03
1.190000e-06	4.794893e-06	2.303018e-08	3.459217e+01	1.514029e+03
1.200000e-06	4.901279e-06	2.325266e-08	3.535968e+01	1.527970e+03
1.210000e-06	5.005907e-06	2.346474e-08	3.611451e+01	1.541153e+03
1.220000e-06	5.108661e-06	2.366610e-08	3.685581e+01	1.553743e+03
1.230000e-06	5.209521e-06	2.385712e-08	3.758346e+01	1.565880e+03
1.240000e-06	5.308494e-06	2.403763e-08	3.829749e+01	1.577655e+03
1.250000e-06	5.405501e-06	2.420670e-08	3.899733e+01	1.589112e+03
1.260000e-06	5.500449e-06	2.436812e-08	3.968233e+01	1.600245e+03
1.270000e-06	5.593442e-06	2.452315e-08	4.035321e+01	1.611003e+03
1.280000e-06	5.684504e-06	2.467298e-08	4.101016e+01	1.621312e+03
1.290000e-06	5.773483e-06	2.481680e-08	4.165209e+01	1.631084e+03
1.300000e-06	5.860292e-06	2.495203e-08	4.227836e+01	1.640244e+03
1.310000e-06	5.945008e-06	2.507935e-08	4.288954e+01	1.648740e+03
1.320000e-06	6.027700e-06	2.520072e-08	4.348611e+01	1.656559e+03
1.330000e-06	6.108220e-06	2.531588e-08	4.406702e+01	1.663726e+03
1.340000e-06	6.186433e-06	2.542484e-08	4.463127e+01	1.670305e+03
1.350000e-06	6.262320e-06	2.552533e-08	4.517875e+01	1.676390e+03
1.360000e-06	6.335781e-06	2.561794e-08	4.570872e+01	1.682093e+03
1.370000e-06	6.406896e-06	2.570632e-08	4.622178e+01	1.687523e+03
1.380000e-06	6.475754e-06	2.579044e-08	4.671854e+01	1.692776e+03
1.390000e-06	6.542390e-06	2.587045e-08	4.719928e+01	1.697921e+03
1.400000e-06	6.606681e-06	2.594768e-08	4.766310e+01	1.702992e+03
1.410000e-06	6.668595e-06	2.602008e-08	4.810977e+01	1.707985e+03
1.420000e-06	6.728277e-06	2.608646e-08	4.854034e+01	1.712862e+03
1.430000e-06	6.785592e-06	2.614988e-08	4.895383e+01	1.717564e+03
1.440000e-06	6.840460e-06	2.621200e-08	4.934967e+01	1.722017e+03
1.450000e-06	6.892721e-06	2.627209e-08	4.972670e+01	1.726152e+03
1.460000e-06	6.942078e-06	2.632811e-08	5.008278e+01	1.729912e+03
1.470000e-06	6.988776e-06	2.637944e-08	5.041968e+01	1.733268e+03
1.480000e-06	7.033120e-06	2.642730e-08	5.073959e+01	1.736219e+03
1.490000e-06	7.074935e-06	2.647160e-08	5.104126e+01	1.738792e+03
1.500000e-06	7.114165e-06	2.651224e-08	5.132428e+01	1.741041e+03
1.510000e-06	7.150951e-06	2.654987e-08	5.158967e+01	1.743035e+03
1.520000e-06	7.185241e-06	2.658420e-08	5.183705e+01	1.744845e+03
1.530000e-06	7.216952e-06	2.661448e-08	5.206583e+01	1.746537e+03
1.540000e-06	7.246156e-06	2.664096e-08	5.227651e+01	1.748156e+03
1.550000e-06	7.272797e-06	2.666316e-08	5.246871e+01	1.749724e+03
1.560000e-06	7.296699e-06	2.668257e-08	5.264115e+01	1.751235e+03
1.570000e-06	7.318003e-06	2.670038e-08	5.279484e+01	1.752659e+03
1.580000e-06	7.336827e-06	2.671515e-08	5.293065e+01	1.753948e+03
1.590000e-06	7.352932e-06	2.672641e-08	5.304683e+01	1.755042e+03
1.600000e-06	7.366252e-06	2.673402e-08	5.314293e+01	1.755886e+03
1.610000e-06	7.376678e-06	2.674088e-08	5.321815e+01	1.756436e+03
1.620000e-06	7.384230e-06	2.674737e-08	5.327263e+01	1.756667e+03
1.630000e-06	7.389182e-06	2.675042e-08	5.330836e+01	1.756580e+03
1.640000e-06	7.391517e-06	2.674946e-08	5.332520e+01	1.756202e+03
1.650000e-06	7.391220e-06	2.674763e-08	5.332306e+01	1.755576e+03
1.660000e-06	7.388492e-06	2.673674e-08	5.330338e+01	1.754763e+03
1.670000e-06	7.383334e-06	2.672416e-08	5.326617e+01	1.753827e+03
1.680000e-06	7.375621e-06	2.671279e-08	5.321052e+01	1.752823e+03
1.690000e-06	7.365473e-06	2.669967e-08	5.313731e+01	1.751793e+03
1.700000e-06	7.352798e-06	2.668738e-08	5.304587e+01	1.750759e+03
1.710000e-06	7.337554e-06	2.667507e-08	5.293589e+01	1.749719e+03
1.720000e-06	7.320040e-06	2.666024e-08	5.280954e+01	1.748648e+03
1.730000e-06	7.300415e-06	2.662326e-08	5.266796e+01	1.747507e+03
1.740000e-06	7.278118e-06	2.652259e-08	5.250710e+01	1.746248e+03
1.750000e-06	7.252483e-06	2.651788e-08	5.232216e+01	1.744822e+03
1.760000e-06	7.223497e-06	2.654286e-08	5.211304e+01	1.743190e+03
1.770000e-06	7.191710e-06	2.651007e-08	5.188372e+01	1.741331e+03
1.780000e-06	7.157782e-06	2.649246e-08	5.163895e+01	1.739240e+03
1.790000e-06	7.122135e-06	2.653321e-08	5.138178e+01	1.736932e+03
1.800000e-06	7.084818e-06	2.644276e-08	5.111256e+01	1.734434e+03
1.810000e-06	7.045152e-06	2.634368e-08	5.082639e+01	1.731785e+03
1.820000e-06	7.002838e-06	2.644346e-08	5.052113e+01	1.729017e+03
1.830000e-06	6.958336e-06	2.634225e-08	5.020007e+01	1.726157e+03
1.840000e-06	6.911328e-06	2.635276e-08	4.986094e+01	1.723212e+03
1.850000e-06	6.861610e-06	2.632642e-08	4.950225e+01	1.720168e+03
1.860000e-06	6.809286e-06	2.618351e-08	4.912477e+01	1.716991e+03
1.870000e-06	6.754153e-06	2.619270e-08	4.872702e+01	1.713628e+03
1.880000e-06	6.696557e-06	2.606605e-08	4.831150e+01	1.710016e+03
1.890000e-06	6.636458e-06	2.606260e-08	4.787792e+01	1.706090e+03
1.900000e-06	6.573664e-06	2.600140e-08	4.742490e+01	1.701797e+03
1.910000e-06	6.508423e-06	2.587489e-08	4.695423e+01	1.697099e+03
1.920000e-06	6.440846e-06	2.584758e-08	4.646670e+01	1.691986e+03
1.930000e-06	6.370784e-06	2.571225e-08	4.596125e+01	1.686471e+03
1.940000e-06	6.298143e-06	2.566923e-08	4.543719e+01	1.680597e+03
1.950000e-06	6.223139e-06	2.556762e-08	4.489608e+01	1.674420e+03
1.960000e-06	6.145622e-06	2.548821e-08	4.433684e+01	1.668008e+03
1.970000e-06	6.065573e-06	2.540795e-08	4.375934e+01	1.661425e+03
1.980000e-06	5.983406e-06	2.526584e-08	4.316656e+01	1.654717e+03
1.990000e-06	5.899185e-06	2.520743e-08	4.255896e+01	1.647906e+03
2.000000e-06	5.812770e-06	2.507228e-08	4.193552e+01	1.640985e+03
2.010000e-06	5.724190e-06	2.496576e-08	4.129647e+01	1.633911e+03
2.020000e-06	5.633691e-06	2.483683e-08	4.064358e+01	1.626617e+03
2.030000e-06	5.541318e-06	2.472660e-08	3.997717e+01	1.619013e+03
2.040000e-06	5.446877e-06	2.460458e-08	3.929584e+01	1.611005e+03
2.050000e-06	5.350430e-06	2.445566e-08	3.860003e+01	1.602505e+03
2.060000e-06	5.252228e-06	2.432986e-08	3.789156e+01	1.593444e+03
2.070000e-06	5.152294e-06	2.417132e-08	3.717060e+01	1.583785e+03
2.080000e-06	5.050438e-06	2.402650e-08	3.643577e+01	1.573522e+03
2.090000e-06	4.946615e-06	2.386012e-08	3.568675e+01	1.562683e+03
2.100000e-06	4.841021e-06	2.370879e-08	3.492496e+01	1.551324e+03
2.110000e-06	4.733963e-06	2.353362e-08	3.415260e+01	1.539514e+03
2.120000e-06	4.625387e-06	2.334845e-08	3.336929e+01	1.527321e+03
2.130000e-06	4.515133e-06	2.315428e-08	3.257388e+01	1.514798e+03
2.140000e-06	4.403164e-06	2.296329e-08	3.176609e+01	1.501968e+03
2.150000e-06	4.289471e-06	2.276764e-08	3.094587e+01	1.488814e+03
2.160000e-06	4.174087e-06	2.255711e-08	3.011345e+01	1.475276e+03
2.170000e-06	4.056833e-06	2.234096e-08	2.926753e+01	1.461255e+03
2.180000e-06	3.937903e-06	2.210316e-08	2.840953e+01	1.446623e+03
2.190000e-06	3.817519e-06	2.185952e-08	2.754103e+01	1.431237e+03
2.200000e-06	3.695734e-06	2.159993e-08	2.666243e+01	1.414958e+03
2.210000e-06	3.572669e-06	2.133988e-08	2.577459e+01	1.397666e+03
2.220000e-06	3.448203e-06	2.106262e-08	2.487665e+01	1.379277e+03
2.230000e-06	3.322359e-06	2.077457e-08	2.396876e+01	1.359751e+03
2.240000e-06	3.195355e-06	2.046847e-08	2.305250e+01	1.339089e+03
2.250000e-06	3.067165e-06	2.014861e-08	2.212769e+01	1.317326e+03
2.260000e-06	2.937807e-06	1.981344e-08	2.119445e+01	1.294517e+03
2.270000e-06	2.807467e-06	1.946036e-08	2.025413e+01	1.270711e+03
2.280000e-06	2.676198e-06	1.909071e-08	1.930711e+01	1.245930e+03
2.290000e-06	2.543918e-06	1.869863e-08	1.835279e+01	1.220142e+03
2.300000e-06	2.410577e-06	1.828293e-08	1.739081e+01	1.193246e+03
2.310000e-06	2.276352e-06	1.783945e-08	1.642246e+01	1.165061e+03
2.320000e-06	2.141468e-06	1.737241e-08	1.544936e+01	1.135330e+03
2.330000e-06	2.005941e-06	1.687591e-08	1.447162e+01	1.103729e+03
2.340000e-06	1.869713e-06	1.634771e-08	1.348882e+01	1.069895e+03
2.350000e-06	1.732821e-06	1.578257e-08	1.250122e+01	1.033457e+03
2.360000e-06	1.595350e-06	1.517974e-08	1.150946e+01	9.940735e+02
2.370000e-06	1.457377e-06	1.453706e-08	1.051407e+01	9.514698e+02
2.380000e-06	1.318988e-06	1.384914e-08	9.515677e+00	9.054671e+02
2.390000e-06	1.180187e-06	1.311398e-08	8.514319e+00	8.560051e+02
2.400000e-06	1.040942e-06	1.233011e-08	7.509747e+00	8.031493e+02
2.410000e-06	9.012131e-07	1.149468e-08	6.501693e+00	7.470849e+02
2.420000e-06	7.610707e-07	1.060597e-08	5.490652e+00	6.880951e+02
2.430000e-06	6.206229e-07	9.665037e-09	4.477408e+00	6.265293e+02
2.440000e-06	4.798955e-07	8.676744e-09	3.462148e+00	5.627625e+02
2.450000e-06	3.389374e-07	7.648273e-09	2.445223e+00	4.971539e+02
2.460000e-06	1.978029e-07	6.590388e-09	1.427025e+00	4.300088e+02
2.470000e-06	5.653582e-08	5.514345e-09	4.078708e-01	3.615504e+02
2.480000e-06	-8.484647e-08	4.429706e-09	-6.121146e-01	2.919056e+02
2.490000e-06	-2.261903e-07	3.341577e-09	-1.631823e+00	2.211063e+02
2.500000e-06	-3.674359e-07	2.250916e-09	-2.650822e+00	1.491084e+02
2.510000e-06	-5.085633e-07	1.156799e-09	-3.668968e+00	7.582475e+01
2.520000e-06	-6.494632e-07	5.133433e-11	-4.685473e+00	1.168093e+00
2.530000e-06	-7.900914e-07	-1.076047e-09	-5.700019e+00	-7.490088e+01
2.540000e-06	-9.303542e-07	-2.232382e-09	-6.711928e+00	-1.523281e+02
2.550000e-06	-1.070184e-06	-3.420824e-09	-7.720715e+00	-2.309294e+02
2.560000e-06	-1.209548e-06	-4.641162e-09	-8.726141e+00	-3.103675e+02
2.570000e-06	-1.348443e-06	-5.884740e-09	-9.728181e+00	-3.901484e+02
2.580000e-06	-1.486869e-06	-7.134565e-09	-1.072684e+01	-4.696358e+02
2.590000e-06	-1.624737e-06	-8.372587e-09	-1.172147e+01	-5.480853e+02
2.600000e-06	-1.761944e-06	-9.574887e-09	-1.271133e+01	-6.246937e+02
2.610000e-06	-1.898455e-06	-1.071954e-08	-1.369617e+01	-6.986572e+02
2.620000e-06	-2.034232e-06	-1.179523e-08	-1.467572e+01	-7.692336e+02
2.630000e-06	-2.169272e-06	-1.279610e-08	-1.564995e+01	-8.357993e+02
2.640000e-06	-2.303600e-06	-1.372083e-08	-1.661904e+01	-8.978965e+02
2.650000e-06	-2.437102e-06	-1.457074e-08	-1.758217e+01	-9.552628e+02
2.660000e-06	-2.569611e-06	-1.535268e-08	-1.853815e+01	-1.007843e+03
2.670000e-06	-2.701038e-06	-1.607311e-08	-1.948631e+01	-1.055780e+03
2.680000e-06	-2.831495e-06	-1.673902e-08	-2.042748e+01	-1.099384e+03
2.690000e-06	-2.960973e-06	-1.735864e-08	-2.136158e+01	-1.139097e+03
2.700000e-06	-3.089335e-06	-1.793453e-08	-2.228764e+01	-1.175433e+03
2.710000e-06	-3.216607e-06	-1.846849e-08	-2.320582e+01	-1.208929e+03
2.720000e-06	-3.342832e-06	-1.896307e-08	-2.411646e+01	-1.240095e+03
2.730000e-06	-3.467896e-06	-1.942456e-08	-2.501872e+01	-1.269368e+03
2.740000e-06	-3.591548e-06	-1.985650e-08	-2.591079e+01	-1.297091e+03
2.750000e-06	-3.713901e-06	-2.026103e-08	-2.679349e+01	-1.323494e+03
2.760000e-06	-3.834990e-06	-2.064199e-08	-2.766707e+01	-1.348703e+03
2.770000e-06	-3.954628e-06	-2.099940e-08	-2.853019e+01	-1.372755e+03
2.780000e-06	-4.072838e-06	-2.133466e-08	-2.938300e+01	-1.395621e+03
2.790000e-06	-4.189452e-06	-2.165058e-08	-3.022429e+01	-1.417244e+03
2.800000e-06	-4.304220e-06	-2.195028e-08	-3.105228e+01	-1.437563e+03
2.810000e-06	-4.417303e-06	-2.223444e-08	-3.186809e+01	-1.456546e+03
2.820000e-06	-4.528768e-06	-2.250115e-08	-3.267225e+01	-1.474204e+03
2.830000e-06	-4.638505e-06	-2.275382e-08	-3.346393e+01	-1.490601e+03
2.840000e-06	-4.746638e-06	-2.299417e-08	-3.424405e+01	-1.505851e+03
2.850000e-06	-4.853257e-06	-2.322231e-08	-3.501323e+01	-1.520106e+03
2.860000e-06	-4.958232e-06	-2.343846e-08	-3.577056e+01	-1.533541e+03
2.870000e-06	-5.061421e-06	-2.364382e-08	-3.651500e+01	-1.546327e+03
2.880000e-06	-5.162635e-06	-2.384066e-08	-3.724521e+01	-1.558614e+03
2.890000e-06	-5.261901e-06	-2.402852e-08	-3.796134e+01	-1.570511e+03
2.900000e-06	-5.359342e-06	-2.420522e-08	-3.866433e+01	-1.582082e+03
2.910000e-06	-5.454964e-06	-2.437229e-08	-3.935418e+01	-1.593336e+03
2.920000e-06	-5.548638e-06	-2.453021e-08	-4.002997e+01	-1.604237e+03
2.930000e-06	-5.640267e-06	-2.467926e-08	-4.069102e+01	-1.614717e+03
2.940000e-06	-5.729880e-06	-2.482288e-08	-4.133753e+01	-1.624691e+03
