# Temperatura_=_30.03
# Concentracion g/m^3_=_28370.0
# C_Vs_to_Am_M_A/Vsm_=_65563218390.804596
# pendiente_HvsI_1/m_=_3716.3
# ordenada_HvsI_A/m_=_1297.0
# frecuencia_Hz_=_302401.7475713718

Tiempo_(s)	Campo_(V.s)	Magnetizacion_(V.s)	Campo_(kA/m)	Magnetizacion_(A/m)
0.000000e+00	-7.318605e-06	-2.606925e-08	-5.318754e+01	-1.707221e+03
1.000000e-08	-7.315532e-06	-2.607273e-08	-5.316521e+01	-1.706441e+03
2.000000e-08	-7.310039e-06	-2.606293e-08	-5.312529e+01	-1.705521e+03
3.000000e-08	-7.302321e-06	-2.604788e-08	-5.306920e+01	-1.704526e+03
4.000000e-08	-7.292118e-06	-2.603350e-08	-5.299505e+01	-1.703511e+03
5.000000e-08	-7.279197e-06	-2.601528e-08	-5.290114e+01	-1.702512e+03
6.000000e-08	-7.263512e-06	-2.599134e-08	-5.278716e+01	-1.701538e+03
7.000000e-08	-7.245384e-06	-2.596585e-08	-5.265541e+01	-1.700577e+03
8.000000e-08	-7.225262e-06	-2.593123e-08	-5.250918e+01	-1.699591e+03
9.000000e-08	-7.202847e-06	-2.598853e-08	-5.234628e+01	-1.698531e+03
1.000000e-07	-7.177493e-06	-2.601439e-08	-5.216202e+01	-1.697338e+03
1.100000e-07	-7.149138e-06	-2.589991e-08	-5.195595e+01	-1.695960e+03
1.200000e-07	-7.118278e-06	-2.583201e-08	-5.173168e+01	-1.694355e+03
1.300000e-07	-7.084925e-06	-2.581920e-08	-5.148928e+01	-1.692499e+03
1.400000e-07	-7.049147e-06	-2.575127e-08	-5.122927e+01	-1.690390e+03
1.500000e-07	-7.011463e-06	-2.563283e-08	-5.095540e+01	-1.688047e+03
1.600000e-07	-6.971897e-06	-2.574739e-08	-5.066786e+01	-1.685502e+03
1.700000e-07	-6.929910e-06	-2.577203e-08	-5.036272e+01	-1.682793e+03
1.800000e-07	-6.885438e-06	-2.553432e-08	-5.003952e+01	-1.679960e+03
1.900000e-07	-6.838511e-06	-2.561403e-08	-4.969849e+01	-1.677029e+03
2.000000e-07	-6.788709e-06	-2.554394e-08	-4.933655e+01	-1.674008e+03
2.100000e-07	-6.736154e-06	-2.540872e-08	-4.895461e+01	-1.670889e+03
2.200000e-07	-6.681147e-06	-2.542665e-08	-4.855485e+01	-1.667638e+03
2.300000e-07	-6.623591e-06	-2.533403e-08	-4.813657e+01	-1.664209e+03
2.400000e-07	-6.563556e-06	-2.533435e-08	-4.770027e+01	-1.660544e+03
2.500000e-07	-6.501179e-06	-2.522223e-08	-4.724695e+01	-1.656587e+03
2.600000e-07	-6.436305e-06	-2.516084e-08	-4.677548e+01	-1.652292e+03
2.700000e-07	-6.368952e-06	-2.510481e-08	-4.628599e+01	-1.647630e+03
2.800000e-07	-6.299260e-06	-2.499551e-08	-4.577951e+01	-1.642596e+03
2.900000e-07	-6.227228e-06	-2.492515e-08	-4.525602e+01	-1.637209e+03
3.000000e-07	-6.152719e-06	-2.483904e-08	-4.471453e+01	-1.631506e+03
3.100000e-07	-6.075625e-06	-2.479294e-08	-4.415426e+01	-1.625541e+03
3.200000e-07	-5.995941e-06	-2.467985e-08	-4.357516e+01	-1.619370e+03
3.300000e-07	-5.914002e-06	-2.459046e-08	-4.297967e+01	-1.613040e+03
3.400000e-07	-5.830181e-06	-2.449739e-08	-4.237051e+01	-1.606582e+03
3.500000e-07	-5.744428e-06	-2.435837e-08	-4.174730e+01	-1.600000e+03
3.600000e-07	-5.656730e-06	-2.427832e-08	-4.110996e+01	-1.593271e+03
3.700000e-07	-5.566959e-06	-2.417863e-08	-4.045755e+01	-1.586342e+03
3.800000e-07	-5.475063e-06	-2.405358e-08	-3.978970e+01	-1.579137e+03
3.900000e-07	-5.381293e-06	-2.391975e-08	-3.910824e+01	-1.571571e+03
4.000000e-07	-5.285675e-06	-2.379432e-08	-3.841334e+01	-1.563555e+03
4.100000e-07	-5.188139e-06	-2.365907e-08	-3.770450e+01	-1.555017e+03
4.200000e-07	-5.088766e-06	-2.351277e-08	-3.698231e+01	-1.545904e+03
4.300000e-07	-4.987576e-06	-2.338534e-08	-3.624692e+01	-1.536197e+03
4.400000e-07	-4.884595e-06	-2.323753e-08	-3.549851e+01	-1.525906e+03
4.500000e-07	-4.779893e-06	-2.306972e-08	-3.473759e+01	-1.515071e+03
4.600000e-07	-4.673461e-06	-2.289579e-08	-3.396411e+01	-1.503751e+03
4.700000e-07	-4.565289e-06	-2.272413e-08	-3.317797e+01	-1.492010e+03
4.800000e-07	-4.455558e-06	-2.254977e-08	-3.238051e+01	-1.479903e+03
4.900000e-07	-4.344328e-06	-2.236295e-08	-3.157216e+01	-1.467463e+03
5.000000e-07	-4.231429e-06	-2.216674e-08	-3.075167e+01	-1.454688e+03
5.100000e-07	-4.116773e-06	-2.195562e-08	-2.991841e+01	-1.441536e+03
5.200000e-07	-4.000354e-06	-2.173504e-08	-2.907234e+01	-1.427925e+03
5.300000e-07	-3.882419e-06	-2.150685e-08	-2.821525e+01	-1.413737e+03
5.400000e-07	-3.763117e-06	-2.127126e-08	-2.734824e+01	-1.398838e+03
5.500000e-07	-3.642396e-06	-2.102618e-08	-2.647091e+01	-1.383085e+03
5.600000e-07	-3.520311e-06	-2.076553e-08	-2.558366e+01	-1.366351e+03
5.700000e-07	-3.396801e-06	-2.049192e-08	-2.468606e+01	-1.348533e+03
5.800000e-07	-3.271971e-06	-2.020000e-08	-2.377886e+01	-1.329569e+03
5.900000e-07	-3.146065e-06	-1.989856e-08	-2.286385e+01	-1.309438e+03
6.000000e-07	-3.019054e-06	-1.958601e-08	-2.194080e+01	-1.288154e+03
6.100000e-07	-2.890814e-06	-1.925674e-08	-2.100883e+01	-1.265756e+03
6.200000e-07	-2.761414e-06	-1.890746e-08	-2.006842e+01	-1.242283e+03
6.300000e-07	-2.631044e-06	-1.853753e-08	-1.912096e+01	-1.217758e+03
6.400000e-07	-2.499696e-06	-1.814782e-08	-1.816640e+01	-1.192158e+03
6.500000e-07	-2.367358e-06	-1.773172e-08	-1.720464e+01	-1.165395e+03
6.600000e-07	-2.234285e-06	-1.729369e-08	-1.623754e+01	-1.137308e+03
6.700000e-07	-2.100600e-06	-1.682783e-08	-1.526599e+01	-1.107659e+03
6.800000e-07	-1.966169e-06	-1.633332e-08	-1.428902e+01	-1.076142e+03
6.900000e-07	-1.830993e-06	-1.580584e-08	-1.330664e+01	-1.042409e+03
7.000000e-07	-1.695155e-06	-1.524374e-08	-1.231944e+01	-1.006099e+03
7.100000e-07	-1.558666e-06	-1.464305e-08	-1.132752e+01	-9.668772e+02
7.200000e-07	-1.421599e-06	-1.399826e-08	-1.033139e+01	-9.244743e+02
7.300000e-07	-1.284101e-06	-1.331267e-08	-9.332128e+00	-8.787224e+02
7.400000e-07	-1.146219e-06	-1.258152e-08	-8.330081e+00	-8.295804e+02
7.500000e-07	-1.007925e-06	-1.180405e-08	-7.325037e+00	-7.771474e+02
7.600000e-07	-8.692604e-07	-1.097853e-08	-6.317300e+00	-7.216595e+02
7.700000e-07	-7.302327e-07	-1.010678e-08	-5.306924e+00	-6.634712e+02
7.800000e-07	-5.908269e-07	-9.185576e-09	-4.293801e+00	-6.030209e+02
7.900000e-07	-4.511312e-07	-8.222999e-09	-3.278570e+00	-5.407872e+02
8.000000e-07	-3.112530e-07	-7.232780e-09	-2.262014e+00	-4.772392e+02
8.100000e-07	-1.711969e-07	-6.225291e-09	-1.244164e+00	-4.127879e+02
8.200000e-07	-3.094295e-08	-5.212076e-09	-2.248761e-01	-3.477459e+02
8.300000e-07	1.093658e-07	-4.200728e-09	7.948096e-01	-2.823000e+02
8.400000e-07	2.495700e-07	-3.197427e-09	1.813735e+00	-2.165012e+02
8.500000e-07	3.896851e-07	-2.198405e-09	2.832014e+00	-1.502742e+02
8.600000e-07	5.296900e-07	-1.200906e-09	3.849492e+00	-8.344524e+01
8.700000e-07	6.694724e-07	-1.970521e-10	4.865352e+00	-1.578513e+01
8.800000e-07	8.089608e-07	8.216117e-10	5.879076e+00	5.293729e+01
8.900000e-07	9.481176e-07	1.863571e-09	6.890390e+00	1.228989e+02
9.000000e-07	1.086928e-06	2.935205e-09	7.899185e+00	1.941702e+02
9.100000e-07	1.225313e-06	4.038065e-09	8.904891e+00	2.666739e+02
9.200000e-07	1.363192e-06	5.171257e-09	9.906920e+00	3.401611e+02
9.300000e-07	1.500562e-06	6.322848e-09	1.090525e+01	4.142069e+02
9.400000e-07	1.637364e-06	7.478696e-09	1.189945e+01	4.882280e+02
9.500000e-07	1.773500e-06	8.619777e-09	1.288881e+01	5.615197e+02
9.600000e-07	1.908991e-06	9.730126e-09	1.387348e+01	6.333085e+02
9.700000e-07	2.043791e-06	1.079214e-08	1.485313e+01	7.028134e+02
9.800000e-07	2.177785e-06	1.179218e-08	1.582693e+01	7.693101e+02
9.900000e-07	2.310983e-06	1.272509e-08	1.679493e+01	8.321892e+02
1.000000e-06	2.443399e-06	1.359204e-08	1.775726e+01	8.910023e+02
1.010000e-06	2.574905e-06	1.439511e-08	1.871297e+01	9.454912e+02
1.020000e-06	2.705337e-06	1.513542e-08	1.966088e+01	9.955970e+02
1.030000e-06	2.834723e-06	1.581927e-08	2.060118e+01	1.041449e+03
1.040000e-06	2.963030e-06	1.645719e-08	2.153365e+01	1.083335e+03
1.050000e-06	3.090205e-06	1.705036e-08	2.245789e+01	1.121660e+03
1.060000e-06	3.216281e-06	1.760226e-08	2.337413e+01	1.156894e+03
1.070000e-06	3.341338e-06	1.811661e-08	2.428298e+01	1.189521e+03
1.080000e-06	3.465304e-06	1.859431e-08	2.518390e+01	1.219990e+03
1.090000e-06	3.587987e-06	1.903798e-08	2.607549e+01	1.248683e+03
1.100000e-06	3.709330e-06	1.945332e-08	2.695734e+01	1.275886e+03
1.110000e-06	3.829289e-06	1.984322e-08	2.782914e+01	1.301784e+03
1.120000e-06	3.947853e-06	2.021179e-08	2.869080e+01	1.326469e+03
1.130000e-06	4.065046e-06	2.055892e-08	2.954249e+01	1.349956e+03
1.140000e-06	4.180692e-06	2.088533e-08	3.038294e+01	1.372210e+03
1.150000e-06	4.294630e-06	2.119449e-08	3.121097e+01	1.393180e+03
1.160000e-06	4.406917e-06	2.148595e-08	3.202701e+01	1.412822e+03
1.170000e-06	4.517598e-06	2.175992e-08	3.283139e+01	1.431125e+03
1.180000e-06	4.626780e-06	2.201708e-08	3.362486e+01	1.448125e+03
1.190000e-06	4.734443e-06	2.226030e-08	3.440729e+01	1.463908e+03
1.200000e-06	4.840380e-06	2.248911e-08	3.517719e+01	1.478603e+03
1.210000e-06	4.944541e-06	2.270824e-08	3.593417e+01	1.492372e+03
1.220000e-06	5.046917e-06	2.291511e-08	3.667818e+01	1.505385e+03
1.230000e-06	5.147535e-06	2.311217e-08	3.740942e+01	1.517803e+03
1.240000e-06	5.246268e-06	2.329923e-08	3.812695e+01	1.529757e+03
1.250000e-06	5.342941e-06	2.347577e-08	3.882952e+01	1.541336e+03
1.260000e-06	5.437605e-06	2.364284e-08	3.951748e+01	1.552579e+03
1.270000e-06	5.530433e-06	2.380242e-08	4.019210e+01	1.563474e+03
1.280000e-06	5.621318e-06	2.395532e-08	4.085261e+01	1.573974e+03
1.290000e-06	5.710062e-06	2.410086e-08	4.149755e+01	1.584003e+03
1.300000e-06	5.796736e-06	2.423928e-08	4.212745e+01	1.593479e+03
1.310000e-06	5.881418e-06	2.437004e-08	4.274287e+01	1.602331e+03
1.320000e-06	5.964069e-06	2.449426e-08	4.334353e+01	1.610515e+03
1.330000e-06	6.044515e-06	2.461082e-08	4.392817e+01	1.618022e+03
1.340000e-06	6.122713e-06	2.471938e-08	4.449646e+01	1.624884e+03
1.350000e-06	6.198642e-06	2.482107e-08	4.504828e+01	1.631171e+03
1.360000e-06	6.272164e-06	2.491679e-08	4.558259e+01	1.636979e+03
1.370000e-06	6.343286e-06	2.500724e-08	4.609947e+01	1.642419e+03
1.380000e-06	6.412206e-06	2.509234e-08	4.660034e+01	1.647603e+03
1.390000e-06	6.478835e-06	2.517240e-08	4.708456e+01	1.652622e+03
1.400000e-06	6.543053e-06	2.524716e-08	4.755126e+01	1.657542e+03
1.410000e-06	6.604996e-06	2.531634e-08	4.800143e+01	1.662390e+03
1.420000e-06	6.664765e-06	2.538172e-08	4.843580e+01	1.667158e+03
1.430000e-06	6.722207e-06	2.544719e-08	4.885325e+01	1.671805e+03
1.440000e-06	6.777227e-06	2.551156e-08	4.925311e+01	1.676266e+03
1.450000e-06	6.829736e-06	2.557219e-08	4.963471e+01	1.680467e+03
1.460000e-06	6.879431e-06	2.562875e-08	4.999587e+01	1.684337e+03
1.470000e-06	6.926434e-06	2.567938e-08	5.033746e+01	1.687822e+03
1.480000e-06	6.971108e-06	2.572505e-08	5.066213e+01	1.690896e+03
1.490000e-06	7.013299e-06	2.576765e-08	5.096875e+01	1.693561e+03
1.500000e-06	7.052858e-06	2.580783e-08	5.125624e+01	1.695851e+03
1.510000e-06	7.089995e-06	2.584467e-08	5.152613e+01	1.697824e+03
1.520000e-06	7.124719e-06	2.587797e-08	5.177849e+01	1.699553e+03
1.530000e-06	7.156824e-06	2.590771e-08	5.201181e+01	1.701113e+03
1.540000e-06	7.186454e-06	2.593371e-08	5.222714e+01	1.702571e+03
1.550000e-06	7.213600e-06	2.595644e-08	5.242442e+01	1.703974e+03
1.560000e-06	7.237945e-06	2.597658e-08	5.260135e+01	1.705342e+03
1.570000e-06	7.259650e-06	2.599392e-08	5.275909e+01	1.706669e+03
1.580000e-06	7.278941e-06	2.600767e-08	5.289928e+01	1.707921e+03
1.590000e-06	7.295634e-06	2.601778e-08	5.302060e+01	1.709046e+03
1.600000e-06	7.309537e-06	2.602542e-08	5.312164e+01	1.709985e+03
1.610000e-06	7.320577e-06	2.603217e-08	5.320187e+01	1.710681e+03
1.620000e-06	7.328715e-06	2.603894e-08	5.326102e+01	1.711089e+03
1.630000e-06	7.334203e-06	2.604411e-08	5.330090e+01	1.711187e+03
1.640000e-06	7.337190e-06	2.604633e-08	5.332261e+01	1.710978e+03
1.650000e-06	7.337547e-06	2.605028e-08	5.332520e+01	1.710491e+03
1.660000e-06	7.335380e-06	2.604071e-08	5.330945e+01	1.709776e+03
1.670000e-06	7.330882e-06	2.602690e-08	5.327677e+01	1.708898e+03
1.680000e-06	7.323889e-06	2.601837e-08	5.322594e+01	1.707922e+03
1.690000e-06	7.314424e-06	2.600515e-08	5.315715e+01	1.706908e+03
1.700000e-06	7.302483e-06	2.599259e-08	5.307038e+01	1.705899e+03
1.710000e-06	7.287910e-06	2.598816e-08	5.296447e+01	1.704915e+03
1.720000e-06	7.270983e-06	2.599354e-08	5.284145e+01	1.703952e+03
1.730000e-06	7.251970e-06	2.598355e-08	5.270328e+01	1.702979e+03
1.740000e-06	7.230529e-06	2.583261e-08	5.254746e+01	1.701951e+03
1.750000e-06	7.205937e-06	2.581279e-08	5.236873e+01	1.700811e+03
1.760000e-06	7.177924e-06	2.588135e-08	5.216515e+01	1.699504e+03
1.770000e-06	7.146893e-06	2.584171e-08	5.193963e+01	1.697982e+03
1.780000e-06	7.113592e-06	2.582244e-08	5.169762e+01	1.696215e+03
1.790000e-06	7.078545e-06	2.595026e-08	5.144292e+01	1.694195e+03
1.800000e-06	7.041986e-06	2.582148e-08	5.117723e+01	1.691932e+03
1.810000e-06	7.003329e-06	2.563111e-08	5.089629e+01	1.689453e+03
1.820000e-06	6.961902e-06	2.581726e-08	5.059522e+01	1.686797e+03
1.830000e-06	6.918171e-06	2.563520e-08	5.027741e+01	1.684004e+03
1.840000e-06	6.872072e-06	2.569326e-08	4.994239e+01	1.681104e+03
1.850000e-06	6.823322e-06	2.573528e-08	4.958810e+01	1.678115e+03
1.860000e-06	6.772028e-06	2.551979e-08	4.921532e+01	1.675032e+03
1.870000e-06	6.717898e-06	2.561339e-08	4.882194e+01	1.671832e+03
1.880000e-06	6.661249e-06	2.539297e-08	4.841024e+01	1.668471e+03
1.890000e-06	6.602253e-06	2.539162e-08	4.798149e+01	1.664896e+03
1.900000e-06	6.540524e-06	2.539001e-08	4.753288e+01	1.661048e+03
1.910000e-06	6.476244e-06	2.521655e-08	4.706573e+01	1.656878e+03
1.920000e-06	6.409638e-06	2.527921e-08	4.658168e+01	1.652348e+03
1.930000e-06	6.340731e-06	2.512365e-08	4.608090e+01	1.647445e+03
1.940000e-06	6.269363e-06	2.509499e-08	4.556224e+01	1.642179e+03
1.950000e-06	6.195592e-06	2.497477e-08	4.502611e+01	1.636583e+03
1.960000e-06	6.119286e-06	2.487001e-08	4.447156e+01	1.630704e+03
1.970000e-06	6.040327e-06	2.484422e-08	4.389773e+01	1.624599e+03
1.980000e-06	5.959165e-06	2.467945e-08	4.330789e+01	1.618320e+03
1.990000e-06	5.875980e-06	2.468254e-08	4.270335e+01	1.611904e+03
2.000000e-06	5.790774e-06	2.453178e-08	4.208411e+01	1.605367e+03
2.010000e-06	5.703391e-06	2.443362e-08	4.144907e+01	1.598694e+03
2.020000e-06	5.613949e-06	2.430959e-08	4.079905e+01	1.591843e+03
2.030000e-06	5.522665e-06	2.418171e-08	4.013565e+01	1.584745e+03
2.040000e-06	5.429373e-06	2.409659e-08	3.945765e+01	1.577317e+03
2.050000e-06	5.334056e-06	2.395663e-08	3.876494e+01	1.569470e+03
2.060000e-06	5.236888e-06	2.386453e-08	3.805878e+01	1.561125e+03
2.070000e-06	5.138036e-06	2.368578e-08	3.734038e+01	1.552221e+03
2.080000e-06	5.037351e-06	2.354968e-08	3.660866e+01	1.542725e+03
2.090000e-06	4.934720e-06	2.338893e-08	3.586279e+01	1.532638e+03
2.100000e-06	4.830283e-06	2.325225e-08	3.510381e+01	1.521991e+03
2.110000e-06	4.724217e-06	2.309473e-08	3.433298e+01	1.510835e+03
2.120000e-06	4.616652e-06	2.292138e-08	3.355125e+01	1.499236e+03
2.130000e-06	4.507535e-06	2.274454e-08	3.275825e+01	1.487253e+03
2.140000e-06	4.396780e-06	2.254508e-08	3.195334e+01	1.474929e+03
2.150000e-06	4.284289e-06	2.235988e-08	3.113582e+01	1.462276e+03
2.160000e-06	4.170106e-06	2.215811e-08	3.030600e+01	1.449265e+03
2.170000e-06	4.054215e-06	2.196372e-08	2.946377e+01	1.435828e+03
2.180000e-06	3.936653e-06	2.173467e-08	2.860940e+01	1.421861e+03
2.190000e-06	3.817503e-06	2.150621e-08	2.774348e+01	1.407231e+03
2.200000e-06	3.696829e-06	2.125889e-08	2.686649e+01	1.391798e+03
2.210000e-06	3.574824e-06	2.101095e-08	2.597982e+01	1.375426e+03
2.220000e-06	3.451586e-06	2.074557e-08	2.508420e+01	1.358003e+03
2.230000e-06	3.327049e-06	2.046947e-08	2.417914e+01	1.339452e+03
2.240000e-06	3.201220e-06	2.017683e-08	2.326468e+01	1.319737e+03
2.250000e-06	3.074228e-06	1.986577e-08	2.234178e+01	1.298860e+03
2.260000e-06	2.946072e-06	1.954405e-08	2.141041e+01	1.276854e+03
2.270000e-06	2.816828e-06	1.920061e-08	2.047114e+01	1.253760e+03
2.280000e-06	2.686614e-06	1.884250e-08	1.952481e+01	1.229610e+03
2.290000e-06	2.555444e-06	1.846177e-08	1.857155e+01	1.204399e+03
2.300000e-06	2.423350e-06	1.806445e-08	1.761156e+01	1.178064e+03
2.310000e-06	2.290407e-06	1.763738e-08	1.664540e+01	1.150473e+03
2.320000e-06	2.156744e-06	1.718383e-08	1.567401e+01	1.121412e+03
2.330000e-06	2.022407e-06	1.669544e-08	1.469773e+01	1.090600e+03
2.340000e-06	1.887338e-06	1.617632e-08	1.371612e+01	1.057699e+03
2.350000e-06	1.751566e-06	1.562405e-08	1.272940e+01	1.022349e+03
2.360000e-06	1.615158e-06	1.503784e-08	1.173807e+01	9.842009e+02
2.370000e-06	1.478195e-06	1.441621e-08	1.074270e+01	9.429582e+02
2.380000e-06	1.340822e-06	1.374817e-08	9.744347e+00	8.984131e+02
2.390000e-06	1.203069e-06	1.303269e-08	8.743233e+00	8.504767e+02
2.400000e-06	1.064918e-06	1.226775e-08	7.739233e+00	7.991978e+02
2.410000e-06	9.263600e-07	1.145314e-08	6.732268e+00	7.447647e+02
2.420000e-06	7.874025e-07	1.059399e-08	5.722402e+00	6.874930e+02
2.430000e-06	6.481502e-07	9.691512e-09	4.710394e+00	6.277956e+02
2.440000e-06	5.086864e-07	8.745995e-09	3.696849e+00	5.661424e+02
2.450000e-06	3.690213e-07	7.762361e-09	2.681841e+00	5.030115e+02
2.460000e-06	2.291841e-07	6.753989e-09	1.665582e+00	4.388400e+02
2.470000e-06	8.920169e-08	5.735148e-09	6.482682e-01	3.739795e+02
2.480000e-06	-5.087627e-08	4.715482e-09	-3.697403e-01	3.086639e+02
2.490000e-06	-1.909551e-07	3.701223e-09	-1.387755e+00	2.429926e+02
2.500000e-06	-3.309371e-07	2.691960e-09	-2.405067e+00	1.769331e+02
2.510000e-06	-4.707853e-07	1.684932e-09	-3.421405e+00	1.103425e+02
2.520000e-06	-6.104845e-07	6.750495e-10	-4.436661e+00	4.300579e+01
2.530000e-06	-7.499931e-07	-3.435461e-10	-5.450532e+00	-2.531398e+01
2.540000e-06	-8.892417e-07	-1.380146e-09	-6.462513e+00	-9.481947e+01
2.550000e-06	-1.028096e-06	-2.443719e-09	-7.471630e+00	-1.656246e+02
2.560000e-06	-1.166516e-06	-3.536042e-09	-8.477588e+00	-2.377086e+02
2.570000e-06	-1.304540e-06	-4.658717e-09	-9.480669e+00	-3.108854e+02
2.580000e-06	-1.442119e-06	-5.807897e-09	-1.048051e+01	-3.847921e+02
2.590000e-06	-1.579225e-06	-6.970658e-09	-1.147693e+01	-4.588986e+02
2.600000e-06	-1.715827e-06	-8.127362e-09	-1.246968e+01	-5.325384e+02
2.610000e-06	-1.851738e-06	-9.257838e-09	-1.345740e+01	-6.049556e+02
2.620000e-06	-1.986798e-06	-1.034667e-08	-1.443894e+01	-6.753646e+02
2.630000e-06	-2.121012e-06	-1.138047e-08	-1.541433e+01	-7.430139e+02
2.640000e-06	-2.254456e-06	-1.234864e-08	-1.638413e+01	-8.072467e+02
2.650000e-06	-2.387077e-06	-1.324829e-08	-1.734795e+01	-8.675529e+02
2.660000e-06	-2.518781e-06	-1.408253e-08	-1.830510e+01	-9.236043e+02
2.670000e-06	-2.649535e-06	-1.485514e-08	-1.925534e+01	-9.752711e+02
2.680000e-06	-2.779348e-06	-1.557106e-08	-2.019875e+01	-1.022618e+03
2.690000e-06	-2.908267e-06	-1.623467e-08	-2.113567e+01	-1.065880e+03
2.700000e-06	-3.036125e-06	-1.685049e-08	-2.206486e+01	-1.105426e+03
2.710000e-06	-3.162810e-06	-1.742138e-08	-2.298554e+01	-1.141709e+03
2.720000e-06	-3.288382e-06	-1.795245e-08	-2.389812e+01	-1.175214e+03
2.730000e-06	-3.412794e-06	-1.844659e-08	-2.480229e+01	-1.206407e+03
2.740000e-06	-3.535903e-06	-1.890929e-08	-2.569697e+01	-1.235697e+03
2.750000e-06	-3.657688e-06	-1.934293e-08	-2.658204e+01	-1.263407e+03
2.760000e-06	-3.778243e-06	-1.974706e-08	-2.745817e+01	-1.289757e+03
2.770000e-06	-3.897377e-06	-2.012617e-08	-2.832396e+01	-1.314871e+03
2.780000e-06	-4.014968e-06	-2.048217e-08	-2.917855e+01	-1.338789e+03
2.790000e-06	-4.131052e-06	-2.081630e-08	-3.002218e+01	-1.361490e+03
2.800000e-06	-4.245434e-06	-2.112990e-08	-3.085345e+01	-1.382926e+03
2.810000e-06	-4.358086e-06	-2.142697e-08	-3.167214e+01	-1.403046e+03
2.820000e-06	-4.469042e-06	-2.170822e-08	-3.247851e+01	-1.421827e+03
2.830000e-06	-4.578384e-06	-2.197419e-08	-3.327314e+01	-1.439286e+03
2.840000e-06	-4.686241e-06	-2.222577e-08	-3.405698e+01	-1.455492e+03
2.850000e-06	-4.792585e-06	-2.246357e-08	-3.482984e+01	-1.470559e+03
2.860000e-06	-4.897288e-06	-2.268934e-08	-3.559076e+01	-1.484641e+03
2.870000e-06	-5.000089e-06	-2.290288e-08	-3.633786e+01	-1.497906e+03
2.880000e-06	-5.100965e-06	-2.310446e-08	-3.707097e+01	-1.510520e+03
2.890000e-06	-5.200038e-06	-2.329641e-08	-3.779098e+01	-1.522628e+03
2.900000e-06	-5.297354e-06	-2.347896e-08	-3.849821e+01	-1.534335e+03
2.910000e-06	-5.392796e-06	-2.365189e-08	-3.919183e+01	-1.545697e+03
2.920000e-06	-5.486238e-06	-2.381584e-08	-3.987092e+01	-1.556722e+03
2.930000e-06	-5.577707e-06	-2.397116e-08	-4.053566e+01	-1.567372e+03
2.940000e-06	-5.667186e-06	-2.411911e-08	-4.118595e+01	-1.577579e+03
