# Temperatura_=_77.27
# Concentracion g/m^3_=_28370.0
# C_Vs_to_Am_M_A/Vsm_=_65563218390.804596
# pendiente_HvsI_1/m_=_3716.3
# ordenada_HvsI_A/m_=_1297.0
# frecuencia_Hz_=_302394.8576006798

Tiempo_(s)	Campo_(V.s)	Magnetizacion_(V.s)	Campo_(kA/m)	Magnetizacion_(A/m)
0.000000e+00	-7.344253e-06	-2.763246e-08	-5.319021e+01	-1.809824e+03
1.000000e-08	-7.340586e-06	-2.763242e-08	-5.316366e+01	-1.808966e+03
2.000000e-08	-7.334596e-06	-2.761856e-08	-5.312027e+01	-1.808007e+03
3.000000e-08	-7.326276e-06	-2.760200e-08	-5.306001e+01	-1.806995e+03
4.000000e-08	-7.315373e-06	-2.758616e-08	-5.298105e+01	-1.805963e+03
5.000000e-08	-7.301746e-06	-2.756743e-08	-5.288236e+01	-1.804919e+03
6.000000e-08	-7.285410e-06	-2.754095e-08	-5.276405e+01	-1.803848e+03
7.000000e-08	-7.266777e-06	-2.751079e-08	-5.262910e+01	-1.802715e+03
8.000000e-08	-7.246103e-06	-2.748776e-08	-5.247937e+01	-1.801475e+03
9.000000e-08	-7.222852e-06	-2.755152e-08	-5.231098e+01	-1.800074e+03
1.000000e-07	-7.196543e-06	-2.753280e-08	-5.212044e+01	-1.798468e+03
1.100000e-07	-7.167402e-06	-2.742058e-08	-5.190938e+01	-1.796624e+03
1.200000e-07	-7.135849e-06	-2.737074e-08	-5.168086e+01	-1.794525e+03
1.300000e-07	-7.101776e-06	-2.734278e-08	-5.143409e+01	-1.792178e+03
1.400000e-07	-7.065378e-06	-2.725436e-08	-5.117048e+01	-1.789605e+03
1.500000e-07	-7.027224e-06	-2.715640e-08	-5.089415e+01	-1.786841e+03
1.600000e-07	-6.986998e-06	-2.728037e-08	-5.060282e+01	-1.783924e+03
1.700000e-07	-6.944196e-06	-2.720686e-08	-5.029283e+01	-1.780889e+03
1.800000e-07	-6.899059e-06	-2.703714e-08	-4.996592e+01	-1.777754e+03
1.900000e-07	-6.851430e-06	-2.712006e-08	-4.962098e+01	-1.774519e+03
2.000000e-07	-6.800873e-06	-2.699282e-08	-4.925482e+01	-1.771162e+03
2.100000e-07	-6.747552e-06	-2.689509e-08	-4.886865e+01	-1.767640e+03
2.200000e-07	-6.691673e-06	-2.686538e-08	-4.846395e+01	-1.763894e+03
2.300000e-07	-6.633312e-06	-2.676611e-08	-4.804127e+01	-1.759859e+03
2.400000e-07	-6.572560e-06	-2.674421e-08	-4.760129e+01	-1.755473e+03
2.500000e-07	-6.509444e-06	-2.663438e-08	-4.714417e+01	-1.750686e+03
2.600000e-07	-6.443816e-06	-2.657581e-08	-4.666886e+01	-1.745473e+03
2.700000e-07	-6.375654e-06	-2.649813e-08	-4.617521e+01	-1.739832e+03
2.800000e-07	-6.305174e-06	-2.639932e-08	-4.566476e+01	-1.733792e+03
2.900000e-07	-6.232313e-06	-2.630649e-08	-4.513707e+01	-1.727401e+03
3.000000e-07	-6.156876e-06	-2.621044e-08	-4.459072e+01	-1.720723e+03
3.100000e-07	-6.078814e-06	-2.615549e-08	-4.402537e+01	-1.713828e+03
3.200000e-07	-5.998265e-06	-2.601451e-08	-4.344199e+01	-1.706772e+03
3.300000e-07	-5.915622e-06	-2.591225e-08	-4.284346e+01	-1.699596e+03
3.400000e-07	-5.831032e-06	-2.579328e-08	-4.223082e+01	-1.692308e+03
3.500000e-07	-5.744558e-06	-2.565516e-08	-4.160454e+01	-1.684886e+03
3.600000e-07	-5.656146e-06	-2.555541e-08	-4.096422e+01	-1.677277e+03
3.700000e-07	-5.565593e-06	-2.543609e-08	-4.030840e+01	-1.669400e+03
3.800000e-07	-5.472956e-06	-2.530167e-08	-3.963748e+01	-1.661163e+03
3.900000e-07	-5.378409e-06	-2.514582e-08	-3.895273e+01	-1.652471e+03
4.000000e-07	-5.281972e-06	-2.500810e-08	-3.825430e+01	-1.643242e+03
4.100000e-07	-5.183644e-06	-2.485343e-08	-3.754216e+01	-1.633418e+03
4.200000e-07	-5.083496e-06	-2.470100e-08	-3.681684e+01	-1.622976e+03
4.300000e-07	-4.981581e-06	-2.454675e-08	-3.607874e+01	-1.611923e+03
4.400000e-07	-4.877925e-06	-2.437764e-08	-3.532801e+01	-1.600301e+03
4.500000e-07	-4.772487e-06	-2.419376e-08	-3.456439e+01	-1.588173e+03
4.600000e-07	-4.665319e-06	-2.400319e-08	-3.378823e+01	-1.575611e+03
4.700000e-07	-4.556498e-06	-2.381743e-08	-3.300010e+01	-1.562678e+03
4.800000e-07	-4.446134e-06	-2.362532e-08	-3.220080e+01	-1.549418e+03
4.900000e-07	-4.334143e-06	-2.342033e-08	-3.138971e+01	-1.535837e+03
5.000000e-07	-4.220349e-06	-2.319302e-08	-3.056557e+01	-1.521901e+03
5.100000e-07	-4.104805e-06	-2.295915e-08	-2.972875e+01	-1.507534e+03
5.200000e-07	-3.987604e-06	-2.271747e-08	-2.887993e+01	-1.492623e+03
5.300000e-07	-3.868947e-06	-2.247085e-08	-2.802056e+01	-1.477030e+03
5.400000e-07	-3.748919e-06	-2.221505e-08	-2.715127e+01	-1.460612e+03
5.500000e-07	-3.627451e-06	-2.195020e-08	-2.627155e+01	-1.443237e+03
5.600000e-07	-3.504582e-06	-2.167002e-08	-2.538168e+01	-1.424797e+03
5.700000e-07	-3.380362e-06	-2.137334e-08	-2.448202e+01	-1.405228e+03
5.800000e-07	-3.254932e-06	-2.106243e-08	-2.357360e+01	-1.384505e+03
5.900000e-07	-3.128422e-06	-2.073871e-08	-2.265736e+01	-1.362647e+03
6.000000e-07	-3.000704e-06	-2.040081e-08	-2.173238e+01	-1.339700e+03
6.100000e-07	-2.871765e-06	-2.004052e-08	-2.079855e+01	-1.315718e+03
6.200000e-07	-2.741796e-06	-1.966306e-08	-1.985726e+01	-1.290743e+03
6.300000e-07	-2.610815e-06	-1.926770e-08	-1.890863e+01	-1.264777e+03
6.400000e-07	-2.478842e-06	-1.885420e-08	-1.795283e+01	-1.237759e+03
6.500000e-07	-2.345962e-06	-1.841301e-08	-1.699046e+01	-1.209557e+03
6.600000e-07	-2.212348e-06	-1.794605e-08	-1.602277e+01	-1.179954e+03
6.700000e-07	-2.078084e-06	-1.745265e-08	-1.505037e+01	-1.148661e+03
6.800000e-07	-1.943039e-06	-1.693056e-08	-1.407232e+01	-1.115333e+03
6.900000e-07	-1.807188e-06	-1.637771e-08	-1.308843e+01	-1.079595e+03
7.000000e-07	-1.670655e-06	-1.578796e-08	-1.209960e+01	-1.041080e+03
7.100000e-07	-1.533591e-06	-1.515644e-08	-1.110692e+01	-9.994652e+02
7.200000e-07	-1.395993e-06	-1.447722e-08	-1.011038e+01	-9.545040e+02
7.300000e-07	-1.257875e-06	-1.375224e-08	-9.110068e+00	-9.060564e+02
7.400000e-07	-1.119259e-06	-1.297654e-08	-8.106151e+00	-8.541036e+02
7.500000e-07	-9.801742e-07	-1.215304e-08	-7.098839e+00	-7.987499e+02
7.600000e-07	-8.408153e-07	-1.128202e-08	-6.089543e+00	-7.402104e+02
7.700000e-07	-7.011867e-07	-1.035764e-08	-5.078293e+00	-6.787851e+02
7.800000e-07	-5.612148e-07	-9.375296e-09	-4.064557e+00	-6.148234e+02
7.900000e-07	-4.209898e-07	-8.345314e-09	-3.048988e+00	-5.486837e+02
8.000000e-07	-2.806234e-07	-7.280984e-09	-2.032394e+00	-4.806936e+02
8.100000e-07	-1.401156e-07	-6.189352e-09	-1.014777e+00	-4.111171e+02
8.200000e-07	5.473502e-10	-5.081318e-09	3.964143e-03	-3.401322e+02
8.300000e-07	1.412617e-07	-3.964373e-09	1.023078e+00	-2.678249e+02
8.400000e-07	2.818433e-07	-2.846070e-09	2.041229e+00	-1.941986e+02
8.500000e-07	4.223108e-07	-1.723688e-09	3.058555e+00	-1.191999e+02
8.600000e-07	5.627264e-07	-5.922056e-10	4.075505e+00	-4.275615e+01
8.700000e-07	7.029456e-07	5.563651e-10	5.091032e+00	3.517865e+01
8.800000e-07	8.428493e-07	1.730947e-09	6.104274e+00	1.145775e+02
8.900000e-07	9.824517e-07	2.936718e-09	7.115334e+00	1.952992e+02
9.000000e-07	1.121720e-06	4.178717e-09	8.123977e+00	2.770585e+02
9.100000e-07	1.260614e-06	5.448945e-09	9.129906e+00	3.594130e+02
9.200000e-07	1.399057e-06	6.734731e-09	1.013257e+01	4.417695e+02
9.300000e-07	1.536923e-06	8.016228e-09	1.113105e+01	5.234085e+02
9.400000e-07	1.674142e-06	9.270020e-09	1.212485e+01	6.035277e+02
9.500000e-07	1.810684e-06	1.047456e-08	1.311375e+01	6.812966e+02
9.600000e-07	1.946546e-06	1.161287e-08	1.409771e+01	7.559184e+02
9.700000e-07	2.081579e-06	1.267236e-08	1.507568e+01	8.266910e+02
9.800000e-07	2.215768e-06	1.365178e-08	1.604754e+01	8.930601e+02
9.900000e-07	2.349243e-06	1.455471e-08	1.701422e+01	9.546588e+02
1.000000e-06	2.481903e-06	1.538673e-08	1.797500e+01	1.011328e+03
1.010000e-06	2.613602e-06	1.615274e-08	1.892882e+01	1.063119e+03
1.020000e-06	2.744322e-06	1.685938e-08	1.987555e+01	1.110270e+03
1.030000e-06	2.873990e-06	1.751497e-08	2.081466e+01	1.153176e+03
1.040000e-06	3.002532e-06	1.812400e-08	2.174562e+01	1.192335e+03
1.050000e-06	3.129927e-06	1.868844e-08	2.266827e+01	1.228296e+03
1.060000e-06	3.256212e-06	1.921325e-08	2.358287e+01	1.261602e+03
1.070000e-06	3.381390e-06	1.970340e-08	2.448947e+01	1.292747e+03
1.080000e-06	3.505429e-06	2.016191e-08	2.538781e+01	1.322136e+03
1.090000e-06	3.628264e-06	2.058933e-08	2.627744e+01	1.350067e+03
1.100000e-06	3.749771e-06	2.098822e-08	2.715744e+01	1.376724e+03
1.110000e-06	3.869852e-06	2.136607e-08	2.802712e+01	1.402190e+03
1.120000e-06	3.988509e-06	2.172567e-08	2.888648e+01	1.426466e+03
1.130000e-06	4.105822e-06	2.206506e-08	2.973611e+01	1.449506e+03
1.140000e-06	4.221636e-06	2.238304e-08	3.057489e+01	1.471243e+03
1.150000e-06	4.335753e-06	2.268398e-08	3.140137e+01	1.491627e+03
1.160000e-06	4.448130e-06	2.296870e-08	3.221526e+01	1.510640e+03
1.170000e-06	4.558880e-06	2.323622e-08	3.301736e+01	1.528320e+03
1.180000e-06	4.668137e-06	2.348711e-08	3.380864e+01	1.544757e+03
1.190000e-06	4.775835e-06	2.372817e-08	3.458863e+01	1.560087e+03
1.200000e-06	4.881820e-06	2.395921e-08	3.535622e+01	1.574481e+03
1.210000e-06	4.986008e-06	2.417968e-08	3.611080e+01	1.588118e+03
1.220000e-06	5.088397e-06	2.438778e-08	3.685234e+01	1.601169e+03
1.230000e-06	5.188936e-06	2.458537e-08	3.758049e+01	1.613771e+03
1.240000e-06	5.287509e-06	2.477392e-08	3.829440e+01	1.626019e+03
1.250000e-06	5.384057e-06	2.494980e-08	3.899364e+01	1.637953e+03
1.260000e-06	5.478621e-06	2.511792e-08	3.967851e+01	1.649561e+03
1.270000e-06	5.571302e-06	2.527993e-08	4.034974e+01	1.660791e+03
1.280000e-06	5.662054e-06	2.543549e-08	4.100701e+01	1.671563e+03
1.290000e-06	5.750655e-06	2.558452e-08	4.164869e+01	1.681789e+03
1.300000e-06	5.837126e-06	2.572536e-08	4.227496e+01	1.691390e+03
1.310000e-06	5.921624e-06	2.585885e-08	4.288693e+01	1.700314e+03
1.320000e-06	6.004115e-06	2.598744e-08	4.348436e+01	1.708547e+03
1.330000e-06	6.084362e-06	2.611075e-08	4.406554e+01	1.716114e+03
1.340000e-06	6.162282e-06	2.622690e-08	4.462988e+01	1.723080e+03
1.350000e-06	6.237895e-06	2.633357e-08	4.517749e+01	1.729541e+03
1.360000e-06	6.311055e-06	2.643278e-08	4.570735e+01	1.735605e+03
1.370000e-06	6.381877e-06	2.652777e-08	4.622028e+01	1.741383e+03
1.380000e-06	6.450542e-06	2.661706e-08	4.671758e+01	1.746970e+03
1.390000e-06	6.516938e-06	2.669989e-08	4.719844e+01	1.752431e+03
1.400000e-06	6.580918e-06	2.677826e-08	4.766181e+01	1.757799e+03
1.410000e-06	6.642599e-06	2.685406e-08	4.810853e+01	1.763069e+03
1.420000e-06	6.702044e-06	2.692635e-08	4.853906e+01	1.768202e+03
1.430000e-06	6.759096e-06	2.699608e-08	4.895226e+01	1.773139e+03
1.440000e-06	6.813769e-06	2.706290e-08	4.934822e+01	1.777806e+03
1.450000e-06	6.865895e-06	2.712660e-08	4.972574e+01	1.782136e+03
1.460000e-06	6.915170e-06	2.718615e-08	5.008261e+01	1.786077e+03
1.470000e-06	6.961717e-06	2.723887e-08	5.041972e+01	1.789599e+03
1.480000e-06	7.005845e-06	2.728839e-08	5.073932e+01	1.792707e+03
1.490000e-06	7.047460e-06	2.733662e-08	5.104071e+01	1.795429e+03
1.500000e-06	7.086514e-06	2.738100e-08	5.132355e+01	1.797823e+03
1.510000e-06	7.123239e-06	2.742086e-08	5.158954e+01	1.799955e+03
1.520000e-06	7.157472e-06	2.745563e-08	5.183746e+01	1.801899e+03
1.530000e-06	7.189007e-06	2.748675e-08	5.206585e+01	1.803717e+03
1.540000e-06	7.218037e-06	2.751545e-08	5.227610e+01	1.805453e+03
1.550000e-06	7.244575e-06	2.754075e-08	5.246830e+01	1.807127e+03
1.560000e-06	7.268387e-06	2.756239e-08	5.264076e+01	1.808730e+03
1.570000e-06	7.289609e-06	2.758080e-08	5.279446e+01	1.810231e+03
1.580000e-06	7.308390e-06	2.759592e-08	5.293048e+01	1.811580e+03
1.590000e-06	7.324452e-06	2.760606e-08	5.304680e+01	1.812719e+03
1.600000e-06	7.337689e-06	2.761238e-08	5.314267e+01	1.813593e+03
1.610000e-06	7.348037e-06	2.761866e-08	5.321762e+01	1.814161e+03
1.620000e-06	7.355532e-06	2.762571e-08	5.327190e+01	1.814403e+03
1.630000e-06	7.360510e-06	2.763031e-08	5.330795e+01	1.814322e+03
1.640000e-06	7.362891e-06	2.763174e-08	5.332520e+01	1.813947e+03
1.650000e-06	7.362570e-06	2.763447e-08	5.332287e+01	1.813326e+03
1.660000e-06	7.359864e-06	2.762377e-08	5.330327e+01	1.812518e+03
1.670000e-06	7.354791e-06	2.761275e-08	5.326653e+01	1.811588e+03
1.680000e-06	7.347155e-06	2.760037e-08	5.321123e+01	1.810589e+03
1.690000e-06	7.337084e-06	2.758273e-08	5.313829e+01	1.809560e+03
1.700000e-06	7.324501e-06	2.756838e-08	5.304716e+01	1.808520e+03
1.710000e-06	7.309327e-06	2.756013e-08	5.293727e+01	1.807460e+03
1.720000e-06	7.291896e-06	2.755882e-08	5.281102e+01	1.806353e+03
1.730000e-06	7.272398e-06	2.751447e-08	5.266981e+01	1.805156e+03
1.740000e-06	7.250273e-06	2.737374e-08	5.250957e+01	1.803817e+03
1.750000e-06	7.224782e-06	2.738384e-08	5.232495e+01	1.802288e+03
1.760000e-06	7.195872e-06	2.742044e-08	5.211557e+01	1.800530e+03
1.770000e-06	7.164221e-06	2.736486e-08	5.188634e+01	1.798521e+03
1.780000e-06	7.130472e-06	2.737165e-08	5.164192e+01	1.796259e+03
1.790000e-06	7.095031e-06	2.746952e-08	5.138524e+01	1.793762e+03
1.800000e-06	7.058002e-06	2.728694e-08	5.111706e+01	1.791061e+03
1.810000e-06	7.018598e-06	2.718586e-08	5.083168e+01	1.788193e+03
1.820000e-06	6.976463e-06	2.731176e-08	5.052652e+01	1.785196e+03
1.830000e-06	6.932150e-06	2.712161e-08	5.020559e+01	1.782094e+03
1.840000e-06	6.885342e-06	2.722977e-08	4.986658e+01	1.778895e+03
1.850000e-06	6.835861e-06	2.718008e-08	4.950822e+01	1.775584e+03
1.860000e-06	6.783819e-06	2.703495e-08	4.913131e+01	1.772126e+03
1.870000e-06	6.728928e-06	2.708837e-08	4.873377e+01	1.768466e+03
1.880000e-06	6.671578e-06	2.687208e-08	4.831841e+01	1.764541e+03
1.890000e-06	6.611800e-06	2.689091e-08	4.788548e+01	1.760285e+03
1.900000e-06	6.549344e-06	2.679986e-08	4.743314e+01	1.755644e+03
1.910000e-06	6.484395e-06	2.666914e-08	4.696276e+01	1.750584e+03
1.920000e-06	6.417064e-06	2.667334e-08	4.647512e+01	1.745093e+03
1.930000e-06	6.347285e-06	2.652007e-08	4.596975e+01	1.739189e+03
1.940000e-06	6.274980e-06	2.650074e-08	4.544608e+01	1.732915e+03
1.950000e-06	6.200277e-06	2.634093e-08	4.490505e+01	1.726331e+03
1.960000e-06	6.123087e-06	2.626247e-08	4.434601e+01	1.719505e+03
1.970000e-06	6.043378e-06	2.617863e-08	4.376872e+01	1.712499e+03
1.980000e-06	5.961531e-06	2.602807e-08	4.317595e+01	1.705362e+03
1.990000e-06	5.877621e-06	2.599034e-08	4.256824e+01	1.698113e+03
2.000000e-06	5.791551e-06	2.582848e-08	4.194488e+01	1.690743e+03
2.010000e-06	5.703311e-06	2.572672e-08	4.130581e+01	1.683207e+03
2.020000e-06	5.613130e-06	2.557206e-08	4.065268e+01	1.675435e+03
2.030000e-06	5.521083e-06	2.545535e-08	3.998604e+01	1.667336e+03
2.040000e-06	5.426991e-06	2.533645e-08	3.930459e+01	1.658816e+03
2.050000e-06	5.330928e-06	2.519180e-08	3.860886e+01	1.649786e+03
2.060000e-06	5.233122e-06	2.506030e-08	3.790050e+01	1.640178e+03
2.070000e-06	5.133648e-06	2.487541e-08	3.718007e+01	1.629956e+03
2.080000e-06	5.032280e-06	2.472161e-08	3.644592e+01	1.619116e+03
2.090000e-06	4.928941e-06	2.454124e-08	3.569750e+01	1.607690e+03
2.100000e-06	4.823791e-06	2.438616e-08	3.493595e+01	1.595733e+03
2.110000e-06	4.717090e-06	2.420085e-08	3.416318e+01	1.583317e+03
2.120000e-06	4.608855e-06	2.400977e-08	3.337929e+01	1.570509e+03
2.130000e-06	4.499015e-06	2.380618e-08	3.258378e+01	1.557362e+03
2.140000e-06	4.387531e-06	2.360296e-08	3.177637e+01	1.543896e+03
2.150000e-06	4.274312e-06	2.339805e-08	3.095639e+01	1.530092e+03
2.160000e-06	4.159356e-06	2.318051e-08	3.012383e+01	1.515889e+03
2.170000e-06	4.042606e-06	2.295642e-08	2.927827e+01	1.501186e+03
2.180000e-06	3.924212e-06	2.270322e-08	2.842082e+01	1.485851e+03
2.190000e-06	3.804300e-06	2.244598e-08	2.755236e+01	1.469743e+03
2.200000e-06	3.682955e-06	2.217186e-08	2.667353e+01	1.452722e+03
2.210000e-06	3.560341e-06	2.190134e-08	2.578551e+01	1.434672e+03
2.220000e-06	3.436370e-06	2.161341e-08	2.488766e+01	1.415509e+03
2.230000e-06	3.311010e-06	2.131631e-08	2.397975e+01	1.395197e+03
2.240000e-06	3.184438e-06	2.099859e-08	2.306306e+01	1.373739e+03
2.250000e-06	3.056746e-06	2.066777e-08	2.213826e+01	1.351173e+03
2.260000e-06	2.927865e-06	2.032151e-08	2.120484e+01	1.327554e+03
2.270000e-06	2.797926e-06	1.995494e-08	2.026377e+01	1.302930e+03
2.280000e-06	2.667065e-06	1.956895e-08	1.931603e+01	1.277319e+03
2.290000e-06	2.535224e-06	1.916087e-08	1.836117e+01	1.250687e+03
2.300000e-06	2.402479e-06	1.873172e-08	1.739978e+01	1.222927e+03
2.310000e-06	2.268908e-06	1.827363e-08	1.643240e+01	1.193853e+03
2.320000e-06	2.134556e-06	1.779197e-08	1.545936e+01	1.163199e+03
2.330000e-06	1.999459e-06	1.727780e-08	1.448093e+01	1.130639e+03
2.340000e-06	1.863711e-06	1.673265e-08	1.349779e+01	1.095804e+03
2.350000e-06	1.727319e-06	1.615280e-08	1.250998e+01	1.058320e+03
2.360000e-06	1.590287e-06	1.553863e-08	1.151754e+01	1.017844e+03
2.370000e-06	1.452745e-06	1.488309e-08	1.052140e+01	9.740983e+02
2.380000e-06	1.314779e-06	1.417811e-08	9.522192e+00	9.269032e+02
2.390000e-06	1.176440e-06	1.342273e-08	8.520277e+00	8.761953e+02
2.400000e-06	1.037669e-06	1.261478e-08	7.515245e+00	8.220356e+02
2.410000e-06	8.984542e-07	1.175586e-08	6.506989e+00	7.646019e+02
2.420000e-06	7.589144e-07	1.084663e-08	5.496382e+00	7.041676e+02
2.430000e-06	6.190849e-07	9.886186e-09	4.483677e+00	6.410689e+02
2.440000e-06	4.789659e-07	8.874851e-09	3.468875e+00	5.756658e+02
2.450000e-06	3.386784e-07	7.818323e-09	2.452854e+00	5.083011e+02
2.460000e-06	1.982205e-07	6.729907e-09	1.435597e+00	4.392647e+02
2.470000e-06	5.757081e-08	5.622969e-09	4.169524e-01	3.687669e+02
2.480000e-06	-8.311248e-08	4.505061e-09	-6.019361e-01	2.969264e+02
2.490000e-06	-2.237249e-07	3.382317e-09	-1.620311e+00	2.237738e+02
2.500000e-06	-3.642673e-07	2.256524e-09	-2.638179e+00	1.492722e+02
2.510000e-06	-5.047026e-07	1.125010e-09	-3.655271e+00	7.335094e+01
2.520000e-06	-6.449160e-07	-2.116295e-11	-4.670757e+00	-4.050935e+00
2.530000e-06	-7.848435e-07	-1.190715e-09	-5.684171e+00	-8.293770e+01
2.540000e-06	-9.244870e-07	-2.389787e-09	-6.695529e+00	-1.632130e+02
2.550000e-06	-1.063795e-06	-3.621256e-09	-7.704460e+00	-2.446455e+02
2.560000e-06	-1.202655e-06	-4.883738e-09	-8.710137e+00	-3.268494e+02
2.570000e-06	-1.341015e-06	-6.170751e-09	-9.712202e+00	-4.092832e+02
2.580000e-06	-1.478918e-06	-7.463396e-09	-1.071096e+01	-4.912686e+02
2.590000e-06	-1.616338e-06	-8.738642e-09	-1.170621e+01	-5.720270e+02
2.600000e-06	-1.753156e-06	-9.972725e-09	-1.269710e+01	-6.507311e+02
2.610000e-06	-1.889318e-06	-1.114606e-08	-1.368325e+01	-7.265649e+02
2.620000e-06	-2.024777e-06	-1.224404e-08	-1.466430e+01	-7.987858e+02
2.630000e-06	-2.159438e-06	-1.326203e-08	-1.563957e+01	-8.667814e+02
2.640000e-06	-2.293215e-06	-1.420327e-08	-1.660844e+01	-9.301143e+02
2.650000e-06	-2.426100e-06	-1.507045e-08	-1.757085e+01	-9.885502e+02
2.660000e-06	-2.558077e-06	-1.587018e-08	-1.852668e+01	-1.042066e+03
2.670000e-06	-2.689073e-06	-1.660510e-08	-1.947542e+01	-1.090837e+03
2.680000e-06	-2.819068e-06	-1.728324e-08	-2.041689e+01	-1.135208e+03
2.690000e-06	-2.948059e-06	-1.791442e-08	-2.135110e+01	-1.175645e+03
2.700000e-06	-3.076021e-06	-1.850064e-08	-2.227785e+01	-1.212685e+03
2.710000e-06	-3.202909e-06	-1.904649e-08	-2.319683e+01	-1.246881e+03
2.720000e-06	-3.328654e-06	-1.955394e-08	-2.410753e+01	-1.278747e+03
2.730000e-06	-3.453125e-06	-2.002737e-08	-2.500900e+01	-1.308725e+03
2.740000e-06	-3.576275e-06	-2.046981e-08	-2.590091e+01	-1.337151e+03
2.750000e-06	-3.698223e-06	-2.088414e-08	-2.678411e+01	-1.364249e+03
2.760000e-06	-3.818904e-06	-2.127349e-08	-2.765813e+01	-1.390138e+03
2.770000e-06	-3.938123e-06	-2.163993e-08	-2.852157e+01	-1.414844e+03
2.780000e-06	-4.055830e-06	-2.198571e-08	-2.937405e+01	-1.438334e+03
2.790000e-06	-4.171935e-06	-2.231081e-08	-3.021493e+01	-1.460545e+03
2.800000e-06	-4.286341e-06	-2.261741e-08	-3.104351e+01	-1.481417e+03
2.810000e-06	-4.399024e-06	-2.290780e-08	-3.185960e+01	-1.500920e+03
2.820000e-06	-4.509974e-06	-2.318366e-08	-3.266316e+01	-1.519070e+03
2.830000e-06	-4.619293e-06	-2.344646e-08	-3.345489e+01	-1.535939e+03
2.840000e-06	-4.727115e-06	-2.369576e-08	-3.423579e+01	-1.551647e+03
2.850000e-06	-4.833449e-06	-2.393068e-08	-3.500590e+01	-1.566356e+03
2.860000e-06	-4.938109e-06	-2.415197e-08	-3.576389e+01	-1.580244e+03
2.870000e-06	-5.040870e-06	-2.436262e-08	-3.650813e+01	-1.593487e+03
2.880000e-06	-5.141670e-06	-2.456435e-08	-3.723817e+01	-1.606238e+03
2.890000e-06	-5.240558e-06	-2.475836e-08	-3.795435e+01	-1.618606e+03
2.900000e-06	-5.337701e-06	-2.494431e-08	-3.865791e+01	-1.630652e+03
2.910000e-06	-5.433052e-06	-2.512101e-08	-3.934848e+01	-1.642382e+03
2.920000e-06	-5.526382e-06	-2.528896e-08	-4.002442e+01	-1.653757e+03
2.930000e-06	-5.617693e-06	-2.544814e-08	-4.068573e+01	-1.664704e+03
2.940000e-06	-5.707060e-06	-2.559908e-08	-4.133296e+01	-1.675136e+03
