# Temperatura_=_74.95
# Concentracion g/m^3_=_28370.0
# C_Vs_to_Am_M_A/Vsm_=_65563218390.804596
# pendiente_HvsI_1/m_=_3716.3
# ordenada_HvsI_A/m_=_1297.0
# frecuencia_Hz_=_302399.26980301016

Tiempo_(s)	Campo_(V.s)	Magnetizacion_(V.s)	Campo_(kA/m)	Magnetizacion_(A/m)
0.000000e+00	-7.338529e-06	-2.739149e-08	-5.318511e+01	-1.794210e+03
1.000000e-08	-7.334874e-06	-2.738920e-08	-5.315862e+01	-1.793342e+03
2.000000e-08	-7.328867e-06	-2.737682e-08	-5.311509e+01	-1.792380e+03
3.000000e-08	-7.320537e-06	-2.736232e-08	-5.305471e+01	-1.791372e+03
4.000000e-08	-7.309580e-06	-2.734655e-08	-5.297531e+01	-1.790348e+03
5.000000e-08	-7.295840e-06	-2.732765e-08	-5.287573e+01	-1.789314e+03
6.000000e-08	-7.279444e-06	-2.730452e-08	-5.275690e+01	-1.788253e+03
7.000000e-08	-7.260771e-06	-2.727923e-08	-5.262157e+01	-1.787127e+03
8.000000e-08	-7.240001e-06	-2.725736e-08	-5.247104e+01	-1.785886e+03
9.000000e-08	-7.216712e-06	-2.730576e-08	-5.230226e+01	-1.784479e+03
1.000000e-07	-7.190421e-06	-2.728234e-08	-5.211172e+01	-1.782857e+03
1.100000e-07	-7.161303e-06	-2.717871e-08	-5.190069e+01	-1.780989e+03
1.200000e-07	-7.129743e-06	-2.712705e-08	-5.167196e+01	-1.778861e+03
1.300000e-07	-7.095642e-06	-2.709738e-08	-5.142482e+01	-1.776481e+03
1.400000e-07	-7.059265e-06	-2.702099e-08	-5.116118e+01	-1.773873e+03
1.500000e-07	-7.021086e-06	-2.693419e-08	-5.088448e+01	-1.771077e+03
1.600000e-07	-6.980845e-06	-2.703038e-08	-5.059284e+01	-1.768135e+03
1.700000e-07	-6.938072e-06	-2.695029e-08	-5.028285e+01	-1.765082e+03
1.800000e-07	-6.892888e-06	-2.679630e-08	-4.995538e+01	-1.761942e+03
1.900000e-07	-6.845131e-06	-2.686635e-08	-4.960927e+01	-1.758715e+03
2.000000e-07	-6.794457e-06	-2.675797e-08	-4.924201e+01	-1.755382e+03
2.100000e-07	-6.741151e-06	-2.667385e-08	-4.885568e+01	-1.751899e+03
2.200000e-07	-6.685375e-06	-2.664073e-08	-4.845146e+01	-1.748206e+03
2.300000e-07	-6.627067e-06	-2.654273e-08	-4.802887e+01	-1.744238e+03
2.400000e-07	-6.566291e-06	-2.650742e-08	-4.758841e+01	-1.739929e+03
2.500000e-07	-6.503131e-06	-2.640211e-08	-4.713067e+01	-1.735228e+03
2.600000e-07	-6.437470e-06	-2.634803e-08	-4.665480e+01	-1.730107e+03
2.700000e-07	-6.369298e-06	-2.627458e-08	-4.616072e+01	-1.724562e+03
2.800000e-07	-6.298829e-06	-2.617280e-08	-4.565001e+01	-1.718619e+03
2.900000e-07	-6.226000e-06	-2.607129e-08	-4.512219e+01	-1.712324e+03
3.000000e-07	-6.150639e-06	-2.596803e-08	-4.457602e+01	-1.705741e+03
3.100000e-07	-6.072647e-06	-2.590568e-08	-4.401078e+01	-1.698938e+03
3.200000e-07	-5.992108e-06	-2.577816e-08	-4.342709e+01	-1.691972e+03
3.300000e-07	-5.909475e-06	-2.568825e-08	-4.282821e+01	-1.684884e+03
3.400000e-07	-5.824951e-06	-2.557690e-08	-4.221564e+01	-1.677683e+03
3.500000e-07	-5.738478e-06	-2.544039e-08	-4.158894e+01	-1.670349e+03
3.600000e-07	-5.650034e-06	-2.533152e-08	-4.094794e+01	-1.662829e+03
3.700000e-07	-5.559479e-06	-2.520856e-08	-4.029166e+01	-1.655045e+03
3.800000e-07	-5.466850e-06	-2.507551e-08	-3.962034e+01	-1.646906e+03
3.900000e-07	-5.372331e-06	-2.492470e-08	-3.893532e+01	-1.638317e+03
4.000000e-07	-5.275906e-06	-2.479131e-08	-3.823650e+01	-1.629198e+03
4.100000e-07	-5.177560e-06	-2.464044e-08	-3.752375e+01	-1.619492e+03
4.200000e-07	-5.077436e-06	-2.448747e-08	-3.679811e+01	-1.609175e+03
4.300000e-07	-4.975551e-06	-2.433140e-08	-3.605971e+01	-1.598256e+03
4.400000e-07	-4.871876e-06	-2.416599e-08	-3.530834e+01	-1.586775e+03
4.500000e-07	-4.766478e-06	-2.398631e-08	-3.454448e+01	-1.574796e+03
4.600000e-07	-4.659344e-06	-2.379944e-08	-3.376804e+01	-1.562389e+03
4.700000e-07	-4.550532e-06	-2.361470e-08	-3.297944e+01	-1.549619e+03
4.800000e-07	-4.440166e-06	-2.342193e-08	-3.217957e+01	-1.536526e+03
4.900000e-07	-4.328151e-06	-2.321559e-08	-3.136776e+01	-1.523119e+03
5.000000e-07	-4.214393e-06	-2.299045e-08	-3.054331e+01	-1.509360e+03
5.100000e-07	-4.098907e-06	-2.276189e-08	-2.970634e+01	-1.495174e+03
5.200000e-07	-3.981806e-06	-2.252511e-08	-2.885766e+01	-1.480446e+03
5.300000e-07	-3.863283e-06	-2.228336e-08	-2.799868e+01	-1.465039e+03
5.400000e-07	-3.743357e-06	-2.203130e-08	-2.712953e+01	-1.448807e+03
5.500000e-07	-3.621986e-06	-2.176897e-08	-2.624991e+01	-1.431618e+03
5.600000e-07	-3.499146e-06	-2.149067e-08	-2.535964e+01	-1.413365e+03
5.700000e-07	-3.374903e-06	-2.119674e-08	-2.445921e+01	-1.393981e+03
5.800000e-07	-3.249488e-06	-2.088916e-08	-2.355027e+01	-1.373443e+03
5.900000e-07	-3.123011e-06	-2.056793e-08	-2.263365e+01	-1.351769e+03
6.000000e-07	-2.995383e-06	-2.023189e-08	-2.170868e+01	-1.329006e+03
6.100000e-07	-2.866600e-06	-1.987467e-08	-2.077534e+01	-1.305210e+03
6.200000e-07	-2.736704e-06	-1.950210e-08	-1.983394e+01	-1.280422e+03
6.300000e-07	-2.605732e-06	-1.911135e-08	-1.888473e+01	-1.254645e+03
6.400000e-07	-2.473783e-06	-1.870097e-08	-1.792844e+01	-1.227822e+03
6.500000e-07	-2.340953e-06	-1.826440e-08	-1.696578e+01	-1.199820e+03
6.600000e-07	-2.207394e-06	-1.780320e-08	-1.599782e+01	-1.170426e+03
6.700000e-07	-2.073175e-06	-1.731350e-08	-1.502509e+01	-1.139352e+03
6.800000e-07	-1.938225e-06	-1.679333e-08	-1.404705e+01	-1.106253e+03
6.900000e-07	-1.802539e-06	-1.624169e-08	-1.306369e+01	-1.070757e+03
7.000000e-07	-1.666178e-06	-1.565430e-08	-1.207543e+01	-1.032500e+03
7.100000e-07	-1.529227e-06	-1.502817e-08	-1.108289e+01	-9.911592e+02
7.200000e-07	-1.391709e-06	-1.435598e-08	-1.008624e+01	-9.464915e+02
7.300000e-07	-1.253640e-06	-1.363984e-08	-9.085605e+00	-8.983600e+02
7.400000e-07	-1.115146e-06	-1.287237e-08	-8.081884e+00	-8.467495e+02
7.500000e-07	-9.762294e-07	-1.205435e-08	-7.075106e+00	-7.917689e+02
7.600000e-07	-8.368947e-07	-1.118761e-08	-6.065294e+00	-7.336382e+02
7.700000e-07	-6.972370e-07	-1.026873e-08	-5.053142e+00	-6.726631e+02
7.800000e-07	-5.573656e-07	-9.295673e-09	-4.039441e+00	-6.091992e+02
7.900000e-07	-4.172909e-07	-8.275795e-09	-3.024266e+00	-5.436107e+02
8.000000e-07	-2.770557e-07	-7.221083e-09	-2.007928e+00	-4.762308e+02
8.100000e-07	-1.366939e-07	-6.139450e-09	-9.906724e-01	-4.073274e+02
8.200000e-07	3.856366e-09	-5.042892e-09	2.794855e-02	-3.370811e+02
8.300000e-07	1.444569e-07	-3.939840e-09	1.046934e+00	-2.655779e+02
8.400000e-07	2.850242e-07	-2.836766e-09	2.065679e+00	-1.928184e+02
8.500000e-07	4.255135e-07	-1.728859e-09	3.083858e+00	-1.187433e+02
8.600000e-07	5.658254e-07	-6.110289e-10	4.100752e+00	-4.327061e+01
8.700000e-07	7.059398e-07	5.230432e-10	5.116214e+00	3.365815e+01
8.800000e-07	8.458159e-07	1.684122e-09	6.129950e+00	1.120313e+02
8.900000e-07	9.853769e-07	2.877040e-09	7.141401e+00	1.917251e+02
9.000000e-07	1.124545e-06	4.105022e-09	8.150003e+00	2.724730e+02
9.100000e-07	1.263294e-06	5.361006e-09	9.155571e+00	3.538517e+02
9.200000e-07	1.401535e-06	6.631960e-09	1.015746e+01	4.352858e+02
9.300000e-07	1.539126e-06	7.899632e-09	1.115463e+01	5.160721e+02
9.400000e-07	1.676087e-06	9.139720e-09	1.214724e+01	5.954210e+02
9.500000e-07	1.812455e-06	1.033058e-08	1.313555e+01	6.725111e+02
9.600000e-07	1.948137e-06	1.145830e-08	1.411889e+01	7.465503e+02
9.700000e-07	2.083037e-06	1.251247e-08	1.509656e+01	8.168362e+02
9.800000e-07	2.217151e-06	1.349103e-08	1.606853e+01	8.828101e+02
9.900000e-07	2.350526e-06	1.439355e-08	1.703515e+01	9.440963e+02
1.000000e-06	2.483091e-06	1.522472e-08	1.799590e+01	1.000524e+03
1.010000e-06	2.614722e-06	1.598900e-08	1.894989e+01	1.052131e+03
1.020000e-06	2.745287e-06	1.669124e-08	1.989614e+01	1.099140e+03
1.030000e-06	2.874733e-06	1.734100e-08	2.083428e+01	1.141931e+03
1.040000e-06	3.003078e-06	1.794520e-08	2.176445e+01	1.180989e+03
1.050000e-06	3.130282e-06	1.850869e-08	2.268634e+01	1.216851e+03
1.060000e-06	3.256397e-06	1.903500e-08	2.360034e+01	1.250053e+03
1.070000e-06	3.381439e-06	1.952484e-08	2.450658e+01	1.281082e+03
1.080000e-06	3.505367e-06	1.998131e-08	2.540473e+01	1.310341e+03
1.090000e-06	3.628090e-06	2.040667e-08	2.629414e+01	1.338130e+03
1.100000e-06	3.749466e-06	2.080454e-08	2.717381e+01	1.364635e+03
1.110000e-06	3.869404e-06	2.118106e-08	2.804304e+01	1.389944e+03
1.120000e-06	3.987913e-06	2.153914e-08	2.890193e+01	1.414064e+03
1.130000e-06	4.105037e-06	2.187754e-08	2.975076e+01	1.436953e+03
1.140000e-06	4.220678e-06	2.219317e-08	3.058886e+01	1.458550e+03
1.150000e-06	4.334628e-06	2.249015e-08	3.141470e+01	1.478806e+03
1.160000e-06	4.446798e-06	2.277074e-08	3.222764e+01	1.497708e+03
1.170000e-06	4.557347e-06	2.303688e-08	3.302883e+01	1.515291e+03
1.180000e-06	4.666459e-06	2.328973e-08	3.381961e+01	1.531645e+03
1.190000e-06	4.774097e-06	2.353158e-08	3.459970e+01	1.546903e+03
1.200000e-06	4.880017e-06	2.376269e-08	3.536734e+01	1.561231e+03
1.210000e-06	4.984076e-06	2.398253e-08	3.612149e+01	1.574806e+03
1.220000e-06	5.086298e-06	2.419026e-08	3.686234e+01	1.587794e+03
1.230000e-06	5.186739e-06	2.438664e-08	3.759027e+01	1.600331e+03
1.240000e-06	5.285294e-06	2.457165e-08	3.830453e+01	1.612507e+03
1.250000e-06	5.381784e-06	2.474486e-08	3.900384e+01	1.624364e+03
1.260000e-06	5.476234e-06	2.491132e-08	3.968835e+01	1.635891e+03
1.270000e-06	5.568794e-06	2.507230e-08	4.035917e+01	1.647035e+03
1.280000e-06	5.659423e-06	2.522659e-08	4.101599e+01	1.657720e+03
1.290000e-06	5.747946e-06	2.537531e-08	4.165755e+01	1.667859e+03
1.300000e-06	5.834365e-06	2.551794e-08	4.228386e+01	1.677377e+03
1.310000e-06	5.918771e-06	2.565267e-08	4.289559e+01	1.686222e+03
1.320000e-06	6.001142e-06	2.577925e-08	4.349256e+01	1.694381e+03
1.330000e-06	6.081294e-06	2.589790e-08	4.407345e+01	1.701880e+03
1.340000e-06	6.159132e-06	2.600937e-08	4.463757e+01	1.708783e+03
1.350000e-06	6.234636e-06	2.611393e-08	4.518478e+01	1.715183e+03
1.360000e-06	6.307692e-06	2.621140e-08	4.571424e+01	1.721189e+03
1.370000e-06	6.378438e-06	2.630397e-08	4.622697e+01	1.726907e+03
1.380000e-06	6.447025e-06	2.639346e-08	4.672404e+01	1.732431e+03
1.390000e-06	6.513281e-06	2.647836e-08	4.720422e+01	1.737827e+03
1.400000e-06	6.577129e-06	2.655769e-08	4.766695e+01	1.743124e+03
1.410000e-06	6.638749e-06	2.663296e-08	4.811354e+01	1.748320e+03
1.420000e-06	6.698222e-06	2.670413e-08	4.854456e+01	1.753376e+03
1.430000e-06	6.755291e-06	2.677112e-08	4.895816e+01	1.758235e+03
1.440000e-06	6.809887e-06	2.683407e-08	4.935384e+01	1.762827e+03
1.450000e-06	6.861910e-06	2.689405e-08	4.973087e+01	1.767086e+03
1.460000e-06	6.911037e-06	2.695219e-08	5.008691e+01	1.770963e+03
1.470000e-06	6.957468e-06	2.700690e-08	5.042342e+01	1.774431e+03
1.480000e-06	7.001584e-06	2.705706e-08	5.074314e+01	1.777495e+03
1.490000e-06	7.043231e-06	2.710415e-08	5.104497e+01	1.780184e+03
1.500000e-06	7.082259e-06	2.714800e-08	5.132782e+01	1.782554e+03
1.510000e-06	7.118896e-06	2.718848e-08	5.159335e+01	1.784671e+03
1.520000e-06	7.153063e-06	2.722476e-08	5.184097e+01	1.786604e+03
1.530000e-06	7.184572e-06	2.725608e-08	5.206933e+01	1.788415e+03
1.540000e-06	7.213596e-06	2.728245e-08	5.227968e+01	1.790144e+03
1.550000e-06	7.240096e-06	2.730475e-08	5.247173e+01	1.791807e+03
1.560000e-06	7.263871e-06	2.732493e-08	5.264404e+01	1.793395e+03
1.570000e-06	7.285045e-06	2.734429e-08	5.279749e+01	1.794873e+03
1.580000e-06	7.303733e-06	2.736139e-08	5.293293e+01	1.796193e+03
1.590000e-06	7.319718e-06	2.737333e-08	5.304878e+01	1.797297e+03
1.600000e-06	7.332904e-06	2.738061e-08	5.314434e+01	1.798132e+03
1.610000e-06	7.343172e-06	2.738571e-08	5.321876e+01	1.798660e+03
1.620000e-06	7.350610e-06	2.739018e-08	5.327266e+01	1.798862e+03
1.630000e-06	7.355535e-06	2.739317e-08	5.330836e+01	1.798744e+03
1.640000e-06	7.357859e-06	2.739424e-08	5.332520e+01	1.798339e+03
1.650000e-06	7.357510e-06	2.739483e-08	5.332267e+01	1.797694e+03
1.660000e-06	7.354737e-06	2.738256e-08	5.330258e+01	1.796873e+03
1.670000e-06	7.349580e-06	2.737149e-08	5.326520e+01	1.795936e+03
1.680000e-06	7.341889e-06	2.736091e-08	5.320946e+01	1.794939e+03
1.690000e-06	7.331767e-06	2.734618e-08	5.313611e+01	1.793918e+03
1.700000e-06	7.319067e-06	2.733282e-08	5.304406e+01	1.792887e+03
1.710000e-06	7.303783e-06	2.732171e-08	5.293330e+01	1.791837e+03
1.720000e-06	7.286285e-06	2.731325e-08	5.280648e+01	1.790738e+03
1.730000e-06	7.266712e-06	2.727289e-08	5.266462e+01	1.789543e+03
1.740000e-06	7.244520e-06	2.715155e-08	5.250379e+01	1.788200e+03
1.750000e-06	7.219002e-06	2.715630e-08	5.231885e+01	1.786658e+03
1.760000e-06	7.190059e-06	2.718353e-08	5.210909e+01	1.784880e+03
1.770000e-06	7.158302e-06	2.713354e-08	5.187894e+01	1.782844e+03
1.780000e-06	7.124483e-06	2.712988e-08	5.163384e+01	1.780550e+03
1.790000e-06	7.088965e-06	2.720442e-08	5.137642e+01	1.778018e+03
1.800000e-06	7.051869e-06	2.705105e-08	5.110758e+01	1.775283e+03
1.810000e-06	7.012484e-06	2.696770e-08	5.082214e+01	1.772387e+03
1.820000e-06	6.970353e-06	2.708334e-08	5.051680e+01	1.769369e+03
1.830000e-06	6.926007e-06	2.691785e-08	5.019540e+01	1.766257e+03
1.840000e-06	6.879240e-06	2.698512e-08	4.985647e+01	1.763062e+03
1.850000e-06	6.829817e-06	2.692020e-08	4.949828e+01	1.759769e+03
1.860000e-06	6.777753e-06	2.678106e-08	4.912096e+01	1.756344e+03
1.870000e-06	6.722831e-06	2.681763e-08	4.872291e+01	1.752733e+03
1.880000e-06	6.665439e-06	2.663749e-08	4.830697e+01	1.748869e+03
1.890000e-06	6.605567e-06	2.666068e-08	4.787306e+01	1.744687e+03
1.900000e-06	6.542998e-06	2.657357e-08	4.741959e+01	1.740130e+03
1.910000e-06	6.477977e-06	2.643691e-08	4.694836e+01	1.735160e+03
1.920000e-06	6.410586e-06	2.642402e-08	4.645995e+01	1.729763e+03
1.930000e-06	6.340818e-06	2.628592e-08	4.595432e+01	1.723956e+03
1.940000e-06	6.268574e-06	2.626502e-08	4.543074e+01	1.717779e+03
1.950000e-06	6.193918e-06	2.612712e-08	4.488968e+01	1.711290e+03
1.960000e-06	6.116710e-06	2.604491e-08	4.433013e+01	1.704557e+03
1.970000e-06	6.036955e-06	2.594996e-08	4.375211e+01	1.697642e+03
1.980000e-06	5.955109e-06	2.580108e-08	4.315894e+01	1.690593e+03
1.990000e-06	5.871240e-06	2.575503e-08	4.255111e+01	1.683432e+03
2.000000e-06	5.785284e-06	2.560897e-08	4.192815e+01	1.676149e+03
2.010000e-06	5.697099e-06	2.551207e-08	4.128904e+01	1.668702e+03
2.020000e-06	5.606897e-06	2.536420e-08	4.063531e+01	1.661021e+03
2.030000e-06	5.514833e-06	2.523838e-08	3.996810e+01	1.653018e+03
2.040000e-06	5.420733e-06	2.510956e-08	3.928611e+01	1.644599e+03
2.050000e-06	5.324691e-06	2.496408e-08	3.859006e+01	1.635676e+03
2.060000e-06	5.226882e-06	2.483868e-08	3.788120e+01	1.626183e+03
2.070000e-06	5.127348e-06	2.466765e-08	3.715984e+01	1.616084e+03
2.080000e-06	5.025969e-06	2.451567e-08	3.642511e+01	1.605375e+03
2.090000e-06	4.922647e-06	2.433831e-08	3.567629e+01	1.594087e+03
2.100000e-06	4.817505e-06	2.418051e-08	3.491429e+01	1.582276e+03
2.110000e-06	4.710843e-06	2.399772e-08	3.414127e+01	1.570013e+03
2.120000e-06	4.602693e-06	2.380858e-08	3.335747e+01	1.557365e+03
2.130000e-06	4.492900e-06	2.360915e-08	3.256176e+01	1.544384e+03
2.140000e-06	4.381361e-06	2.341033e-08	3.175339e+01	1.531089e+03
2.150000e-06	4.268085e-06	2.320640e-08	3.093244e+01	1.517462e+03
2.160000e-06	4.153163e-06	2.298810e-08	3.009955e+01	1.503438e+03
2.170000e-06	4.036557e-06	2.276450e-08	2.925446e+01	1.488917e+03
2.180000e-06	3.918264e-06	2.251731e-08	2.839715e+01	1.473768e+03
2.190000e-06	3.798397e-06	2.226531e-08	2.752843e+01	1.457845e+03
2.200000e-06	3.677089e-06	2.199650e-08	2.664926e+01	1.441011e+03
2.210000e-06	3.554438e-06	2.172763e-08	2.576036e+01	1.423147e+03
2.220000e-06	3.430512e-06	2.144113e-08	2.486223e+01	1.404170e+03
2.230000e-06	3.305373e-06	2.114436e-08	2.395529e+01	1.384043e+03
2.240000e-06	3.178974e-06	2.082693e-08	2.303923e+01	1.362769e+03
2.250000e-06	3.051302e-06	2.049755e-08	2.211395e+01	1.340388e+03
2.260000e-06	2.922494e-06	2.015472e-08	2.118042e+01	1.316953e+03
2.270000e-06	2.792693e-06	1.979352e-08	2.023971e+01	1.292515e+03
2.280000e-06	2.661915e-06	1.941316e-08	1.929191e+01	1.267093e+03
2.290000e-06	2.530124e-06	1.900850e-08	1.833677e+01	1.240654e+03
2.300000e-06	2.397498e-06	1.858128e-08	1.737558e+01	1.213092e+03
2.310000e-06	2.264117e-06	1.812693e-08	1.640892e+01	1.184223e+03
2.320000e-06	2.129856e-06	1.764985e-08	1.543587e+01	1.153784e+03
2.330000e-06	1.994754e-06	1.714076e-08	1.445674e+01	1.121449e+03
2.340000e-06	1.858967e-06	1.659892e-08	1.347264e+01	1.086851e+03
2.350000e-06	1.722595e-06	1.602115e-08	1.248430e+01	1.049619e+03
2.360000e-06	1.585650e-06	1.540818e-08	1.149181e+01	1.009411e+03
2.370000e-06	1.448203e-06	1.475554e-08	1.049568e+01	9.659519e+02
2.380000e-06	1.310347e-06	1.405761e-08	9.496582e+00	9.190645e+02
2.390000e-06	1.172116e-06	1.330970e-08	8.494770e+00	8.686890e+02
2.400000e-06	1.033480e-06	1.250850e-08	7.490023e+00	8.148908e+02
2.410000e-06	8.944171e-07	1.165391e-08	6.482181e+00	7.578525e+02
2.420000e-06	7.549818e-07	1.074751e-08	5.471640e+00	6.978529e+02
2.430000e-06	6.152266e-07	9.792253e-09	4.458781e+00	6.352343e+02
2.440000e-06	4.752234e-07	8.788172e-09	3.444125e+00	5.703626e+02
2.450000e-06	3.350211e-07	7.743069e-09	2.428026e+00	5.035865e+02
2.460000e-06	1.946632e-07	6.666788e-09	1.410798e+00	4.352003e+02
2.470000e-06	5.421294e-08	5.570150e-09	3.929018e-01	3.654175e+02
2.480000e-06	-8.627017e-08	4.463410e-09	-6.252328e-01	2.943578e+02
2.490000e-06	-2.267494e-07	3.352269e-09	-1.643339e+00	2.220501e+02
2.500000e-06	-3.671802e-07	2.239556e-09	-2.661094e+00	1.484527e+02
2.510000e-06	-5.075351e-07	1.121122e-09	-3.678300e+00	7.348679e+01
2.520000e-06	-6.477454e-07	-1.053890e-11	-4.694457e+00	-2.919947e+00
2.530000e-06	-7.876818e-07	-1.164786e-09	-5.708630e+00	-8.078616e+01
2.540000e-06	-9.272686e-07	-2.348369e-09	-6.720268e+00	-1.600323e+02
2.550000e-06	-1.066463e-06	-3.564558e-09	-7.729064e+00	-2.404453e+02
2.560000e-06	-1.205156e-06	-4.812216e-09	-8.734222e+00	-3.216585e+02
2.570000e-06	-1.343318e-06	-6.083542e-09	-9.735535e+00	-4.031490e+02
2.580000e-06	-1.481054e-06	-7.362479e-09	-1.073376e+01	-4.842551e+02
2.590000e-06	-1.618298e-06	-8.625741e-09	-1.172842e+01	-5.642126e+02
2.600000e-06	-1.754930e-06	-9.848485e-09	-1.271864e+01	-6.422045e+02
2.610000e-06	-1.890987e-06	-1.101120e-08	-1.370470e+01	-7.174211e+02
2.620000e-06	-2.026326e-06	-1.210221e-08	-1.468555e+01	-7.891214e+02
2.630000e-06	-2.160775e-06	-1.311589e-08	-1.565996e+01	-8.566899e+02
2.640000e-06	-2.294345e-06	-1.405159e-08	-1.662799e+01	-9.196821e+02
2.650000e-06	-2.427043e-06	-1.491364e-08	-1.758970e+01	-9.778528e+02
2.660000e-06	-2.558853e-06	-1.570867e-08	-1.854498e+01	-1.031166e+03
2.670000e-06	-2.689699e-06	-1.644119e-08	-1.949327e+01	-1.079782e+03
2.680000e-06	-2.819606e-06	-1.711853e-08	-2.043476e+01	-1.124029e+03
2.690000e-06	-2.948542e-06	-1.774703e-08	-2.136920e+01	-1.164362e+03
2.700000e-06	-3.076444e-06	-1.833071e-08	-2.229616e+01	-1.201304e+03
2.710000e-06	-3.203254e-06	-1.887384e-08	-2.321520e+01	-1.235397e+03
2.720000e-06	-3.328851e-06	-1.937866e-08	-2.412545e+01	-1.267152e+03
2.730000e-06	-3.453285e-06	-1.984961e-08	-2.502727e+01	-1.297005e+03
2.740000e-06	-3.576444e-06	-2.029087e-08	-2.591985e+01	-1.325293e+03
2.750000e-06	-3.698301e-06	-2.070346e-08	-2.680299e+01	-1.352244e+03
2.760000e-06	-3.818875e-06	-2.109057e-08	-2.767684e+01	-1.377976e+03
2.770000e-06	-3.937989e-06	-2.145528e-08	-2.854010e+01	-1.402525e+03
2.780000e-06	-4.055549e-06	-2.179875e-08	-2.939210e+01	-1.425862e+03
2.790000e-06	-4.171540e-06	-2.212170e-08	-3.023274e+01	-1.447928e+03
2.800000e-06	-4.285858e-06	-2.242557e-08	-3.106125e+01	-1.468668e+03
2.810000e-06	-4.398379e-06	-2.271497e-08	-3.187673e+01	-1.488054e+03
2.820000e-06	-4.509174e-06	-2.298918e-08	-3.267970e+01	-1.506102e+03
2.830000e-06	-4.618387e-06	-2.324844e-08	-3.347121e+01	-1.522883e+03
2.840000e-06	-4.726086e-06	-2.349382e-08	-3.425174e+01	-1.538516e+03
2.850000e-06	-4.832285e-06	-2.372692e-08	-3.502141e+01	-1.553157e+03
2.860000e-06	-4.936834e-06	-2.394882e-08	-3.577911e+01	-1.566982e+03
2.870000e-06	-5.039475e-06	-2.415945e-08	-3.652299e+01	-1.580164e+03
2.880000e-06	-5.140162e-06	-2.436208e-08	-3.725271e+01	-1.592850e+03
2.890000e-06	-5.239027e-06	-2.455694e-08	-3.796922e+01	-1.605149e+03
2.900000e-06	-5.336136e-06	-2.474122e-08	-3.867301e+01	-1.617120e+03
2.910000e-06	-5.431340e-06	-2.491480e-08	-3.936299e+01	-1.628770e+03
2.920000e-06	-5.524469e-06	-2.507780e-08	-4.003793e+01	-1.640060e+03
2.930000e-06	-5.615612e-06	-2.523128e-08	-4.069848e+01	-1.650920e+03
2.940000e-06	-5.704825e-06	-2.537895e-08	-4.134504e+01	-1.661265e+03
