# Temperatura_=_89.26
# Concentracion g/m^3_=_28370.0
# C_Vs_to_Am_M_A/Vsm_=_65563218390.804596
# pendiente_HvsI_1/m_=_3716.3
# ordenada_HvsI_A/m_=_1297.0
# frecuencia_Hz_=_302391.8283323507

Tiempo_(s)	Campo_(V.s)	Magnetizacion_(V.s)	Campo_(kA/m)	Magnetizacion_(A/m)
0.000000e+00	-7.304536e-06	-2.977851e-08	-5.318574e+01	-1.950447e+03
1.000000e-08	-7.300942e-06	-2.977313e-08	-5.315957e+01	-1.949518e+03
2.000000e-08	-7.294988e-06	-2.975950e-08	-5.311622e+01	-1.948485e+03
3.000000e-08	-7.286730e-06	-2.974301e-08	-5.305609e+01	-1.947394e+03
4.000000e-08	-7.275974e-06	-2.972485e-08	-5.297777e+01	-1.946267e+03
5.000000e-08	-7.262514e-06	-2.970415e-08	-5.287977e+01	-1.945106e+03
6.000000e-08	-7.246315e-06	-2.968010e-08	-5.276182e+01	-1.943884e+03
7.000000e-08	-7.227763e-06	-2.965043e-08	-5.262674e+01	-1.942562e+03
8.000000e-08	-7.207122e-06	-2.962375e-08	-5.247645e+01	-1.941085e+03
9.000000e-08	-7.184006e-06	-2.964329e-08	-5.230813e+01	-1.939402e+03
1.000000e-07	-7.157957e-06	-2.962948e-08	-5.211847e+01	-1.937470e+03
1.100000e-07	-7.129036e-06	-2.954530e-08	-5.190789e+01	-1.935262e+03
1.200000e-07	-7.097617e-06	-2.948062e-08	-5.167912e+01	-1.932773e+03
1.300000e-07	-7.063723e-06	-2.944057e-08	-5.143233e+01	-1.930019e+03
1.400000e-07	-7.027569e-06	-2.937622e-08	-5.116909e+01	-1.927035e+03
1.500000e-07	-6.989583e-06	-2.929799e-08	-5.089251e+01	-1.923865e+03
1.600000e-07	-6.949594e-06	-2.931406e-08	-5.060134e+01	-1.920556e+03
1.700000e-07	-6.907136e-06	-2.925430e-08	-5.029219e+01	-1.917144e+03
1.800000e-07	-6.862244e-06	-2.912537e-08	-4.996532e+01	-1.913648e+03
1.900000e-07	-6.814894e-06	-2.913239e-08	-4.962056e+01	-1.910063e+03
2.000000e-07	-6.764680e-06	-2.905793e-08	-4.925494e+01	-1.906358e+03
2.100000e-07	-6.711692e-06	-2.898347e-08	-4.886913e+01	-1.902478e+03
2.200000e-07	-6.656225e-06	-2.892995e-08	-4.846526e+01	-1.898355e+03
2.300000e-07	-6.598288e-06	-2.881655e-08	-4.804341e+01	-1.893912e+03
2.400000e-07	-6.537904e-06	-2.876976e-08	-4.760374e+01	-1.889080e+03
2.500000e-07	-6.475126e-06	-2.867738e-08	-4.714665e+01	-1.883805e+03
2.600000e-07	-6.409872e-06	-2.857573e-08	-4.667152e+01	-1.878059e+03
2.700000e-07	-6.342156e-06	-2.848926e-08	-4.617846e+01	-1.871846e+03
2.800000e-07	-6.272127e-06	-2.839760e-08	-4.566857e+01	-1.865196e+03
2.900000e-07	-6.199741e-06	-2.828638e-08	-4.514151e+01	-1.858167e+03
3.000000e-07	-6.124853e-06	-2.817061e-08	-4.459624e+01	-1.850832e+03
3.100000e-07	-6.047454e-06	-2.810083e-08	-4.403268e+01	-1.843263e+03
3.200000e-07	-5.967507e-06	-2.798936e-08	-4.345057e+01	-1.835523e+03
3.300000e-07	-5.885252e-06	-2.785791e-08	-4.285166e+01	-1.827654e+03
3.400000e-07	-5.801053e-06	-2.772348e-08	-4.223859e+01	-1.819662e+03
3.500000e-07	-5.714989e-06	-2.758742e-08	-4.161194e+01	-1.811520e+03
3.600000e-07	-5.626970e-06	-2.746705e-08	-4.097105e+01	-1.803168e+03
3.700000e-07	-5.536861e-06	-2.732232e-08	-4.031496e+01	-1.794518e+03
3.800000e-07	-5.444707e-06	-2.717614e-08	-3.964396e+01	-1.785470e+03
3.900000e-07	-5.350665e-06	-2.702644e-08	-3.895923e+01	-1.775924e+03
4.000000e-07	-5.254785e-06	-2.686518e-08	-3.826111e+01	-1.765795e+03
4.100000e-07	-5.156982e-06	-2.669815e-08	-3.754899e+01	-1.755027e+03
4.200000e-07	-5.057297e-06	-2.653756e-08	-3.682316e+01	-1.743597e+03
4.300000e-07	-4.955884e-06	-2.636912e-08	-3.608475e+01	-1.731521e+03
4.400000e-07	-4.852744e-06	-2.617283e-08	-3.533377e+01	-1.718846e+03
4.500000e-07	-4.747922e-06	-2.597309e-08	-3.457054e+01	-1.705642e+03
4.600000e-07	-4.641323e-06	-2.577086e-08	-3.379437e+01	-1.691986e+03
4.700000e-07	-4.532992e-06	-2.556351e-08	-3.300559e+01	-1.677945e+03
4.800000e-07	-4.423116e-06	-2.535323e-08	-3.220556e+01	-1.663560e+03
4.900000e-07	-4.311626e-06	-2.513484e-08	-3.139379e+01	-1.648834e+03
5.000000e-07	-4.198576e-06	-2.489593e-08	-3.057064e+01	-1.633725e+03
5.100000e-07	-4.083780e-06	-2.463680e-08	-2.973480e+01	-1.618146e+03
5.200000e-07	-3.967191e-06	-2.437485e-08	-2.888589e+01	-1.601971e+03
5.300000e-07	-3.849141e-06	-2.411033e-08	-2.802634e+01	-1.585053e+03
5.400000e-07	-3.729745e-06	-2.383408e-08	-2.715699e+01	-1.567238e+03
5.500000e-07	-3.609040e-06	-2.354228e-08	-2.627812e+01	-1.548388e+03
5.600000e-07	-3.486903e-06	-2.323644e-08	-2.538882e+01	-1.528391e+03
5.700000e-07	-3.363297e-06	-2.291581e-08	-2.448882e+01	-1.507183e+03
5.800000e-07	-3.238471e-06	-2.257853e-08	-2.357993e+01	-1.484742e+03
5.900000e-07	-3.112519e-06	-2.223020e-08	-2.266285e+01	-1.461091e+03
6.000000e-07	-2.985393e-06	-2.186779e-08	-2.173723e+01	-1.436278e+03
6.100000e-07	-2.857172e-06	-2.148288e-08	-2.080362e+01	-1.410360e+03
6.200000e-07	-2.728019e-06	-2.107488e-08	-1.986324e+01	-1.383375e+03
6.300000e-07	-2.597839e-06	-2.064691e-08	-1.891536e+01	-1.355316e+03
6.400000e-07	-2.466534e-06	-2.019939e-08	-1.795931e+01	-1.326113e+03
6.500000e-07	-2.334288e-06	-1.972532e-08	-1.699640e+01	-1.295611e+03
6.600000e-07	-2.201364e-06	-1.922051e-08	-1.602856e+01	-1.263575e+03
6.700000e-07	-2.067760e-06	-1.868512e-08	-1.505576e+01	-1.229690e+03
6.800000e-07	-1.933302e-06	-1.811933e-08	-1.407674e+01	-1.193589e+03
6.900000e-07	-1.798114e-06	-1.751863e-08	-1.309242e+01	-1.154876e+03
7.000000e-07	-1.662379e-06	-1.687928e-08	-1.210410e+01	-1.113168e+03
7.100000e-07	-1.526143e-06	-1.619695e-08	-1.111214e+01	-1.068134e+03
7.200000e-07	-1.389431e-06	-1.546612e-08	-1.011671e+01	-1.019524e+03
7.300000e-07	-1.252217e-06	-1.468312e-08	-9.117634e+00	-9.672043e+02
7.400000e-07	-1.114502e-06	-1.384566e-08	-8.114902e+00	-9.111653e+02
7.500000e-07	-9.763693e-07	-1.295687e-08	-7.109134e+00	-8.515247e+02
7.600000e-07	-8.378831e-07	-1.201719e-08	-6.100789e+00	-7.885113e+02
7.700000e-07	-6.990150e-07	-1.102127e-08	-5.089663e+00	-7.224367e+02
7.800000e-07	-5.598433e-07	-9.967111e-09	-4.076328e+00	-6.536573e+02
7.900000e-07	-4.204647e-07	-8.863331e-09	-3.061485e+00	-5.825326e+02
8.000000e-07	-2.808568e-07	-7.718313e-09	-2.044973e+00	-5.093845e+02
8.100000e-07	-1.410547e-07	-6.540869e-09	-1.027046e+00	-4.344656e+02
8.200000e-07	-1.180414e-09	-5.344489e-09	-8.594825e-03	-3.579391e+02
8.300000e-07	1.386644e-07	-4.140224e-09	1.009642e+00	-2.798755e+02
8.400000e-07	2.784771e-07	-2.932102e-09	2.027646e+00	-2.002665e+02
8.500000e-07	4.182153e-07	-1.717145e-09	3.045106e+00	-1.190546e+02
8.600000e-07	5.578232e-07	-4.912787e-10	4.061619e+00	-3.617481e+01
8.700000e-07	6.972540e-07	7.546590e-10	5.076841e+00	4.839677e+01
8.800000e-07	8.364052e-07	2.030542e-09	6.090028e+00	1.345948e+02
8.900000e-07	9.752293e-07	3.342351e-09	7.100833e+00	2.222236e+02
9.000000e-07	1.113648e-06	4.691977e-09	8.108685e+00	3.109290e+02
9.100000e-07	1.251581e-06	6.071099e-09	9.113004e+00	4.001892e+02
9.200000e-07	1.389002e-06	7.464471e-09	1.011359e+01	4.893252e+02
9.300000e-07	1.525921e-06	8.848136e-09	1.111053e+01	5.775320e+02
9.400000e-07	1.662347e-06	1.019787e-08	1.210387e+01	6.639270e+02
9.500000e-07	1.798226e-06	1.149180e-08	1.309323e+01	7.476113e+02
9.600000e-07	1.933382e-06	1.271148e-08	1.407733e+01	8.277356e+02
9.700000e-07	2.067665e-06	1.384592e-08	1.505507e+01	9.035642e+02
9.800000e-07	2.201166e-06	1.489375e-08	1.602711e+01	9.745302e+02
9.900000e-07	2.333973e-06	1.585906e-08	1.699411e+01	1.040274e+03
1.000000e-06	2.466018e-06	1.674755e-08	1.795555e+01	1.100660e+03
1.010000e-06	2.597064e-06	1.756494e-08	1.890973e+01	1.155779e+03
1.020000e-06	2.726978e-06	1.831841e-08	1.985565e+01	1.205919e+03
1.030000e-06	2.855887e-06	1.901443e-08	2.079427e+01	1.251524e+03
1.040000e-06	2.983785e-06	1.965996e-08	2.172552e+01	1.293145e+03
1.050000e-06	3.110567e-06	2.026019e-08	2.264864e+01	1.331377e+03
1.060000e-06	3.236252e-06	2.081882e-08	2.356378e+01	1.366803e+03
1.070000e-06	3.360886e-06	2.134011e-08	2.447126e+01	1.399944e+03
1.080000e-06	3.484328e-06	2.182650e-08	2.537006e+01	1.431224e+03
1.090000e-06	3.606469e-06	2.228054e-08	2.625940e+01	1.460952e+03
1.100000e-06	3.727332e-06	2.270607e-08	2.713942e+01	1.489315e+03
1.110000e-06	3.846813e-06	2.310782e-08	2.800939e+01	1.516393e+03
1.120000e-06	3.964909e-06	2.348947e-08	2.886927e+01	1.542186e+03
1.130000e-06	4.081604e-06	2.384796e-08	2.971895e+01	1.566641e+03
1.140000e-06	4.196651e-06	2.418391e-08	3.055662e+01	1.589694e+03
1.150000e-06	4.310054e-06	2.450208e-08	3.138234e+01	1.611296e+03
1.160000e-06	4.421898e-06	2.480387e-08	3.219670e+01	1.631438e+03
1.170000e-06	4.532150e-06	2.509076e-08	3.299946e+01	1.650165e+03
1.180000e-06	4.640892e-06	2.536167e-08	3.379123e+01	1.667582e+03
1.190000e-06	4.748014e-06	2.562127e-08	3.457121e+01	1.683837e+03
1.200000e-06	4.853420e-06	2.586675e-08	3.533869e+01	1.699113e+03
1.210000e-06	4.957062e-06	2.609756e-08	3.609333e+01	1.713600e+03
1.220000e-06	5.058927e-06	2.631722e-08	3.683502e+01	1.727477e+03
1.230000e-06	5.158994e-06	2.652781e-08	3.756363e+01	1.740884e+03
1.240000e-06	5.257111e-06	2.672703e-08	3.827804e+01	1.753917e+03
1.250000e-06	5.353219e-06	2.691270e-08	3.897782e+01	1.766613e+03
1.260000e-06	5.447398e-06	2.709105e-08	3.966356e+01	1.778960e+03
1.270000e-06	5.539672e-06	2.726414e-08	4.033542e+01	1.790900e+03
1.280000e-06	5.629917e-06	2.743034e-08	4.099251e+01	1.802351e+03
1.290000e-06	5.718081e-06	2.758897e-08	4.163445e+01	1.813224e+03
1.300000e-06	5.804202e-06	2.774025e-08	4.226152e+01	1.823441e+03
1.310000e-06	5.888324e-06	2.788402e-08	4.287403e+01	1.832951e+03
1.320000e-06	5.970360e-06	2.802066e-08	4.347134e+01	1.841745e+03
1.330000e-06	6.050203e-06	2.815038e-08	4.405270e+01	1.849854e+03
1.340000e-06	6.127804e-06	2.827240e-08	4.461773e+01	1.857346e+03
1.350000e-06	6.203018e-06	2.838597e-08	4.516538e+01	1.864320e+03
1.360000e-06	6.275824e-06	2.849369e-08	4.569549e+01	1.870887e+03
1.370000e-06	6.346371e-06	2.859891e-08	4.620915e+01	1.877155e+03
1.380000e-06	6.414696e-06	2.869856e-08	4.670664e+01	1.883219e+03
1.390000e-06	6.480714e-06	2.879152e-08	4.718733e+01	1.889139e+03
1.400000e-06	6.544413e-06	2.887935e-08	4.765114e+01	1.894942e+03
1.410000e-06	6.605911e-06	2.896161e-08	4.809891e+01	1.900618e+03
1.420000e-06	6.665132e-06	2.903800e-08	4.853012e+01	1.906126e+03
1.430000e-06	6.721946e-06	2.910984e-08	4.894379e+01	1.911402e+03
1.440000e-06	6.776345e-06	2.917917e-08	4.933988e+01	1.916375e+03
1.450000e-06	6.828085e-06	2.924460e-08	4.971661e+01	1.920981e+03
1.460000e-06	6.876983e-06	2.930684e-08	5.007264e+01	1.925170e+03
1.470000e-06	6.923331e-06	2.936665e-08	5.041011e+01	1.928921e+03
1.480000e-06	6.967336e-06	2.942339e-08	5.073052e+01	1.932243e+03
1.490000e-06	7.008824e-06	2.947646e-08	5.103261e+01	1.935173e+03
1.500000e-06	7.047792e-06	2.952383e-08	5.131634e+01	1.937770e+03
1.510000e-06	7.084391e-06	2.956565e-08	5.158282e+01	1.940103e+03
1.520000e-06	7.118490e-06	2.960244e-08	5.183111e+01	1.942245e+03
1.530000e-06	7.149980e-06	2.963596e-08	5.206039e+01	1.944254e+03
1.540000e-06	7.179008e-06	2.966645e-08	5.227175e+01	1.946168e+03
1.550000e-06	7.205515e-06	2.969269e-08	5.246475e+01	1.948001e+03
1.560000e-06	7.229279e-06	2.971548e-08	5.263778e+01	1.949737e+03
1.570000e-06	7.250448e-06	2.973568e-08	5.279191e+01	1.951339e+03
1.580000e-06	7.269148e-06	2.975393e-08	5.292807e+01	1.952753e+03
1.590000e-06	7.285143e-06	2.976735e-08	5.304453e+01	1.953922e+03
1.600000e-06	7.298349e-06	2.977561e-08	5.314069e+01	1.954794e+03
1.610000e-06	7.308716e-06	2.978197e-08	5.321618e+01	1.955331e+03
1.620000e-06	7.316266e-06	2.978676e-08	5.327115e+01	1.955520e+03
1.630000e-06	7.321272e-06	2.978953e-08	5.330759e+01	1.955373e+03
1.640000e-06	7.323689e-06	2.979011e-08	5.332520e+01	1.954925e+03
1.650000e-06	7.323458e-06	2.978816e-08	5.332352e+01	1.954229e+03
1.660000e-06	7.320803e-06	2.977666e-08	5.330418e+01	1.953349e+03
1.670000e-06	7.315682e-06	2.976361e-08	5.326689e+01	1.952345e+03
1.680000e-06	7.308040e-06	2.975307e-08	5.321126e+01	1.951270e+03
1.690000e-06	7.298002e-06	2.973891e-08	5.313817e+01	1.950153e+03
1.700000e-06	7.285447e-06	2.972276e-08	5.304675e+01	1.949005e+03
1.710000e-06	7.270389e-06	2.970746e-08	5.293711e+01	1.947807e+03
1.720000e-06	7.253081e-06	2.969433e-08	5.281109e+01	1.946525e+03
1.730000e-06	7.233663e-06	2.965064e-08	5.266970e+01	1.945108e+03
1.740000e-06	7.211692e-06	2.954730e-08	5.250973e+01	1.943503e+03
1.750000e-06	7.186453e-06	2.952023e-08	5.232596e+01	1.941663e+03
1.760000e-06	7.157806e-06	2.953504e-08	5.211737e+01	1.939554e+03
1.770000e-06	7.126350e-06	2.950500e-08	5.188834e+01	1.937163e+03
1.780000e-06	7.092779e-06	2.949335e-08	5.164390e+01	1.934499e+03
1.790000e-06	7.057489e-06	2.951501e-08	5.138694e+01	1.931591e+03
1.800000e-06	7.020584e-06	2.940172e-08	5.111823e+01	1.928480e+03
1.810000e-06	6.981419e-06	2.931790e-08	5.083306e+01	1.925215e+03
1.820000e-06	6.939607e-06	2.936924e-08	5.052862e+01	1.921835e+03
1.830000e-06	6.895561e-06	2.927267e-08	5.020792e+01	1.918367e+03
1.840000e-06	6.849104e-06	2.928865e-08	4.986965e+01	1.914815e+03
1.850000e-06	6.800014e-06	2.921813e-08	4.951222e+01	1.911156e+03
1.860000e-06	6.748320e-06	2.908100e-08	4.913583e+01	1.907344e+03
1.870000e-06	6.693796e-06	2.910339e-08	4.873882e+01	1.903316e+03
1.880000e-06	6.636722e-06	2.896819e-08	4.832326e+01	1.898994e+03
1.890000e-06	6.577246e-06	2.892202e-08	4.789020e+01	1.894307e+03
1.900000e-06	6.515140e-06	2.886119e-08	4.743800e+01	1.889193e+03
1.910000e-06	6.450485e-06	2.871874e-08	4.696723e+01	1.883616e+03
1.920000e-06	6.383505e-06	2.865794e-08	4.647953e+01	1.877566e+03
1.930000e-06	6.314253e-06	2.854686e-08	4.597530e+01	1.871065e+03
1.940000e-06	6.242490e-06	2.849510e-08	4.545278e+01	1.864162e+03
1.950000e-06	6.168256e-06	2.836239e-08	4.491227e+01	1.856926e+03
1.960000e-06	6.091531e-06	2.823983e-08	4.435362e+01	1.849431e+03
1.970000e-06	6.012254e-06	2.814936e-08	4.377638e+01	1.841745e+03
1.980000e-06	5.930825e-06	2.801052e-08	4.318348e+01	1.833918e+03
1.990000e-06	5.847398e-06	2.792896e-08	4.257604e+01	1.825970e+03
2.000000e-06	5.761855e-06	2.778293e-08	4.195318e+01	1.817885e+03
2.010000e-06	5.674127e-06	2.765920e-08	4.131442e+01	1.809616e+03
2.020000e-06	5.584396e-06	2.750439e-08	4.066107e+01	1.801082e+03
2.030000e-06	5.492819e-06	2.734801e-08	3.999427e+01	1.792186e+03
2.040000e-06	5.399263e-06	2.722085e-08	3.931308e+01	1.782827e+03
2.050000e-06	5.303689e-06	2.707070e-08	3.861718e+01	1.772914e+03
2.060000e-06	5.206317e-06	2.691308e-08	3.790820e+01	1.762377e+03
2.070000e-06	5.107259e-06	2.672250e-08	3.718694e+01	1.751182e+03
2.080000e-06	5.006410e-06	2.655639e-08	3.645264e+01	1.739331e+03
2.090000e-06	4.903597e-06	2.637316e-08	3.570404e+01	1.726862e+03
2.100000e-06	4.798940e-06	2.619077e-08	3.494201e+01	1.713837e+03
2.110000e-06	4.692753e-06	2.599499e-08	3.416884e+01	1.700332e+03
2.120000e-06	4.585065e-06	2.578347e-08	3.338474e+01	1.686421e+03
2.130000e-06	4.475840e-06	2.555736e-08	3.258946e+01	1.672155e+03
2.140000e-06	4.364914e-06	2.532774e-08	3.178178e+01	1.657552e+03
2.150000e-06	4.252259e-06	2.511036e-08	3.096152e+01	1.642586e+03
2.160000e-06	4.137961e-06	2.487816e-08	3.012929e+01	1.627186e+03
2.170000e-06	4.021975e-06	2.462937e-08	2.928478e+01	1.611238e+03
2.180000e-06	3.904328e-06	2.435651e-08	2.842817e+01	1.594602e+03
2.190000e-06	3.785047e-06	2.408011e-08	2.755966e+01	1.577124e+03
2.200000e-06	3.664322e-06	2.379087e-08	2.668064e+01	1.558656e+03
2.210000e-06	3.542288e-06	2.349440e-08	2.579209e+01	1.539077e+03
2.220000e-06	3.418944e-06	2.318465e-08	2.489399e+01	1.518305e+03
2.230000e-06	3.294416e-06	2.285730e-08	2.398728e+01	1.496303e+03
2.240000e-06	3.168680e-06	2.250846e-08	2.307178e+01	1.473078e+03
2.250000e-06	3.041635e-06	2.214609e-08	2.214673e+01	1.448672e+03
2.260000e-06	2.913407e-06	2.177218e-08	2.121308e+01	1.423141e+03
2.270000e-06	2.784170e-06	2.137784e-08	2.027208e+01	1.396533e+03
2.280000e-06	2.653959e-06	2.096109e-08	1.932399e+01	1.368861e+03
2.290000e-06	2.522768e-06	2.051829e-08	1.836876e+01	1.340079e+03
2.300000e-06	2.390725e-06	2.005357e-08	1.740733e+01	1.310062e+03
2.310000e-06	2.257975e-06	1.956109e-08	1.644075e+01	1.278605e+03
2.320000e-06	2.124519e-06	1.904059e-08	1.546903e+01	1.245419e+03
2.330000e-06	1.990276e-06	1.848666e-08	1.449158e+01	1.210153e+03
2.340000e-06	1.855214e-06	1.789772e-08	1.350817e+01	1.172416e+03
2.350000e-06	1.719464e-06	1.726993e-08	1.251975e+01	1.131818e+03
2.360000e-06	1.583116e-06	1.660105e-08	1.152697e+01	1.088004e+03
2.370000e-06	1.446259e-06	1.589014e-08	1.053049e+01	1.040692e+03
2.380000e-06	1.309009e-06	1.513147e-08	9.531146e+00	9.897035e+02
2.390000e-06	1.171357e-06	1.431811e-08	8.528877e+00	9.349843e+02
2.400000e-06	1.033339e-06	1.344731e-08	7.523941e+00	8.766076e+02
2.410000e-06	8.949740e-07	1.252088e-08	6.516479e+00	8.147651e+02
2.420000e-06	7.562336e-07	1.154034e-08	5.506283e+00	7.497430e+02
2.430000e-06	6.171366e-07	1.050590e-08	4.493491e+00	6.818862e+02
2.440000e-06	4.777883e-07	9.419038e-09	3.478869e+00	6.115580e+02
2.450000e-06	3.382987e-07	8.285843e-09	2.463218e+00	5.390980e+02
2.460000e-06	1.986615e-07	7.116058e-09	1.446493e+00	4.647866e+02
2.470000e-06	5.894400e-08	5.922753e-09	4.291827e-01	3.888200e+02
2.480000e-06	-8.080823e-08	4.717474e-09	-5.883804e-01	3.113013e+02
2.490000e-06	-2.206011e-07	3.505687e-09	-1.606240e+00	2.322477e+02
2.500000e-06	-3.603351e-07	2.284993e-09	-2.623670e+00	1.516149e+02
2.510000e-06	-4.999117e-07	1.053775e-09	-3.639954e+00	6.933534e+01
2.520000e-06	-6.393358e-07	-1.911090e-10	-4.655128e+00	-1.463530e+01
2.530000e-06	-7.785752e-07	-1.458517e-09	-5.668957e+00	-1.002688e+02
2.540000e-06	-9.175213e-07	-2.758773e-09	-6.680650e+00	-1.874200e+02
2.550000e-06	-1.056120e-06	-4.096050e-09	-7.689818e+00	-2.757935e+02
2.560000e-06	-1.194247e-06	-5.466604e-09	-8.695546e+00	-3.649273e+02
2.570000e-06	-1.331909e-06	-6.861665e-09	-9.697885e+00	-4.541958e+02
2.580000e-06	-1.469128e-06	-8.260683e-09	-1.069700e+01	-5.428342e+02
2.590000e-06	-1.605790e-06	-9.635966e-09	-1.169207e+01	-6.299814e+02
2.600000e-06	-1.741863e-06	-1.096140e-08	-1.268284e+01	-7.147367e+02
2.610000e-06	-1.877281e-06	-1.221960e-08	-1.366884e+01	-7.962255e+02
2.620000e-06	-2.011954e-06	-1.339861e-08	-1.464943e+01	-8.736645e+02
2.630000e-06	-2.145814e-06	-1.448921e-08	-1.562409e+01	-9.464213e+02
2.640000e-06	-2.278859e-06	-1.549294e-08	-1.659282e+01	-1.014059e+03
2.650000e-06	-2.411129e-06	-1.641606e-08	-1.755590e+01	-1.076361e+03
2.660000e-06	-2.542477e-06	-1.726643e-08	-1.851227e+01	-1.133339e+03
2.670000e-06	-2.672754e-06	-1.805008e-08	-1.946084e+01	-1.185214e+03
2.680000e-06	-2.802073e-06	-1.877303e-08	-2.040244e+01	-1.232382e+03
2.690000e-06	-2.930503e-06	-1.944357e-08	-2.133756e+01	-1.275360e+03
2.700000e-06	-3.057837e-06	-2.006720e-08	-2.226470e+01	-1.314735e+03
2.710000e-06	-3.183994e-06	-2.064820e-08	-2.318328e+01	-1.351100e+03
2.720000e-06	-3.309083e-06	-2.118966e-08	-2.409408e+01	-1.385004e+03
2.730000e-06	-3.432988e-06	-2.169387e-08	-2.499625e+01	-1.416909e+03
2.740000e-06	-3.555512e-06	-2.216435e-08	-2.588837e+01	-1.447165e+03
2.750000e-06	-3.676795e-06	-2.260562e-08	-2.677146e+01	-1.476002e+03
2.760000e-06	-3.796862e-06	-2.301905e-08	-2.764568e+01	-1.503537e+03
2.770000e-06	-3.915426e-06	-2.340669e-08	-2.850898e+01	-1.529794e+03
2.780000e-06	-4.032457e-06	-2.377483e-08	-2.936110e+01	-1.554736e+03
2.790000e-06	-4.148014e-06	-2.412336e-08	-3.020249e+01	-1.578299e+03
2.800000e-06	-4.261850e-06	-2.444962e-08	-3.103135e+01	-1.600424e+03
2.810000e-06	-4.373875e-06	-2.475667e-08	-3.184703e+01	-1.621086e+03
2.820000e-06	-4.484228e-06	-2.504719e-08	-3.265053e+01	-1.640311e+03
2.830000e-06	-4.593016e-06	-2.532376e-08	-3.344264e+01	-1.658182e+03
2.840000e-06	-4.700355e-06	-2.558786e-08	-3.422420e+01	-1.674833e+03
2.850000e-06	-4.806175e-06	-2.583654e-08	-3.499469e+01	-1.690438e+03
2.860000e-06	-4.910259e-06	-2.607060e-08	-3.575254e+01	-1.705187e+03
2.870000e-06	-5.012442e-06	-2.629370e-08	-3.649656e+01	-1.719265e+03
2.880000e-06	-5.112759e-06	-2.650812e-08	-3.722699e+01	-1.732828e+03
2.890000e-06	-5.211243e-06	-2.671485e-08	-3.794407e+01	-1.745988e+03
2.900000e-06	-5.307941e-06	-2.691225e-08	-3.864815e+01	-1.758805e+03
2.910000e-06	-5.402757e-06	-2.709968e-08	-3.933852e+01	-1.771283e+03
2.920000e-06	-5.495579e-06	-2.727780e-08	-4.001437e+01	-1.783378e+03
2.930000e-06	-5.586431e-06	-2.744666e-08	-4.067589e+01	-1.795016e+03
2.940000e-06	-5.675311e-06	-2.760796e-08	-4.132304e+01	-1.806106e+03
