# Temperatura_=_88.56
# Concentracion g/m^3_=_28370.0
# C_Vs_to_Am_M_A/Vsm_=_65563218390.804596
# pendiente_HvsI_1/m_=_3716.3
# ordenada_HvsI_A/m_=_1297.0
# frecuencia_Hz_=_302391.7169130869

Tiempo_(s)	Campo_(V.s)	Magnetizacion_(V.s)	Campo_(kA/m)	Magnetizacion_(A/m)
0.000000e+00	-7.277864e-06	-2.915678e-08	-5.318570e+01	-1.909647e+03
1.000000e-08	-7.274228e-06	-2.915624e-08	-5.315913e+01	-1.908701e+03
2.000000e-08	-7.268268e-06	-2.914302e-08	-5.311558e+01	-1.907647e+03
3.000000e-08	-7.260028e-06	-2.912559e-08	-5.305536e+01	-1.906530e+03
4.000000e-08	-7.249261e-06	-2.910632e-08	-5.297667e+01	-1.905380e+03
5.000000e-08	-7.235815e-06	-2.908251e-08	-5.287841e+01	-1.904201e+03
6.000000e-08	-7.219643e-06	-2.905398e-08	-5.276023e+01	-1.902973e+03
7.000000e-08	-7.201099e-06	-2.902113e-08	-5.262471e+01	-1.901659e+03
8.000000e-08	-7.180572e-06	-2.898946e-08	-5.247470e+01	-1.900212e+03
9.000000e-08	-7.157629e-06	-2.903921e-08	-5.230704e+01	-1.898580e+03
1.000000e-07	-7.131716e-06	-2.903616e-08	-5.211767e+01	-1.896719e+03
1.100000e-07	-7.102928e-06	-2.892597e-08	-5.190729e+01	-1.894599e+03
1.200000e-07	-7.071709e-06	-2.886092e-08	-5.167915e+01	-1.892213e+03
1.300000e-07	-7.038024e-06	-2.883107e-08	-5.143298e+01	-1.889569e+03
1.400000e-07	-7.002003e-06	-2.875107e-08	-5.116974e+01	-1.886695e+03
1.500000e-07	-6.964183e-06	-2.865221e-08	-5.089336e+01	-1.883629e+03
1.600000e-07	-6.924346e-06	-2.873861e-08	-5.060224e+01	-1.880413e+03
1.700000e-07	-6.882004e-06	-2.867073e-08	-5.029281e+01	-1.877078e+03
1.800000e-07	-6.837283e-06	-2.848816e-08	-4.996599e+01	-1.873642e+03
1.900000e-07	-6.790097e-06	-2.855471e-08	-4.962116e+01	-1.870102e+03
2.000000e-07	-6.740064e-06	-2.845062e-08	-4.925553e+01	-1.866429e+03
2.100000e-07	-6.687261e-06	-2.835784e-08	-4.886965e+01	-1.862576e+03
2.200000e-07	-6.631941e-06	-2.832932e-08	-4.846538e+01	-1.858479e+03
2.300000e-07	-6.574116e-06	-2.819748e-08	-4.804280e+01	-1.854067e+03
2.400000e-07	-6.513853e-06	-2.816358e-08	-4.760241e+01	-1.849278e+03
2.500000e-07	-6.451269e-06	-2.806824e-08	-4.714505e+01	-1.844062e+03
2.600000e-07	-6.386231e-06	-2.798182e-08	-4.666976e+01	-1.838393e+03
2.700000e-07	-6.318717e-06	-2.788901e-08	-4.617638e+01	-1.832274e+03
2.800000e-07	-6.248923e-06	-2.780273e-08	-4.566633e+01	-1.825734e+03
2.900000e-07	-6.176801e-06	-2.770441e-08	-4.513928e+01	-1.818826e+03
3.000000e-07	-6.102156e-06	-2.756889e-08	-4.459378e+01	-1.811618e+03
3.100000e-07	-6.024937e-06	-2.751149e-08	-4.402947e+01	-1.804178e+03
3.200000e-07	-5.945176e-06	-2.739940e-08	-4.344659e+01	-1.796566e+03
3.300000e-07	-5.863186e-06	-2.726762e-08	-4.284741e+01	-1.788819e+03
3.400000e-07	-5.779286e-06	-2.713287e-08	-4.223429e+01	-1.780945e+03
3.500000e-07	-5.693525e-06	-2.700624e-08	-4.160756e+01	-1.772917e+03
3.600000e-07	-5.605818e-06	-2.689824e-08	-4.096661e+01	-1.764678e+03
3.700000e-07	-5.516066e-06	-2.674905e-08	-4.031070e+01	-1.756145e+03
3.800000e-07	-5.424292e-06	-2.660154e-08	-3.964004e+01	-1.747223e+03
3.900000e-07	-5.330599e-06	-2.644570e-08	-3.895534e+01	-1.737817e+03
4.000000e-07	-5.234999e-06	-2.628643e-08	-3.825671e+01	-1.727845e+03
4.100000e-07	-5.137581e-06	-2.612286e-08	-3.754478e+01	-1.717253e+03
4.200000e-07	-5.038386e-06	-2.597169e-08	-3.681988e+01	-1.706018e+03
4.300000e-07	-4.937397e-06	-2.581252e-08	-3.608187e+01	-1.694152e+03
4.400000e-07	-4.834647e-06	-2.561980e-08	-3.533098e+01	-1.681700e+03
4.500000e-07	-4.730157e-06	-2.542115e-08	-3.456738e+01	-1.668727e+03
4.600000e-07	-4.623982e-06	-2.522242e-08	-3.379147e+01	-1.655304e+03
4.700000e-07	-4.516087e-06	-2.501752e-08	-3.300299e+01	-1.641494e+03
4.800000e-07	-4.406625e-06	-2.480798e-08	-3.220305e+01	-1.627337e+03
4.900000e-07	-4.295648e-06	-2.459307e-08	-3.139205e+01	-1.612834e+03
5.000000e-07	-4.183010e-06	-2.435533e-08	-3.056890e+01	-1.597946e+03
5.100000e-07	-4.068678e-06	-2.409991e-08	-2.973338e+01	-1.582589e+03
5.200000e-07	-3.952654e-06	-2.384321e-08	-2.888549e+01	-1.566647e+03
5.300000e-07	-3.835082e-06	-2.358491e-08	-2.802629e+01	-1.549977e+03
5.400000e-07	-3.716140e-06	-2.331270e-08	-2.715708e+01	-1.532434e+03
5.500000e-07	-3.595826e-06	-2.302492e-08	-2.627784e+01	-1.513884e+03
5.600000e-07	-3.474146e-06	-2.272290e-08	-2.538861e+01	-1.494223e+03
5.700000e-07	-3.351038e-06	-2.240737e-08	-2.448896e+01	-1.473387e+03
5.800000e-07	-3.226563e-06	-2.207609e-08	-2.357931e+01	-1.451353e+03
5.900000e-07	-3.101004e-06	-2.173173e-08	-2.266174e+01	-1.428142e+03
6.000000e-07	-2.974383e-06	-2.137241e-08	-2.173641e+01	-1.403798e+03
6.100000e-07	-2.846621e-06	-2.099312e-08	-2.080274e+01	-1.378374e+03
6.200000e-07	-2.717829e-06	-2.059408e-08	-1.986155e+01	-1.351902e+03
6.300000e-07	-2.588097e-06	-2.017439e-08	-1.891348e+01	-1.324376e+03
6.400000e-07	-2.457315e-06	-1.973568e-08	-1.795774e+01	-1.295724e+03
6.500000e-07	-2.325488e-06	-1.927093e-08	-1.699437e+01	-1.265798e+03
6.600000e-07	-2.192884e-06	-1.877629e-08	-1.602532e+01	-1.234368e+03
6.700000e-07	-2.059673e-06	-1.824960e-08	-1.505182e+01	-1.201133e+03
6.800000e-07	-1.925822e-06	-1.769498e-08	-1.407366e+01	-1.165737e+03
6.900000e-07	-1.791248e-06	-1.710760e-08	-1.309021e+01	-1.127800e+03
7.000000e-07	-1.655958e-06	-1.648207e-08	-1.210153e+01	-1.086955e+03
7.100000e-07	-1.520088e-06	-1.581413e-08	-1.110861e+01	-1.042880e+03
7.200000e-07	-1.383725e-06	-1.509721e-08	-1.011208e+01	-9.953373e+02
7.300000e-07	-1.246910e-06	-1.433265e-08	-9.112261e+00	-9.441977e+02
7.400000e-07	-1.109697e-06	-1.351476e-08	-8.109527e+00	-8.894537e+02
7.500000e-07	-9.721248e-07	-1.264713e-08	-7.104164e+00	-8.312205e+02
7.600000e-07	-8.342615e-07	-1.172952e-08	-6.096677e+00	-7.697214e+02
7.700000e-07	-6.961057e-07	-1.075566e-08	-5.087052e+00	-7.052604e+02
7.800000e-07	-5.576421e-07	-9.724457e-09	-4.075178e+00	-6.381854e+02
7.900000e-07	-4.189024e-07	-8.646791e-09	-3.061286e+00	-5.688482e+02
8.000000e-07	-2.798881e-07	-7.534132e-09	-2.045387e+00	-4.975645e+02
8.100000e-07	-1.406975e-07	-6.391330e-09	-1.028200e+00	-4.245832e+02
8.200000e-07	-1.454416e-09	-5.229584e-09	-1.062869e-02	-3.500659e+02
8.300000e-07	1.378227e-07	-4.058040e-09	1.007191e+00	-2.740838e+02
8.400000e-07	2.771331e-07	-2.880944e-09	2.025254e+00	-1.966300e+02
8.500000e-07	4.164028e-07	-1.696476e-09	3.043019e+00	-1.176477e+02
8.600000e-07	5.554713e-07	-5.017173e-10	4.059313e+00	-3.707022e+01
8.700000e-07	6.942166e-07	7.088225e-10	5.073247e+00	4.513203e+01
8.800000e-07	8.326593e-07	1.946920e-09	6.084968e+00	1.289048e+02
8.900000e-07	9.708007e-07	3.222811e-09	7.094488e+00	2.140695e+02
9.000000e-07	1.108577e-06	4.535651e-09	8.101340e+00	3.002957e+02
9.100000e-07	1.245991e-06	5.875357e-09	9.105542e+00	3.870906e+02
9.200000e-07	1.383010e-06	7.228329e-09	1.010686e+01	4.738081e+02
9.300000e-07	1.519569e-06	8.573250e-09	1.110482e+01	5.596783e+02
9.400000e-07	1.655571e-06	9.887053e-09	1.209870e+01	6.438531e+02
9.500000e-07	1.790895e-06	1.114804e-08	1.308763e+01	7.254646e+02
9.600000e-07	1.925505e-06	1.234222e-08	1.407134e+01	8.036887e+02
9.700000e-07	2.059350e-06	1.345544e-08	1.504947e+01	8.778074e+02
9.800000e-07	2.192454e-06	1.448240e-08	1.602218e+01	9.472618e+02
9.900000e-07	2.324899e-06	1.542819e-08	1.699006e+01	1.011691e+03
1.000000e-06	2.456553e-06	1.629984e-08	1.795217e+01	1.070950e+03
1.010000e-06	2.587108e-06	1.710237e-08	1.890625e+01	1.125112e+03
1.020000e-06	2.716588e-06	1.784096e-08	1.985248e+01	1.174439e+03
1.030000e-06	2.845125e-06	1.852390e-08	2.079181e+01	1.219351e+03
1.040000e-06	2.972572e-06	1.916026e-08	2.172318e+01	1.260371e+03
1.050000e-06	3.098865e-06	1.975246e-08	2.264611e+01	1.298068e+03
1.060000e-06	3.224105e-06	2.030309e-08	2.356135e+01	1.333003e+03
1.070000e-06	3.348372e-06	2.081585e-08	2.446948e+01	1.365682e+03
1.080000e-06	3.471456e-06	2.129491e-08	2.536896e+01	1.396518e+03
1.090000e-06	3.593136e-06	2.174276e-08	2.625818e+01	1.425813e+03
1.100000e-06	3.713472e-06	2.216210e-08	2.713758e+01	1.453756e+03
1.110000e-06	3.832480e-06	2.255841e-08	2.800727e+01	1.480429e+03
1.120000e-06	3.950161e-06	2.293429e-08	2.886728e+01	1.505838e+03
1.130000e-06	4.066408e-06	2.328922e-08	2.971679e+01	1.529935e+03
1.140000e-06	4.180993e-06	2.362196e-08	3.055417e+01	1.552662e+03
1.150000e-06	4.293946e-06	2.393609e-08	3.137961e+01	1.573970e+03
1.160000e-06	4.405339e-06	2.423491e-08	3.219365e+01	1.593852e+03
1.170000e-06	4.515173e-06	2.451692e-08	3.299631e+01	1.612350e+03
1.180000e-06	4.623570e-06	2.478225e-08	3.378846e+01	1.629563e+03
1.190000e-06	4.730391e-06	2.503614e-08	3.456909e+01	1.645633e+03
1.200000e-06	4.835413e-06	2.527729e-08	3.533659e+01	1.660737e+03
1.210000e-06	4.938672e-06	2.550718e-08	3.609118e+01	1.675058e+03
1.220000e-06	5.040222e-06	2.572504e-08	3.683330e+01	1.688769e+03
1.230000e-06	5.139997e-06	2.593409e-08	3.756244e+01	1.702011e+03
1.240000e-06	5.237757e-06	2.613203e-08	3.827686e+01	1.714877e+03
1.250000e-06	5.333478e-06	2.631582e-08	3.897638e+01	1.727407e+03
1.260000e-06	5.427293e-06	2.649078e-08	3.966196e+01	1.739592e+03
1.270000e-06	5.519256e-06	2.666015e-08	4.033402e+01	1.751379e+03
1.280000e-06	5.609243e-06	2.682345e-08	4.099163e+01	1.762690e+03
1.290000e-06	5.697128e-06	2.697901e-08	4.163388e+01	1.773440e+03
1.300000e-06	5.782971e-06	2.712922e-08	4.226121e+01	1.783552e+03
1.310000e-06	5.866881e-06	2.727373e-08	4.287442e+01	1.792978e+03
1.320000e-06	5.948678e-06	2.741074e-08	4.347218e+01	1.801705e+03
1.330000e-06	6.028159e-06	2.753987e-08	4.405302e+01	1.809760e+03
1.340000e-06	6.105425e-06	2.766118e-08	4.461766e+01	1.817209e+03
1.350000e-06	6.180413e-06	2.777443e-08	4.516567e+01	1.824143e+03
1.360000e-06	6.253053e-06	2.788127e-08	4.569651e+01	1.830670e+03
1.370000e-06	6.323405e-06	2.798326e-08	4.621064e+01	1.836895e+03
1.380000e-06	6.391515e-06	2.807969e-08	4.670838e+01	1.842907e+03
1.390000e-06	6.457265e-06	2.817011e-08	4.718887e+01	1.848767e+03
1.400000e-06	6.520633e-06	2.825409e-08	4.765195e+01	1.854504e+03
1.410000e-06	6.581845e-06	2.833408e-08	4.809929e+01	1.860109e+03
1.420000e-06	6.640853e-06	2.841170e-08	4.853051e+01	1.865544e+03
1.430000e-06	6.697480e-06	2.848638e-08	4.894433e+01	1.870750e+03
1.440000e-06	6.751674e-06	2.855666e-08	4.934037e+01	1.875660e+03
1.450000e-06	6.803185e-06	2.862039e-08	4.971681e+01	1.880209e+03
1.460000e-06	6.851910e-06	2.868090e-08	5.007288e+01	1.884352e+03
1.470000e-06	6.898123e-06	2.873834e-08	5.041060e+01	1.888069e+03
1.480000e-06	6.942002e-06	2.879155e-08	5.073127e+01	1.891366e+03
1.490000e-06	6.983387e-06	2.884218e-08	5.103370e+01	1.894280e+03
1.500000e-06	7.022199e-06	2.889054e-08	5.131733e+01	1.896867e+03
1.510000e-06	7.058643e-06	2.893506e-08	5.158366e+01	1.899195e+03
1.520000e-06	7.092624e-06	2.897350e-08	5.183200e+01	1.901333e+03
1.530000e-06	7.123985e-06	2.900790e-08	5.206118e+01	1.903340e+03
1.540000e-06	7.152910e-06	2.903893e-08	5.227255e+01	1.905253e+03
1.550000e-06	7.179296e-06	2.906611e-08	5.246538e+01	1.907084e+03
1.560000e-06	7.202919e-06	2.908849e-08	5.263801e+01	1.908821e+03
1.570000e-06	7.224009e-06	2.910671e-08	5.279213e+01	1.910425e+03
1.580000e-06	7.242618e-06	2.912185e-08	5.292813e+01	1.911845e+03
1.590000e-06	7.258517e-06	2.913385e-08	5.304432e+01	1.913022e+03
1.600000e-06	7.271701e-06	2.914339e-08	5.314066e+01	1.913904e+03
1.610000e-06	7.282068e-06	2.915121e-08	5.321642e+01	1.914452e+03
1.620000e-06	7.289591e-06	2.915692e-08	5.327140e+01	1.914652e+03
1.630000e-06	7.294546e-06	2.915955e-08	5.330762e+01	1.914512e+03
1.640000e-06	7.296953e-06	2.915978e-08	5.332520e+01	1.914065e+03
1.650000e-06	7.296705e-06	2.916007e-08	5.332339e+01	1.913364e+03
1.660000e-06	7.294017e-06	2.914701e-08	5.330374e+01	1.912470e+03
1.670000e-06	7.288978e-06	2.913213e-08	5.326693e+01	1.911447e+03
1.680000e-06	7.281465e-06	2.911950e-08	5.321202e+01	1.910346e+03
1.690000e-06	7.271582e-06	2.910394e-08	5.313979e+01	1.909205e+03
1.700000e-06	7.259219e-06	2.908907e-08	5.304945e+01	1.908036e+03
1.710000e-06	7.244231e-06	2.907686e-08	5.293992e+01	1.906827e+03
1.720000e-06	7.226910e-06	2.907265e-08	5.281334e+01	1.905548e+03
1.730000e-06	7.207536e-06	2.903458e-08	5.267175e+01	1.904153e+03
1.740000e-06	7.185627e-06	2.889503e-08	5.251165e+01	1.902591e+03
1.750000e-06	7.160404e-06	2.887907e-08	5.232732e+01	1.900814e+03
1.760000e-06	7.131747e-06	2.891665e-08	5.211790e+01	1.898788e+03
1.770000e-06	7.100297e-06	2.887211e-08	5.188807e+01	1.896495e+03
1.780000e-06	7.066783e-06	2.886057e-08	5.164315e+01	1.893939e+03
1.790000e-06	7.031554e-06	2.892814e-08	5.138570e+01	1.891142e+03
1.800000e-06	6.994773e-06	2.876408e-08	5.111691e+01	1.888139e+03
1.810000e-06	6.955767e-06	2.865991e-08	5.083186e+01	1.884971e+03
1.820000e-06	6.914042e-06	2.878477e-08	5.052694e+01	1.881674e+03
1.830000e-06	6.870064e-06	2.862295e-08	5.020555e+01	1.878272e+03
1.840000e-06	6.823695e-06	2.869475e-08	4.986669e+01	1.874770e+03
1.850000e-06	6.774717e-06	2.863376e-08	4.950877e+01	1.871147e+03
1.860000e-06	6.723149e-06	2.844852e-08	4.913192e+01	1.867364e+03
1.870000e-06	6.668767e-06	2.851629e-08	4.873450e+01	1.863360e+03
1.880000e-06	6.611940e-06	2.834442e-08	4.831922e+01	1.859067e+03
1.890000e-06	6.552749e-06	2.833435e-08	4.788665e+01	1.854419e+03
1.900000e-06	6.490938e-06	2.825801e-08	4.743494e+01	1.849358e+03
1.910000e-06	6.426644e-06	2.810688e-08	4.696509e+01	1.843850e+03
1.920000e-06	6.359940e-06	2.808754e-08	4.647763e+01	1.837888e+03
1.930000e-06	6.290853e-06	2.792491e-08	4.597275e+01	1.831492e+03
1.940000e-06	6.219293e-06	2.790934e-08	4.544980e+01	1.824707e+03
1.950000e-06	6.145326e-06	2.776313e-08	4.490926e+01	1.817597e+03
1.960000e-06	6.068843e-06	2.763704e-08	4.435033e+01	1.810231e+03
1.970000e-06	5.989818e-06	2.756646e-08	4.377283e+01	1.802673e+03
1.980000e-06	5.908644e-06	2.740964e-08	4.317961e+01	1.794971e+03
1.990000e-06	5.825466e-06	2.734866e-08	4.257176e+01	1.787142e+03
2.000000e-06	5.740258e-06	2.718064e-08	4.194907e+01	1.779172e+03
2.010000e-06	5.652868e-06	2.707015e-08	4.131044e+01	1.771015e+03
2.020000e-06	5.563400e-06	2.691198e-08	4.065661e+01	1.762596e+03
2.030000e-06	5.472080e-06	2.676242e-08	3.998927e+01	1.753823e+03
2.040000e-06	5.378884e-06	2.664947e-08	3.930820e+01	1.744599e+03
2.050000e-06	5.283736e-06	2.649655e-08	3.861287e+01	1.734836e+03
2.060000e-06	5.186718e-06	2.634459e-08	3.790388e+01	1.724468e+03
2.070000e-06	5.088033e-06	2.613965e-08	3.718270e+01	1.713462e+03
2.080000e-06	4.987614e-06	2.598366e-08	3.644885e+01	1.701816e+03
2.090000e-06	4.885322e-06	2.580001e-08	3.570131e+01	1.689565e+03
2.100000e-06	4.781138e-06	2.562461e-08	3.493995e+01	1.676769e+03
2.110000e-06	4.675304e-06	2.542984e-08	3.416652e+01	1.663497e+03
2.120000e-06	4.568004e-06	2.522024e-08	3.338239e+01	1.649818e+03
2.130000e-06	4.459175e-06	2.499669e-08	3.258708e+01	1.635781e+03
2.140000e-06	4.348696e-06	2.477205e-08	3.177971e+01	1.621402e+03
2.150000e-06	4.236443e-06	2.456540e-08	3.095939e+01	1.606658e+03
2.160000e-06	4.122573e-06	2.433643e-08	3.012724e+01	1.591479e+03
2.170000e-06	4.007104e-06	2.409575e-08	2.928340e+01	1.575760e+03
2.180000e-06	3.889988e-06	2.382452e-08	2.842754e+01	1.559365e+03
2.190000e-06	3.771269e-06	2.355055e-08	2.755995e+01	1.542149e+03
2.200000e-06	3.650984e-06	2.326152e-08	2.668092e+01	1.523971e+03
2.210000e-06	3.529323e-06	2.297349e-08	2.579184e+01	1.504716e+03
2.220000e-06	3.406406e-06	2.266884e-08	2.489358e+01	1.484302e+03
2.230000e-06	3.282224e-06	2.234762e-08	2.398607e+01	1.462694e+03
2.240000e-06	3.156874e-06	2.200652e-08	2.307003e+01	1.439898e+03
2.250000e-06	3.030384e-06	2.165305e-08	2.214566e+01	1.415951e+03
2.260000e-06	2.902693e-06	2.128811e-08	2.121251e+01	1.390906e+03
2.270000e-06	2.773884e-06	2.090035e-08	2.027119e+01	1.364805e+03
2.280000e-06	2.644147e-06	2.049249e-08	1.932309e+01	1.337659e+03
2.290000e-06	2.513528e-06	2.005887e-08	1.836854e+01	1.309420e+03
2.300000e-06	2.381997e-06	1.960286e-08	1.740733e+01	1.279970e+03
2.310000e-06	2.249641e-06	1.911689e-08	1.644009e+01	1.249107e+03
2.320000e-06	2.116526e-06	1.860534e-08	1.546730e+01	1.216554e+03
2.330000e-06	1.982769e-06	1.806121e-08	1.448982e+01	1.181971e+03
2.340000e-06	1.848411e-06	1.748458e-08	1.350795e+01	1.144984e+03
2.350000e-06	1.713297e-06	1.687114e-08	1.252056e+01	1.105216e+03
2.360000e-06	1.577413e-06	1.621814e-08	1.152753e+01	1.062325e+03
2.370000e-06	1.440959e-06	1.552318e-08	1.053034e+01	1.016041e+03
2.380000e-06	1.304046e-06	1.478047e-08	9.529805e+00	9.661919e+02
2.390000e-06	1.166805e-06	1.398414e-08	8.526863e+00	9.127267e+02
2.400000e-06	1.029278e-06	1.313236e-08	7.521834e+00	8.557177e+02
2.410000e-06	8.914059e-07	1.222941e-08	6.514281e+00	7.953522e+02
2.420000e-06	7.532328e-07	1.127494e-08	5.504529e+00	7.319091e+02
2.430000e-06	6.147716e-07	1.026535e-08	4.492672e+00	6.657252e+02
2.440000e-06	4.760555e-07	9.203723e-09	3.478953e+00	5.971557e+02
2.450000e-06	3.371492e-07	8.099415e-09	2.463843e+00	5.265332e+02
2.460000e-06	1.980573e-07	6.961010e-09	1.447377e+00	4.541334e+02
2.470000e-06	5.882812e-08	5.798655e-09	4.299084e-01	3.801505e+02
2.480000e-06	-8.043888e-08	4.625158e-09	-5.878371e-01	3.046874e+02
2.490000e-06	-2.196387e-07	3.446900e-09	-1.605092e+00	2.277624e+02
2.500000e-06	-3.587664e-07	2.260206e-09	-2.621819e+00	1.493327e+02
2.510000e-06	-4.978464e-07	1.062126e-09	-3.638198e+00	6.932986e+01
2.520000e-06	-6.367395e-07	-1.506873e-10	-4.653211e+00	-1.229443e+01
2.530000e-06	-7.753261e-07	-1.385359e-09	-5.665984e+00	-9.552100e+01
2.540000e-06	-9.136133e-07	-2.649494e-09	-6.676569e+00	-1.802196e+02
2.550000e-06	-1.051578e-06	-3.946999e-09	-7.684800e+00	-2.661163e+02
2.560000e-06	-1.189177e-06	-5.276941e-09	-8.690355e+00	-3.527761e+02
2.570000e-06	-1.326444e-06	-6.631615e-09	-9.693484e+00	-4.396054e+02
2.580000e-06	-1.463342e-06	-7.990172e-09	-1.069392e+01	-5.258741e+02
2.590000e-06	-1.599740e-06	-9.329203e-09	-1.169070e+01	-6.107558e+02
2.600000e-06	-1.735417e-06	-1.062350e-08	-1.268221e+01	-6.933824e+02
2.610000e-06	-1.870172e-06	-1.185344e-08	-1.366698e+01	-7.729069e+02
2.620000e-06	-2.004128e-06	-1.300698e-08	-1.464591e+01	-8.485666e+02
2.630000e-06	-2.137435e-06	-1.407593e-08	-1.562010e+01	-9.197406e+02
2.640000e-06	-2.270017e-06	-1.506180e-08	-1.658900e+01	-9.859938e+02
2.650000e-06	-2.401762e-06	-1.596789e-08	-1.755177e+01	-1.047104e+03
2.660000e-06	-2.532585e-06	-1.680186e-08	-1.850781e+01	-1.103066e+03
2.670000e-06	-2.662458e-06	-1.757029e-08	-1.945691e+01	-1.154080e+03
2.680000e-06	-2.791460e-06	-1.828033e-08	-2.039963e+01	-1.200515e+03
2.690000e-06	-2.919460e-06	-1.894115e-08	-2.133504e+01	-1.242862e+03
2.700000e-06	-3.046287e-06	-1.955641e-08	-2.226188e+01	-1.281681e+03
2.710000e-06	-3.172020e-06	-2.013008e-08	-2.318072e+01	-1.317542e+03
2.720000e-06	-3.296657e-06	-2.066476e-08	-2.409155e+01	-1.350976e+03
2.730000e-06	-3.420033e-06	-2.116325e-08	-2.499317e+01	-1.382430e+03
2.740000e-06	-3.542124e-06	-2.162804e-08	-2.588539e+01	-1.412250e+03
2.750000e-06	-3.663101e-06	-2.206178e-08	-2.676947e+01	-1.440663e+03
2.760000e-06	-3.782780e-06	-2.246802e-08	-2.764407e+01	-1.467787e+03
2.770000e-06	-3.900874e-06	-2.285038e-08	-2.850709e+01	-1.493652e+03
2.780000e-06	-4.017462e-06	-2.321365e-08	-2.935910e+01	-1.518226e+03
2.790000e-06	-4.132484e-06	-2.355662e-08	-3.019967e+01	-1.541450e+03
2.800000e-06	-4.245744e-06	-2.387754e-08	-3.102736e+01	-1.563270e+03
2.810000e-06	-4.357320e-06	-2.417962e-08	-3.184274e+01	-1.583660e+03
2.820000e-06	-4.467346e-06	-2.446765e-08	-3.264679e+01	-1.602646e+03
2.830000e-06	-4.575889e-06	-2.474275e-08	-3.344001e+01	-1.620304e+03
2.840000e-06	-4.682986e-06	-2.500258e-08	-3.422266e+01	-1.636765e+03
2.850000e-06	-4.788512e-06	-2.524725e-08	-3.499383e+01	-1.652194e+03
2.860000e-06	-4.892207e-06	-2.547906e-08	-3.575162e+01	-1.666775e+03
2.870000e-06	-4.993978e-06	-2.570031e-08	-3.649535e+01	-1.680688e+03
2.880000e-06	-5.093929e-06	-2.591263e-08	-3.722578e+01	-1.694085e+03
2.890000e-06	-5.192140e-06	-2.611754e-08	-3.794350e+01	-1.707079e+03
2.900000e-06	-5.288567e-06	-2.631370e-08	-3.864817e+01	-1.719730e+03
2.910000e-06	-5.383036e-06	-2.649950e-08	-3.933854e+01	-1.732043e+03
2.920000e-06	-5.475549e-06	-2.667461e-08	-4.001461e+01	-1.743982e+03
2.930000e-06	-5.566161e-06	-2.684050e-08	-4.067679e+01	-1.755474e+03
2.940000e-06	-5.654759e-06	-2.699827e-08	-4.132425e+01	-1.766435e+03
