# Temperatura_=_40.3
# Concentracion g/m^3_=_28370.0
# C_Vs_to_Am_M_A/Vsm_=_65563218390.804596
# pendiente_HvsI_1/m_=_3716.3
# ordenada_HvsI_A/m_=_1297.0
# frecuencia_Hz_=_302399.921507932

Tiempo_(s)	Campo_(V.s)	Magnetizacion_(V.s)	Campo_(kA/m)	Magnetizacion_(A/m)
0.000000e+00	-7.311591e-06	-2.613296e-08	-5.318333e+01	-1.711093e+03
1.000000e-08	-7.308033e-06	-2.613172e-08	-5.315745e+01	-1.710282e+03
2.000000e-08	-7.302085e-06	-2.611997e-08	-5.311419e+01	-1.709373e+03
3.000000e-08	-7.293794e-06	-2.610550e-08	-5.305388e+01	-1.708424e+03
4.000000e-08	-7.282982e-06	-2.609170e-08	-5.297524e+01	-1.707474e+03
5.000000e-08	-7.269455e-06	-2.607555e-08	-5.287684e+01	-1.706543e+03
6.000000e-08	-7.253245e-06	-2.605432e-08	-5.275894e+01	-1.705623e+03
7.000000e-08	-7.234714e-06	-2.603024e-08	-5.262414e+01	-1.704683e+03
8.000000e-08	-7.214114e-06	-2.600351e-08	-5.247430e+01	-1.703674e+03
9.000000e-08	-7.191048e-06	-2.604662e-08	-5.230653e+01	-1.702541e+03
1.000000e-07	-7.164997e-06	-2.603787e-08	-5.211703e+01	-1.701226e+03
1.100000e-07	-7.136022e-06	-2.594048e-08	-5.190627e+01	-1.699686e+03
1.200000e-07	-7.104544e-06	-2.589011e-08	-5.167731e+01	-1.697893e+03
1.300000e-07	-7.070597e-06	-2.587208e-08	-5.143039e+01	-1.695841e+03
1.400000e-07	-7.034387e-06	-2.580986e-08	-5.116700e+01	-1.693547e+03
1.500000e-07	-6.996339e-06	-2.572376e-08	-5.089024e+01	-1.691044e+03
1.600000e-07	-6.956301e-06	-2.580455e-08	-5.059901e+01	-1.688377e+03
1.700000e-07	-6.913774e-06	-2.574359e-08	-5.028968e+01	-1.685589e+03
1.800000e-07	-6.868783e-06	-2.557844e-08	-4.996242e+01	-1.682716e+03
1.900000e-07	-6.821333e-06	-2.565088e-08	-4.961728e+01	-1.679778e+03
2.000000e-07	-6.771070e-06	-2.557429e-08	-4.925167e+01	-1.676770e+03
2.100000e-07	-6.718125e-06	-2.550070e-08	-4.886656e+01	-1.673666e+03
2.200000e-07	-6.662657e-06	-2.548928e-08	-4.846310e+01	-1.670418e+03
2.300000e-07	-6.604597e-06	-2.538780e-08	-4.804078e+01	-1.666965e+03
2.400000e-07	-6.544049e-06	-2.535636e-08	-4.760036e+01	-1.663242e+03
2.500000e-07	-6.481221e-06	-2.526368e-08	-4.714336e+01	-1.659189e+03
2.600000e-07	-6.415967e-06	-2.520393e-08	-4.666871e+01	-1.654763e+03
2.700000e-07	-6.348127e-06	-2.512424e-08	-4.617525e+01	-1.649944e+03
2.800000e-07	-6.277961e-06	-2.504251e-08	-4.566488e+01	-1.644738e+03
2.900000e-07	-6.205480e-06	-2.496785e-08	-4.513766e+01	-1.639178e+03
3.000000e-07	-6.130481e-06	-2.486004e-08	-4.459213e+01	-1.633314e+03
3.100000e-07	-6.052899e-06	-2.481261e-08	-4.402781e+01	-1.627209e+03
3.200000e-07	-5.972775e-06	-2.471903e-08	-4.344500e+01	-1.620922e+03
3.300000e-07	-5.890468e-06	-2.462007e-08	-4.284631e+01	-1.614499e+03
3.400000e-07	-5.806240e-06	-2.450320e-08	-4.223365e+01	-1.607967e+03
3.500000e-07	-5.720125e-06	-2.439304e-08	-4.160727e+01	-1.601317e+03
3.600000e-07	-5.632046e-06	-2.430773e-08	-4.096659e+01	-1.594515e+03
3.700000e-07	-5.541815e-06	-2.418879e-08	-4.031027e+01	-1.587495e+03
3.800000e-07	-5.449535e-06	-2.406937e-08	-3.963904e+01	-1.580174e+03
3.900000e-07	-5.355439e-06	-2.393866e-08	-3.895460e+01	-1.572460e+03
4.000000e-07	-5.259489e-06	-2.380693e-08	-3.825667e+01	-1.564268e+03
4.100000e-07	-5.161607e-06	-2.366627e-08	-3.754470e+01	-1.555528e+03
4.200000e-07	-5.061901e-06	-2.353532e-08	-3.681946e+01	-1.546202e+03
4.300000e-07	-4.960399e-06	-2.339655e-08	-3.608115e+01	-1.536281e+03
4.400000e-07	-4.857111e-06	-2.323407e-08	-3.532984e+01	-1.525790e+03
4.500000e-07	-4.752112e-06	-2.306527e-08	-3.456610e+01	-1.514780e+03
4.600000e-07	-4.645398e-06	-2.289627e-08	-3.378988e+01	-1.503316e+03
4.700000e-07	-4.537006e-06	-2.272482e-08	-3.300145e+01	-1.491462e+03
4.800000e-07	-4.427097e-06	-2.255041e-08	-3.220199e+01	-1.479267e+03
4.900000e-07	-4.315641e-06	-2.236962e-08	-3.139127e+01	-1.466754e+03
5.000000e-07	-4.202463e-06	-2.216312e-08	-3.056804e+01	-1.453902e+03
5.100000e-07	-4.087536e-06	-2.194070e-08	-2.973208e+01	-1.440654e+03
5.200000e-07	-3.970944e-06	-2.171688e-08	-2.888401e+01	-1.426911e+03
5.300000e-07	-3.852839e-06	-2.149231e-08	-2.802493e+01	-1.412546e+03
5.400000e-07	-3.733329e-06	-2.125312e-08	-2.715563e+01	-1.397418e+03
5.500000e-07	-3.612427e-06	-2.100188e-08	-2.627621e+01	-1.381390e+03
5.600000e-07	-3.490109e-06	-2.073845e-08	-2.538649e+01	-1.364343e+03
5.700000e-07	-3.366387e-06	-2.046116e-08	-2.448655e+01	-1.346195e+03
5.800000e-07	-3.241384e-06	-2.017006e-08	-2.357730e+01	-1.326903e+03
5.900000e-07	-3.115285e-06	-1.987002e-08	-2.266008e+01	-1.306467e+03
6.000000e-07	-2.988151e-06	-1.955680e-08	-2.173533e+01	-1.284918e+03
6.100000e-07	-2.859910e-06	-1.922115e-08	-2.080253e+01	-1.262303e+03
6.200000e-07	-2.730529e-06	-1.886555e-08	-1.986143e+01	-1.238665e+03
6.300000e-07	-2.600020e-06	-1.848900e-08	-1.891213e+01	-1.214015e+03
6.400000e-07	-2.468531e-06	-1.809393e-08	-1.795570e+01	-1.188310e+03
6.500000e-07	-2.336184e-06	-1.767538e-08	-1.699303e+01	-1.161438e+03
6.600000e-07	-2.203079e-06	-1.723407e-08	-1.602484e+01	-1.133209e+03
6.700000e-07	-2.069303e-06	-1.676300e-08	-1.505177e+01	-1.103354e+03
6.800000e-07	-1.934820e-06	-1.626246e-08	-1.407357e+01	-1.071548e+03
6.900000e-07	-1.799651e-06	-1.573106e-08	-1.309037e+01	-1.037426e+03
7.000000e-07	-1.663884e-06	-1.516280e-08	-1.210282e+01	-1.000629e+03
7.100000e-07	-1.527560e-06	-1.455606e-08	-1.111123e+01	-9.608304e+02
7.200000e-07	-1.390679e-06	-1.390533e-08	-1.011558e+01	-9.177831e+02
7.300000e-07	-1.253225e-06	-1.321256e-08	-9.115759e+00	-8.713465e+02
7.400000e-07	-1.115223e-06	-1.247089e-08	-8.111952e+00	-8.215082e+02
7.500000e-07	-9.767935e-07	-1.168202e-08	-7.105039e+00	-7.683913e+02
7.600000e-07	-8.380458e-07	-1.084660e-08	-6.095810e+00	-7.122447e+02
7.700000e-07	-6.989602e-07	-9.962169e-09	-5.084124e+00	-6.534196e+02
7.800000e-07	-5.596312e-07	-9.028613e-09	-4.070667e+00	-5.923325e+02
7.900000e-07	-4.201826e-07	-8.054627e-09	-3.056341e+00	-5.294212e+02
8.000000e-07	-2.805187e-07	-7.050537e-09	-2.040448e+00	-4.650976e+02
8.100000e-07	-1.406397e-07	-6.024574e-09	-1.022990e+00	-3.997056e+02
8.200000e-07	-6.621205e-10	-4.991154e-09	-4.816158e-03	-3.334890e+02
8.300000e-07	1.393388e-07	-3.957933e-09	1.013528e+00	-2.665732e+02
8.400000e-07	2.792992e-07	-2.929496e-09	2.031577e+00	-1.989662e+02
8.500000e-07	4.191232e-07	-1.902745e-09	3.048635e+00	-1.305764e+02
8.600000e-07	5.587620e-07	-8.737854e-10	4.064345e+00	-6.124746e+01
8.700000e-07	6.982039e-07	1.658790e-10	5.078623e+00	9.195728e+00
8.800000e-07	8.374130e-07	1.228033e-09	6.091208e+00	8.089429e+01
8.900000e-07	9.763344e-07	2.319207e-09	7.101699e+00	1.539043e+02
9.000000e-07	1.114959e-06	3.442895e-09	8.110030e+00	2.281534e+02
9.100000e-07	1.253262e-06	4.597045e-09	9.116025e+00	3.034119e+02
9.200000e-07	1.391059e-06	5.775451e-09	1.011834e+01	3.792820e+02
9.300000e-07	1.528214e-06	6.962650e-09	1.111598e+01	4.552075e+02
9.400000e-07	1.664717e-06	8.140120e-09	1.210888e+01	5.305039e+02
9.500000e-07	1.800595e-06	9.288207e-09	1.309724e+01	6.044049e+02
9.600000e-07	1.935787e-06	1.039007e-08	1.408061e+01	6.761203e+02
9.700000e-07	2.070205e-06	1.143177e-08	1.505834e+01	7.448988e+02
9.800000e-07	2.203880e-06	1.240385e-08	1.603067e+01	8.100880e+02
9.900000e-07	2.336814e-06	1.330478e-08	1.699761e+01	8.711847e+02
1.000000e-06	2.468873e-06	1.413880e-08	1.795818e+01	9.278701e+02
1.010000e-06	2.599988e-06	1.490776e-08	1.891189e+01	9.800257e+02
1.020000e-06	2.730155e-06	1.561640e-08	1.985871e+01	1.027729e+03
1.030000e-06	2.859252e-06	1.627349e-08	2.079774e+01	1.071232e+03
1.040000e-06	2.987190e-06	1.688462e-08	2.172834e+01	1.110918e+03
1.050000e-06	3.113991e-06	1.745191e-08	2.265067e+01	1.147258e+03
1.060000e-06	3.239744e-06	1.798005e-08	2.356538e+01	1.180756e+03
1.070000e-06	3.364516e-06	1.847102e-08	2.447295e+01	1.211896e+03
1.080000e-06	3.488148e-06	1.892781e-08	2.537223e+01	1.241105e+03
1.090000e-06	3.610525e-06	1.935333e-08	2.626238e+01	1.268722e+03
1.100000e-06	3.731531e-06	1.974984e-08	2.714255e+01	1.294982e+03
1.110000e-06	3.851090e-06	2.012286e-08	2.801221e+01	1.320017e+03
1.120000e-06	3.969306e-06	2.047712e-08	2.887209e+01	1.343875e+03
1.130000e-06	4.086135e-06	2.081167e-08	2.972189e+01	1.366540e+03
1.140000e-06	4.201393e-06	2.112624e-08	3.056026e+01	1.387961e+03
1.150000e-06	4.314932e-06	2.142274e-08	3.138612e+01	1.408087e+03
1.160000e-06	4.426739e-06	2.170140e-08	3.219939e+01	1.426888e+03
1.170000e-06	4.536990e-06	2.196449e-08	3.300133e+01	1.444377e+03
1.180000e-06	4.645795e-06	2.221250e-08	3.379276e+01	1.460614e+03
1.190000e-06	4.753039e-06	2.244956e-08	3.457284e+01	1.475711e+03
1.200000e-06	4.858599e-06	2.267464e-08	3.534067e+01	1.489816e+03
1.210000e-06	4.962323e-06	2.288709e-08	3.609514e+01	1.503095e+03
1.220000e-06	5.064262e-06	2.308708e-08	3.683662e+01	1.515717e+03
1.230000e-06	5.164387e-06	2.327659e-08	3.756492e+01	1.527826e+03
1.240000e-06	5.262568e-06	2.345600e-08	3.827907e+01	1.539531e+03
1.250000e-06	5.358728e-06	2.362484e-08	3.897852e+01	1.550892e+03
1.260000e-06	5.452921e-06	2.378753e-08	3.966367e+01	1.561920e+03
1.270000e-06	5.545286e-06	2.394512e-08	4.033551e+01	1.572581e+03
1.280000e-06	5.635683e-06	2.409440e-08	4.099305e+01	1.582809e+03
1.290000e-06	5.723917e-06	2.423447e-08	4.163485e+01	1.592523e+03
1.300000e-06	5.810068e-06	2.436736e-08	4.226150e+01	1.601645e+03
1.310000e-06	5.894279e-06	2.449363e-08	4.287404e+01	1.610117e+03
1.320000e-06	5.976421e-06	2.461423e-08	4.347153e+01	1.617912e+03
1.330000e-06	6.056380e-06	2.472759e-08	4.405313e+01	1.625045e+03
1.340000e-06	6.134108e-06	2.483222e-08	4.461851e+01	1.631569e+03
1.350000e-06	6.209506e-06	2.492891e-08	4.516694e+01	1.637571e+03
1.360000e-06	6.282443e-06	2.501916e-08	4.569748e+01	1.643157e+03
1.370000e-06	6.353041e-06	2.510627e-08	4.621100e+01	1.648440e+03
1.380000e-06	6.421444e-06	2.519030e-08	4.670855e+01	1.653521e+03
1.390000e-06	6.487595e-06	2.526900e-08	4.718972e+01	1.658481e+03
1.400000e-06	6.551396e-06	2.534118e-08	4.765380e+01	1.663363e+03
1.410000e-06	6.612916e-06	2.540889e-08	4.810129e+01	1.668177e+03
1.420000e-06	6.672218e-06	2.547391e-08	4.853264e+01	1.672896e+03
1.430000e-06	6.729108e-06	2.553736e-08	4.894644e+01	1.677465e+03
1.440000e-06	6.783563e-06	2.559820e-08	4.934255e+01	1.681813e+03
1.450000e-06	6.835382e-06	2.565611e-08	4.971947e+01	1.685869e+03
1.460000e-06	6.884335e-06	2.571060e-08	5.007555e+01	1.689569e+03
1.470000e-06	6.930725e-06	2.575971e-08	5.041298e+01	1.692875e+03
1.480000e-06	6.974739e-06	2.580409e-08	5.073313e+01	1.695776e+03
1.490000e-06	7.016246e-06	2.584473e-08	5.103504e+01	1.698291e+03
1.500000e-06	7.055211e-06	2.588294e-08	5.131847e+01	1.700468e+03
1.510000e-06	7.091804e-06	2.591893e-08	5.158464e+01	1.702372e+03
1.520000e-06	7.125920e-06	2.595341e-08	5.183280e+01	1.704076e+03
1.530000e-06	7.157393e-06	2.598518e-08	5.206173e+01	1.705651e+03
1.540000e-06	7.186423e-06	2.601131e-08	5.227289e+01	1.707149e+03
1.550000e-06	7.212910e-06	2.603245e-08	5.246555e+01	1.708601e+03
1.560000e-06	7.236629e-06	2.605008e-08	5.263808e+01	1.710012e+03
1.570000e-06	7.257780e-06	2.606437e-08	5.279192e+01	1.711357e+03
1.580000e-06	7.276489e-06	2.607606e-08	5.292801e+01	1.712592e+03
1.590000e-06	7.292550e-06	2.608599e-08	5.304484e+01	1.713661e+03
1.600000e-06	7.305851e-06	2.609378e-08	5.314159e+01	1.714505e+03
1.610000e-06	7.316229e-06	2.610024e-08	5.321707e+01	1.715077e+03
1.620000e-06	7.323726e-06	2.610589e-08	5.327160e+01	1.715346e+03
1.630000e-06	7.328691e-06	2.611002e-08	5.330772e+01	1.715306e+03
1.640000e-06	7.331094e-06	2.611195e-08	5.332520e+01	1.714977e+03
1.650000e-06	7.330848e-06	2.611316e-08	5.332341e+01	1.714402e+03
1.660000e-06	7.328154e-06	2.610216e-08	5.330381e+01	1.713640e+03
1.670000e-06	7.323049e-06	2.609132e-08	5.326668e+01	1.712758e+03
1.680000e-06	7.315411e-06	2.608305e-08	5.321112e+01	1.711816e+03
1.690000e-06	7.305367e-06	2.607063e-08	5.313806e+01	1.710862e+03
1.700000e-06	7.292831e-06	2.605867e-08	5.304688e+01	1.709923e+03
1.710000e-06	7.277723e-06	2.605043e-08	5.293698e+01	1.709000e+03
1.720000e-06	7.260340e-06	2.604655e-08	5.281055e+01	1.708070e+03
1.730000e-06	7.240879e-06	2.602080e-08	5.266899e+01	1.707091e+03
1.740000e-06	7.218890e-06	2.590559e-08	5.250904e+01	1.706008e+03
1.750000e-06	7.193623e-06	2.590439e-08	5.232525e+01	1.704763e+03
1.760000e-06	7.164911e-06	2.594104e-08	5.211641e+01	1.703307e+03
1.770000e-06	7.133388e-06	2.590005e-08	5.188712e+01	1.701604e+03
1.780000e-06	7.099791e-06	2.588769e-08	5.164273e+01	1.699643e+03
1.790000e-06	7.064471e-06	2.595932e-08	5.138583e+01	1.697431e+03
1.800000e-06	7.027553e-06	2.583220e-08	5.111729e+01	1.694997e+03
1.810000e-06	6.988355e-06	2.574393e-08	5.083217e+01	1.692381e+03
1.820000e-06	6.946406e-06	2.587184e-08	5.052704e+01	1.689630e+03
1.830000e-06	6.902208e-06	2.571923e-08	5.020555e+01	1.686784e+03
1.840000e-06	6.855597e-06	2.576691e-08	4.986651e+01	1.683867e+03
1.850000e-06	6.806357e-06	2.570209e-08	4.950834e+01	1.680885e+03
1.860000e-06	6.754547e-06	2.553930e-08	4.913149e+01	1.677818e+03
1.870000e-06	6.699928e-06	2.560668e-08	4.873420e+01	1.674627e+03
1.880000e-06	6.642838e-06	2.545241e-08	4.831893e+01	1.671254e+03
1.890000e-06	6.583336e-06	2.547175e-08	4.788612e+01	1.667633e+03
1.900000e-06	6.521206e-06	2.541156e-08	4.743420e+01	1.663703e+03
1.910000e-06	6.456581e-06	2.527967e-08	4.696413e+01	1.659412e+03
1.920000e-06	6.389591e-06	2.528173e-08	4.647686e+01	1.654733e+03
1.930000e-06	6.320250e-06	2.514114e-08	4.597248e+01	1.649662e+03
1.940000e-06	6.248394e-06	2.513801e-08	4.544981e+01	1.644222e+03
1.950000e-06	6.174105e-06	2.501390e-08	4.490945e+01	1.638459e+03
1.960000e-06	6.097317e-06	2.491195e-08	4.435090e+01	1.632432e+03
1.970000e-06	6.017984e-06	2.485077e-08	4.377384e+01	1.626202e+03
1.980000e-06	5.936477e-06	2.472155e-08	4.318097e+01	1.619822e+03
1.990000e-06	5.852934e-06	2.468664e-08	4.257330e+01	1.613327e+03
2.000000e-06	5.767291e-06	2.454470e-08	4.195035e+01	1.606721e+03
2.010000e-06	5.679494e-06	2.445945e-08	4.131173e+01	1.599978e+03
2.020000e-06	5.589700e-06	2.432340e-08	4.065858e+01	1.593043e+03
2.030000e-06	5.498012e-06	2.419633e-08	3.999165e+01	1.585839e+03
2.040000e-06	5.404316e-06	2.409799e-08	3.931012e+01	1.578275e+03
2.050000e-06	5.308613e-06	2.397239e-08	3.861400e+01	1.570261e+03
2.060000e-06	5.211099e-06	2.385184e-08	3.790470e+01	1.561722e+03
2.070000e-06	5.111938e-06	2.368113e-08	3.718341e+01	1.552607e+03
2.080000e-06	5.010960e-06	2.355151e-08	3.644892e+01	1.542896e+03
2.090000e-06	4.908038e-06	2.339787e-08	3.570027e+01	1.532602e+03
2.100000e-06	4.803305e-06	2.325624e-08	3.493847e+01	1.521770e+03
2.110000e-06	4.697024e-06	2.309101e-08	3.416539e+01	1.510459e+03
2.120000e-06	4.589237e-06	2.291420e-08	3.338137e+01	1.498736e+03
2.130000e-06	4.479871e-06	2.271742e-08	3.258586e+01	1.486658e+03
2.140000e-06	4.368814e-06	2.252133e-08	3.177805e+01	1.474257e+03
2.150000e-06	4.255997e-06	2.234209e-08	3.095744e+01	1.461529e+03
2.160000e-06	4.141587e-06	2.214647e-08	3.012523e+01	1.448431e+03
2.170000e-06	4.025509e-06	2.194246e-08	2.928090e+01	1.434877e+03
2.180000e-06	3.907704e-06	2.171139e-08	2.842401e+01	1.420749e+03
2.190000e-06	3.788308e-06	2.147775e-08	2.755554e+01	1.405908e+03
2.200000e-06	3.667471e-06	2.122668e-08	2.667659e+01	1.390215e+03
2.210000e-06	3.545329e-06	2.097516e-08	2.578815e+01	1.373543e+03
2.220000e-06	3.421929e-06	2.070759e-08	2.489056e+01	1.355794e+03
2.230000e-06	3.297245e-06	2.042575e-08	2.398363e+01	1.336912e+03
2.240000e-06	3.171282e-06	2.012221e-08	2.306739e+01	1.316881e+03
2.250000e-06	3.044124e-06	1.980821e-08	2.214247e+01	1.295723e+03
2.260000e-06	2.915783e-06	1.948521e-08	2.120893e+01	1.273482e+03
2.270000e-06	2.786391e-06	1.914541e-08	2.026776e+01	1.250205e+03
2.280000e-06	2.656096e-06	1.878755e-08	1.932001e+01	1.225917e+03
2.290000e-06	2.524862e-06	1.840367e-08	1.836544e+01	1.200596e+03
2.300000e-06	2.392708e-06	1.799674e-08	1.740417e+01	1.174158e+03
2.310000e-06	2.259715e-06	1.756147e-08	1.643680e+01	1.146439e+03
2.320000e-06	2.125932e-06	1.710274e-08	1.546369e+01	1.117198e+03
2.330000e-06	1.991410e-06	1.661278e-08	1.448520e+01	1.086128e+03
2.340000e-06	1.856254e-06	1.609156e-08	1.350210e+01	1.052875e+03
2.350000e-06	1.720503e-06	1.553607e-08	1.251466e+01	1.017072e+03
2.360000e-06	1.584123e-06	1.494456e-08	1.152266e+01	9.783772e+02
2.370000e-06	1.447176e-06	1.431412e-08	1.052653e+01	9.365113e+02
2.380000e-06	1.309802e-06	1.364060e-08	9.527292e+00	8.912924e+02
2.390000e-06	1.172047e-06	1.291911e-08	8.525281e+00	8.426607e+02
2.400000e-06	1.033875e-06	1.214393e-08	7.520237e+00	7.906911e+02
2.410000e-06	8.953122e-07	1.131628e-08	6.512356e+00	7.355896e+02
2.420000e-06	7.563809e-07	1.044342e-08	5.501793e+00	6.776746e+02
2.430000e-06	6.171925e-07	9.526512e-09	4.489359e+00	6.173441e+02
2.440000e-06	4.778142e-07	8.564747e-09	3.475544e+00	5.550335e+02
2.450000e-06	3.381909e-07	7.566483e-09	2.459946e+00	4.911692e+02
2.460000e-06	1.983841e-07	6.543675e-09	1.443014e+00	4.261239e+02
2.470000e-06	5.849438e-08	5.508338e-09	4.254787e-01	3.601799e+02
2.480000e-06	-8.145814e-08	4.469243e-09	-5.925134e-01	2.935058e+02
2.490000e-06	-2.213959e-07	3.433225e-09	-1.610398e+00	2.261505e+02
2.500000e-06	-3.612372e-07	2.398212e-09	-2.627581e+00	1.580546e+02
2.510000e-06	-5.009826e-07	1.359696e-09	-3.644066e+00	8.908003e+01
2.520000e-06	-6.405527e-07	3.150297e-10	-4.659277e+00	1.905269e+01
2.530000e-06	-7.799412e-07	-7.437323e-10	-5.673167e+00	-5.218682e+01
2.540000e-06	-9.190553e-07	-1.823963e-09	-6.685060e+00	-1.247305e+02
2.550000e-06	-1.057722e-06	-2.933023e-09	-7.693701e+00	-1.985560e+02
2.560000e-06	-1.195949e-06	-4.074476e-09	-8.699138e+00	-2.734922e+02
2.570000e-06	-1.333760e-06	-5.246394e-09	-9.701554e+00	-3.492011e+02
2.580000e-06	-1.471131e-06	-6.437545e-09	-1.070077e+01	-4.251807e+02
2.590000e-06	-1.608005e-06	-7.629064e-09	-1.169637e+01	-5.007878e+02
2.600000e-06	-1.744268e-06	-8.798299e-09	-1.268752e+01	-5.752792e+02
2.610000e-06	-1.879794e-06	-9.925588e-09	-1.367332e+01	-6.478659e+02
2.620000e-06	-2.014576e-06	-1.099909e-08	-1.465370e+01	-7.177758e+02
2.630000e-06	-2.148627e-06	-1.200777e-08	-1.562877e+01	-7.843145e+02
2.640000e-06	-2.281815e-06	-1.294440e-08	-1.659755e+01	-8.469207e+02
2.650000e-06	-2.414079e-06	-1.381005e-08	-1.755962e+01	-9.052068e+02
2.660000e-06	-2.545464e-06	-1.460960e-08	-1.851530e+01	-9.589823e+02
2.670000e-06	-2.675909e-06	-1.534713e-08	-1.946413e+01	-1.008257e+03
2.680000e-06	-2.805425e-06	-1.602904e-08	-2.040621e+01	-1.053222e+03
2.690000e-06	-2.934001e-06	-1.666204e-08	-2.134145e+01	-1.094222e+03
2.700000e-06	-3.061450e-06	-1.725063e-08	-2.226850e+01	-1.131701e+03
2.710000e-06	-3.187784e-06	-1.779911e-08	-2.318743e+01	-1.166158e+03
2.720000e-06	-3.313002e-06	-1.830804e-08	-2.409825e+01	-1.198088e+03
2.730000e-06	-3.436993e-06	-1.878125e-08	-2.500013e+01	-1.227945e+03
2.740000e-06	-3.559680e-06	-1.922344e-08	-2.589254e+01	-1.256099e+03
2.750000e-06	-3.681101e-06	-1.963633e-08	-2.677574e+01	-1.282824e+03
2.760000e-06	-3.801204e-06	-2.002270e-08	-2.764934e+01	-1.308288e+03
2.770000e-06	-3.919876e-06	-2.038404e-08	-2.851254e+01	-1.332567e+03
2.780000e-06	-4.037094e-06	-2.072331e-08	-2.936517e+01	-1.355664e+03
2.790000e-06	-4.152705e-06	-2.104472e-08	-3.020611e+01	-1.377537e+03
2.800000e-06	-4.266587e-06	-2.134919e-08	-3.103447e+01	-1.398132e+03
2.810000e-06	-4.378764e-06	-2.163694e-08	-3.185042e+01	-1.417408e+03
2.820000e-06	-4.489240e-06	-2.190704e-08	-3.265401e+01	-1.435362e+03
2.830000e-06	-4.598110e-06	-2.216130e-08	-3.344591e+01	-1.452037e+03
2.840000e-06	-4.705520e-06	-2.240339e-08	-3.422719e+01	-1.467527e+03
2.850000e-06	-4.811413e-06	-2.263354e-08	-3.499744e+01	-1.481969e+03
2.860000e-06	-4.915629e-06	-2.285200e-08	-3.575550e+01	-1.495525e+03
2.870000e-06	-5.017983e-06	-2.305778e-08	-3.650000e+01	-1.508364e+03
2.880000e-06	-5.118369e-06	-2.325422e-08	-3.723019e+01	-1.520643e+03
2.890000e-06	-5.216898e-06	-2.344281e-08	-3.794688e+01	-1.532484e+03
2.900000e-06	-5.313687e-06	-2.361965e-08	-3.865091e+01	-1.543965e+03
2.910000e-06	-5.408585e-06	-2.378643e-08	-3.934118e+01	-1.555115e+03
2.920000e-06	-5.501442e-06	-2.394446e-08	-4.001661e+01	-1.565915e+03
2.930000e-06	-5.592367e-06	-2.409394e-08	-4.067798e+01	-1.576308e+03
2.940000e-06	-5.681345e-06	-2.423675e-08	-4.132519e+01	-1.586216e+03
