# Temperatura_=_82.14
# Concentracion g/m^3_=_28370.0
# C_Vs_to_Am_M_A/Vsm_=_65563218390.804596
# pendiente_HvsI_1/m_=_3716.3
# ordenada_HvsI_A/m_=_1297.0
# frecuencia_Hz_=_302397.31740941864

Tiempo_(s)	Campo_(V.s)	Magnetizacion_(V.s)	Campo_(kA/m)	Magnetizacion_(A/m)
0.000000e+00	-7.353864e-06	-2.788138e-08	-5.318445e+01	-1.825787e+03
1.000000e-08	-7.350213e-06	-2.787681e-08	-5.315805e+01	-1.824929e+03
2.000000e-08	-7.344213e-06	-2.786533e-08	-5.311465e+01	-1.823975e+03
3.000000e-08	-7.335843e-06	-2.784969e-08	-5.305412e+01	-1.822969e+03
4.000000e-08	-7.324889e-06	-2.783218e-08	-5.297489e+01	-1.821939e+03
5.000000e-08	-7.311157e-06	-2.781277e-08	-5.287558e+01	-1.820887e+03
6.000000e-08	-7.294725e-06	-2.779226e-08	-5.275674e+01	-1.819795e+03
7.000000e-08	-7.276062e-06	-2.777201e-08	-5.262177e+01	-1.818626e+03
8.000000e-08	-7.255320e-06	-2.775997e-08	-5.247176e+01	-1.817332e+03
9.000000e-08	-7.232039e-06	-2.776677e-08	-5.230339e+01	-1.815864e+03
1.000000e-07	-7.205798e-06	-2.773520e-08	-5.211361e+01	-1.814179e+03
1.100000e-07	-7.176749e-06	-2.767122e-08	-5.190352e+01	-1.812248e+03
1.200000e-07	-7.145109e-06	-2.761752e-08	-5.167470e+01	-1.810064e+03
1.300000e-07	-7.110959e-06	-2.756859e-08	-5.142772e+01	-1.807635e+03
1.400000e-07	-7.074582e-06	-2.750985e-08	-5.116463e+01	-1.804989e+03
1.500000e-07	-7.036285e-06	-2.745657e-08	-5.088766e+01	-1.802165e+03
1.600000e-07	-6.995901e-06	-2.746423e-08	-5.059560e+01	-1.799199e+03
1.700000e-07	-6.953118e-06	-2.740483e-08	-5.028618e+01	-1.796126e+03
1.800000e-07	-6.907953e-06	-2.731477e-08	-4.995954e+01	-1.792961e+03
1.900000e-07	-6.860207e-06	-2.730336e-08	-4.961423e+01	-1.789700e+03
2.000000e-07	-6.809639e-06	-2.724326e-08	-4.924851e+01	-1.786314e+03
2.100000e-07	-6.756354e-06	-2.714996e-08	-4.886315e+01	-1.782757e+03
2.200000e-07	-6.700467e-06	-2.707660e-08	-4.845897e+01	-1.778964e+03
2.300000e-07	-6.642047e-06	-2.701704e-08	-4.803646e+01	-1.774867e+03
2.400000e-07	-6.581239e-06	-2.695071e-08	-4.759668e+01	-1.770403e+03
2.500000e-07	-6.518052e-06	-2.686297e-08	-4.713970e+01	-1.765525e+03
2.600000e-07	-6.452353e-06	-2.679542e-08	-4.666456e+01	-1.760207e+03
2.700000e-07	-6.384107e-06	-2.671702e-08	-4.617099e+01	-1.754451e+03
2.800000e-07	-6.313492e-06	-2.661626e-08	-4.566029e+01	-1.748289e+03
2.900000e-07	-6.240482e-06	-2.651478e-08	-4.513227e+01	-1.741772e+03
3.000000e-07	-6.164939e-06	-2.642805e-08	-4.458593e+01	-1.734969e+03
3.100000e-07	-6.086771e-06	-2.634783e-08	-4.402060e+01	-1.727948e+03
3.200000e-07	-6.006132e-06	-2.623438e-08	-4.343741e+01	-1.720767e+03
3.300000e-07	-5.923425e-06	-2.611603e-08	-4.283926e+01	-1.713465e+03
3.400000e-07	-5.838773e-06	-2.599339e-08	-4.222704e+01	-1.706049e+03
3.500000e-07	-5.752211e-06	-2.586981e-08	-4.160101e+01	-1.698493e+03
3.600000e-07	-5.663645e-06	-2.575117e-08	-4.096049e+01	-1.690742e+03
3.700000e-07	-5.572958e-06	-2.562828e-08	-4.030462e+01	-1.682713e+03
3.800000e-07	-5.480243e-06	-2.549320e-08	-3.963409e+01	-1.674314e+03
3.900000e-07	-5.385606e-06	-2.534118e-08	-3.894966e+01	-1.665451e+03
4.000000e-07	-5.289071e-06	-2.519128e-08	-3.825150e+01	-1.656043e+03
4.100000e-07	-5.190658e-06	-2.503862e-08	-3.753976e+01	-1.646035e+03
4.200000e-07	-5.090394e-06	-2.488649e-08	-3.681463e+01	-1.635407e+03
4.300000e-07	-4.988322e-06	-2.472789e-08	-3.607643e+01	-1.624171e+03
4.400000e-07	-4.884469e-06	-2.455810e-08	-3.532534e+01	-1.612371e+03
4.500000e-07	-4.778879e-06	-2.437406e-08	-3.456170e+01	-1.600072e+03
4.600000e-07	-4.671591e-06	-2.418337e-08	-3.378577e+01	-1.587346e+03
4.700000e-07	-4.562643e-06	-2.399152e-08	-3.299784e+01	-1.574256e+03
4.800000e-07	-4.452095e-06	-2.379180e-08	-3.219834e+01	-1.560842e+03
4.900000e-07	-4.339905e-06	-2.358177e-08	-3.138696e+01	-1.547107e+03
5.000000e-07	-4.225943e-06	-2.335580e-08	-3.056277e+01	-1.533014e+03
5.100000e-07	-4.110227e-06	-2.312117e-08	-2.972589e+01	-1.518482e+03
5.200000e-07	-3.992905e-06	-2.287895e-08	-2.887739e+01	-1.503395e+03
5.300000e-07	-3.874116e-06	-2.263064e-08	-2.801829e+01	-1.487614e+03
5.400000e-07	-3.753906e-06	-2.237226e-08	-2.714891e+01	-1.470995e+03
5.500000e-07	-3.632255e-06	-2.209948e-08	-2.626911e+01	-1.453408e+03
5.600000e-07	-3.509238e-06	-2.181229e-08	-2.537943e+01	-1.434747e+03
5.700000e-07	-3.384915e-06	-2.151342e-08	-2.448030e+01	-1.414951e+03
5.800000e-07	-3.259332e-06	-2.120160e-08	-2.357207e+01	-1.394000e+03
5.900000e-07	-3.132586e-06	-2.087443e-08	-2.265541e+01	-1.371914e+03
6.000000e-07	-3.004698e-06	-2.053252e-08	-2.173051e+01	-1.348741e+03
6.100000e-07	-2.875655e-06	-2.017123e-08	-2.079725e+01	-1.324536e+03
6.200000e-07	-2.745539e-06	-1.979182e-08	-1.985622e+01	-1.299337e+03
6.300000e-07	-2.614406e-06	-1.939256e-08	-1.890785e+01	-1.273144e+03
6.400000e-07	-2.482273e-06	-1.897421e-08	-1.795223e+01	-1.245893e+03
6.500000e-07	-2.349289e-06	-1.853184e-08	-1.699048e+01	-1.217445e+03
6.600000e-07	-2.215546e-06	-1.806078e-08	-1.602322e+01	-1.187580e+03
6.700000e-07	-2.081033e-06	-1.756183e-08	-1.505040e+01	-1.156005e+03
6.800000e-07	-1.945795e-06	-1.703463e-08	-1.407234e+01	-1.122374e+03
6.900000e-07	-1.809810e-06	-1.647696e-08	-1.308887e+01	-1.086313e+03
7.000000e-07	-1.673087e-06	-1.588198e-08	-1.210006e+01	-1.047457e+03
7.100000e-07	-1.535758e-06	-1.524687e-08	-1.110687e+01	-1.005483e+03
7.200000e-07	-1.397890e-06	-1.456693e-08	-1.010979e+01	-9.601513e+02
7.300000e-07	-1.259539e-06	-1.383872e-08	-9.109210e+00	-9.113227e+02
7.400000e-07	-1.120765e-06	-1.305953e-08	-8.105571e+00	-8.589791e+02
7.500000e-07	-9.815826e-07	-1.223033e-08	-7.098979e+00	-8.032222e+02
7.600000e-07	-8.420436e-07	-1.135057e-08	-6.089809e+00	-7.442611e+02
7.700000e-07	-7.022145e-07	-1.041411e-08	-5.078539e+00	-6.823859e+02
7.800000e-07	-5.620448e-07	-9.423602e-09	-4.064808e+00	-6.179332e+02
7.900000e-07	-4.215814e-07	-8.387769e-09	-3.048952e+00	-5.512465e+02
8.000000e-07	-2.809121e-07	-7.314265e-09	-2.031606e+00	-4.826380e+02
8.100000e-07	-1.400448e-07	-6.211241e-09	-1.012829e+00	-4.123575e+02
8.200000e-07	8.995281e-10	-5.091767e-09	6.505547e-03	-3.405728e+02
8.300000e-07	1.418596e-07	-3.963970e-09	1.025954e+00	-2.673649e+02
8.400000e-07	2.827851e-07	-2.830527e-09	2.045152e+00	-1.927395e+02
8.500000e-07	4.236028e-07	-1.691522e-09	3.063571e+00	-1.166532e+02
8.600000e-07	5.642071e-07	-5.432420e-10	4.080446e+00	-3.905171e+01
8.700000e-07	7.045645e-07	6.225306e-10	5.095536e+00	4.008544e+01
8.800000e-07	8.446828e-07	1.815886e-09	6.108896e+00	1.207001e+02
8.900000e-07	9.844713e-07	3.042428e-09	7.119871e+00	2.026165e+02
9.000000e-07	1.123879e-06	4.303155e-09	8.128092e+00	2.855143e+02
9.100000e-07	1.262850e-06	5.590827e-09	9.133155e+00	3.689185e+02
9.200000e-07	1.401372e-06	6.893040e-09	1.013497e+01	4.522081e+02
9.300000e-07	1.539465e-06	8.187561e-09	1.113368e+01	5.346437e+02
9.400000e-07	1.676955e-06	9.450065e-09	1.212804e+01	6.154118e+02
9.500000e-07	1.813716e-06	1.066074e-08	1.311712e+01	6.936804e+02
9.600000e-07	1.949755e-06	1.180321e-08	1.410097e+01	7.686605e+02
9.700000e-07	2.084951e-06	1.286602e-08	1.507873e+01	8.396659e+02
9.800000e-07	2.219316e-06	1.384645e-08	1.605049e+01	9.061643e+02
9.900000e-07	2.352988e-06	1.475039e-08	1.701723e+01	9.678142e+02
1.000000e-06	2.485856e-06	1.558483e-08	1.797815e+01	1.024483e+03
1.010000e-06	2.617695e-06	1.635195e-08	1.893164e+01	1.076247e+03
1.020000e-06	2.748484e-06	1.705655e-08	1.987753e+01	1.123367e+03
1.030000e-06	2.878304e-06	1.771051e-08	2.081641e+01	1.166252e+03
1.040000e-06	3.007067e-06	1.832014e-08	2.174764e+01	1.205411e+03
1.050000e-06	3.134671e-06	1.888735e-08	2.267050e+01	1.241396e+03
1.060000e-06	3.261102e-06	1.941392e-08	2.358487e+01	1.274752e+03
1.070000e-06	3.386398e-06	1.990516e-08	2.449103e+01	1.305965e+03
1.080000e-06	3.510555e-06	2.036363e-08	2.538896e+01	1.335435e+03
1.090000e-06	3.633508e-06	2.079171e-08	2.627817e+01	1.363450e+03
1.100000e-06	3.755191e-06	2.119114e-08	2.715821e+01	1.390190e+03
1.110000e-06	3.875463e-06	2.157037e-08	2.802803e+01	1.415730e+03
1.120000e-06	3.994261e-06	2.193078e-08	2.888720e+01	1.440071e+03
1.130000e-06	4.111645e-06	2.226722e-08	2.973614e+01	1.463166e+03
1.140000e-06	4.227527e-06	2.258435e-08	3.057422e+01	1.484953e+03
1.150000e-06	4.341736e-06	2.288668e-08	3.140020e+01	1.505383e+03
1.160000e-06	4.454248e-06	2.317462e-08	3.221391e+01	1.524447e+03
1.170000e-06	4.565116e-06	2.344560e-08	3.301573e+01	1.542184e+03
1.180000e-06	4.674436e-06	2.370178e-08	3.380635e+01	1.558689e+03
1.190000e-06	4.782236e-06	2.394622e-08	3.458598e+01	1.574100e+03
1.200000e-06	4.888382e-06	2.417757e-08	3.535364e+01	1.588586e+03
1.210000e-06	4.992687e-06	2.439646e-08	3.610799e+01	1.602323e+03
1.220000e-06	5.095157e-06	2.460551e-08	3.684908e+01	1.615477e+03
1.230000e-06	5.195815e-06	2.480443e-08	3.757705e+01	1.628182e+03
1.240000e-06	5.294555e-06	2.499268e-08	3.829116e+01	1.640526e+03
1.250000e-06	5.391269e-06	2.516972e-08	3.899061e+01	1.652544e+03
1.260000e-06	5.485975e-06	2.533874e-08	3.967554e+01	1.664225e+03
1.270000e-06	5.578770e-06	2.550179e-08	4.034665e+01	1.675514e+03
1.280000e-06	5.669613e-06	2.565962e-08	4.100365e+01	1.686334e+03
1.290000e-06	5.758357e-06	2.580970e-08	4.164546e+01	1.696599e+03
1.300000e-06	5.844962e-06	2.595142e-08	4.227180e+01	1.706236e+03
1.310000e-06	5.929540e-06	2.608642e-08	4.288348e+01	1.715197e+03
1.320000e-06	6.012071e-06	2.621484e-08	4.348036e+01	1.723472e+03
1.330000e-06	6.092402e-06	2.633795e-08	4.406133e+01	1.731091e+03
1.340000e-06	6.170457e-06	2.645368e-08	4.462584e+01	1.738119e+03
1.350000e-06	6.246147e-06	2.656068e-08	4.517324e+01	1.744650e+03
1.360000e-06	6.319441e-06	2.666159e-08	4.570332e+01	1.750791e+03
1.370000e-06	6.390470e-06	2.675779e-08	4.621701e+01	1.756649e+03
1.380000e-06	6.459255e-06	2.684941e-08	4.671448e+01	1.762314e+03
1.390000e-06	6.525748e-06	2.693532e-08	4.719537e+01	1.767847e+03
1.400000e-06	6.589877e-06	2.701594e-08	4.765916e+01	1.773277e+03
1.410000e-06	6.651669e-06	2.709140e-08	4.810605e+01	1.778596e+03
1.420000e-06	6.711238e-06	2.716161e-08	4.853686e+01	1.783766e+03
1.430000e-06	6.768432e-06	2.722924e-08	4.895050e+01	1.788728e+03
1.440000e-06	6.823182e-06	2.729536e-08	4.934646e+01	1.793414e+03
1.450000e-06	6.875394e-06	2.735932e-08	4.972407e+01	1.797760e+03
1.460000e-06	6.924740e-06	2.741977e-08	5.008095e+01	1.801719e+03
1.470000e-06	6.971374e-06	2.747634e-08	5.041821e+01	1.805266e+03
1.480000e-06	7.015644e-06	2.752824e-08	5.073838e+01	1.808409e+03
1.490000e-06	7.057431e-06	2.757445e-08	5.104059e+01	1.811178e+03
1.500000e-06	7.096587e-06	2.761641e-08	5.132378e+01	1.813629e+03
1.510000e-06	7.133313e-06	2.765566e-08	5.158938e+01	1.815829e+03
1.520000e-06	7.167553e-06	2.769310e-08	5.183702e+01	1.817844e+03
1.530000e-06	7.199145e-06	2.772845e-08	5.206549e+01	1.819731e+03
1.540000e-06	7.228241e-06	2.775961e-08	5.227592e+01	1.821531e+03
1.550000e-06	7.254773e-06	2.778600e-08	5.246780e+01	1.823255e+03
1.560000e-06	7.278580e-06	2.780732e-08	5.263998e+01	1.824893e+03
1.570000e-06	7.299836e-06	2.782480e-08	5.279371e+01	1.826410e+03
1.580000e-06	7.318614e-06	2.783923e-08	5.292951e+01	1.827757e+03
1.590000e-06	7.334739e-06	2.784996e-08	5.304613e+01	1.828878e+03
1.600000e-06	7.348056e-06	2.785730e-08	5.314244e+01	1.829724e+03
1.610000e-06	7.358463e-06	2.786405e-08	5.321771e+01	1.830258e+03
1.620000e-06	7.366037e-06	2.787146e-08	5.327248e+01	1.830464e+03
1.630000e-06	7.370983e-06	2.787623e-08	5.330825e+01	1.830352e+03
1.640000e-06	7.373326e-06	2.787731e-08	5.332520e+01	1.829954e+03
1.650000e-06	7.373055e-06	2.787402e-08	5.332324e+01	1.829320e+03
1.660000e-06	7.370342e-06	2.786342e-08	5.330362e+01	1.828509e+03
1.670000e-06	7.365183e-06	2.785086e-08	5.326631e+01	1.827582e+03
1.680000e-06	7.357546e-06	2.783777e-08	5.321108e+01	1.826589e+03
1.690000e-06	7.347522e-06	2.782453e-08	5.313858e+01	1.825565e+03
1.700000e-06	7.334887e-06	2.781069e-08	5.304720e+01	1.824521e+03
1.710000e-06	7.319622e-06	2.779743e-08	5.293680e+01	1.823445e+03
1.720000e-06	7.302096e-06	2.778021e-08	5.281005e+01	1.822307e+03
1.730000e-06	7.282520e-06	2.773208e-08	5.266848e+01	1.821062e+03
1.740000e-06	7.260371e-06	2.766739e-08	5.250829e+01	1.819661e+03
1.750000e-06	7.234899e-06	2.765170e-08	5.232407e+01	1.818056e+03
1.760000e-06	7.206022e-06	2.764396e-08	5.211523e+01	1.816214e+03
1.770000e-06	7.174329e-06	2.761587e-08	5.188601e+01	1.814119e+03
1.780000e-06	7.140559e-06	2.761252e-08	5.164179e+01	1.811773e+03
1.790000e-06	7.105089e-06	2.761624e-08	5.138526e+01	1.809200e+03
1.800000e-06	7.067909e-06	2.753159e-08	5.111637e+01	1.806433e+03
1.810000e-06	7.028372e-06	2.748945e-08	5.083043e+01	1.803513e+03
1.820000e-06	6.986217e-06	2.750283e-08	5.052556e+01	1.800474e+03
1.830000e-06	6.941796e-06	2.744391e-08	5.020430e+01	1.797340e+03
1.840000e-06	6.894859e-06	2.743096e-08	4.986484e+01	1.794114e+03
1.850000e-06	6.845305e-06	2.737807e-08	4.950646e+01	1.790776e+03
1.860000e-06	6.793084e-06	2.731638e-08	4.912879e+01	1.787285e+03
1.870000e-06	6.738039e-06	2.725660e-08	4.873069e+01	1.783582e+03
1.880000e-06	6.680571e-06	2.715816e-08	4.831508e+01	1.779601e+03
1.890000e-06	6.620610e-06	2.711897e-08	4.788142e+01	1.775273e+03
1.900000e-06	6.558006e-06	2.702404e-08	4.742866e+01	1.770546e+03
1.910000e-06	6.492978e-06	2.693407e-08	4.695837e+01	1.765385e+03
1.920000e-06	6.425544e-06	2.686773e-08	4.647067e+01	1.759782e+03
1.930000e-06	6.355638e-06	2.677789e-08	4.596510e+01	1.753759e+03
1.940000e-06	6.283289e-06	2.669894e-08	4.544186e+01	1.747360e+03
1.950000e-06	6.208579e-06	2.658140e-08	4.490154e+01	1.740650e+03
1.960000e-06	6.131311e-06	2.648684e-08	4.434273e+01	1.733698e+03
1.970000e-06	6.051485e-06	2.637856e-08	4.376541e+01	1.726567e+03
1.980000e-06	5.969502e-06	2.627714e-08	4.317249e+01	1.719305e+03
1.990000e-06	5.885454e-06	2.618360e-08	4.256465e+01	1.711929e+03
2.000000e-06	5.799241e-06	2.606044e-08	4.194113e+01	1.704427e+03
2.010000e-06	5.710908e-06	2.592889e-08	4.130230e+01	1.696752e+03
2.020000e-06	5.620654e-06	2.578194e-08	4.064956e+01	1.688832e+03
2.030000e-06	5.528428e-06	2.565765e-08	3.998257e+01	1.680575e+03
2.040000e-06	5.434121e-06	2.552747e-08	3.930053e+01	1.671886e+03
2.050000e-06	5.337890e-06	2.539445e-08	3.860456e+01	1.662679e+03
2.060000e-06	5.239897e-06	2.524611e-08	3.789587e+01	1.652889e+03
2.070000e-06	5.140197e-06	2.508275e-08	3.717481e+01	1.642481e+03
2.080000e-06	5.038631e-06	2.491035e-08	3.644027e+01	1.631457e+03
2.090000e-06	4.935148e-06	2.473731e-08	3.569187e+01	1.619851e+03
2.100000e-06	4.829885e-06	2.456720e-08	3.493059e+01	1.607721e+03
2.110000e-06	4.723072e-06	2.438312e-08	3.415810e+01	1.595138e+03
2.120000e-06	4.614722e-06	2.418884e-08	3.337449e+01	1.582170e+03
2.130000e-06	4.504664e-06	2.398114e-08	3.257853e+01	1.568868e+03
2.140000e-06	4.392949e-06	2.377657e-08	3.177058e+01	1.555249e+03
2.150000e-06	4.279553e-06	2.356443e-08	3.095048e+01	1.541290e+03
2.160000e-06	4.164414e-06	2.334720e-08	3.011778e+01	1.526925e+03
2.170000e-06	4.047577e-06	2.311394e-08	2.927279e+01	1.512050e+03
2.180000e-06	3.929077e-06	2.286538e-08	2.841578e+01	1.496532e+03
2.190000e-06	3.809002e-06	2.260538e-08	2.754738e+01	1.480227e+03
2.200000e-06	3.687505e-06	2.233494e-08	2.666869e+01	1.462998e+03
2.210000e-06	3.564675e-06	2.205706e-08	2.578036e+01	1.444729e+03
2.220000e-06	3.440507e-06	2.176626e-08	2.488235e+01	1.425342e+03
2.230000e-06	3.315062e-06	2.146262e-08	2.397512e+01	1.404802e+03
2.240000e-06	3.188358e-06	2.114125e-08	2.305877e+01	1.383115e+03
2.250000e-06	3.060452e-06	2.080655e-08	2.213373e+01	1.360323e+03
2.260000e-06	2.931499e-06	2.045726e-08	2.120112e+01	1.336479e+03
2.270000e-06	2.801511e-06	2.009136e-08	2.026102e+01	1.311631e+03
2.280000e-06	2.670475e-06	1.970186e-08	1.931335e+01	1.285796e+03
2.290000e-06	2.538428e-06	1.928894e-08	1.835836e+01	1.258933e+03
2.300000e-06	2.405463e-06	1.885425e-08	1.739673e+01	1.230932e+03
2.310000e-06	2.271663e-06	1.839593e-08	1.642907e+01	1.201602e+03
2.320000e-06	2.137081e-06	1.790913e-08	1.545575e+01	1.170674e+03
2.330000e-06	2.001802e-06	1.739115e-08	1.447739e+01	1.137819e+03
2.340000e-06	1.865896e-06	1.684114e-08	1.349449e+01	1.102668e+03
2.350000e-06	1.729344e-06	1.625639e-08	1.250692e+01	1.064848e+03
2.360000e-06	1.592173e-06	1.563486e-08	1.151488e+01	1.024019e+03
2.370000e-06	1.454497e-06	1.497294e-08	1.051918e+01	9.799070e+02
2.380000e-06	1.316366e-06	1.426456e-08	9.520196e+00	9.323344e+02
2.390000e-06	1.177743e-06	1.350477e-08	8.517645e+00	8.812393e+02
2.400000e-06	1.038647e-06	1.269121e-08	7.511677e+00	8.266813e+02
2.410000e-06	8.991323e-07	1.182356e-08	6.502684e+00	7.688335e+02
2.420000e-06	7.592808e-07	1.090422e-08	5.491253e+00	7.079607e+02
2.430000e-06	6.191635e-07	9.934076e-09	4.477900e+00	6.443874e+02
2.440000e-06	4.788327e-07	8.914879e-09	3.463003e+00	5.784590e+02
2.450000e-06	3.383158e-07	7.852271e-09	2.446760e+00	5.105031e+02
2.460000e-06	1.976152e-07	6.756854e-09	1.429188e+00	4.407947e+02
2.470000e-06	5.684084e-08	5.637919e-09	4.110831e-01	3.695322e+02
2.480000e-06	-8.393230e-08	4.506836e-09	-6.070132e-01	2.968272e+02
2.490000e-06	-2.246919e-07	3.369207e-09	-1.625012e+00	2.227099e+02
2.500000e-06	-3.654268e-07	2.224544e-09	-2.642831e+00	1.471506e+02
2.510000e-06	-5.060665e-07	1.072794e-09	-3.659962e+00	7.009410e+01
2.520000e-06	-6.465399e-07	-9.194753e-11	-4.675891e+00	-8.497530e+00
2.530000e-06	-7.867972e-07	-1.277418e-09	-5.690257e+00	-8.859915e+01
2.540000e-06	-9.267803e-07	-2.493917e-09	-6.702639e+00	-1.700808e+02
2.550000e-06	-1.066376e-06	-3.743932e-09	-7.712223e+00	-2.526758e+02
2.560000e-06	-1.205444e-06	-5.026035e-09	-8.717987e+00	-3.359646e+02
2.570000e-06	-1.344001e-06	-6.329453e-09	-9.720051e+00	-4.193759e+02
2.580000e-06	-1.482090e-06	-7.634064e-09	-1.071874e+01	-5.022084e+02
2.590000e-06	-1.619692e-06	-8.920169e-09	-1.171390e+01	-5.836692e+02
2.600000e-06	-1.756687e-06	-1.016301e-08	-1.270467e+01	-6.629259e+02
2.610000e-06	-1.892881e-06	-1.134222e-08	-1.368965e+01	-7.391670e+02
2.620000e-06	-2.028290e-06	-1.244484e-08	-1.466896e+01	-8.116633e+02
2.630000e-06	-2.162981e-06	-1.346552e-08	-1.564306e+01	-8.798223e+02
2.640000e-06	-2.296892e-06	-1.440646e-08	-1.661153e+01	-9.432313e+02
2.650000e-06	-2.429927e-06	-1.527182e-08	-1.757366e+01	-1.001682e+03
2.660000e-06	-2.562015e-06	-1.606883e-08	-1.852895e+01	-1.055178e+03
2.670000e-06	-2.693142e-06	-1.680452e-08	-1.947728e+01	-1.103918e+03
2.680000e-06	-2.823333e-06	-1.748526e-08	-2.041885e+01	-1.148262e+03
2.690000e-06	-2.952558e-06	-1.811734e-08	-2.135342e+01	-1.188691e+03
2.700000e-06	-3.080668e-06	-1.870414e-08	-2.227994e+01	-1.225747e+03
2.710000e-06	-3.207660e-06	-1.925125e-08	-2.319837e+01	-1.259983e+03
2.720000e-06	-3.333560e-06	-1.976032e-08	-2.410889e+01	-1.291912e+03
2.730000e-06	-3.458239e-06	-2.023409e-08	-2.501059e+01	-1.321967e+03
2.740000e-06	-3.581609e-06	-2.067735e-08	-2.590283e+01	-1.350477e+03
2.750000e-06	-3.703718e-06	-2.109207e-08	-2.678595e+01	-1.377659e+03
2.760000e-06	-3.824540e-06	-2.148209e-08	-2.765975e+01	-1.403626e+03
2.770000e-06	-3.943909e-06	-2.184968e-08	-2.852305e+01	-1.428400e+03
2.780000e-06	-4.061815e-06	-2.219625e-08	-2.937577e+01	-1.451948e+03
2.790000e-06	-4.178147e-06	-2.252363e-08	-3.021710e+01	-1.474210e+03
2.800000e-06	-4.292702e-06	-2.283269e-08	-3.104558e+01	-1.495129e+03
2.810000e-06	-4.405511e-06	-2.312524e-08	-3.186144e+01	-1.514681e+03
2.820000e-06	-4.516646e-06	-2.340176e-08	-3.266518e+01	-1.532885e+03
2.830000e-06	-4.626164e-06	-2.366360e-08	-3.345724e+01	-1.549818e+03
2.840000e-06	-4.734170e-06	-2.391249e-08	-3.423836e+01	-1.565603e+03
2.850000e-06	-4.840655e-06	-2.414772e-08	-3.500847e+01	-1.580400e+03
2.860000e-06	-4.945419e-06	-2.437073e-08	-3.576615e+01	-1.594385e+03
2.870000e-06	-5.048279e-06	-2.458404e-08	-3.651005e+01	-1.607732e+03
2.880000e-06	-5.149183e-06	-2.478856e-08	-3.723980e+01	-1.620586e+03
2.890000e-06	-5.248223e-06	-2.498378e-08	-3.795608e+01	-1.633053e+03
2.900000e-06	-5.345502e-06	-2.516939e-08	-3.865962e+01	-1.645188e+03
2.910000e-06	-5.440906e-06	-2.534577e-08	-3.934960e+01	-1.656995e+03
2.920000e-06	-5.534273e-06	-2.551273e-08	-4.002485e+01	-1.668433e+03
2.930000e-06	-5.625642e-06	-2.567081e-08	-4.068564e+01	-1.679431e+03
2.940000e-06	-5.715065e-06	-2.582223e-08	-4.133237e+01	-1.689905e+03
