# Temperatura_=_86.22
# Concentracion g/m^3_=_28370.0
# C_Vs_to_Am_M_A/Vsm_=_65563218390.804596
# pendiente_HvsI_1/m_=_3716.3
# ordenada_HvsI_A/m_=_1297.0
# frecuencia_Hz_=_302394.73755746725

Tiempo_(s)	Campo_(V.s)	Magnetizacion_(V.s)	Campo_(kA/m)	Magnetizacion_(A/m)
0.000000e+00	-7.365080e-06	-2.833414e-08	-5.319043e+01	-1.855340e+03
1.000000e-08	-7.361570e-06	-2.833001e-08	-5.316508e+01	-1.854470e+03
2.000000e-08	-7.355642e-06	-2.831752e-08	-5.312227e+01	-1.853500e+03
3.000000e-08	-7.347330e-06	-2.830125e-08	-5.306224e+01	-1.852478e+03
4.000000e-08	-7.336390e-06	-2.828400e-08	-5.298323e+01	-1.851430e+03
5.000000e-08	-7.322728e-06	-2.826336e-08	-5.288457e+01	-1.850360e+03
6.000000e-08	-7.306391e-06	-2.823973e-08	-5.276658e+01	-1.849247e+03
7.000000e-08	-7.287736e-06	-2.821480e-08	-5.263185e+01	-1.848054e+03
8.000000e-08	-7.267008e-06	-2.819470e-08	-5.248216e+01	-1.846733e+03
9.000000e-08	-7.243740e-06	-2.820965e-08	-5.231412e+01	-1.845231e+03
1.000000e-07	-7.217463e-06	-2.819629e-08	-5.212434e+01	-1.843506e+03
1.100000e-07	-7.188316e-06	-2.811653e-08	-5.191385e+01	-1.841527e+03
1.200000e-07	-7.156663e-06	-2.805404e-08	-5.168525e+01	-1.839285e+03
1.300000e-07	-7.122536e-06	-2.801497e-08	-5.143879e+01	-1.836790e+03
1.400000e-07	-7.086163e-06	-2.795883e-08	-5.117610e+01	-1.834068e+03
1.500000e-07	-7.047901e-06	-2.788313e-08	-5.089977e+01	-1.831159e+03
1.600000e-07	-7.007507e-06	-2.788867e-08	-5.060805e+01	-1.828103e+03
1.700000e-07	-6.964617e-06	-2.787026e-08	-5.029830e+01	-1.824931e+03
1.800000e-07	-6.919314e-06	-2.773080e-08	-4.997112e+01	-1.821663e+03
1.900000e-07	-6.871464e-06	-2.773354e-08	-4.962555e+01	-1.818294e+03
2.000000e-07	-6.820734e-06	-2.768898e-08	-4.925918e+01	-1.814799e+03
2.100000e-07	-6.767312e-06	-2.757445e-08	-4.887336e+01	-1.811130e+03
2.200000e-07	-6.711376e-06	-2.752170e-08	-4.846940e+01	-1.807225e+03
2.300000e-07	-6.652893e-06	-2.744352e-08	-4.804703e+01	-1.803018e+03
2.400000e-07	-6.591973e-06	-2.739788e-08	-4.760707e+01	-1.798446e+03
2.500000e-07	-6.528698e-06	-2.729235e-08	-4.715010e+01	-1.793461e+03
2.600000e-07	-6.462936e-06	-2.721307e-08	-4.667517e+01	-1.788039e+03
2.700000e-07	-6.394674e-06	-2.714527e-08	-4.618219e+01	-1.782183e+03
2.800000e-07	-6.324028e-06	-2.703374e-08	-4.567198e+01	-1.775924e+03
2.900000e-07	-6.250931e-06	-2.692899e-08	-4.514407e+01	-1.769314e+03
3.000000e-07	-6.175311e-06	-2.684240e-08	-4.459795e+01	-1.762419e+03
3.100000e-07	-6.097091e-06	-2.676457e-08	-4.403305e+01	-1.755306e+03
3.200000e-07	-6.016348e-06	-2.664058e-08	-4.344992e+01	-1.748034e+03
3.300000e-07	-5.933492e-06	-2.652306e-08	-4.285154e+01	-1.740636e+03
3.400000e-07	-5.848741e-06	-2.641232e-08	-4.223947e+01	-1.733120e+03
3.500000e-07	-5.762085e-06	-2.627842e-08	-4.161364e+01	-1.725457e+03
3.600000e-07	-5.673388e-06	-2.616489e-08	-4.097307e+01	-1.717589e+03
3.700000e-07	-5.582510e-06	-2.604308e-08	-4.031676e+01	-1.709435e+03
3.800000e-07	-5.489590e-06	-2.589749e-08	-3.964569e+01	-1.700899e+03
3.900000e-07	-5.394794e-06	-2.574222e-08	-3.896107e+01	-1.691887e+03
4.000000e-07	-5.298105e-06	-2.559174e-08	-3.826279e+01	-1.682321e+03
4.100000e-07	-5.199502e-06	-2.544089e-08	-3.755068e+01	-1.672148e+03
4.200000e-07	-5.099074e-06	-2.528048e-08	-3.682539e+01	-1.661347e+03
4.300000e-07	-4.996849e-06	-2.512129e-08	-3.608712e+01	-1.649935e+03
4.400000e-07	-4.892874e-06	-2.494570e-08	-3.533622e+01	-1.637957e+03
4.500000e-07	-4.787108e-06	-2.475458e-08	-3.457238e+01	-1.625479e+03
4.600000e-07	-4.679580e-06	-2.455905e-08	-3.379582e+01	-1.612574e+03
4.700000e-07	-4.570476e-06	-2.436676e-08	-3.300787e+01	-1.599304e+03
4.800000e-07	-4.459822e-06	-2.417005e-08	-3.220872e+01	-1.585710e+03
4.900000e-07	-4.347486e-06	-2.395752e-08	-3.139744e+01	-1.571792e+03
5.000000e-07	-4.233415e-06	-2.373126e-08	-3.057362e+01	-1.557508e+03
5.100000e-07	-4.117595e-06	-2.349270e-08	-2.973717e+01	-1.542776e+03
5.200000e-07	-4.000122e-06	-2.324545e-08	-2.888879e+01	-1.527477e+03
5.300000e-07	-3.881243e-06	-2.299043e-08	-2.803024e+01	-1.511467e+03
5.400000e-07	-3.760916e-06	-2.272815e-08	-2.716125e+01	-1.494602e+03
5.500000e-07	-3.639120e-06	-2.245127e-08	-2.628164e+01	-1.476749e+03
5.600000e-07	-3.515889e-06	-2.215886e-08	-2.539166e+01	-1.457803e+03
5.700000e-07	-3.391292e-06	-2.185517e-08	-2.449183e+01	-1.437703e+03
5.800000e-07	-3.265551e-06	-2.153750e-08	-2.358373e+01	-1.416430e+03
5.900000e-07	-3.138708e-06	-2.120700e-08	-2.266767e+01	-1.394007e+03
6.000000e-07	-3.010623e-06	-2.086070e-08	-2.174265e+01	-1.370484e+03
6.100000e-07	-2.881320e-06	-2.049491e-08	-2.080882e+01	-1.345915e+03
6.200000e-07	-2.750998e-06	-2.010821e-08	-1.986764e+01	-1.320342e+03
6.300000e-07	-2.619684e-06	-1.970200e-08	-1.891930e+01	-1.293761e+03
6.400000e-07	-2.487348e-06	-1.927787e-08	-1.796357e+01	-1.266108e+03
6.500000e-07	-2.354111e-06	-1.883055e-08	-1.700133e+01	-1.237238e+03
6.600000e-07	-2.220148e-06	-1.835405e-08	-1.603386e+01	-1.206928e+03
6.700000e-07	-2.085488e-06	-1.784705e-08	-1.506134e+01	-1.174879e+03
6.800000e-07	-1.950080e-06	-1.731002e-08	-1.408343e+01	-1.140738e+03
6.900000e-07	-1.813877e-06	-1.674091e-08	-1.309978e+01	-1.104126e+03
7.000000e-07	-1.676903e-06	-1.613686e-08	-1.211056e+01	-1.064671e+03
7.100000e-07	-1.539332e-06	-1.549022e-08	-1.111702e+01	-1.022048e+03
7.200000e-07	-1.401250e-06	-1.479991e-08	-1.011979e+01	-9.760117e+02
7.300000e-07	-1.262686e-06	-1.406294e-08	-9.119089e+00	-9.264222e+02
7.400000e-07	-1.123699e-06	-1.327208e-08	-8.115329e+00	-8.732595e+02
7.500000e-07	-9.842710e-07	-1.242811e-08	-7.108381e+00	-8.166248e+02
7.600000e-07	-8.444449e-07	-1.153181e-08	-6.098561e+00	-7.567264e+02
7.700000e-07	-7.043467e-07	-1.058157e-08	-5.086775e+00	-6.938538e+02
7.800000e-07	-5.639538e-07	-9.575600e-09	-4.072861e+00	-6.283422e+02
7.900000e-07	-4.233196e-07	-8.522244e-09	-3.057204e+00	-5.605328e+02
8.000000e-07	-2.825453e-07	-7.430625e-09	-2.040536e+00	-4.907350e+02
8.100000e-07	-1.415732e-07	-6.308698e-09	-1.022438e+00	-4.191955e+02
8.200000e-07	-5.032560e-10	-5.167647e-09	-3.634503e-03	-3.460790e+02
8.300000e-07	1.405751e-07	-4.016664e-09	1.015230e+00	-2.714647e+02
8.400000e-07	2.816238e-07	-2.862578e-09	2.033881e+00	-1.953582e+02
8.500000e-07	4.225432e-07	-1.703052e-09	3.051597e+00	-1.177192e+02
8.600000e-07	5.633683e-07	-5.310013e-10	4.068632e+00	-3.849972e+01
8.700000e-07	7.040394e-07	6.596254e-10	5.084556e+00	4.231015e+01
8.800000e-07	8.443970e-07	1.876825e-09	6.098215e+00	1.246374e+02
8.900000e-07	9.844134e-07	3.129511e-09	7.109410e+00	2.082875e+02
9.000000e-07	1.124076e-06	4.418662e-09	8.118048e+00	2.929180e+02
9.100000e-07	1.263313e-06	5.733828e-09	9.123613e+00	3.780297e+02
9.200000e-07	1.402028e-06	7.061108e-09	1.012542e+01	4.629766e+02
9.300000e-07	1.540238e-06	8.381053e-09	1.112356e+01	5.469952e+02
9.400000e-07	1.677941e-06	9.668127e-09	1.211805e+01	6.292504e+02
9.500000e-07	1.815010e-06	1.089937e-08	1.310796e+01	7.088926e+02
9.600000e-07	1.951245e-06	1.205964e-08	1.409185e+01	7.851202e+02
9.700000e-07	2.086567e-06	1.313790e-08	1.506914e+01	8.572403e+02
9.800000e-07	2.221131e-06	1.413203e-08	1.604095e+01	9.247200e+02
9.900000e-07	2.354940e-06	1.504783e-08	1.700732e+01	9.872231e+02
1.000000e-06	2.487933e-06	1.589241e-08	1.796779e+01	1.044628e+03
1.010000e-06	2.620003e-06	1.666973e-08	1.892160e+01	1.097023e+03
1.020000e-06	2.751041e-06	1.738517e-08	1.986795e+01	1.144687e+03
1.030000e-06	2.881081e-06	1.804755e-08	2.080710e+01	1.188047e+03
1.040000e-06	3.010019e-06	1.866412e-08	2.173828e+01	1.227627e+03
1.050000e-06	3.137762e-06	1.923740e-08	2.266084e+01	1.263995e+03
1.060000e-06	3.264366e-06	1.977003e-08	2.357518e+01	1.297707e+03
1.070000e-06	3.389876e-06	2.026669e-08	2.448160e+01	1.329258e+03
1.080000e-06	3.514218e-06	2.073082e-08	2.537959e+01	1.359052e+03
1.090000e-06	3.637392e-06	2.116389e-08	2.626916e+01	1.387381e+03
1.100000e-06	3.759326e-06	2.156739e-08	2.714976e+01	1.414421e+03
1.110000e-06	3.879792e-06	2.194889e-08	2.801976e+01	1.440248e+03
1.120000e-06	3.998775e-06	2.231332e-08	2.887906e+01	1.464857e+03
1.130000e-06	4.116339e-06	2.265750e-08	2.972811e+01	1.488198e+03
1.140000e-06	4.232448e-06	2.297997e-08	3.056664e+01	1.510207e+03
1.150000e-06	4.346975e-06	2.328373e-08	3.139375e+01	1.530835e+03
1.160000e-06	4.459736e-06	2.357135e-08	3.220811e+01	1.550073e+03
1.170000e-06	4.570814e-06	2.384253e-08	3.301031e+01	1.567963e+03
1.180000e-06	4.680330e-06	2.409827e-08	3.380123e+01	1.584602e+03
1.190000e-06	4.788275e-06	2.434404e-08	3.458081e+01	1.600135e+03
1.200000e-06	4.894637e-06	2.457985e-08	3.534895e+01	1.614733e+03
1.210000e-06	4.999142e-06	2.480261e-08	3.610368e+01	1.628581e+03
1.220000e-06	5.101739e-06	2.501169e-08	3.684464e+01	1.641846e+03
1.230000e-06	5.202511e-06	2.521134e-08	3.757241e+01	1.654665e+03
1.240000e-06	5.301379e-06	2.540132e-08	3.828643e+01	1.667128e+03
1.250000e-06	5.398218e-06	2.557999e-08	3.898580e+01	1.679271e+03
1.260000e-06	5.493026e-06	2.575011e-08	3.967050e+01	1.691082e+03
1.270000e-06	5.585958e-06	2.591367e-08	4.034166e+01	1.702506e+03
1.280000e-06	5.676959e-06	2.607168e-08	4.099886e+01	1.713462e+03
1.290000e-06	5.765882e-06	2.622402e-08	4.164106e+01	1.723864e+03
1.300000e-06	5.852670e-06	2.637157e-08	4.226784e+01	1.733637e+03
1.310000e-06	5.937398e-06	2.651194e-08	4.287975e+01	1.742732e+03
1.320000e-06	6.020111e-06	2.664362e-08	4.347710e+01	1.751139e+03
1.330000e-06	6.100644e-06	2.676808e-08	4.405870e+01	1.758887e+03
1.340000e-06	6.178861e-06	2.688587e-08	4.462359e+01	1.766041e+03
1.350000e-06	6.254802e-06	2.699492e-08	4.517203e+01	1.772697e+03
1.360000e-06	6.328329e-06	2.709643e-08	4.570304e+01	1.778962e+03
1.370000e-06	6.399447e-06	2.719429e-08	4.621665e+01	1.784942e+03
1.380000e-06	6.468353e-06	2.728813e-08	4.671429e+01	1.790726e+03
1.390000e-06	6.534985e-06	2.737635e-08	4.719550e+01	1.796376e+03
1.400000e-06	6.599220e-06	2.745845e-08	4.765941e+01	1.801917e+03
1.410000e-06	6.661113e-06	2.753657e-08	4.810640e+01	1.807340e+03
1.420000e-06	6.720789e-06	2.761076e-08	4.853738e+01	1.812606e+03
1.430000e-06	6.778103e-06	2.768055e-08	4.895130e+01	1.817654e+03
1.440000e-06	6.832895e-06	2.774654e-08	4.934700e+01	1.822415e+03
1.450000e-06	6.885084e-06	2.780870e-08	4.972391e+01	1.826825e+03
1.460000e-06	6.934430e-06	2.786851e-08	5.008029e+01	1.830836e+03
1.470000e-06	6.981088e-06	2.792477e-08	5.041725e+01	1.834427e+03
1.480000e-06	7.025407e-06	2.797769e-08	5.073732e+01	1.837605e+03
1.490000e-06	7.067234e-06	2.802843e-08	5.103939e+01	1.840405e+03
1.500000e-06	7.106413e-06	2.807400e-08	5.132234e+01	1.842885e+03
1.510000e-06	7.143158e-06	2.811395e-08	5.158772e+01	1.845112e+03
1.520000e-06	7.177505e-06	2.815018e-08	5.183577e+01	1.847156e+03
1.530000e-06	7.209253e-06	2.818367e-08	5.206505e+01	1.849075e+03
1.540000e-06	7.238429e-06	2.821291e-08	5.227576e+01	1.850909e+03
1.550000e-06	7.265069e-06	2.823740e-08	5.246815e+01	1.852671e+03
1.560000e-06	7.288975e-06	2.825805e-08	5.264080e+01	1.854347e+03
1.570000e-06	7.310215e-06	2.827561e-08	5.279420e+01	1.855902e+03
1.580000e-06	7.328944e-06	2.829105e-08	5.292946e+01	1.857284e+03
1.590000e-06	7.345042e-06	2.830361e-08	5.304572e+01	1.858437e+03
1.600000e-06	7.358366e-06	2.831327e-08	5.314194e+01	1.859309e+03
1.610000e-06	7.368769e-06	2.832110e-08	5.321707e+01	1.859861e+03
1.620000e-06	7.376364e-06	2.832684e-08	5.327193e+01	1.860079e+03
1.630000e-06	7.381371e-06	2.832832e-08	5.330809e+01	1.859971e+03
1.640000e-06	7.383741e-06	2.832658e-08	5.332520e+01	1.859571e+03
1.650000e-06	7.383472e-06	2.832329e-08	5.332326e+01	1.858929e+03
1.660000e-06	7.380771e-06	2.831293e-08	5.330375e+01	1.858107e+03
1.670000e-06	7.375657e-06	2.830085e-08	5.326682e+01	1.857165e+03
1.680000e-06	7.367992e-06	2.829083e-08	5.321146e+01	1.856157e+03
1.690000e-06	7.357852e-06	2.827858e-08	5.313823e+01	1.855115e+03
1.700000e-06	7.345150e-06	2.826527e-08	5.304650e+01	1.854052e+03
1.710000e-06	7.329848e-06	2.825129e-08	5.293598e+01	1.852957e+03
1.720000e-06	7.312323e-06	2.823565e-08	5.280943e+01	1.851797e+03
1.730000e-06	7.292741e-06	2.819477e-08	5.266800e+01	1.850526e+03
1.740000e-06	7.270580e-06	2.810468e-08	5.250795e+01	1.849093e+03
1.750000e-06	7.245149e-06	2.808425e-08	5.232429e+01	1.847451e+03
1.760000e-06	7.216293e-06	2.809993e-08	5.211589e+01	1.845563e+03
1.770000e-06	7.184589e-06	2.806817e-08	5.188693e+01	1.843414e+03
1.780000e-06	7.150716e-06	2.804751e-08	5.164230e+01	1.841005e+03
1.790000e-06	7.115114e-06	2.807892e-08	5.138518e+01	1.838359e+03
1.800000e-06	7.077854e-06	2.800888e-08	5.111610e+01	1.835511e+03
1.810000e-06	7.038325e-06	2.790048e-08	5.083062e+01	1.832502e+03
1.820000e-06	6.996167e-06	2.796183e-08	5.052615e+01	1.829367e+03
1.830000e-06	6.951681e-06	2.788320e-08	5.020488e+01	1.826131e+03
1.840000e-06	6.904736e-06	2.785239e-08	4.986584e+01	1.822799e+03
1.850000e-06	6.855194e-06	2.782522e-08	4.950805e+01	1.819352e+03
1.860000e-06	6.802992e-06	2.770169e-08	4.913105e+01	1.815750e+03
1.870000e-06	6.747960e-06	2.769517e-08	4.873361e+01	1.811936e+03
1.880000e-06	6.690452e-06	2.756683e-08	4.831828e+01	1.807843e+03
1.890000e-06	6.630505e-06	2.752985e-08	4.788535e+01	1.803406e+03
1.900000e-06	6.567924e-06	2.748169e-08	4.743339e+01	1.798571e+03
1.910000e-06	6.502819e-06	2.734020e-08	4.696320e+01	1.793305e+03
1.920000e-06	6.435320e-06	2.730116e-08	4.647573e+01	1.787601e+03
1.930000e-06	6.365435e-06	2.719310e-08	4.597102e+01	1.781480e+03
1.940000e-06	6.293043e-06	2.711452e-08	4.544820e+01	1.774987e+03
1.950000e-06	6.218183e-06	2.700493e-08	4.490757e+01	1.768184e+03
1.960000e-06	6.140727e-06	2.689986e-08	4.434818e+01	1.761141e+03
1.970000e-06	6.060751e-06	2.681036e-08	4.377060e+01	1.753919e+03
1.980000e-06	5.978703e-06	2.667260e-08	4.317805e+01	1.746562e+03
1.990000e-06	5.894679e-06	2.660039e-08	4.257123e+01	1.739088e+03
2.000000e-06	5.808467e-06	2.646569e-08	4.194861e+01	1.731482e+03
2.010000e-06	5.720033e-06	2.633631e-08	4.130994e+01	1.723694e+03
2.020000e-06	5.629654e-06	2.619809e-08	4.065723e+01	1.715651e+03
2.030000e-06	5.537411e-06	2.606126e-08	3.999105e+01	1.707261e+03
2.040000e-06	5.443119e-06	2.593306e-08	3.931007e+01	1.698428e+03
2.050000e-06	5.346787e-06	2.578103e-08	3.861437e+01	1.689067e+03
2.060000e-06	5.248702e-06	2.564000e-08	3.790600e+01	1.679113e+03
2.070000e-06	5.148889e-06	2.546759e-08	3.718516e+01	1.668536e+03
2.080000e-06	5.047202e-06	2.530155e-08	3.645077e+01	1.657337e+03
2.090000e-06	4.943590e-06	2.512885e-08	3.570249e+01	1.645552e+03
2.100000e-06	4.838194e-06	2.496195e-08	3.494132e+01	1.633243e+03
2.110000e-06	4.731249e-06	2.477654e-08	3.416897e+01	1.620481e+03
2.120000e-06	4.622776e-06	2.457465e-08	3.338558e+01	1.607335e+03
2.130000e-06	4.512630e-06	2.436375e-08	3.259010e+01	1.593853e+03
2.140000e-06	4.400739e-06	2.414800e-08	3.178203e+01	1.580051e+03
2.150000e-06	4.287127e-06	2.393254e-08	3.096153e+01	1.565905e+03
2.160000e-06	4.171790e-06	2.371163e-08	3.012857e+01	1.551344e+03
2.170000e-06	4.054719e-06	2.348313e-08	2.928308e+01	1.536261e+03
2.180000e-06	3.936025e-06	2.323175e-08	2.842588e+01	1.520520e+03
2.190000e-06	3.815824e-06	2.297254e-08	2.755779e+01	1.503976e+03
2.200000e-06	3.694208e-06	2.269699e-08	2.667948e+01	1.486488e+03
2.210000e-06	3.571267e-06	2.241267e-08	2.579161e+01	1.467941e+03
2.220000e-06	3.446925e-06	2.211423e-08	2.489361e+01	1.448256e+03
2.230000e-06	3.321229e-06	2.180418e-08	2.398584e+01	1.427400e+03
2.240000e-06	3.194342e-06	2.147790e-08	2.306946e+01	1.405382e+03
2.250000e-06	3.066287e-06	2.113706e-08	2.214465e+01	1.382243e+03
2.260000e-06	2.937119e-06	2.078359e-08	2.121181e+01	1.358041e+03
2.270000e-06	2.806920e-06	2.041036e-08	2.027151e+01	1.332823e+03
2.280000e-06	2.675743e-06	2.001561e-08	1.932415e+01	1.306605e+03
2.290000e-06	2.543544e-06	1.959736e-08	1.836942e+01	1.279345e+03
2.300000e-06	2.410359e-06	1.915747e-08	1.740755e+01	1.250930e+03
2.310000e-06	2.276389e-06	1.868962e-08	1.644003e+01	1.221163e+03
2.320000e-06	2.141736e-06	1.819432e-08	1.546757e+01	1.189772e+03
2.330000e-06	2.006366e-06	1.766849e-08	1.448992e+01	1.156420e+03
2.340000e-06	1.870255e-06	1.711103e-08	1.350693e+01	1.120733e+03
2.350000e-06	1.733500e-06	1.651792e-08	1.251930e+01	1.082333e+03
2.360000e-06	1.596172e-06	1.588614e-08	1.152751e+01	1.040873e+03
2.370000e-06	1.458317e-06	1.521332e-08	1.053193e+01	9.960766e+02
2.380000e-06	1.320020e-06	1.449329e-08	9.533153e+00	9.477635e+02
2.390000e-06	1.181315e-06	1.372235e-08	8.531430e+00	8.958702e+02
2.400000e-06	1.042166e-06	1.289771e-08	7.526498e+00	8.404554e+02
2.410000e-06	9.025988e-07	1.201908e-08	6.518547e+00	7.816916e+02
2.420000e-06	7.627004e-07	1.108547e-08	5.508204e+00	7.198430e+02
2.430000e-06	6.224252e-07	1.009682e-08	4.495140e+00	6.552329e+02
2.440000e-06	4.818234e-07	9.058392e-09	3.479717e+00	5.882049e+02
2.450000e-06	3.409979e-07	7.976248e-09	2.462679e+00	5.190839e+02
2.460000e-06	1.999878e-07	6.860867e-09	1.444307e+00	4.481417e+02
2.470000e-06	5.887464e-08	5.721784e-09	4.251913e-01	3.755737e+02
2.480000e-06	-8.222211e-08	4.569829e-09	-5.938061e-01	3.014890e+02
2.490000e-06	-2.232881e-07	3.411498e-09	-1.612582e+00	2.259171e+02
2.500000e-06	-3.643133e-07	2.246347e-09	-2.631062e+00	1.488301e+02
2.510000e-06	-5.051945e-07	1.071941e-09	-3.648503e+00	7.017792e+01
2.520000e-06	-6.458573e-07	-1.184114e-10	-4.664366e+00	-1.006840e+01
2.530000e-06	-7.862364e-07	-1.332390e-09	-5.678180e+00	-9.187037e+01
2.540000e-06	-9.263163e-07	-2.575861e-09	-6.689834e+00	-1.750805e+02
2.550000e-06	-1.065999e-06	-3.851604e-09	-7.698623e+00	-2.594114e+02
2.560000e-06	-1.205211e-06	-5.157562e-09	-8.704005e+00	-3.444194e+02
2.570000e-06	-1.343955e-06	-6.483753e-09	-9.706013e+00	-4.295089e+02
2.580000e-06	-1.482238e-06	-7.812518e-09	-1.070469e+01	-5.139536e+02
2.590000e-06	-1.620006e-06	-9.123551e-09	-1.169965e+01	-5.969380e+02
2.600000e-06	-1.757134e-06	-1.039036e-08	-1.268998e+01	-6.776106e+02
2.610000e-06	-1.893520e-06	-1.158988e-08	-1.367496e+01	-7.551453e+02
2.620000e-06	-2.029210e-06	-1.271101e-08	-1.465490e+01	-8.288041e+02
2.630000e-06	-2.164241e-06	-1.374770e-08	-1.563009e+01	-8.979918e+02
2.640000e-06	-2.298499e-06	-1.470160e-08	-1.659971e+01	-9.622988e+02
2.650000e-06	-2.431822e-06	-1.557754e-08	-1.756256e+01	-1.021526e+03
2.660000e-06	-2.564121e-06	-1.638498e-08	-1.851802e+01	-1.075689e+03
2.670000e-06	-2.695423e-06	-1.713029e-08	-1.946628e+01	-1.125002e+03
2.680000e-06	-2.825755e-06	-1.781669e-08	-2.040753e+01	-1.169843e+03
2.690000e-06	-2.955103e-06	-1.845472e-08	-2.134168e+01	-1.210711e+03
2.700000e-06	-3.083392e-06	-1.904883e-08	-2.226818e+01	-1.248162e+03
2.710000e-06	-3.210644e-06	-1.960344e-08	-2.318719e+01	-1.282762e+03
2.720000e-06	-3.336820e-06	-2.012046e-08	-2.409843e+01	-1.315035e+03
2.730000e-06	-3.461666e-06	-2.059997e-08	-2.500007e+01	-1.345419e+03
2.740000e-06	-3.585170e-06	-2.104824e-08	-2.589201e+01	-1.374246e+03
2.750000e-06	-3.707484e-06	-2.146533e-08	-2.677536e+01	-1.401734e+03
2.760000e-06	-3.828464e-06	-2.185706e-08	-2.764908e+01	-1.427992e+03
2.770000e-06	-3.947996e-06	-2.222714e-08	-2.851233e+01	-1.453042e+03
2.780000e-06	-4.066070e-06	-2.257783e-08	-2.936506e+01	-1.476844e+03
2.790000e-06	-4.182535e-06	-2.291034e-08	-3.020617e+01	-1.499337e+03
2.800000e-06	-4.297266e-06	-2.322327e-08	-3.103475e+01	-1.520463e+03
2.810000e-06	-4.410294e-06	-2.351993e-08	-3.185104e+01	-1.540197e+03
2.820000e-06	-4.521597e-06	-2.380036e-08	-3.265486e+01	-1.558561e+03
2.830000e-06	-4.631213e-06	-2.406534e-08	-3.344651e+01	-1.575634e+03
2.840000e-06	-4.739308e-06	-2.431610e-08	-3.422717e+01	-1.591545e+03
2.850000e-06	-4.845900e-06	-2.455306e-08	-3.499697e+01	-1.606457e+03
2.860000e-06	-4.950824e-06	-2.477781e-08	-3.575473e+01	-1.620553e+03
2.870000e-06	-5.053885e-06	-2.499263e-08	-3.649903e+01	-1.634010e+03
2.880000e-06	-5.154978e-06	-2.519905e-08	-3.722913e+01	-1.646977e+03
2.890000e-06	-5.254139e-06	-2.539690e-08	-3.794527e+01	-1.659561e+03
2.900000e-06	-5.351508e-06	-2.558527e-08	-3.864846e+01	-1.671819e+03
2.910000e-06	-5.447075e-06	-2.576472e-08	-3.933865e+01	-1.683755e+03
2.920000e-06	-5.540614e-06	-2.593482e-08	-4.001418e+01	-1.695326e+03
2.930000e-06	-5.632120e-06	-2.609602e-08	-4.067504e+01	-1.706461e+03
2.940000e-06	-5.721663e-06	-2.624868e-08	-4.132171e+01	-1.717072e+03
