# Temperatura_=_41.45
# Concentracion g/m^3_=_28370.0
# C_Vs_to_Am_M_A/Vsm_=_65563218390.804596
# pendiente_HvsI_1/m_=_3716.3
# ordenada_HvsI_A/m_=_1297.0
# frecuencia_Hz_=_302403.2728540148

Tiempo_(s)	Campo_(V.s)	Magnetizacion_(V.s)	Campo_(kA/m)	Magnetizacion_(A/m)
0.000000e+00	-7.337507e-06	-2.612557e-08	-5.318530e+01	-1.710562e+03
1.000000e-08	-7.333955e-06	-2.612256e-08	-5.315956e+01	-1.709776e+03
2.000000e-08	-7.328028e-06	-2.611188e-08	-5.311660e+01	-1.708890e+03
3.000000e-08	-7.319776e-06	-2.609628e-08	-5.305678e+01	-1.707960e+03
4.000000e-08	-7.308943e-06	-2.608016e-08	-5.297826e+01	-1.707027e+03
5.000000e-08	-7.295367e-06	-2.606550e-08	-5.287985e+01	-1.706110e+03
6.000000e-08	-7.279148e-06	-2.605046e-08	-5.276229e+01	-1.705203e+03
7.000000e-08	-7.260620e-06	-2.603346e-08	-5.262799e+01	-1.704274e+03
8.000000e-08	-7.239972e-06	-2.601812e-08	-5.247833e+01	-1.703279e+03
9.000000e-08	-7.216789e-06	-2.602185e-08	-5.231029e+01	-1.702162e+03
1.000000e-07	-7.190638e-06	-2.601320e-08	-5.212074e+01	-1.700869e+03
1.100000e-07	-7.161611e-06	-2.594760e-08	-5.191034e+01	-1.699355e+03
1.200000e-07	-7.130070e-06	-2.589158e-08	-5.168171e+01	-1.697594e+03
1.300000e-07	-7.096067e-06	-2.585586e-08	-5.143525e+01	-1.695579e+03
1.400000e-07	-7.059780e-06	-2.581437e-08	-5.117223e+01	-1.693328e+03
1.500000e-07	-7.021669e-06	-2.577228e-08	-5.089598e+01	-1.690871e+03
1.600000e-07	-6.981565e-06	-2.576570e-08	-5.060529e+01	-1.688251e+03
1.700000e-07	-6.939004e-06	-2.574782e-08	-5.029679e+01	-1.685509e+03
1.800000e-07	-6.893925e-06	-2.563368e-08	-4.997004e+01	-1.682681e+03
1.900000e-07	-6.846251e-06	-2.562555e-08	-4.962448e+01	-1.679781e+03
2.000000e-07	-6.795728e-06	-2.558852e-08	-4.925826e+01	-1.676804e+03
2.100000e-07	-6.742565e-06	-2.548650e-08	-4.887291e+01	-1.673723e+03
2.200000e-07	-6.686942e-06	-2.546070e-08	-4.846974e+01	-1.670490e+03
2.300000e-07	-6.628703e-06	-2.539508e-08	-4.804760e+01	-1.667043e+03
2.400000e-07	-6.568034e-06	-2.534183e-08	-4.760784e+01	-1.663319e+03
2.500000e-07	-6.504995e-06	-2.527679e-08	-4.715091e+01	-1.659259e+03
2.600000e-07	-6.439437e-06	-2.520297e-08	-4.667572e+01	-1.654824e+03
2.700000e-07	-6.371452e-06	-2.512954e-08	-4.618294e+01	-1.649995e+03
2.800000e-07	-6.301122e-06	-2.504852e-08	-4.567316e+01	-1.644781e+03
2.900000e-07	-6.228398e-06	-2.497459e-08	-4.514602e+01	-1.639216e+03
3.000000e-07	-6.153181e-06	-2.489008e-08	-4.460082e+01	-1.633354e+03
3.100000e-07	-6.075391e-06	-2.482375e-08	-4.403696e+01	-1.627257e+03
3.200000e-07	-5.995063e-06	-2.473729e-08	-4.345471e+01	-1.620985e+03
3.300000e-07	-5.912555e-06	-2.461362e-08	-4.285666e+01	-1.614587e+03
3.400000e-07	-5.828122e-06	-2.451106e-08	-4.224465e+01	-1.608085e+03
3.500000e-07	-5.741743e-06	-2.440653e-08	-4.161854e+01	-1.601472e+03
3.600000e-07	-5.653418e-06	-2.430386e-08	-4.097833e+01	-1.594710e+03
3.700000e-07	-5.562987e-06	-2.419434e-08	-4.032284e+01	-1.587734e+03
3.800000e-07	-5.470475e-06	-2.407547e-08	-3.965228e+01	-1.580459e+03
3.900000e-07	-5.376118e-06	-2.394495e-08	-3.896834e+01	-1.572791e+03
4.000000e-07	-5.279876e-06	-2.380717e-08	-3.827074e+01	-1.564644e+03
4.100000e-07	-5.181663e-06	-2.368474e-08	-3.755885e+01	-1.555949e+03
4.200000e-07	-5.081621e-06	-2.355237e-08	-3.683371e+01	-1.546666e+03
4.300000e-07	-4.979822e-06	-2.340860e-08	-3.609582e+01	-1.536788e+03
4.400000e-07	-4.876275e-06	-2.324784e-08	-3.534527e+01	-1.526340e+03
4.500000e-07	-4.771025e-06	-2.308416e-08	-3.458238e+01	-1.515372e+03
4.600000e-07	-4.664004e-06	-2.291438e-08	-3.380664e+01	-1.503951e+03
4.700000e-07	-4.555257e-06	-2.274043e-08	-3.301840e+01	-1.492142e+03
4.800000e-07	-4.444966e-06	-2.256672e-08	-3.221896e+01	-1.479994e+03
4.900000e-07	-4.333076e-06	-2.237968e-08	-3.140794e+01	-1.467528e+03
5.000000e-07	-4.219457e-06	-2.217294e-08	-3.058438e+01	-1.454728e+03
5.100000e-07	-4.104151e-06	-2.195304e-08	-2.974859e+01	-1.441532e+03
5.200000e-07	-3.987226e-06	-2.173665e-08	-2.890107e+01	-1.427844e+03
5.300000e-07	-3.868818e-06	-2.151262e-08	-2.804280e+01	-1.413537e+03
5.400000e-07	-3.748946e-06	-2.127731e-08	-2.717392e+01	-1.398469e+03
5.500000e-07	-3.627640e-06	-2.102899e-08	-2.629465e+01	-1.382502e+03
5.600000e-07	-3.504946e-06	-2.076628e-08	-2.540531e+01	-1.365520e+03
5.700000e-07	-3.380906e-06	-2.048715e-08	-2.450621e+01	-1.347439e+03
5.800000e-07	-3.255647e-06	-2.019462e-08	-2.359829e+01	-1.328217e+03
5.900000e-07	-3.129264e-06	-1.989403e-08	-2.268221e+01	-1.307854e+03
6.000000e-07	-3.001691e-06	-1.957755e-08	-2.175750e+01	-1.286381e+03
6.100000e-07	-2.872927e-06	-1.924230e-08	-2.082417e+01	-1.263848e+03
6.200000e-07	-2.743093e-06	-1.888662e-08	-1.988308e+01	-1.240296e+03
6.300000e-07	-2.612212e-06	-1.851446e-08	-1.893440e+01	-1.215737e+03
6.400000e-07	-2.480314e-06	-1.812353e-08	-1.797835e+01	-1.190131e+03
6.500000e-07	-2.347574e-06	-1.770845e-08	-1.701619e+01	-1.163366e+03
6.600000e-07	-2.214123e-06	-1.726613e-08	-1.604888e+01	-1.135252e+03
6.700000e-07	-2.079936e-06	-1.679550e-08	-1.507624e+01	-1.105523e+03
6.800000e-07	-1.945021e-06	-1.629637e-08	-1.409832e+01	-1.073852e+03
6.900000e-07	-1.809406e-06	-1.576644e-08	-1.311533e+01	-1.039878e+03
7.000000e-07	-1.673076e-06	-1.520217e-08	-1.212715e+01	-1.003236e+03
7.100000e-07	-1.536063e-06	-1.459676e-08	-1.113402e+01	-9.635999e+02
7.200000e-07	-1.398536e-06	-1.394909e-08	-1.013717e+01	-9.207184e+02
7.300000e-07	-1.260567e-06	-1.325721e-08	-9.137115e+00	-8.744445e+02
7.400000e-07	-1.122180e-06	-1.251645e-08	-8.134030e+00	-8.247580e+02
7.500000e-07	-9.833604e-07	-1.172662e-08	-7.127805e+00	-7.717718e+02
7.600000e-07	-8.441531e-07	-1.088956e-08	-6.118773e+00	-7.157230e+02
7.700000e-07	-7.046434e-07	-1.000308e-08	-5.107548e+00	-6.569498e+02
7.800000e-07	-5.647972e-07	-9.067082e-09	-4.093885e+00	-5.958553e+02
7.900000e-07	-4.246471e-07	-8.089773e-09	-3.078019e+00	-5.328640e+02
8.000000e-07	-2.843095e-07	-7.081125e-09	-2.060793e+00	-4.683765e+02
8.100000e-07	-1.438031e-07	-6.052773e-09	-1.042345e+00	-4.027280e+02
8.200000e-07	-3.147342e-09	-5.014635e-09	-2.281325e-02	-3.361569e+02
8.300000e-07	1.375646e-07	-3.975262e-09	9.971256e-01	-2.687885e+02
8.400000e-07	2.782530e-07	-2.939017e-09	2.016894e+00	-2.006355e+02
8.500000e-07	4.187840e-07	-1.903096e-09	3.035521e+00	-1.316166e+02
8.600000e-07	5.591151e-07	-8.637286e-10	4.052699e+00	-6.159092e+01
8.700000e-07	6.992109e-07	1.879646e-10	5.068171e+00	9.596357e+00
8.800000e-07	8.390170e-07	1.261634e-09	6.081545e+00	8.206270e+01
8.900000e-07	9.784988e-07	2.364977e-09	7.092566e+00	1.558383e+02
9.000000e-07	1.117544e-06	3.501103e-09	8.100420e+00	2.308246e+02
9.100000e-07	1.256130e-06	4.666331e-09	9.104951e+00	3.067666e+02
9.200000e-07	1.394265e-06	5.851175e-09	1.010621e+01	3.832442e+02
9.300000e-07	1.531961e-06	7.043196e-09	1.110429e+01	4.596836e+02
9.400000e-07	1.669136e-06	8.226021e-09	1.209859e+01	5.353878e+02
9.500000e-07	1.805613e-06	9.379089e-09	1.308783e+01	6.095842e+02
9.600000e-07	1.941298e-06	1.048446e-08	1.407133e+01	6.814827e+02
9.700000e-07	2.076175e-06	1.152656e-08	1.504898e+01	7.503379e+02
9.800000e-07	2.210274e-06	1.249713e-08	1.602099e+01	8.155082e+02
9.900000e-07	2.343617e-06	1.339568e-08	1.698751e+01	8.765055e+02
1.000000e-06	2.476155e-06	1.422669e-08	1.794820e+01	9.330282e+02
1.010000e-06	2.607768e-06	1.499339e-08	1.890218e+01	9.849761e+02
1.020000e-06	2.738344e-06	1.569886e-08	1.984866e+01	1.032445e+03
1.030000e-06	2.867872e-06	1.635072e-08	2.078753e+01	1.075700e+03
1.040000e-06	2.996347e-06	1.695668e-08	2.171877e+01	1.115141e+03
1.050000e-06	3.123709e-06	1.752023e-08	2.264194e+01	1.151247e+03
1.060000e-06	3.249948e-06	1.804319e-08	2.355698e+01	1.184527e+03
1.070000e-06	3.375079e-06	1.852965e-08	2.446398e+01	1.215469e+03
1.080000e-06	3.499104e-06	1.898367e-08	2.536297e+01	1.244500e+03
1.090000e-06	3.621881e-06	1.940665e-08	2.625290e+01	1.271953e+03
1.100000e-06	3.743303e-06	1.980072e-08	2.713302e+01	1.298062e+03
1.110000e-06	3.863344e-06	2.017197e-08	2.800312e+01	1.322954e+03
1.120000e-06	3.981957e-06	2.052514e-08	2.886288e+01	1.346673e+03
1.130000e-06	4.099165e-06	2.085729e-08	2.971245e+01	1.369199e+03
1.140000e-06	4.214808e-06	2.116866e-08	3.055068e+01	1.390481e+03
1.150000e-06	4.328808e-06	2.146177e-08	3.137700e+01	1.410465e+03
1.160000e-06	4.441167e-06	2.173973e-08	3.219142e+01	1.429124e+03
1.170000e-06	4.551851e-06	2.200081e-08	3.299371e+01	1.446470e+03
1.180000e-06	4.661018e-06	2.224573e-08	3.378500e+01	1.462569e+03
1.190000e-06	4.768656e-06	2.247962e-08	3.456520e+01	1.477533e+03
1.200000e-06	4.874619e-06	2.270158e-08	3.533327e+01	1.491512e+03
1.210000e-06	4.978774e-06	2.291186e-08	3.608822e+01	1.504676e+03
1.220000e-06	5.081099e-06	2.311180e-08	3.682992e+01	1.517191e+03
1.230000e-06	5.181630e-06	2.330377e-08	3.755861e+01	1.529204e+03
1.240000e-06	5.280216e-06	2.348492e-08	3.827321e+01	1.540822e+03
1.250000e-06	5.376748e-06	2.365261e-08	3.897291e+01	1.552104e+03
1.260000e-06	5.471283e-06	2.381157e-08	3.965814e+01	1.563060e+03
1.270000e-06	5.563969e-06	2.396607e-08	4.032997e+01	1.573653e+03
1.280000e-06	5.654747e-06	2.411436e-08	4.098796e+01	1.583817e+03
1.290000e-06	5.743382e-06	2.425513e-08	4.163042e+01	1.593469e+03
1.300000e-06	5.829850e-06	2.438950e-08	4.225718e+01	1.602532e+03
1.310000e-06	5.914297e-06	2.451720e-08	4.286929e+01	1.610947e+03
1.320000e-06	5.996664e-06	2.463641e-08	4.346632e+01	1.618689e+03
1.330000e-06	6.076833e-06	2.474788e-08	4.404741e+01	1.625774e+03
1.340000e-06	6.154840e-06	2.485317e-08	4.461284e+01	1.632256e+03
1.350000e-06	6.230576e-06	2.495090e-08	4.516181e+01	1.638221e+03
1.360000e-06	6.303845e-06	2.504096e-08	4.569289e+01	1.643776e+03
1.370000e-06	6.374700e-06	2.512656e-08	4.620648e+01	1.649035e+03
1.380000e-06	6.443305e-06	2.520937e-08	4.670376e+01	1.654098e+03
1.390000e-06	6.509616e-06	2.528742e-08	4.718440e+01	1.659043e+03
1.400000e-06	6.573549e-06	2.536013e-08	4.764782e+01	1.663914e+03
1.410000e-06	6.635218e-06	2.542963e-08	4.809482e+01	1.668717e+03
1.420000e-06	6.694715e-06	2.549530e-08	4.852608e+01	1.673424e+03
1.430000e-06	6.751840e-06	2.555765e-08	4.894015e+01	1.677979e+03
1.440000e-06	6.806487e-06	2.561680e-08	4.933625e+01	1.682311e+03
1.450000e-06	6.858570e-06	2.567289e-08	4.971377e+01	1.686345e+03
1.460000e-06	6.907873e-06	2.572641e-08	5.007114e+01	1.690020e+03
1.470000e-06	6.954503e-06	2.577595e-08	5.040913e+01	1.693298e+03
1.480000e-06	6.998732e-06	2.582194e-08	5.072973e+01	1.696167e+03
1.490000e-06	7.040476e-06	2.586477e-08	5.103230e+01	1.698650e+03
1.500000e-06	7.079633e-06	2.590365e-08	5.131612e+01	1.700793e+03
1.510000e-06	7.116339e-06	2.593906e-08	5.158219e+01	1.702663e+03
1.520000e-06	7.150587e-06	2.597144e-08	5.183043e+01	1.704336e+03
1.530000e-06	7.182223e-06	2.599955e-08	5.205974e+01	1.705881e+03
1.540000e-06	7.211333e-06	2.602390e-08	5.227074e+01	1.707353e+03
1.550000e-06	7.237939e-06	2.604439e-08	5.246359e+01	1.708783e+03
1.560000e-06	7.261796e-06	2.606279e-08	5.263652e+01	1.710175e+03
1.570000e-06	7.283027e-06	2.607892e-08	5.279041e+01	1.711505e+03
1.580000e-06	7.301820e-06	2.609135e-08	5.292663e+01	1.712731e+03
1.590000e-06	7.317934e-06	2.610163e-08	5.304343e+01	1.713795e+03
1.600000e-06	7.331197e-06	2.610905e-08	5.313957e+01	1.714640e+03
1.610000e-06	7.341613e-06	2.611599e-08	5.321507e+01	1.715216e+03
1.620000e-06	7.349221e-06	2.612145e-08	5.327021e+01	1.715493e+03
1.630000e-06	7.354271e-06	2.612517e-08	5.330682e+01	1.715466e+03
1.640000e-06	7.356807e-06	2.612718e-08	5.332520e+01	1.715153e+03
1.650000e-06	7.356654e-06	2.612524e-08	5.332409e+01	1.714597e+03
1.660000e-06	7.354015e-06	2.611753e-08	5.330496e+01	1.713856e+03
1.670000e-06	7.348961e-06	2.610534e-08	5.326833e+01	1.712994e+03
1.680000e-06	7.341345e-06	2.609391e-08	5.321313e+01	1.712071e+03
1.690000e-06	7.331327e-06	2.608066e-08	5.314051e+01	1.711135e+03
1.700000e-06	7.318791e-06	2.606872e-08	5.304964e+01	1.710211e+03
1.710000e-06	7.303621e-06	2.605774e-08	5.293968e+01	1.709301e+03
1.720000e-06	7.286174e-06	2.604461e-08	5.281322e+01	1.708382e+03
1.730000e-06	7.266656e-06	2.601460e-08	5.267175e+01	1.707413e+03
1.740000e-06	7.244611e-06	2.595174e-08	5.251195e+01	1.706340e+03
1.750000e-06	7.219305e-06	2.592876e-08	5.232853e+01	1.705107e+03
1.760000e-06	7.190576e-06	2.594326e-08	5.212028e+01	1.703667e+03
1.770000e-06	7.158991e-06	2.592788e-08	5.189135e+01	1.701985e+03
1.780000e-06	7.125276e-06	2.591270e-08	5.164696e+01	1.700050e+03
1.790000e-06	7.089861e-06	2.591280e-08	5.139026e+01	1.697871e+03
1.800000e-06	7.052825e-06	2.585146e-08	5.112181e+01	1.695474e+03
1.810000e-06	7.013484e-06	2.574937e-08	5.083665e+01	1.692900e+03
1.820000e-06	6.971431e-06	2.578248e-08	5.053183e+01	1.690192e+03
1.830000e-06	6.927177e-06	2.575520e-08	5.021106e+01	1.687387e+03
1.840000e-06	6.880538e-06	2.572783e-08	4.987301e+01	1.684508e+03
1.850000e-06	6.831195e-06	2.571838e-08	4.951535e+01	1.681557e+03
1.860000e-06	6.779196e-06	2.559511e-08	4.913843e+01	1.678512e+03
1.870000e-06	6.724431e-06	2.557472e-08	4.874148e+01	1.675333e+03
1.880000e-06	6.667186e-06	2.550138e-08	4.832654e+01	1.671960e+03
1.890000e-06	6.607501e-06	2.544337e-08	4.789392e+01	1.668331e+03
1.900000e-06	6.545170e-06	2.540411e-08	4.744211e+01	1.664383e+03
1.910000e-06	6.480361e-06	2.529497e-08	4.697235e+01	1.660070e+03
1.920000e-06	6.413164e-06	2.525734e-08	4.648528e+01	1.655366e+03
1.930000e-06	6.343531e-06	2.516642e-08	4.598055e+01	1.650272e+03
1.940000e-06	6.271415e-06	2.510221e-08	4.545783e+01	1.644813e+03
1.950000e-06	6.196858e-06	2.501923e-08	4.491740e+01	1.639038e+03
1.960000e-06	6.119764e-06	2.490823e-08	4.435860e+01	1.633008e+03
1.970000e-06	6.040171e-06	2.484972e-08	4.378168e+01	1.626786e+03
1.980000e-06	5.958426e-06	2.473450e-08	4.318915e+01	1.620423e+03
1.990000e-06	5.874647e-06	2.465854e-08	4.258189e+01	1.613952e+03
2.000000e-06	5.788753e-06	2.455330e-08	4.195929e+01	1.607376e+03
2.010000e-06	5.700683e-06	2.444037e-08	4.132092e+01	1.600667e+03
2.020000e-06	5.610606e-06	2.432571e-08	4.066801e+01	1.593767e+03
2.030000e-06	5.518618e-06	2.420795e-08	4.000124e+01	1.586596e+03
2.040000e-06	5.424634e-06	2.411561e-08	3.932000e+01	1.579063e+03
2.050000e-06	5.328685e-06	2.398355e-08	3.862453e+01	1.571077e+03
2.060000e-06	5.230960e-06	2.384656e-08	3.791617e+01	1.562563e+03
2.070000e-06	5.131569e-06	2.369120e-08	3.719575e+01	1.553470e+03
2.080000e-06	5.030372e-06	2.354767e-08	3.646223e+01	1.543780e+03
2.090000e-06	4.927200e-06	2.339900e-08	3.571439e+01	1.533509e+03
2.100000e-06	4.822147e-06	2.325066e-08	3.495293e+01	1.522700e+03
2.110000e-06	4.715535e-06	2.309423e-08	3.418016e+01	1.511416e+03
2.120000e-06	4.607416e-06	2.291508e-08	3.339647e+01	1.499724e+03
2.130000e-06	4.497690e-06	2.272558e-08	3.260113e+01	1.487679e+03
2.140000e-06	4.386253e-06	2.253655e-08	3.179339e+01	1.475315e+03
2.150000e-06	4.273102e-06	2.235579e-08	3.097322e+01	1.462625e+03
2.160000e-06	4.158304e-06	2.215722e-08	3.014112e+01	1.449564e+03
2.170000e-06	4.041791e-06	2.194642e-08	2.929658e+01	1.436045e+03
2.180000e-06	3.923584e-06	2.171672e-08	2.843977e+01	1.421950e+03
2.190000e-06	3.803774e-06	2.147741e-08	2.757134e+01	1.407141e+03
2.200000e-06	3.682519e-06	2.122860e-08	2.669243e+01	1.391476e+03
2.210000e-06	3.559950e-06	2.097777e-08	2.580400e+01	1.374830e+03
2.220000e-06	3.436064e-06	2.071660e-08	2.490602e+01	1.357107e+03
2.230000e-06	3.310908e-06	2.043672e-08	2.399884e+01	1.338252e+03
2.240000e-06	3.184546e-06	2.013865e-08	2.308291e+01	1.318252e+03
2.250000e-06	3.056940e-06	1.982658e-08	2.215798e+01	1.297130e+03
2.260000e-06	2.928148e-06	1.950167e-08	2.122443e+01	1.274931e+03
2.270000e-06	2.798316e-06	1.915752e-08	2.028336e+01	1.251701e+03
2.280000e-06	2.667543e-06	1.879614e-08	1.933546e+01	1.227467e+03
2.290000e-06	2.535832e-06	1.841128e-08	1.838076e+01	1.202204e+03
2.300000e-06	2.403197e-06	1.800529e-08	1.741938e+01	1.175827e+03
2.310000e-06	2.269746e-06	1.757418e-08	1.645206e+01	1.148171e+03
2.320000e-06	2.135559e-06	1.711858e-08	1.547942e+01	1.118993e+03
2.330000e-06	2.000708e-06	1.663290e-08	1.450196e+01	1.087983e+03
2.340000e-06	1.865144e-06	1.611285e-08	1.351934e+01	1.054788e+03
2.350000e-06	1.728772e-06	1.555749e-08	1.253086e+01	1.019040e+03
2.360000e-06	1.591769e-06	1.496414e-08	1.153780e+01	9.803965e+02
2.370000e-06	1.454389e-06	1.433304e-08	1.054202e+01	9.385785e+02
2.380000e-06	1.316627e-06	1.365861e-08	9.543464e+00	8.934021e+02
2.390000e-06	1.178434e-06	1.293773e-08	8.541783e+00	8.448052e+02
2.400000e-06	1.039804e-06	1.216726e-08	7.536933e+00	7.928579e+02
2.410000e-06	9.007181e-07	1.134545e-08	6.528779e+00	7.377594e+02
2.420000e-06	7.612497e-07	1.047569e-08	5.517855e+00	6.798188e+02
2.430000e-06	6.215441e-07	9.557658e-09	4.505210e+00	6.194228e+02
2.440000e-06	4.816389e-07	8.593145e-09	3.491119e+00	5.569940e+02
2.450000e-06	3.415521e-07	7.590193e-09	2.475712e+00	4.929455e+02
2.460000e-06	2.013292e-07	6.561080e-09	1.459318e+00	4.276376e+02
2.470000e-06	6.093763e-08	5.520176e-09	4.417013e-01	3.613424e+02
2.480000e-06	-7.956373e-08	4.475922e-09	-5.767110e-01	2.942222e+02
2.490000e-06	-2.200694e-07	3.432310e-09	-1.595154e+00	2.263249e+02
2.500000e-06	-3.605187e-07	2.389505e-09	-2.613190e+00	1.575962e+02
2.510000e-06	-5.008237e-07	1.344993e-09	-3.630179e+00	8.790995e+01
2.520000e-06	-6.409339e-07	2.906783e-10	-4.645755e+00	1.711026e+01
2.530000e-06	-7.808228e-07	-7.806437e-10	-5.659728e+00	-5.493797e+01
2.540000e-06	-9.204067e-07	-1.873820e-09	-6.671491e+00	-1.282980e+02
2.550000e-06	-1.059598e-06	-2.996467e-09	-7.680405e+00	-2.029165e+02
2.560000e-06	-1.198330e-06	-4.153554e-09	-8.685997e+00	-2.785907e+02
2.570000e-06	-1.336588e-06	-5.340044e-09	-9.688147e+00	-3.549532e+02
2.580000e-06	-1.474371e-06	-6.539208e-09	-1.068685e+01	-4.314773e+02
2.590000e-06	-1.611682e-06	-7.735051e-09	-1.168214e+01	-5.075009e+02
2.600000e-06	-1.748419e-06	-8.907453e-09	-1.267327e+01	-5.822700e+02
2.610000e-06	-1.884471e-06	-1.003632e-08	-1.365943e+01	-6.549933e+02
2.620000e-06	-2.019745e-06	-1.110777e-08	-1.463995e+01	-7.249041e+02
2.630000e-06	-2.154181e-06	-1.211209e-08	-1.561440e+01	-7.913217e+02
2.640000e-06	-2.287819e-06	-1.304638e-08	-1.658306e+01	-8.537041e+02
2.650000e-06	-2.420638e-06	-1.390891e-08	-1.754579e+01	-9.116872e+02
2.660000e-06	-2.552530e-06	-1.470238e-08	-1.850180e+01	-9.651057e+02
2.670000e-06	-2.683406e-06	-1.543410e-08	-1.945044e+01	-1.013994e+03
2.680000e-06	-2.813293e-06	-1.611082e-08	-2.039192e+01	-1.058567e+03
2.690000e-06	-2.942206e-06	-1.673997e-08	-2.132634e+01	-1.099186e+03
2.700000e-06	-3.070057e-06	-1.732453e-08	-2.225305e+01	-1.136311e+03
2.710000e-06	-3.196846e-06	-1.786846e-08	-2.317207e+01	-1.170445e+03
2.720000e-06	-3.322546e-06	-1.837276e-08	-2.408320e+01	-1.202090e+03
2.730000e-06	-3.447003e-06	-1.884130e-08	-2.498531e+01	-1.231695e+03
2.740000e-06	-3.570123e-06	-1.928006e-08	-2.587774e+01	-1.259626e+03
2.750000e-06	-3.691978e-06	-1.969025e-08	-2.676099e+01	-1.286150e+03
2.760000e-06	-3.812573e-06	-2.007408e-08	-2.763511e+01	-1.311426e+03
2.770000e-06	-3.931710e-06	-2.043304e-08	-2.849867e+01	-1.335524e+03
2.780000e-06	-4.049316e-06	-2.077075e-08	-2.935113e+01	-1.358439e+03
2.790000e-06	-4.165320e-06	-2.108898e-08	-3.019197e+01	-1.380129e+03
2.800000e-06	-4.279618e-06	-2.138933e-08	-3.102045e+01	-1.400536e+03
2.810000e-06	-4.392250e-06	-2.167466e-08	-3.183685e+01	-1.419623e+03
2.820000e-06	-4.503268e-06	-2.194432e-08	-3.264156e+01	-1.437388e+03
2.830000e-06	-4.612635e-06	-2.219830e-08	-3.343430e+01	-1.453879e+03
2.840000e-06	-4.720444e-06	-2.243894e-08	-3.421574e+01	-1.469195e+03
2.850000e-06	-4.826727e-06	-2.266664e-08	-3.498613e+01	-1.483474e+03
2.860000e-06	-4.931302e-06	-2.288213e-08	-3.574413e+01	-1.496882e+03
2.870000e-06	-5.033999e-06	-2.308625e-08	-3.648852e+01	-1.509590e+03
2.880000e-06	-5.134814e-06	-2.327960e-08	-3.721927e+01	-1.521752e+03
2.890000e-06	-5.233768e-06	-2.346294e-08	-3.793653e+01	-1.533490e+03
2.900000e-06	-5.330849e-06	-2.363720e-08	-3.864021e+01	-1.544878e+03
2.910000e-06	-5.426025e-06	-2.380266e-08	-3.933009e+01	-1.555942e+03
2.920000e-06	-5.519264e-06	-2.395980e-08	-4.000592e+01	-1.566659e+03
2.930000e-06	-5.610560e-06	-2.410963e-08	-4.066767e+01	-1.576971e+03
2.940000e-06	-5.699889e-06	-2.425215e-08	-4.131517e+01	-1.586798e+03
