# Temperatura_=_30.74
# Concentracion g/m^3_=_28370.0
# C_Vs_to_Am_M_A/Vsm_=_65563218390.804596
# pendiente_HvsI_1/m_=_3716.3
# ordenada_HvsI_A/m_=_1297.0
# frecuencia_Hz_=_302403.6029370043

Tiempo_(s)	Campo_(V.s)	Magnetizacion_(V.s)	Campo_(kA/m)	Magnetizacion_(A/m)
0.000000e+00	-7.339265e-06	-2.620162e-08	-5.318452e+01	-1.715341e+03
1.000000e-08	-7.335906e-06	-2.620136e-08	-5.316017e+01	-1.714533e+03
2.000000e-08	-7.330158e-06	-2.619098e-08	-5.311852e+01	-1.713595e+03
3.000000e-08	-7.322053e-06	-2.617599e-08	-5.305979e+01	-1.712592e+03
4.000000e-08	-7.311376e-06	-2.615926e-08	-5.298242e+01	-1.711574e+03
5.000000e-08	-7.297985e-06	-2.614043e-08	-5.288538e+01	-1.710571e+03
6.000000e-08	-7.281864e-06	-2.611958e-08	-5.276855e+01	-1.709591e+03
7.000000e-08	-7.263432e-06	-2.609929e-08	-5.263499e+01	-1.708614e+03
8.000000e-08	-7.243013e-06	-2.607564e-08	-5.248702e+01	-1.707605e+03
9.000000e-08	-7.220164e-06	-2.611185e-08	-5.232145e+01	-1.706510e+03
1.000000e-07	-7.194281e-06	-2.611025e-08	-5.213388e+01	-1.705277e+03
1.100000e-07	-7.165478e-06	-2.602301e-08	-5.192516e+01	-1.703856e+03
1.200000e-07	-7.134193e-06	-2.596764e-08	-5.169844e+01	-1.702210e+03
1.300000e-07	-7.100362e-06	-2.593299e-08	-5.145329e+01	-1.700322e+03
1.400000e-07	-7.064213e-06	-2.586281e-08	-5.119133e+01	-1.698195e+03
1.500000e-07	-7.026245e-06	-2.578409e-08	-5.091619e+01	-1.695849e+03
1.600000e-07	-6.986255e-06	-2.586343e-08	-5.062641e+01	-1.693318e+03
1.700000e-07	-6.943780e-06	-2.584903e-08	-5.031861e+01	-1.690637e+03
1.800000e-07	-6.898905e-06	-2.569937e-08	-4.999342e+01	-1.687839e+03
1.900000e-07	-6.851540e-06	-2.573660e-08	-4.965018e+01	-1.684943e+03
2.000000e-07	-6.801296e-06	-2.564599e-08	-4.928608e+01	-1.681950e+03
2.100000e-07	-6.748316e-06	-2.553295e-08	-4.890216e+01	-1.678840e+03
2.200000e-07	-6.692811e-06	-2.552692e-08	-4.849994e+01	-1.675573e+03
2.300000e-07	-6.634742e-06	-2.547183e-08	-4.807914e+01	-1.672097e+03
2.400000e-07	-6.574228e-06	-2.543750e-08	-4.764062e+01	-1.668352e+03
2.500000e-07	-6.511417e-06	-2.531878e-08	-4.718545e+01	-1.664284e+03
2.600000e-07	-6.446090e-06	-2.526440e-08	-4.671206e+01	-1.659850e+03
2.700000e-07	-6.378216e-06	-2.521310e-08	-4.622021e+01	-1.655031e+03
2.800000e-07	-6.308054e-06	-2.511259e-08	-4.571177e+01	-1.649830e+03
2.900000e-07	-6.235531e-06	-2.503807e-08	-4.518623e+01	-1.644275e+03
3.000000e-07	-6.160476e-06	-2.496935e-08	-4.464234e+01	-1.638414e+03
3.100000e-07	-6.082809e-06	-2.490244e-08	-4.407952e+01	-1.632305e+03
3.200000e-07	-6.002599e-06	-2.476524e-08	-4.349827e+01	-1.626008e+03
3.300000e-07	-5.920232e-06	-2.467509e-08	-4.290139e+01	-1.619572e+03
3.400000e-07	-5.835936e-06	-2.459752e-08	-4.229053e+01	-1.613024e+03
3.500000e-07	-5.749770e-06	-2.447150e-08	-4.166613e+01	-1.606364e+03
3.600000e-07	-5.661619e-06	-2.436827e-08	-4.102733e+01	-1.599559e+03
3.700000e-07	-5.571264e-06	-2.426669e-08	-4.037257e+01	-1.592550e+03
3.800000e-07	-5.478873e-06	-2.414750e-08	-3.970305e+01	-1.585254e+03
3.900000e-07	-5.384623e-06	-2.400605e-08	-3.902006e+01	-1.577580e+03
4.000000e-07	-5.288451e-06	-2.388283e-08	-3.832314e+01	-1.569438e+03
4.100000e-07	-5.190312e-06	-2.375658e-08	-3.761198e+01	-1.560755e+03
4.200000e-07	-5.090393e-06	-2.361116e-08	-3.688790e+01	-1.551483e+03
4.300000e-07	-4.988755e-06	-2.346562e-08	-3.615137e+01	-1.541606e+03
4.400000e-07	-4.885318e-06	-2.331767e-08	-3.540181e+01	-1.531140e+03
4.500000e-07	-4.780115e-06	-2.315633e-08	-3.463945e+01	-1.520131e+03
4.600000e-07	-4.673135e-06	-2.297919e-08	-3.386421e+01	-1.508642e+03
4.700000e-07	-4.564505e-06	-2.280295e-08	-3.307702e+01	-1.496739e+03
4.800000e-07	-4.454348e-06	-2.262320e-08	-3.227876e+01	-1.484476e+03
4.900000e-07	-4.342534e-06	-2.242906e-08	-3.146849e+01	-1.471883e+03
5.000000e-07	-4.228948e-06	-2.222479e-08	-3.064538e+01	-1.458953e+03
5.100000e-07	-4.113604e-06	-2.201797e-08	-2.980953e+01	-1.445637e+03
5.200000e-07	-3.996658e-06	-2.179954e-08	-2.896207e+01	-1.431846e+03
5.300000e-07	-3.878302e-06	-2.156693e-08	-2.810440e+01	-1.417459e+03
5.400000e-07	-3.758547e-06	-2.132621e-08	-2.723658e+01	-1.402336e+03
5.500000e-07	-3.637353e-06	-2.107934e-08	-2.635835e+01	-1.386335e+03
5.600000e-07	-3.514729e-06	-2.081782e-08	-2.546974e+01	-1.369331e+03
5.700000e-07	-3.390733e-06	-2.053913e-08	-2.457119e+01	-1.351228e+03
5.800000e-07	-3.265489e-06	-2.024509e-08	-2.366361e+01	-1.331970e+03
5.900000e-07	-3.139122e-06	-1.993936e-08	-2.274787e+01	-1.311544e+03
6.000000e-07	-3.011654e-06	-1.962022e-08	-2.182417e+01	-1.289971e+03
6.100000e-07	-2.883004e-06	-1.928308e-08	-2.089190e+01	-1.267292e+03
6.200000e-07	-2.753199e-06	-1.892942e-08	-1.995125e+01	-1.243548e+03
6.300000e-07	-2.622358e-06	-1.855570e-08	-1.900311e+01	-1.218756e+03
6.400000e-07	-2.490521e-06	-1.815996e-08	-1.804774e+01	-1.192884e+03
6.500000e-07	-2.357775e-06	-1.773754e-08	-1.708579e+01	-1.165836e+03
6.600000e-07	-2.224299e-06	-1.729127e-08	-1.611854e+01	-1.137436e+03
6.700000e-07	-2.090159e-06	-1.682078e-08	-1.514649e+01	-1.107432e+03
6.800000e-07	-1.955284e-06	-1.632242e-08	-1.416911e+01	-1.075508e+03
6.900000e-07	-1.819616e-06	-1.579115e-08	-1.318598e+01	-1.041309e+03
7.000000e-07	-1.683261e-06	-1.522324e-08	-1.219787e+01	-1.004473e+03
7.100000e-07	-1.546322e-06	-1.461500e-08	-1.120553e+01	-9.646690e+02
7.200000e-07	-1.408844e-06	-1.396171e-08	-1.020929e+01	-9.216396e+02
7.300000e-07	-1.270876e-06	-1.326675e-08	-9.209492e+00	-8.752327e+02
7.400000e-07	-1.132451e-06	-1.252625e-08	-8.206391e+00	-8.254265e+02
7.500000e-07	-9.935866e-07	-1.173700e-08	-7.200097e+00	-7.723400e+02
7.600000e-07	-8.542669e-07	-1.089921e-08	-6.190507e+00	-7.162275e+02
7.700000e-07	-7.146261e-07	-1.001553e-08	-5.178590e+00	-6.574565e+02
7.800000e-07	-5.747404e-07	-9.086105e-09	-4.164898e+00	-5.964724e+02
7.900000e-07	-4.346290e-07	-8.117202e-09	-3.149571e+00	-5.337526e+02
8.000000e-07	-2.943791e-07	-7.120855e-09	-2.133240e+00	-4.697569e+02
8.100000e-07	-1.539200e-07	-6.108369e-09	-1.115392e+00	-4.048803e+02
8.200000e-07	-1.326155e-08	-5.089807e-09	-9.610075e-02	-3.394144e+02
8.300000e-07	1.274825e-07	-4.071028e-09	9.238109e-01	-2.735231e+02
8.400000e-07	2.681660e-07	-3.058545e-09	1.943284e+00	-2.072361e+02
8.500000e-07	4.086854e-07	-2.051615e-09	2.961568e+00	-1.404616e+02
8.600000e-07	5.490747e-07	-1.045603e-09	3.978910e+00	-7.301729e+01
8.700000e-07	6.893245e-07	-3.238290e-11	4.995240e+00	-4.675694e+00
8.800000e-07	8.293180e-07	9.964566e-10	6.009713e+00	6.478182e+01
8.900000e-07	9.689471e-07	2.049765e-09	7.021546e+00	1.355090e+02
9.000000e-07	1.108148e-06	3.136327e-09	8.030276e+00	2.075445e+02
9.100000e-07	1.246884e-06	4.254238e-09	9.035635e+00	2.807734e+02
9.200000e-07	1.385168e-06	5.397907e-09	1.003772e+01	3.549072e+02
9.300000e-07	1.522922e-06	6.557405e-09	1.103596e+01	4.294834e+02
9.400000e-07	1.660051e-06	7.719043e-09	1.202968e+01	5.038879e+02
9.500000e-07	1.796570e-06	8.862438e-09	1.301898e+01	5.773943e+02
9.600000e-07	1.932405e-06	9.971282e-09	1.400331e+01	6.492195e+02
9.700000e-07	2.067446e-06	1.103016e-08	1.498190e+01	7.185861e+02
9.800000e-07	2.201670e-06	1.202509e-08	1.595456e+01	7.847859e+02
9.900000e-07	2.335060e-06	1.295144e-08	1.692118e+01	8.472360e+02
1.000000e-06	2.467632e-06	1.381008e-08	1.788188e+01	9.055226e+02
1.010000e-06	2.599333e-06	1.460334e-08	1.883625e+01	9.594262e+02
1.020000e-06	2.730004e-06	1.533584e-08	1.978317e+01	1.008927e+03
1.030000e-06	2.859624e-06	1.601546e-08	2.072247e+01	1.054188e+03
1.040000e-06	2.988177e-06	1.664949e-08	2.165404e+01	1.095529e+03
1.050000e-06	3.115574e-06	1.723765e-08	2.257723e+01	1.133371e+03
1.060000e-06	3.241846e-06	1.778281e-08	2.349227e+01	1.168196e+03
1.070000e-06	3.367073e-06	1.828902e-08	2.439974e+01	1.200489e+03
1.080000e-06	3.491178e-06	1.876068e-08	2.529907e+01	1.230692e+03
1.090000e-06	3.614006e-06	1.920075e-08	2.618916e+01	1.259173e+03
1.100000e-06	3.735526e-06	1.961366e-08	2.706976e+01	1.286202e+03
1.110000e-06	3.855663e-06	2.000338e-08	2.794034e+01	1.311949e+03
1.120000e-06	3.974422e-06	2.037105e-08	2.880094e+01	1.336491e+03
1.130000e-06	4.091790e-06	2.071640e-08	2.965146e+01	1.359832e+03
1.140000e-06	4.207607e-06	2.103880e-08	3.049073e+01	1.381933e+03
1.150000e-06	4.321773e-06	2.134168e-08	3.131804e+01	1.402741e+03
1.160000e-06	4.434234e-06	2.162875e-08	3.213300e+01	1.422217e+03
1.170000e-06	4.545064e-06	2.190069e-08	3.293613e+01	1.440357e+03
1.180000e-06	4.654394e-06	2.215577e-08	3.372841e+01	1.457206e+03
1.190000e-06	4.762180e-06	2.239780e-08	3.450948e+01	1.472857e+03
1.200000e-06	4.868232e-06	2.262800e-08	3.527800e+01	1.487447e+03
1.210000e-06	4.972473e-06	2.284891e-08	3.603339e+01	1.501138e+03
1.220000e-06	5.074953e-06	2.305717e-08	3.677602e+01	1.514101e+03
1.230000e-06	5.175681e-06	2.325296e-08	3.750595e+01	1.526493e+03
1.240000e-06	5.274472e-06	2.343792e-08	3.822184e+01	1.538438e+03
1.250000e-06	5.371200e-06	2.361185e-08	3.892279e+01	1.550018e+03
1.260000e-06	5.465953e-06	2.377606e-08	3.960943e+01	1.561261e+03
1.270000e-06	5.558830e-06	2.393368e-08	4.028246e+01	1.572151e+03
1.280000e-06	5.649736e-06	2.408670e-08	4.094122e+01	1.582634e+03
1.290000e-06	5.738544e-06	2.423300e-08	4.158477e+01	1.592633e+03
1.300000e-06	5.825224e-06	2.437273e-08	4.221291e+01	1.602067e+03
1.310000e-06	5.909837e-06	2.450528e-08	4.282607e+01	1.610868e+03
1.320000e-06	5.992381e-06	2.462978e-08	4.342423e+01	1.618997e+03
1.330000e-06	6.072768e-06	2.474612e-08	4.400675e+01	1.626453e+03
1.340000e-06	6.150939e-06	2.485354e-08	4.457323e+01	1.633273e+03
1.350000e-06	6.226744e-06	2.495333e-08	4.512255e+01	1.639531e+03
1.360000e-06	6.300130e-06	2.504677e-08	4.565435e+01	1.645326e+03
1.370000e-06	6.371194e-06	2.513564e-08	4.616932e+01	1.650770e+03
1.380000e-06	6.440061e-06	2.522049e-08	4.666837e+01	1.655969e+03
1.390000e-06	6.506647e-06	2.530131e-08	4.715089e+01	1.661011e+03
1.400000e-06	6.570826e-06	2.537758e-08	4.761597e+01	1.665955e+03
1.410000e-06	6.632690e-06	2.544916e-08	4.806427e+01	1.670824e+03
1.420000e-06	6.692310e-06	2.551648e-08	4.849631e+01	1.675603e+03
1.430000e-06	6.749600e-06	2.558050e-08	4.891147e+01	1.680247e+03
1.440000e-06	6.804482e-06	2.564117e-08	4.930918e+01	1.684692e+03
1.450000e-06	6.856796e-06	2.569796e-08	4.968827e+01	1.688864e+03
1.460000e-06	6.906270e-06	2.575263e-08	5.004679e+01	1.692698e+03
1.470000e-06	6.953050e-06	2.580452e-08	5.038578e+01	1.696145e+03
1.480000e-06	6.997446e-06	2.585270e-08	5.070750e+01	1.699183e+03
1.490000e-06	7.039329e-06	2.589679e-08	5.101101e+01	1.701822e+03
1.500000e-06	7.078617e-06	2.593649e-08	5.129571e+01	1.704100e+03
1.510000e-06	7.115510e-06	2.597210e-08	5.156306e+01	1.706076e+03
1.520000e-06	7.149927e-06	2.600521e-08	5.181247e+01	1.707823e+03
1.530000e-06	7.181743e-06	2.603533e-08	5.204302e+01	1.709413e+03
1.540000e-06	7.211109e-06	2.606164e-08	5.225583e+01	1.710908e+03
1.550000e-06	7.237976e-06	2.608367e-08	5.245052e+01	1.712349e+03
1.560000e-06	7.262080e-06	2.610236e-08	5.262519e+01	1.713749e+03
1.570000e-06	7.283528e-06	2.611874e-08	5.278061e+01	1.715096e+03
1.580000e-06	7.302510e-06	2.613247e-08	5.291817e+01	1.716353e+03
1.590000e-06	7.318816e-06	2.614367e-08	5.303633e+01	1.717467e+03
1.600000e-06	7.332315e-06	2.615178e-08	5.313416e+01	1.718377e+03
1.610000e-06	7.342976e-06	2.615826e-08	5.321141e+01	1.719031e+03
1.620000e-06	7.350812e-06	2.616407e-08	5.326819e+01	1.719389e+03
1.630000e-06	7.356043e-06	2.616819e-08	5.330610e+01	1.719433e+03
1.640000e-06	7.358679e-06	2.616916e-08	5.332520e+01	1.719174e+03
1.650000e-06	7.358650e-06	2.616994e-08	5.332499e+01	1.718644e+03
1.660000e-06	7.356130e-06	2.616052e-08	5.330673e+01	1.717896e+03
1.670000e-06	7.351242e-06	2.614773e-08	5.327131e+01	1.716996e+03
1.680000e-06	7.343857e-06	2.613817e-08	5.321780e+01	1.716009e+03
1.690000e-06	7.334021e-06	2.612605e-08	5.314652e+01	1.714991e+03
1.700000e-06	7.321634e-06	2.611451e-08	5.305676e+01	1.713979e+03
1.710000e-06	7.306593e-06	2.610621e-08	5.294776e+01	1.712990e+03
1.720000e-06	7.289252e-06	2.610156e-08	5.282209e+01	1.712015e+03
1.730000e-06	7.269880e-06	2.607706e-08	5.268172e+01	1.711021e+03
1.740000e-06	7.248048e-06	2.596920e-08	5.252351e+01	1.709962e+03
1.750000e-06	7.222962e-06	2.596030e-08	5.234172e+01	1.708784e+03
1.760000e-06	7.194435e-06	2.599283e-08	5.213500e+01	1.707433e+03
1.770000e-06	7.162974e-06	2.595889e-08	5.190701e+01	1.705869e+03
1.780000e-06	7.129282e-06	2.595632e-08	5.166286e+01	1.704067e+03
1.790000e-06	7.093860e-06	2.602832e-08	5.140617e+01	1.702023e+03
1.800000e-06	7.056918e-06	2.592234e-08	5.113847e+01	1.699751e+03
1.810000e-06	7.017826e-06	2.581009e-08	5.085519e+01	1.697281e+03
1.820000e-06	6.976011e-06	2.590194e-08	5.055217e+01	1.694648e+03
1.830000e-06	6.931904e-06	2.577105e-08	5.023254e+01	1.691888e+03
1.840000e-06	6.885381e-06	2.581732e-08	4.989541e+01	1.689025e+03
1.850000e-06	6.836213e-06	2.582786e-08	4.953912e+01	1.686067e+03
1.860000e-06	6.784418e-06	2.570155e-08	4.916378e+01	1.683001e+03
1.870000e-06	6.729771e-06	2.570664e-08	4.876777e+01	1.679794e+03
1.880000e-06	6.672670e-06	2.552956e-08	4.835399e+01	1.676398e+03
1.890000e-06	6.613199e-06	2.553610e-08	4.792303e+01	1.672755e+03
1.900000e-06	6.551050e-06	2.548783e-08	4.747266e+01	1.668806e+03
1.910000e-06	6.486364e-06	2.536351e-08	4.700391e+01	1.664506e+03
1.920000e-06	6.419293e-06	2.537818e-08	4.651787e+01	1.659825e+03
1.930000e-06	6.349848e-06	2.524039e-08	4.601464e+01	1.654757e+03
1.940000e-06	6.277902e-06	2.518351e-08	4.549327e+01	1.649322e+03
1.950000e-06	6.203529e-06	2.506866e-08	4.495433e+01	1.643563e+03
1.960000e-06	6.126646e-06	2.500811e-08	4.439718e+01	1.637534e+03
1.970000e-06	6.047220e-06	2.495157e-08	4.382162e+01	1.631297e+03
1.980000e-06	5.965643e-06	2.480230e-08	4.323047e+01	1.624905e+03
1.990000e-06	5.882040e-06	2.476122e-08	4.262463e+01	1.618395e+03
2.000000e-06	5.796287e-06	2.462551e-08	4.200321e+01	1.611776e+03
2.010000e-06	5.708296e-06	2.452650e-08	4.136558e+01	1.605027e+03
2.020000e-06	5.618280e-06	2.439940e-08	4.071327e+01	1.598097e+03
2.030000e-06	5.526409e-06	2.429244e-08	4.004753e+01	1.590913e+03
2.040000e-06	5.432537e-06	2.418778e-08	3.936727e+01	1.583384e+03
2.050000e-06	5.336650e-06	2.404183e-08	3.867242e+01	1.575417e+03
2.060000e-06	5.238971e-06	2.393354e-08	3.796458e+01	1.566934e+03
2.070000e-06	5.139604e-06	2.378165e-08	3.724451e+01	1.557875e+03
2.080000e-06	5.038394e-06	2.364092e-08	3.651109e+01	1.548212e+03
2.090000e-06	4.935271e-06	2.347137e-08	3.576380e+01	1.537951e+03
2.100000e-06	4.830317e-06	2.332344e-08	3.500324e+01	1.527129e+03
2.110000e-06	4.723769e-06	2.315855e-08	3.423114e+01	1.515802e+03
2.120000e-06	4.615735e-06	2.298598e-08	3.344826e+01	1.504038e+03
2.130000e-06	4.506069e-06	2.281038e-08	3.265355e+01	1.491898e+03
2.140000e-06	4.394728e-06	2.262549e-08	3.184671e+01	1.479421e+03
2.150000e-06	4.281643e-06	2.243341e-08	3.102724e+01	1.466614e+03
2.160000e-06	4.166896e-06	2.222374e-08	3.019572e+01	1.453443e+03
2.170000e-06	4.050451e-06	2.201795e-08	2.935188e+01	1.439833e+03
2.180000e-06	3.932344e-06	2.179136e-08	2.849602e+01	1.425672e+03
2.190000e-06	3.812695e-06	2.155878e-08	2.762898e+01	1.410827e+03
2.200000e-06	3.691575e-06	2.130593e-08	2.675127e+01	1.395154e+03
2.210000e-06	3.569150e-06	2.104895e-08	2.586411e+01	1.378520e+03
2.220000e-06	3.445416e-06	2.077533e-08	2.496746e+01	1.360817e+03
2.230000e-06	3.320342e-06	2.049725e-08	2.406110e+01	1.341975e+03
2.240000e-06	3.194011e-06	2.020661e-08	2.314563e+01	1.321964e+03
2.250000e-06	3.066504e-06	1.990078e-08	2.222164e+01	1.300795e+03
2.260000e-06	2.937819e-06	1.957639e-08	2.128912e+01	1.278505e+03
2.270000e-06	2.808076e-06	1.922792e-08	2.034892e+01	1.255136e+03
2.280000e-06	2.677416e-06	1.886204e-08	1.940209e+01	1.230718e+03
2.290000e-06	2.545786e-06	1.847604e-08	1.844822e+01	1.205238e+03
2.300000e-06	2.413193e-06	1.807147e-08	1.748738e+01	1.178625e+03
2.310000e-06	2.279753e-06	1.763694e-08	1.652040e+01	1.150732e+03
2.320000e-06	2.145563e-06	1.717529e-08	1.554798e+01	1.121333e+03
2.330000e-06	2.010673e-06	1.668170e-08	1.457049e+01	1.090133e+03
2.340000e-06	1.875074e-06	1.615724e-08	1.358786e+01	1.056788e+03
2.350000e-06	1.738805e-06	1.560032e-08	1.260038e+01	1.020932e+03
2.360000e-06	1.601931e-06	1.501016e-08	1.160851e+01	9.822212e+02
2.370000e-06	1.464516e-06	1.437867e-08	1.061272e+01	9.403663e+02
2.380000e-06	1.326673e-06	1.369860e-08	9.613830e+00	8.951741e+02
2.390000e-06	1.188473e-06	1.297192e-08	8.612360e+00	8.465745e+02
2.400000e-06	1.049906e-06	1.219812e-08	7.608219e+00	7.946359e+02
2.410000e-06	9.108996e-07	1.137613e-08	6.600900e+00	7.395661e+02
2.420000e-06	7.715251e-07	1.050652e-08	5.590912e+00	6.816954e+02
2.430000e-06	6.319004e-07	9.592076e-09	4.579112e+00	6.214464e+02
2.440000e-06	4.920097e-07	8.635238e-09	3.565384e+00	5.592906e+02
2.450000e-06	3.518281e-07	7.642181e-09	2.549548e+00	4.956997e+02
2.460000e-06	2.114337e-07	6.627910e-09	1.532170e+00	4.310971e+02
2.470000e-06	7.094362e-08	5.604502e-09	5.140981e-01	3.658148e+02
2.480000e-06	-6.957327e-08	4.579357e-09	-5.041677e-01	3.000640e+02
2.490000e-06	-2.100638e-07	3.556640e-09	-1.522243e+00	2.339219e+02
2.500000e-06	-3.504786e-07	2.539682e-09	-2.539768e+00	1.673374e+02
2.510000e-06	-4.907597e-07	1.527880e-09	-3.556326e+00	1.001561e+02
2.520000e-06	-6.308774e-07	5.135339e-10	-4.571699e+00	3.216057e+01
2.530000e-06	-7.707652e-07	-5.129976e-10	-5.585406e+00	-3.687736e+01
2.540000e-06	-9.103515e-07	-1.561720e-09	-6.596928e+00	-1.071409e+02
2.550000e-06	-1.049573e-06	-2.637581e-09	-7.605808e+00	-1.787148e+02
2.560000e-06	-1.188406e-06	-3.745213e-09	-8.611871e+00	-2.515425e+02
2.570000e-06	-1.326782e-06	-4.884037e-09	-9.614624e+00	-3.253985e+02
2.580000e-06	-1.464654e-06	-6.044987e-09	-1.061372e+01	-3.998812e+02
2.590000e-06	-1.601953e-06	-7.217072e-09	-1.160867e+01	-4.744268e+02
2.600000e-06	-1.738647e-06	-8.378348e-09	-1.259923e+01	-5.483433e+02
2.610000e-06	-1.874753e-06	-9.508099e-09	-1.358554e+01	-6.208610e+02
2.620000e-06	-2.010142e-06	-1.059141e-08	-1.456664e+01	-6.911930e+02
2.630000e-06	-2.144722e-06	-1.161623e-08	-1.554189e+01	-7.585994e+02
2.640000e-06	-2.278470e-06	-1.257528e-08	-1.651110e+01	-8.224468e+02
2.650000e-06	-2.411337e-06	-1.346664e-08	-1.747393e+01	-8.822571e+02
2.660000e-06	-2.543293e-06	-1.429390e-08	-1.843016e+01	-9.377398e+02
2.670000e-06	-2.674307e-06	-1.505807e-08	-1.937956e+01	-9.888041e+02
2.680000e-06	-2.804365e-06	-1.576315e-08	-2.032204e+01	-1.035552e+03
2.690000e-06	-2.933459e-06	-1.641720e-08	-2.125752e+01	-1.078249e+03
2.700000e-06	-3.061508e-06	-1.702637e-08	-2.218544e+01	-1.117289e+03
2.710000e-06	-3.188417e-06	-1.759448e-08	-2.310510e+01	-1.153136e+03
2.720000e-06	-3.314163e-06	-1.812286e-08	-2.401632e+01	-1.186280e+03
2.730000e-06	-3.438733e-06	-1.861278e-08	-2.491903e+01	-1.217184e+03
2.740000e-06	-3.562048e-06	-1.906890e-08	-2.581264e+01	-1.246245e+03
2.750000e-06	-3.684055e-06	-1.949478e-08	-2.669678e+01	-1.273769e+03
2.760000e-06	-3.804797e-06	-1.989423e-08	-2.757173e+01	-1.299962e+03
2.770000e-06	-3.924102e-06	-2.027088e-08	-2.843629e+01	-1.324931e+03
2.780000e-06	-4.041857e-06	-2.062567e-08	-2.928961e+01	-1.348705e+03
2.790000e-06	-4.158070e-06	-2.095762e-08	-3.013176e+01	-1.371256e+03
2.800000e-06	-4.272532e-06	-2.126975e-08	-3.096122e+01	-1.392533e+03
2.810000e-06	-4.385237e-06	-2.156593e-08	-3.177794e+01	-1.412488e+03
2.820000e-06	-4.496305e-06	-2.184568e-08	-3.258280e+01	-1.431105e+03
2.830000e-06	-4.605772e-06	-2.210925e-08	-3.337606e+01	-1.448408e+03
2.840000e-06	-4.713727e-06	-2.235861e-08	-3.415836e+01	-1.464474e+03
2.850000e-06	-4.820145e-06	-2.259487e-08	-3.492953e+01	-1.479426e+03
2.860000e-06	-4.924867e-06	-2.281930e-08	-3.568841e+01	-1.493419e+03
2.870000e-06	-5.027705e-06	-2.303158e-08	-3.643363e+01	-1.506625e+03
2.880000e-06	-5.128624e-06	-2.323309e-08	-3.716494e+01	-1.519205e+03
2.890000e-06	-5.227727e-06	-2.342644e-08	-3.788310e+01	-1.531300e+03
2.900000e-06	-5.325052e-06	-2.360918e-08	-3.858838e+01	-1.543005e+03
2.910000e-06	-5.420511e-06	-2.378151e-08	-3.928013e+01	-1.554369e+03
2.920000e-06	-5.513964e-06	-2.394324e-08	-3.995734e+01	-1.565391e+03
2.930000e-06	-5.605350e-06	-2.409594e-08	-4.061958e+01	-1.576029e+03
2.940000e-06	-5.694714e-06	-2.424259e-08	-4.126716e+01	-1.586211e+03
