# Temperatura_=_27.98
# Concentracion g/m^3_=_28370.0
# C_Vs_to_Am_M_A/Vsm_=_65563218390.804596
# pendiente_HvsI_1/m_=_3716.3
# ordenada_HvsI_A/m_=_1297.0
# frecuencia_Hz_=_302401.17517011275

Tiempo_(s)	Campo_(V.s)	Magnetizacion_(V.s)	Campo_(kA/m)	Magnetizacion_(A/m)
0.000000e+00	-7.318914e-06	-2.613826e-08	-5.318069e+01	-1.711349e+03
1.000000e-08	-7.315349e-06	-2.613976e-08	-5.315479e+01	-1.710542e+03
2.000000e-08	-7.309498e-06	-2.612797e-08	-5.311228e+01	-1.709603e+03
3.000000e-08	-7.301360e-06	-2.611306e-08	-5.305314e+01	-1.708593e+03
4.000000e-08	-7.290631e-06	-2.609838e-08	-5.297518e+01	-1.707560e+03
5.000000e-08	-7.277100e-06	-2.607932e-08	-5.287687e+01	-1.706536e+03
6.000000e-08	-7.260879e-06	-2.605490e-08	-5.275900e+01	-1.705527e+03
7.000000e-08	-7.242383e-06	-2.602968e-08	-5.262461e+01	-1.704515e+03
8.000000e-08	-7.221823e-06	-2.600445e-08	-5.247521e+01	-1.703464e+03
9.000000e-08	-7.198743e-06	-2.606115e-08	-5.230750e+01	-1.702324e+03
1.000000e-07	-7.172662e-06	-2.604846e-08	-5.211800e+01	-1.701042e+03
1.100000e-07	-7.143699e-06	-2.594779e-08	-5.190755e+01	-1.699570e+03
1.200000e-07	-7.112248e-06	-2.590173e-08	-5.167902e+01	-1.697873e+03
1.300000e-07	-7.078321e-06	-2.588225e-08	-5.143250e+01	-1.695934e+03
1.400000e-07	-7.042122e-06	-2.580967e-08	-5.116947e+01	-1.693758e+03
1.500000e-07	-7.004136e-06	-2.571730e-08	-5.089346e+01	-1.691366e+03
1.600000e-07	-6.964128e-06	-2.583210e-08	-5.060275e+01	-1.688792e+03
1.700000e-07	-6.921594e-06	-2.575182e-08	-5.029369e+01	-1.686072e+03
1.800000e-07	-6.876682e-06	-2.558500e-08	-4.996734e+01	-1.683241e+03
1.900000e-07	-6.829255e-06	-2.568204e-08	-4.962273e+01	-1.680318e+03
2.000000e-07	-6.778918e-06	-2.558471e-08	-4.925697e+01	-1.677306e+03
2.100000e-07	-6.725892e-06	-2.551338e-08	-4.887168e+01	-1.674184e+03
2.200000e-07	-6.670367e-06	-2.549018e-08	-4.846822e+01	-1.670913e+03
2.300000e-07	-6.612307e-06	-2.537824e-08	-4.804635e+01	-1.667442e+03
2.400000e-07	-6.551775e-06	-2.535901e-08	-4.760651e+01	-1.663709e+03
2.500000e-07	-6.488829e-06	-2.526852e-08	-4.714913e+01	-1.659659e+03
2.600000e-07	-6.423466e-06	-2.521142e-08	-4.667419e+01	-1.655248e+03
2.700000e-07	-6.355615e-06	-2.513600e-08	-4.618117e+01	-1.650453e+03
2.800000e-07	-6.285363e-06	-2.505960e-08	-4.567071e+01	-1.645275e+03
2.900000e-07	-6.212749e-06	-2.497507e-08	-4.514308e+01	-1.639740e+03
3.000000e-07	-6.137592e-06	-2.486339e-08	-4.459697e+01	-1.633891e+03
3.100000e-07	-6.059910e-06	-2.482918e-08	-4.403252e+01	-1.627788e+03
3.200000e-07	-5.979770e-06	-2.473167e-08	-4.345021e+01	-1.621487e+03
3.300000e-07	-5.897397e-06	-2.463314e-08	-4.285167e+01	-1.615037e+03
3.400000e-07	-5.813105e-06	-2.450798e-08	-4.223919e+01	-1.608466e+03
3.500000e-07	-5.726924e-06	-2.439726e-08	-4.161298e+01	-1.601775e+03
3.600000e-07	-5.638748e-06	-2.431543e-08	-4.097227e+01	-1.594934e+03
3.700000e-07	-5.548443e-06	-2.419393e-08	-4.031610e+01	-1.587885e+03
3.800000e-07	-5.456077e-06	-2.407519e-08	-3.964495e+01	-1.580548e+03
3.900000e-07	-5.361814e-06	-2.394452e-08	-3.896001e+01	-1.572835e+03
4.000000e-07	-5.265681e-06	-2.381279e-08	-3.826149e+01	-1.564656e+03
4.100000e-07	-5.167647e-06	-2.366552e-08	-3.754915e+01	-1.555941e+03
4.200000e-07	-5.067811e-06	-2.353925e-08	-3.682373e+01	-1.546640e+03
4.300000e-07	-4.966254e-06	-2.340336e-08	-3.608580e+01	-1.536738e+03
4.400000e-07	-4.862929e-06	-2.323907e-08	-3.533502e+01	-1.526251e+03
4.500000e-07	-4.757890e-06	-2.306758e-08	-3.457178e+01	-1.515223e+03
4.600000e-07	-4.651119e-06	-2.289998e-08	-3.379596e+01	-1.503714e+03
4.700000e-07	-4.542643e-06	-2.272873e-08	-3.300775e+01	-1.491790e+03
4.800000e-07	-4.432616e-06	-2.255008e-08	-3.220828e+01	-1.479505e+03
4.900000e-07	-4.321020e-06	-2.236700e-08	-3.139740e+01	-1.466887e+03
5.000000e-07	-4.207691e-06	-2.215815e-08	-3.057392e+01	-1.453930e+03
5.100000e-07	-4.092593e-06	-2.193395e-08	-2.973760e+01	-1.440584e+03
5.200000e-07	-3.975874e-06	-2.170836e-08	-2.888950e+01	-1.426761e+03
5.300000e-07	-3.857702e-06	-2.148649e-08	-2.803083e+01	-1.412339e+03
5.400000e-07	-3.738110e-06	-2.124831e-08	-2.716185e+01	-1.397179e+03
5.500000e-07	-3.617141e-06	-2.099569e-08	-2.628287e+01	-1.381139e+03
5.600000e-07	-3.494789e-06	-2.073046e-08	-2.539383e+01	-1.364092e+03
5.700000e-07	-3.371004e-06	-2.045244e-08	-2.449439e+01	-1.345940e+03
5.800000e-07	-3.245952e-06	-2.016057e-08	-2.358574e+01	-1.326625e+03
5.900000e-07	-3.119781e-06	-1.985757e-08	-2.266896e+01	-1.306132e+03
6.000000e-07	-2.992509e-06	-1.954178e-08	-2.174417e+01	-1.284477e+03
6.100000e-07	-2.864117e-06	-1.920084e-08	-2.081124e+01	-1.261702e+03
6.200000e-07	-2.734598e-06	-1.884001e-08	-1.987014e+01	-1.237844e+03
6.300000e-07	-2.604064e-06	-1.846145e-08	-1.892165e+01	-1.212919e+03
6.400000e-07	-2.472541e-06	-1.806597e-08	-1.796598e+01	-1.186898e+03
6.500000e-07	-2.340068e-06	-1.764494e-08	-1.700340e+01	-1.159683e+03
6.600000e-07	-2.206859e-06	-1.719882e-08	-1.603548e+01	-1.131102e+03
6.700000e-07	-2.073001e-06	-1.672257e-08	-1.506284e+01	-1.100905e+03
6.800000e-07	-1.938344e-06	-1.621709e-08	-1.408439e+01	-1.068782e+03
6.900000e-07	-1.802937e-06	-1.568200e-08	-1.310050e+01	-1.034382e+03
7.000000e-07	-1.666929e-06	-1.511029e-08	-1.211224e+01	-9.973468e+02
7.100000e-07	-1.530358e-06	-1.449941e-08	-1.111988e+01	-9.573534e+02
7.200000e-07	-1.393233e-06	-1.384453e-08	-1.012351e+01	-9.141503e+02
7.300000e-07	-1.255574e-06	-1.314778e-08	-9.123255e+00	-8.675929e+02
7.400000e-07	-1.117489e-06	-1.240238e-08	-8.119900e+00	-8.176681e+02
7.500000e-07	-9.790308e-07	-1.161223e-08	-7.113834e+00	-7.645051e+02
7.600000e-07	-8.401606e-07	-1.077799e-08	-6.104775e+00	-7.083696e+02
7.700000e-07	-7.009255e-07	-9.895883e-09	-5.093065e+00	-6.496423e+02
7.800000e-07	-5.614059e-07	-8.965237e-09	-4.079287e+00	-5.887828e+02
7.900000e-07	-4.216690e-07	-7.997890e-09	-3.063931e+00	-5.262836e+02
8.000000e-07	-2.817687e-07	-7.007657e-09	-2.047388e+00	-4.626191e+02
8.100000e-07	-1.417192e-07	-6.000477e-09	-1.029760e+00	-3.981977e+02
8.200000e-07	-1.637739e-09	-4.990572e-09	-1.190014e-02	-3.333215e+02
8.300000e-07	1.384636e-07	-3.987075e-09	1.006104e+00	-2.681608e+02
8.400000e-07	2.786158e-07	-2.992757e-09	2.024479e+00	-2.027460e+02
8.500000e-07	4.186277e-07	-2.002603e-09	3.041833e+00	-1.369794e+02
8.600000e-07	5.584434e-07	-1.014782e-09	4.057762e+00	-7.066549e+01
8.700000e-07	6.980730e-07	-2.181824e-11	5.072338e+00	-3.555751e+00
8.800000e-07	8.375084e-07	9.895484e-10	6.085504e+00	6.459646e+01
8.900000e-07	9.767251e-07	2.026744e-09	7.097080e+00	1.339789e+02
9.000000e-07	1.115521e-06	3.094590e-09	8.105601e+00	2.046685e+02
9.100000e-07	1.253853e-06	4.191988e-09	9.110747e+00	2.765906e+02
9.200000e-07	1.391705e-06	5.317056e-09	1.011241e+01	3.494964e+02
9.300000e-07	1.528984e-06	6.458264e-09	1.110990e+01	4.229599e+02
9.400000e-07	1.665671e-06	7.602200e-09	1.210310e+01	4.963975e+02
9.500000e-07	1.801788e-06	8.733099e-09	1.309215e+01	5.691061e+02
9.600000e-07	1.937185e-06	9.833222e-09	1.407597e+01	6.403159e+02
9.700000e-07	2.071780e-06	1.088540e-08	1.505397e+01	7.092531e+02
9.800000e-07	2.205621e-06	1.187678e-08	1.602649e+01	7.752032e+02
9.900000e-07	2.338631e-06	1.280264e-08	1.699296e+01	8.375680e+02
1.000000e-06	2.470777e-06	1.366267e-08	1.795316e+01	8.959110e+02
1.010000e-06	2.602003e-06	1.445959e-08	1.890667e+01	9.499847e+02
1.020000e-06	2.732232e-06	1.519731e-08	1.985295e+01	9.997388e+02
1.030000e-06	2.861452e-06	1.588159e-08	2.079188e+01	1.045307e+03
1.040000e-06	2.989611e-06	1.651760e-08	2.172311e+01	1.086978e+03
1.050000e-06	3.116596e-06	1.710791e-08	2.264581e+01	1.125152e+03
1.060000e-06	3.242470e-06	1.765727e-08	2.356043e+01	1.160292e+03
1.070000e-06	3.367338e-06	1.816937e-08	2.446775e+01	1.192869e+03
1.080000e-06	3.491037e-06	1.864679e-08	2.536658e+01	1.223322e+03
1.090000e-06	3.613468e-06	1.909076e-08	2.625618e+01	1.252018e+03
1.100000e-06	3.734647e-06	1.950609e-08	2.713669e+01	1.279231e+03
1.110000e-06	3.854453e-06	1.989785e-08	2.800722e+01	1.305140e+03
1.120000e-06	3.972805e-06	2.026790e-08	2.886720e+01	1.329828e+03
1.130000e-06	4.089710e-06	2.061610e-08	2.971665e+01	1.353310e+03
1.140000e-06	4.205062e-06	2.094044e-08	3.055482e+01	1.375554e+03
1.150000e-06	4.318733e-06	2.124639e-08	3.138078e+01	1.396511e+03
1.160000e-06	4.430725e-06	2.153814e-08	3.219453e+01	1.416144e+03
1.170000e-06	4.541119e-06	2.181347e-08	3.299668e+01	1.434449e+03
1.180000e-06	4.650030e-06	2.207147e-08	3.378805e+01	1.451467e+03
1.190000e-06	4.757392e-06	2.231687e-08	3.456816e+01	1.467286e+03
1.200000e-06	4.863044e-06	2.254931e-08	3.533585e+01	1.482039e+03
1.210000e-06	4.966916e-06	2.276904e-08	3.609060e+01	1.495883e+03
1.220000e-06	5.068989e-06	2.297737e-08	3.683229e+01	1.508984e+03
1.230000e-06	5.169253e-06	2.317739e-08	3.756083e+01	1.521496e+03
1.240000e-06	5.267565e-06	2.336688e-08	3.827518e+01	1.533544e+03
1.250000e-06	5.363803e-06	2.354105e-08	3.897446e+01	1.545210e+03
1.260000e-06	5.458095e-06	2.370558e-08	3.965961e+01	1.556525e+03
1.270000e-06	5.550571e-06	2.386457e-08	4.033156e+01	1.567477e+03
1.280000e-06	5.641088e-06	2.401814e-08	4.098928e+01	1.578017e+03
1.290000e-06	5.729447e-06	2.416560e-08	4.163131e+01	1.588070e+03
1.300000e-06	5.815691e-06	2.430534e-08	4.225798e+01	1.597559e+03
1.310000e-06	5.899938e-06	2.443848e-08	4.287013e+01	1.606419e+03
1.320000e-06	5.982088e-06	2.456354e-08	4.346705e+01	1.614612e+03
1.330000e-06	6.062022e-06	2.467987e-08	4.404786e+01	1.622135e+03
1.340000e-06	6.139762e-06	2.478927e-08	4.461274e+01	1.629023e+03
1.350000e-06	6.215160e-06	2.489069e-08	4.516059e+01	1.635349e+03
1.360000e-06	6.288153e-06	2.498523e-08	4.569098e+01	1.641208e+03
1.370000e-06	6.358901e-06	2.507462e-08	4.620505e+01	1.646709e+03
1.380000e-06	6.427463e-06	2.516034e-08	4.670323e+01	1.651958e+03
1.390000e-06	6.493676e-06	2.524294e-08	4.718435e+01	1.657041e+03
1.400000e-06	6.557473e-06	2.532113e-08	4.764791e+01	1.662016e+03
1.410000e-06	6.619072e-06	2.539331e-08	4.809550e+01	1.666907e+03
1.420000e-06	6.678476e-06	2.545839e-08	4.852715e+01	1.671701e+03
1.430000e-06	6.735453e-06	2.551983e-08	4.894115e+01	1.676355e+03
1.440000e-06	6.789981e-06	2.557944e-08	4.933736e+01	1.680806e+03
1.450000e-06	6.841880e-06	2.563751e-08	4.971447e+01	1.684984e+03
1.460000e-06	6.890926e-06	2.569375e-08	5.007085e+01	1.688822e+03
1.470000e-06	6.937379e-06	2.574687e-08	5.040838e+01	1.692273e+03
1.480000e-06	6.981491e-06	2.579732e-08	5.072891e+01	1.695317e+03
1.490000e-06	7.023089e-06	2.584229e-08	5.103117e+01	1.697960e+03
1.500000e-06	7.062057e-06	2.588083e-08	5.131432e+01	1.700239e+03
1.510000e-06	7.098696e-06	2.591648e-08	5.158054e+01	1.702214e+03
1.520000e-06	7.132912e-06	2.594844e-08	5.182916e+01	1.703957e+03
1.530000e-06	7.164457e-06	2.597547e-08	5.205838e+01	1.705538e+03
1.540000e-06	7.193542e-06	2.599996e-08	5.226972e+01	1.707019e+03
1.550000e-06	7.220120e-06	2.602298e-08	5.246283e+01	1.708443e+03
1.560000e-06	7.243952e-06	2.604385e-08	5.263600e+01	1.709823e+03
1.570000e-06	7.265205e-06	2.606159e-08	5.279043e+01	1.711150e+03
1.580000e-06	7.284005e-06	2.607683e-08	5.292704e+01	1.712387e+03
1.590000e-06	7.300110e-06	2.608863e-08	5.304406e+01	1.713484e+03
1.600000e-06	7.313401e-06	2.609572e-08	5.314064e+01	1.714382e+03
1.610000e-06	7.323805e-06	2.610125e-08	5.321623e+01	1.715027e+03
1.620000e-06	7.331334e-06	2.610688e-08	5.327094e+01	1.715381e+03
1.630000e-06	7.336333e-06	2.610987e-08	5.330726e+01	1.715425e+03
1.640000e-06	7.338801e-06	2.610952e-08	5.332520e+01	1.715169e+03
1.650000e-06	7.338589e-06	2.611024e-08	5.332366e+01	1.714643e+03
1.660000e-06	7.335918e-06	2.609857e-08	5.330425e+01	1.713898e+03
1.670000e-06	7.330891e-06	2.608875e-08	5.326772e+01	1.712998e+03
1.680000e-06	7.323337e-06	2.608077e-08	5.321284e+01	1.712005e+03
1.690000e-06	7.313327e-06	2.606872e-08	5.314010e+01	1.710975e+03
1.700000e-06	7.300782e-06	2.605688e-08	5.304894e+01	1.709945e+03
1.710000e-06	7.285659e-06	2.604793e-08	5.293906e+01	1.708930e+03
1.720000e-06	7.268269e-06	2.604482e-08	5.281270e+01	1.707921e+03
1.730000e-06	7.248824e-06	2.601209e-08	5.267141e+01	1.706889e+03
1.740000e-06	7.226845e-06	2.588631e-08	5.251170e+01	1.705786e+03
1.750000e-06	7.201510e-06	2.589682e-08	5.232761e+01	1.704559e+03
1.760000e-06	7.172731e-06	2.593525e-08	5.211850e+01	1.703159e+03
1.770000e-06	7.141181e-06	2.589105e-08	5.188925e+01	1.701543e+03
1.780000e-06	7.107519e-06	2.589410e-08	5.164466e+01	1.699691e+03
1.790000e-06	7.072127e-06	2.597453e-08	5.138749e+01	1.697597e+03
1.800000e-06	7.035186e-06	2.580308e-08	5.111907e+01	1.695277e+03
1.810000e-06	6.995968e-06	2.573469e-08	5.083411e+01	1.692762e+03
1.820000e-06	6.953998e-06	2.587158e-08	5.052914e+01	1.690089e+03
1.830000e-06	6.909776e-06	2.569329e-08	5.020782e+01	1.687294e+03
1.840000e-06	6.863102e-06	2.578386e-08	4.986867e+01	1.684401e+03
1.850000e-06	6.813776e-06	2.570165e-08	4.951026e+01	1.681421e+03
1.860000e-06	6.761898e-06	2.555781e-08	4.913330e+01	1.678340e+03
1.870000e-06	6.707212e-06	2.564008e-08	4.873594e+01	1.675127e+03
1.880000e-06	6.650068e-06	2.546853e-08	4.832072e+01	1.671733e+03
1.890000e-06	6.590479e-06	2.549655e-08	4.788774e+01	1.668099e+03
1.900000e-06	6.528241e-06	2.540771e-08	4.743551e+01	1.664167e+03
1.910000e-06	6.463549e-06	2.528208e-08	4.696544e+01	1.659888e+03
1.920000e-06	6.396423e-06	2.528258e-08	4.647769e+01	1.655231e+03
1.930000e-06	6.326913e-06	2.514352e-08	4.597262e+01	1.650187e+03
1.940000e-06	6.254939e-06	2.515571e-08	4.544964e+01	1.644773e+03
1.950000e-06	6.180567e-06	2.501291e-08	4.490924e+01	1.639029e+03
1.960000e-06	6.103697e-06	2.491843e-08	4.435068e+01	1.633009e+03
1.970000e-06	6.024284e-06	2.484770e-08	4.377366e+01	1.626771e+03
1.980000e-06	5.942745e-06	2.472955e-08	4.318117e+01	1.620369e+03
1.990000e-06	5.859191e-06	2.469869e-08	4.257405e+01	1.613839e+03
2.000000e-06	5.773529e-06	2.455189e-08	4.195162e+01	1.607191e+03
2.010000e-06	5.685678e-06	2.446996e-08	4.131328e+01	1.600408e+03
2.020000e-06	5.595843e-06	2.432209e-08	4.066052e+01	1.593440e+03
2.030000e-06	5.504088e-06	2.420265e-08	3.999380e+01	1.586215e+03
2.040000e-06	5.410313e-06	2.410780e-08	3.931242e+01	1.578645e+03
2.050000e-06	5.314629e-06	2.399165e-08	3.861716e+01	1.570641e+03
2.060000e-06	5.217148e-06	2.386772e-08	3.790884e+01	1.562123e+03
2.070000e-06	5.117904e-06	2.369024e-08	3.718772e+01	1.553034e+03
2.080000e-06	5.016846e-06	2.355803e-08	3.645340e+01	1.543346e+03
2.090000e-06	4.913934e-06	2.339987e-08	3.570563e+01	1.533063e+03
2.100000e-06	4.809155e-06	2.325926e-08	3.494429e+01	1.522220e+03
2.110000e-06	4.702812e-06	2.309466e-08	3.417157e+01	1.510874e+03
2.120000e-06	4.594980e-06	2.291891e-08	3.338805e+01	1.499090e+03
2.130000e-06	4.485497e-06	2.272122e-08	3.259252e+01	1.486928e+03
2.140000e-06	4.374305e-06	2.252720e-08	3.178457e+01	1.474427e+03
2.150000e-06	4.261376e-06	2.234940e-08	3.096401e+01	1.461593e+03
2.160000e-06	4.146783e-06	2.215730e-08	3.013135e+01	1.448393e+03
2.170000e-06	4.030527e-06	2.195208e-08	2.928661e+01	1.434752e+03
2.180000e-06	3.912625e-06	2.171814e-08	2.842992e+01	1.420558e+03
2.190000e-06	3.793067e-06	2.148062e-08	2.756118e+01	1.405677e+03
2.200000e-06	3.672053e-06	2.122637e-08	2.668187e+01	1.389966e+03
2.210000e-06	3.549792e-06	2.097475e-08	2.579350e+01	1.373290e+03
2.220000e-06	3.426207e-06	2.070626e-08	2.489550e+01	1.355541e+03
2.230000e-06	3.301362e-06	2.042403e-08	2.398836e+01	1.336644e+03
2.240000e-06	3.175302e-06	2.012005e-08	2.307238e+01	1.316570e+03
2.250000e-06	3.048029e-06	1.980778e-08	2.214759e+01	1.295325e+03
2.260000e-06	2.919566e-06	1.948522e-08	2.121415e+01	1.272944e+03
2.270000e-06	2.790059e-06	1.914259e-08	2.027313e+01	1.249468e+03
2.280000e-06	2.659639e-06	1.877903e-08	1.932547e+01	1.224924e+03
2.290000e-06	2.528199e-06	1.838926e-08	1.837040e+01	1.199301e+03
2.300000e-06	2.395865e-06	1.797670e-08	1.740883e+01	1.172526e+03
2.310000e-06	2.262809e-06	1.753748e-08	1.644202e+01	1.144457e+03
2.320000e-06	2.128983e-06	1.707612e-08	1.546962e+01	1.114869e+03
2.330000e-06	1.994372e-06	1.658289e-08	1.449150e+01	1.083472e+03
2.340000e-06	1.859100e-06	1.605802e-08	1.350859e+01	1.049925e+03
2.350000e-06	1.723263e-06	1.549612e-08	1.252158e+01	1.013869e+03
2.360000e-06	1.586791e-06	1.489987e-08	1.152994e+01	9.749649e+02
2.370000e-06	1.449734e-06	1.426694e-08	1.053406e+01	9.329297e+02
2.380000e-06	1.312246e-06	1.358896e-08	9.535042e+00	8.875778e+02
2.390000e-06	1.174348e-06	1.286162e-08	8.533046e+00	8.388472e+02
2.400000e-06	1.036012e-06	1.208127e-08	7.527868e+00	7.868158e+02
2.410000e-06	8.972327e-07	1.125444e-08	6.519472e+00	7.317024e+02
2.420000e-06	7.580904e-07	1.038683e-08	5.508436e+00	6.738501e+02
2.430000e-06	6.187128e-07	9.477044e-09	4.495691e+00	6.136951e+02
2.440000e-06	4.791157e-07	8.524613e-09	3.481350e+00	5.517239e+02
2.450000e-06	3.392937e-07	7.537229e-09	2.465376e+00	4.884232e+02
2.460000e-06	1.992864e-07	6.527799e-09	1.448055e+00	4.242300e+02
2.470000e-06	5.917733e-08	5.509193e-09	4.299943e-01	3.594884e+02
2.480000e-06	-8.097866e-08	4.493598e-09	-5.884072e-01	2.944175e+02
2.490000e-06	-2.211016e-07	3.487543e-09	-1.606569e+00	2.290973e+02
2.500000e-06	-3.610604e-07	2.486575e-09	-2.623537e+00	1.634735e+02
2.510000e-06	-5.008895e-07	1.486424e-09	-3.639564e+00	9.738079e+01
2.520000e-06	-6.406382e-07	4.851582e-10	-4.655005e+00	3.058377e+01
2.530000e-06	-7.801787e-07	-5.240199e-10	-5.668935e+00	-3.717144e+01
2.540000e-06	-9.193724e-07	-1.551638e-09	-6.680344e+00	-1.061001e+02
2.550000e-06	-1.058194e-06	-2.606553e-09	-7.689048e+00	-1.763240e+02
2.560000e-06	-1.196605e-06	-3.692176e-09	-8.694769e+00	-2.478263e+02
2.570000e-06	-1.334540e-06	-4.809362e-09	-9.697032e+00	-3.204217e+02
2.580000e-06	-1.472011e-06	-5.952439e-09	-1.069593e+01	-3.937466e+02
2.590000e-06	-1.608990e-06	-7.107048e-09	-1.169124e+01	-4.672702e+02
2.600000e-06	-1.745367e-06	-8.252423e-09	-1.268219e+01	-5.403264e+02
2.610000e-06	-1.881027e-06	-9.370969e-09	-1.366792e+01	-6.121625e+02
2.620000e-06	-2.015892e-06	-1.044804e-08	-1.464787e+01	-6.819990e+02
2.630000e-06	-2.149937e-06	-1.146987e-08	-1.562187e+01	-7.490928e+02
2.640000e-06	-2.283195e-06	-1.242956e-08	-1.659015e+01	-8.127985e+02
2.650000e-06	-2.415651e-06	-1.332361e-08	-1.755260e+01	-8.726176e+02
2.660000e-06	-2.547153e-06	-1.415177e-08	-1.850812e+01	-9.282331e+02
2.670000e-06	-2.677646e-06	-1.491758e-08	-1.945631e+01	-9.795248e+02
2.680000e-06	-2.807216e-06	-1.562773e-08	-2.039780e+01	-1.026563e+03
2.690000e-06	-2.935859e-06	-1.628915e-08	-2.133254e+01	-1.069586e+03
2.700000e-06	-3.063406e-06	-1.690374e-08	-2.225932e+01	-1.108959e+03
2.710000e-06	-3.189815e-06	-1.747444e-08	-2.317784e+01	-1.145129e+03
2.720000e-06	-3.315152e-06	-1.800619e-08	-2.408856e+01	-1.178570e+03
2.730000e-06	-3.439303e-06	-1.849991e-08	-2.499067e+01	-1.209736e+03
2.740000e-06	-3.562121e-06	-1.895976e-08	-2.588308e+01	-1.239024e+03
2.750000e-06	-3.683726e-06	-1.938848e-08	-2.676669e+01	-1.266742e+03
2.760000e-06	-3.804055e-06	-1.978867e-08	-2.764103e+01	-1.293104e+03
2.770000e-06	-3.922879e-06	-2.016633e-08	-2.850442e+01	-1.318224e+03
2.780000e-06	-4.040218e-06	-2.052438e-08	-2.935703e+01	-1.342140e+03
2.790000e-06	-4.155973e-06	-2.086155e-08	-3.019813e+01	-1.364832e+03
2.800000e-06	-4.269977e-06	-2.117786e-08	-3.102651e+01	-1.386255e+03
2.810000e-06	-4.382273e-06	-2.147604e-08	-3.184247e+01	-1.406365e+03
2.820000e-06	-4.492907e-06	-2.175606e-08	-3.264636e+01	-1.425143e+03
2.830000e-06	-4.601960e-06	-2.201999e-08	-3.343876e+01	-1.442614e+03
2.840000e-06	-4.709509e-06	-2.227045e-08	-3.422024e+01	-1.458850e+03
2.850000e-06	-4.815534e-06	-2.250828e-08	-3.499063e+01	-1.473968e+03
2.860000e-06	-4.919859e-06	-2.273416e-08	-3.574868e+01	-1.488118e+03
2.870000e-06	-5.022289e-06	-2.294831e-08	-3.649295e+01	-1.501467e+03
2.880000e-06	-5.122779e-06	-2.315228e-08	-3.722314e+01	-1.514174e+03
2.890000e-06	-5.221419e-06	-2.334858e-08	-3.793988e+01	-1.526378e+03
2.900000e-06	-5.318322e-06	-2.353443e-08	-3.864399e+01	-1.538174e+03
2.910000e-06	-5.413304e-06	-2.370869e-08	-3.933415e+01	-1.549615e+03
2.920000e-06	-5.506226e-06	-2.387228e-08	-4.000934e+01	-1.560702e+03
2.930000e-06	-5.597239e-06	-2.402621e-08	-4.067066e+01	-1.571398e+03
2.940000e-06	-5.686324e-06	-2.417213e-08	-4.131797e+01	-1.581635e+03
