# Temperatura_=_34.77
# Concentracion g/m^3_=_28370.0
# C_Vs_to_Am_M_A/Vsm_=_65563218390.804596
# pendiente_HvsI_1/m_=_3716.3
# ordenada_HvsI_A/m_=_1297.0
# frecuencia_Hz_=_302399.6150669185

Tiempo_(s)	Campo_(V.s)	Magnetizacion_(V.s)	Campo_(kA/m)	Magnetizacion_(A/m)
0.000000e+00	-7.321895e-06	-2.613662e-08	-5.318360e+01	-1.711149e+03
1.000000e-08	-7.318357e-06	-2.613568e-08	-5.315790e+01	-1.710327e+03
2.000000e-08	-7.312419e-06	-2.612318e-08	-5.311477e+01	-1.709389e+03
3.000000e-08	-7.304229e-06	-2.610823e-08	-5.305528e+01	-1.708395e+03
4.000000e-08	-7.293493e-06	-2.609442e-08	-5.297729e+01	-1.707395e+03
5.000000e-08	-7.279934e-06	-2.607838e-08	-5.287881e+01	-1.706415e+03
6.000000e-08	-7.263677e-06	-2.605636e-08	-5.276073e+01	-1.705456e+03
7.000000e-08	-7.245190e-06	-2.603129e-08	-5.262644e+01	-1.704496e+03
8.000000e-08	-7.224683e-06	-2.600483e-08	-5.247749e+01	-1.703492e+03
9.000000e-08	-7.201673e-06	-2.605895e-08	-5.231035e+01	-1.702392e+03
1.000000e-07	-7.175674e-06	-2.604714e-08	-5.212150e+01	-1.701138e+03
1.100000e-07	-7.146746e-06	-2.594888e-08	-5.191138e+01	-1.699682e+03
1.200000e-07	-7.115316e-06	-2.590119e-08	-5.168309e+01	-1.697991e+03
1.300000e-07	-7.081419e-06	-2.587498e-08	-5.143687e+01	-1.696050e+03
1.400000e-07	-7.045235e-06	-2.579242e-08	-5.117404e+01	-1.693866e+03
1.500000e-07	-7.007253e-06	-2.569949e-08	-5.089815e+01	-1.691465e+03
1.600000e-07	-6.967278e-06	-2.581971e-08	-5.060779e+01	-1.688881e+03
1.700000e-07	-6.924826e-06	-2.576017e-08	-5.029943e+01	-1.686155e+03
1.800000e-07	-6.879982e-06	-2.561264e-08	-4.997370e+01	-1.683319e+03
1.900000e-07	-6.832657e-06	-2.568934e-08	-4.962995e+01	-1.680393e+03
2.000000e-07	-6.782408e-06	-2.557581e-08	-4.926496e+01	-1.677375e+03
2.100000e-07	-6.729371e-06	-2.549527e-08	-4.887972e+01	-1.674244e+03
2.200000e-07	-6.673828e-06	-2.548347e-08	-4.847627e+01	-1.670959e+03
2.300000e-07	-6.615766e-06	-2.540474e-08	-4.805453e+01	-1.667466e+03
2.400000e-07	-6.555250e-06	-2.536808e-08	-4.761497e+01	-1.663706e+03
2.500000e-07	-6.492363e-06	-2.525380e-08	-4.715818e+01	-1.659624e+03
2.600000e-07	-6.426971e-06	-2.521572e-08	-4.668319e+01	-1.655182e+03
2.700000e-07	-6.359140e-06	-2.514590e-08	-4.619049e+01	-1.650360e+03
2.800000e-07	-6.289025e-06	-2.504595e-08	-4.568120e+01	-1.645164e+03
2.900000e-07	-6.216502e-06	-2.497599e-08	-4.515442e+01	-1.639626e+03
3.000000e-07	-6.141422e-06	-2.488766e-08	-4.460907e+01	-1.633792e+03
3.100000e-07	-6.063760e-06	-2.481940e-08	-4.404496e+01	-1.627722e+03
3.200000e-07	-5.983566e-06	-2.469936e-08	-4.346246e+01	-1.621473e+03
3.300000e-07	-5.901194e-06	-2.463664e-08	-4.286414e+01	-1.615090e+03
3.400000e-07	-5.816957e-06	-2.453712e-08	-4.225227e+01	-1.608595e+03
3.500000e-07	-5.730839e-06	-2.440600e-08	-4.162674e+01	-1.601982e+03
3.600000e-07	-5.642721e-06	-2.431094e-08	-4.098668e+01	-1.595214e+03
3.700000e-07	-5.552505e-06	-2.420042e-08	-4.033139e+01	-1.588229e+03
3.800000e-07	-5.460236e-06	-2.408348e-08	-3.966118e+01	-1.580944e+03
3.900000e-07	-5.366055e-06	-2.395129e-08	-3.897708e+01	-1.573266e+03
4.000000e-07	-5.270066e-06	-2.383616e-08	-3.827985e+01	-1.565112e+03
4.100000e-07	-5.172173e-06	-2.369426e-08	-3.756880e+01	-1.556412e+03
4.200000e-07	-5.072421e-06	-2.354665e-08	-3.684423e+01	-1.547126e+03
4.300000e-07	-4.970889e-06	-2.340067e-08	-3.610674e+01	-1.537245e+03
4.400000e-07	-4.867554e-06	-2.325088e-08	-3.535616e+01	-1.526794e+03
4.500000e-07	-4.762507e-06	-2.309012e-08	-3.459313e+01	-1.515823e+03
4.600000e-07	-4.655764e-06	-2.291836e-08	-3.381779e+01	-1.504396e+03
4.700000e-07	-4.547365e-06	-2.274477e-08	-3.303041e+01	-1.492579e+03
4.800000e-07	-4.437403e-06	-2.256135e-08	-3.223169e+01	-1.480423e+03
4.900000e-07	-4.325846e-06	-2.237170e-08	-3.142138e+01	-1.467951e+03
5.000000e-07	-4.212593e-06	-2.217136e-08	-3.059875e+01	-1.455146e+03
5.100000e-07	-4.097544e-06	-2.196550e-08	-2.976308e+01	-1.441950e+03
5.200000e-07	-3.980829e-06	-2.174541e-08	-2.891530e+01	-1.428267e+03
5.300000e-07	-3.862688e-06	-2.151632e-08	-2.805717e+01	-1.413968e+03
5.400000e-07	-3.743117e-06	-2.127540e-08	-2.718865e+01	-1.398909e+03
5.500000e-07	-3.622117e-06	-2.102715e-08	-2.630975e+01	-1.382951e+03
5.600000e-07	-3.499698e-06	-2.076727e-08	-2.542054e+01	-1.365970e+03
5.700000e-07	-3.375849e-06	-2.049185e-08	-2.452095e+01	-1.347877e+03
5.800000e-07	-3.250781e-06	-2.020101e-08	-2.361250e+01	-1.328626e+03
5.900000e-07	-3.124648e-06	-1.989629e-08	-2.269632e+01	-1.308211e+03
6.000000e-07	-2.997408e-06	-1.957822e-08	-2.177209e+01	-1.286664e+03
6.100000e-07	-2.869001e-06	-1.924023e-08	-2.083938e+01	-1.264030e+03
6.200000e-07	-2.739477e-06	-1.888668e-08	-1.989857e+01	-1.240355e+03
6.300000e-07	-2.608913e-06	-1.851356e-08	-1.895020e+01	-1.215654e+03
6.400000e-07	-2.477325e-06	-1.812103e-08	-1.799439e+01	-1.189892e+03
6.500000e-07	-2.344809e-06	-1.770114e-08	-1.703185e+01	-1.162964e+03
6.600000e-07	-2.211570e-06	-1.725610e-08	-1.606404e+01	-1.134687e+03
6.700000e-07	-2.077712e-06	-1.678464e-08	-1.509175e+01	-1.104799e+03
6.800000e-07	-1.943154e-06	-1.628404e-08	-1.411437e+01	-1.072976e+03
6.900000e-07	-1.807793e-06	-1.575296e-08	-1.313116e+01	-1.038858e+03
7.000000e-07	-1.671680e-06	-1.518588e-08	-1.214248e+01	-1.002080e+03
7.100000e-07	-1.534993e-06	-1.458063e-08	-1.114963e+01	-9.623138e+02
7.200000e-07	-1.397850e-06	-1.393073e-08	-1.015347e+01	-9.193057e+02
7.300000e-07	-1.260247e-06	-1.323840e-08	-9.153982e+00	-8.729089e+02
7.400000e-07	-1.122227e-06	-1.249619e-08	-8.151450e+00	-8.231068e+02
7.500000e-07	-9.838009e-07	-1.170551e-08	-7.145975e+00	-7.700212e+02
7.600000e-07	-8.449248e-07	-1.086918e-08	-6.137229e+00	-7.139042e+02
7.700000e-07	-7.056294e-07	-9.985661e-09	-5.125437e+00	-6.551155e+02
7.800000e-07	-5.660282e-07	-9.054412e-09	-4.111424e+00	-5.940856e+02
7.900000e-07	-4.261963e-07	-8.081155e-09	-3.095736e+00	-5.312711e+02
8.000000e-07	-2.861392e-07	-7.079066e-09	-2.078412e+00	-4.671056e+02
8.100000e-07	-1.459020e-07	-6.058198e-09	-1.059779e+00	-4.019558e+02
8.200000e-07	-5.560969e-09	-5.030488e-09	-4.039287e-02	-3.360860e+02
8.300000e-07	1.348002e-07	-4.003478e-09	9.791399e-01	-2.696374e+02
8.400000e-07	2.750812e-07	-2.983569e-09	1.998090e+00	-2.026261e+02
8.500000e-07	4.152309e-07	-1.967076e-09	3.016087e+00	-1.349583e+02
8.600000e-07	5.552510e-07	-9.474276e-10	4.033142e+00	-6.646444e+01
8.700000e-07	6.950363e-07	8.199160e-11	5.048492e+00	3.055220e+00
8.800000e-07	8.345281e-07	1.129703e-09	6.061710e+00	7.377690e+01
8.900000e-07	9.736909e-07	2.203555e-09	7.072538e+00	1.457999e+02
9.000000e-07	1.112432e-06	3.310129e-09	8.080307e+00	2.190998e+02
9.100000e-07	1.250705e-06	4.447537e-09	9.084670e+00	2.934957e+02
9.200000e-07	1.388536e-06	5.611910e-09	1.008582e+01	3.686353e+02
9.300000e-07	1.525919e-06	6.789863e-09	1.108373e+01	4.440004e+02
9.400000e-07	1.662715e-06	7.963330e-09	1.207736e+01	5.189340e+02
9.500000e-07	1.798879e-06	9.111219e-09	1.306641e+01	5.926836e+02
9.600000e-07	1.934334e-06	1.021538e-08	1.405030e+01	6.644593e+02
9.700000e-07	2.068938e-06	1.126226e-08	1.502802e+01	7.334957e+02
9.800000e-07	2.202753e-06	1.224256e-08	1.600000e+01	7.991143e+02
9.900000e-07	2.335867e-06	1.315422e-08	1.696689e+01	8.607768e+02
1.000000e-06	2.468185e-06	1.399938e-08	1.792800e+01	9.181231e+02
1.010000e-06	2.599489e-06	1.477945e-08	1.888175e+01	9.709922e+02
1.020000e-06	2.729735e-06	1.549879e-08	1.982781e+01	1.019421e+03
1.030000e-06	2.859034e-06	1.616523e-08	2.076699e+01	1.063626e+03
1.040000e-06	2.987297e-06	1.678427e-08	2.169865e+01	1.103964e+03
1.050000e-06	3.114374e-06	1.735818e-08	2.262169e+01	1.140889e+03
1.060000e-06	3.240302e-06	1.789266e-08	2.353638e+01	1.174896e+03
1.070000e-06	3.365229e-06	1.838991e-08	2.444381e+01	1.206472e+03
1.080000e-06	3.489076e-06	1.885241e-08	2.534339e+01	1.236052e+03
1.090000e-06	3.611578e-06	1.928280e-08	2.623320e+01	1.263986e+03
1.100000e-06	3.732728e-06	1.968448e-08	2.711319e+01	1.290526e+03
1.110000e-06	3.852492e-06	2.006405e-08	2.798311e+01	1.315819e+03
1.120000e-06	3.970815e-06	2.042405e-08	2.884257e+01	1.339924e+03
1.130000e-06	4.087777e-06	2.076340e-08	2.969213e+01	1.362833e+03
1.140000e-06	4.203214e-06	2.108080e-08	3.053062e+01	1.384500e+03
1.150000e-06	4.316970e-06	2.137867e-08	3.135691e+01	1.404873e+03
1.160000e-06	4.429054e-06	2.165936e-08	3.217105e+01	1.423917e+03
1.170000e-06	4.539521e-06	2.192418e-08	3.297344e+01	1.441638e+03
1.180000e-06	4.648531e-06	2.217324e-08	3.376525e+01	1.458091e+03
1.190000e-06	4.756004e-06	2.241253e-08	3.454589e+01	1.473380e+03
1.200000e-06	4.861763e-06	2.264070e-08	3.531409e+01	1.487648e+03
1.210000e-06	4.965725e-06	2.285734e-08	3.606923e+01	1.501062e+03
1.220000e-06	5.067878e-06	2.306093e-08	3.681123e+01	1.513791e+03
1.230000e-06	5.168241e-06	2.325206e-08	3.754023e+01	1.525986e+03
1.240000e-06	5.266648e-06	2.343318e-08	3.825503e+01	1.537760e+03
1.250000e-06	5.362954e-06	2.360220e-08	3.895456e+01	1.549183e+03
1.260000e-06	5.457292e-06	2.376323e-08	3.963979e+01	1.560273e+03
1.270000e-06	5.549848e-06	2.391890e-08	4.031209e+01	1.571002e+03
1.280000e-06	5.640483e-06	2.406774e-08	4.097043e+01	1.581308e+03
1.290000e-06	5.728959e-06	2.420986e-08	4.161309e+01	1.591112e+03
1.300000e-06	5.815328e-06	2.434635e-08	4.224044e+01	1.600335e+03
1.310000e-06	5.899718e-06	2.447763e-08	4.285342e+01	1.608915e+03
1.320000e-06	5.982048e-06	2.460132e-08	4.345143e+01	1.616821e+03
1.330000e-06	6.062163e-06	2.471596e-08	4.403336e+01	1.624064e+03
1.340000e-06	6.140045e-06	2.482150e-08	4.459907e+01	1.630690e+03
1.350000e-06	6.215619e-06	2.491741e-08	4.514801e+01	1.636783e+03
1.360000e-06	6.288737e-06	2.500706e-08	4.567912e+01	1.642448e+03
1.370000e-06	6.359530e-06	2.509386e-08	4.619333e+01	1.647797e+03
1.380000e-06	6.428161e-06	2.517816e-08	4.669184e+01	1.652936e+03
1.390000e-06	6.494470e-06	2.525841e-08	4.717349e+01	1.657946e+03
1.400000e-06	6.558384e-06	2.533374e-08	4.763773e+01	1.662877e+03
1.410000e-06	6.620044e-06	2.540447e-08	4.808561e+01	1.667740e+03
1.420000e-06	6.679464e-06	2.547055e-08	4.851721e+01	1.672511e+03
1.430000e-06	6.736554e-06	2.553336e-08	4.893189e+01	1.677136e+03
1.440000e-06	6.791252e-06	2.559489e-08	4.932920e+01	1.681545e+03
1.450000e-06	6.843282e-06	2.565290e-08	4.970712e+01	1.685661e+03
1.460000e-06	6.892474e-06	2.570616e-08	5.006444e+01	1.689418e+03
1.470000e-06	6.939060e-06	2.575597e-08	5.040283e+01	1.692772e+03
1.480000e-06	6.983262e-06	2.580138e-08	5.072389e+01	1.695708e+03
1.490000e-06	7.024960e-06	2.584380e-08	5.102677e+01	1.698243e+03
1.500000e-06	7.064018e-06	2.588269e-08	5.131047e+01	1.700421e+03
1.510000e-06	7.100701e-06	2.591826e-08	5.157693e+01	1.702310e+03
1.520000e-06	7.134922e-06	2.595176e-08	5.182550e+01	1.703986e+03
1.530000e-06	7.166480e-06	2.598002e-08	5.205472e+01	1.705523e+03
1.540000e-06	7.195597e-06	2.600392e-08	5.226622e+01	1.706981e+03
1.550000e-06	7.222212e-06	2.602424e-08	5.245954e+01	1.708399e+03
1.560000e-06	7.246085e-06	2.604228e-08	5.263294e+01	1.709786e+03
1.570000e-06	7.267370e-06	2.605873e-08	5.278755e+01	1.711124e+03
1.580000e-06	7.286203e-06	2.607271e-08	5.292435e+01	1.712370e+03
1.590000e-06	7.302383e-06	2.608406e-08	5.304187e+01	1.713467e+03
1.600000e-06	7.315762e-06	2.609150e-08	5.313905e+01	1.714355e+03
1.610000e-06	7.326253e-06	2.609769e-08	5.321526e+01	1.714978e+03
1.620000e-06	7.333877e-06	2.610375e-08	5.327063e+01	1.715300e+03
1.630000e-06	7.338938e-06	2.610811e-08	5.330739e+01	1.715308e+03
1.640000e-06	7.341390e-06	2.610917e-08	5.332520e+01	1.715014e+03
1.650000e-06	7.341188e-06	2.611007e-08	5.332373e+01	1.714456e+03
1.660000e-06	7.338608e-06	2.609736e-08	5.330500e+01	1.713691e+03
1.670000e-06	7.333637e-06	2.608567e-08	5.326889e+01	1.712785e+03
1.680000e-06	7.326174e-06	2.607564e-08	5.321468e+01	1.711803e+03
1.690000e-06	7.316292e-06	2.606245e-08	5.314290e+01	1.710800e+03
1.700000e-06	7.303882e-06	2.605242e-08	5.305276e+01	1.709810e+03
1.710000e-06	7.288874e-06	2.604673e-08	5.294375e+01	1.708844e+03
1.720000e-06	7.271519e-06	2.604610e-08	5.281769e+01	1.707887e+03
1.730000e-06	7.252078e-06	2.601542e-08	5.267647e+01	1.706904e+03
1.740000e-06	7.230106e-06	2.589294e-08	5.251688e+01	1.705843e+03
1.750000e-06	7.204873e-06	2.590106e-08	5.233360e+01	1.704649e+03
1.760000e-06	7.176281e-06	2.593153e-08	5.212591e+01	1.703269e+03
1.770000e-06	7.144830e-06	2.588181e-08	5.189746e+01	1.701663e+03
1.780000e-06	7.111171e-06	2.588752e-08	5.165298e+01	1.699810e+03
1.790000e-06	7.075779e-06	2.598534e-08	5.139590e+01	1.697710e+03
1.800000e-06	7.038870e-06	2.583855e-08	5.112781e+01	1.695382e+03
1.810000e-06	6.999713e-06	2.576020e-08	5.084339e+01	1.692858e+03
1.820000e-06	6.957820e-06	2.586825e-08	5.053909e+01	1.690177e+03
1.830000e-06	6.913674e-06	2.568582e-08	5.021843e+01	1.687376e+03
1.840000e-06	6.867097e-06	2.577536e-08	4.988011e+01	1.684480e+03
1.850000e-06	6.817878e-06	2.571430e-08	4.952260e+01	1.681495e+03
1.860000e-06	6.766051e-06	2.559011e-08	4.914615e+01	1.678407e+03
1.870000e-06	6.711400e-06	2.563132e-08	4.874918e+01	1.675181e+03
1.880000e-06	6.654297e-06	2.543399e-08	4.833441e+01	1.671768e+03
1.890000e-06	6.594738e-06	2.548384e-08	4.790179e+01	1.668109e+03
1.900000e-06	6.532519e-06	2.539669e-08	4.744986e+01	1.664146e+03
1.910000e-06	6.467836e-06	2.527867e-08	4.698003e+01	1.659835e+03
1.920000e-06	6.400757e-06	2.529836e-08	4.649279e+01	1.655148e+03
1.930000e-06	6.331305e-06	2.514426e-08	4.598831e+01	1.650083e+03
1.940000e-06	6.259331e-06	2.513140e-08	4.546552e+01	1.644660e+03
1.950000e-06	6.184964e-06	2.500549e-08	4.492534e+01	1.638925e+03
1.960000e-06	6.108129e-06	2.495051e-08	4.436724e+01	1.632931e+03
1.970000e-06	6.028714e-06	2.486321e-08	4.379040e+01	1.626739e+03
1.980000e-06	5.947140e-06	2.471764e-08	4.319788e+01	1.620398e+03
1.990000e-06	5.863594e-06	2.469015e-08	4.259103e+01	1.613941e+03
2.000000e-06	5.777954e-06	2.454404e-08	4.196897e+01	1.607372e+03
2.010000e-06	5.690112e-06	2.446882e-08	4.133091e+01	1.600665e+03
2.020000e-06	5.600250e-06	2.433497e-08	4.067819e+01	1.593765e+03
2.030000e-06	5.508493e-06	2.422076e-08	4.001170e+01	1.586596e+03
2.040000e-06	5.414756e-06	2.409443e-08	3.933083e+01	1.579067e+03
2.050000e-06	5.319043e-06	2.395914e-08	3.863561e+01	1.571091e+03
2.060000e-06	5.221470e-06	2.385908e-08	3.792687e+01	1.562591e+03
2.070000e-06	5.122248e-06	2.370651e-08	3.720616e+01	1.553516e+03
2.080000e-06	5.021255e-06	2.357520e-08	3.647258e+01	1.543845e+03
2.090000e-06	4.918331e-06	2.340559e-08	3.572498e+01	1.533592e+03
2.100000e-06	4.813528e-06	2.326304e-08	3.496372e+01	1.522798e+03
2.110000e-06	4.707123e-06	2.309231e-08	3.419084e+01	1.511525e+03
2.120000e-06	4.599251e-06	2.292770e-08	3.340730e+01	1.499839e+03
2.130000e-06	4.489806e-06	2.275039e-08	3.261232e+01	1.487799e+03
2.140000e-06	4.378651e-06	2.256002e-08	3.180494e+01	1.475438e+03
2.150000e-06	4.265739e-06	2.236502e-08	3.098478e+01	1.462755e+03
2.160000e-06	4.151226e-06	2.215589e-08	3.015300e+01	1.449708e+03
2.170000e-06	4.035050e-06	2.195442e-08	2.930915e+01	1.436211e+03
2.180000e-06	3.917182e-06	2.173028e-08	2.845299e+01	1.422146e+03
2.190000e-06	3.797669e-06	2.150280e-08	2.758489e+01	1.407375e+03
2.200000e-06	3.676670e-06	2.125207e-08	2.670600e+01	1.391752e+03
2.210000e-06	3.554355e-06	2.099694e-08	2.581755e+01	1.375147e+03
2.220000e-06	3.430789e-06	2.072370e-08	2.492001e+01	1.357457e+03
2.230000e-06	3.305957e-06	2.044574e-08	2.401328e+01	1.338621e+03
2.240000e-06	3.179882e-06	2.015150e-08	2.309751e+01	1.318620e+03
2.250000e-06	3.052597e-06	1.984330e-08	2.217296e+01	1.297470e+03
2.260000e-06	2.924099e-06	1.951579e-08	2.123960e+01	1.275218e+03
2.270000e-06	2.794549e-06	1.916872e-08	2.029860e+01	1.251909e+03
2.280000e-06	2.664068e-06	1.880682e-08	1.935083e+01	1.227575e+03
2.290000e-06	2.532652e-06	1.842384e-08	1.839627e+01	1.202199e+03
2.300000e-06	2.400316e-06	1.802060e-08	1.743503e+01	1.175703e+03
2.310000e-06	2.267146e-06	1.758754e-08	1.646773e+01	1.147933e+03
2.320000e-06	2.133247e-06	1.712868e-08	1.549513e+01	1.118653e+03
2.330000e-06	1.998635e-06	1.663677e-08	1.451736e+01	1.087560e+03
2.340000e-06	1.863286e-06	1.611426e-08	1.353423e+01	1.054303e+03
2.350000e-06	1.727237e-06	1.555756e-08	1.254603e+01	1.018514e+03
2.360000e-06	1.590565e-06	1.496635e-08	1.155329e+01	9.798480e+02
2.370000e-06	1.453429e-06	1.433504e-08	1.055718e+01	9.380195e+02
2.380000e-06	1.315932e-06	1.365920e-08	9.558453e+00	8.928407e+02
2.390000e-06	1.178057e-06	1.293751e-08	8.556977e+00	8.442469e+02
2.400000e-06	1.039806e-06	1.216615e-08	7.552774e+00	7.923103e+02
2.410000e-06	9.011432e-07	1.134321e-08	6.545579e+00	7.372383e+02
2.420000e-06	7.620796e-07	1.046974e-08	5.535471e+00	6.793560e+02
2.430000e-06	6.227330e-07	9.551267e-09	4.523307e+00	6.190733e+02
2.440000e-06	4.831419e-07	8.592070e-09	3.509368e+00	5.568430e+02
2.450000e-06	3.433266e-07	7.597850e-09	2.493801e+00	4.931124e+02
2.460000e-06	2.033272e-07	6.581093e-09	1.476896e+00	4.282767e+02
2.470000e-06	6.323082e-08	5.552103e-09	4.592858e-01	3.626400e+02
2.480000e-06	-7.687246e-08	4.519964e-09	-5.583738e-01	2.963888e+02
2.490000e-06	-2.169866e-07	3.490883e-09	-1.576112e+00	2.295829e+02
2.500000e-06	-3.570524e-07	2.464154e-09	-2.593499e+00	1.621648e+02
2.510000e-06	-4.970166e-07	1.439197e-09	-3.610149e+00	9.398722e+01
2.520000e-06	-6.368180e-07	4.086126e-10	-4.625616e+00	2.485536e+01
2.530000e-06	-7.763695e-07	-6.369573e-10	-5.639267e+00	-4.542171e+01
2.540000e-06	-9.156416e-07	-1.705738e-09	-6.650890e+00	-1.169766e+02
2.550000e-06	-1.054506e-06	-2.802936e-09	-7.659549e+00	-1.898338e+02
2.560000e-06	-1.192891e-06	-3.929595e-09	-8.664731e+00	-2.638709e+02
2.570000e-06	-1.330836e-06	-5.086547e-09	-9.666709e+00	-3.387973e+02
2.580000e-06	-1.468362e-06	-6.263282e-09	-1.066565e+01	-4.141520e+02
2.590000e-06	-1.605436e-06	-7.445337e-09	-1.166131e+01	-4.893234e+02
2.600000e-06	-1.741949e-06	-8.610697e-09	-1.265289e+01	-5.635871e+02
2.610000e-06	-1.877717e-06	-9.739256e-09	-1.363906e+01	-6.361595e+02
2.620000e-06	-2.012627e-06	-1.081820e-08	-1.461899e+01	-7.062590e+02
2.630000e-06	-2.146753e-06	-1.183356e-08	-1.559324e+01	-7.731695e+02
2.640000e-06	-2.280142e-06	-1.277831e-08	-1.656213e+01	-8.362973e+02
2.650000e-06	-2.412639e-06	-1.365368e-08	-1.752454e+01	-8.952153e+02
2.660000e-06	-2.544213e-06	-1.446487e-08	-1.848024e+01	-9.496903e+02
2.670000e-06	-2.674854e-06	-1.521392e-08	-1.942918e+01	-9.996901e+02
2.680000e-06	-2.804559e-06	-1.590660e-08	-2.037130e+01	-1.045370e+03
2.690000e-06	-2.933332e-06	-1.655052e-08	-2.130666e+01	-1.087042e+03
2.700000e-06	-3.061018e-06	-1.714681e-08	-2.223413e+01	-1.125131e+03
2.710000e-06	-3.187588e-06	-1.769981e-08	-2.315348e+01	-1.160124e+03
2.720000e-06	-3.313027e-06	-1.821395e-08	-2.406463e+01	-1.192517e+03
2.730000e-06	-3.437223e-06	-1.869268e-08	-2.496674e+01	-1.222765e+03
2.740000e-06	-3.560112e-06	-1.914026e-08	-2.585937e+01	-1.251254e+03
2.750000e-06	-3.681769e-06	-1.955882e-08	-2.674304e+01	-1.278271e+03
2.760000e-06	-3.802126e-06	-1.995281e-08	-2.761727e+01	-1.303999e+03
2.770000e-06	-3.921037e-06	-2.032223e-08	-2.848100e+01	-1.328528e+03
2.780000e-06	-4.038505e-06	-2.066877e-08	-2.933424e+01	-1.351869e+03
2.790000e-06	-4.154370e-06	-2.099361e-08	-3.017584e+01	-1.373988e+03
2.800000e-06	-4.268432e-06	-2.129926e-08	-3.100435e+01	-1.394829e+03
2.810000e-06	-4.380780e-06	-2.158833e-08	-3.182040e+01	-1.414351e+03
2.820000e-06	-4.491469e-06	-2.186065e-08	-3.262440e+01	-1.432542e+03
2.830000e-06	-4.600581e-06	-2.211821e-08	-3.341695e+01	-1.449439e+03
2.840000e-06	-4.708251e-06	-2.236275e-08	-3.419903e+01	-1.465130e+03
2.850000e-06	-4.814417e-06	-2.259462e-08	-3.497019e+01	-1.479746e+03
2.860000e-06	-4.918866e-06	-2.281457e-08	-3.572886e+01	-1.493446e+03
2.870000e-06	-5.021409e-06	-2.302505e-08	-3.647370e+01	-1.506403e+03
2.880000e-06	-5.122009e-06	-2.322475e-08	-3.720442e+01	-1.518774e+03
2.890000e-06	-5.220777e-06	-2.341536e-08	-3.792184e+01	-1.530689e+03
2.900000e-06	-5.317810e-06	-2.359579e-08	-3.862665e+01	-1.542234e+03
2.910000e-06	-5.412920e-06	-2.376405e-08	-3.931749e+01	-1.553445e+03
2.920000e-06	-5.505982e-06	-2.392172e-08	-3.999346e+01	-1.564309e+03
2.930000e-06	-5.597104e-06	-2.407104e-08	-4.065534e+01	-1.574776e+03
2.940000e-06	-5.686268e-06	-2.421532e-08	-4.130300e+01	-1.584770e+03
