# Temperatura_=_41.29
# Concentracion g/m^3_=_28370.0
# C_Vs_to_Am_M_A/Vsm_=_65563218390.804596
# pendiente_HvsI_1/m_=_3716.3
# ordenada_HvsI_A/m_=_1297.0
# frecuencia_Hz_=_302402.27944672777

Tiempo_(s)	Campo_(V.s)	Magnetizacion_(V.s)	Campo_(kA/m)	Magnetizacion_(A/m)
0.000000e+00	-7.346593e-06	-2.617827e-08	-5.318736e+01	-1.714009e+03
1.000000e-08	-7.343588e-06	-2.617967e-08	-5.316561e+01	-1.713250e+03
2.000000e-08	-7.338108e-06	-2.616947e-08	-5.312593e+01	-1.712381e+03
3.000000e-08	-7.330320e-06	-2.615431e-08	-5.306955e+01	-1.711461e+03
4.000000e-08	-7.320065e-06	-2.613971e-08	-5.299530e+01	-1.710529e+03
5.000000e-08	-7.307081e-06	-2.612189e-08	-5.290131e+01	-1.709607e+03
6.000000e-08	-7.291312e-06	-2.609940e-08	-5.278714e+01	-1.708690e+03
7.000000e-08	-7.273158e-06	-2.607545e-08	-5.265571e+01	-1.707750e+03
8.000000e-08	-7.252989e-06	-2.604580e-08	-5.250969e+01	-1.706743e+03
9.000000e-08	-7.230451e-06	-2.609014e-08	-5.234653e+01	-1.705614e+03
1.000000e-07	-7.204990e-06	-2.610882e-08	-5.216219e+01	-1.704311e+03
1.100000e-07	-7.176589e-06	-2.600772e-08	-5.195657e+01	-1.702790e+03
1.200000e-07	-7.145602e-06	-2.594259e-08	-5.173224e+01	-1.701024e+03
1.300000e-07	-7.112102e-06	-2.592915e-08	-5.148971e+01	-1.699008e+03
1.400000e-07	-7.076274e-06	-2.587264e-08	-5.123032e+01	-1.696758e+03
1.500000e-07	-7.038530e-06	-2.575962e-08	-5.095707e+01	-1.694306e+03
1.600000e-07	-6.998807e-06	-2.582803e-08	-5.066949e+01	-1.691696e+03
1.700000e-07	-6.956661e-06	-2.584205e-08	-5.036435e+01	-1.688973e+03
1.800000e-07	-6.912081e-06	-2.563824e-08	-5.004161e+01	-1.686170e+03
1.900000e-07	-6.865046e-06	-2.569843e-08	-4.970109e+01	-1.683307e+03
2.000000e-07	-6.815123e-06	-2.565879e-08	-4.933966e+01	-1.680380e+03
2.100000e-07	-6.762425e-06	-2.555299e-08	-4.895814e+01	-1.677359e+03
2.200000e-07	-6.707216e-06	-2.555148e-08	-4.855845e+01	-1.674197e+03
2.300000e-07	-6.649488e-06	-2.542946e-08	-4.814051e+01	-1.670831e+03
2.400000e-07	-6.589279e-06	-2.540108e-08	-4.770461e+01	-1.667192e+03
2.500000e-07	-6.526634e-06	-2.532549e-08	-4.725108e+01	-1.663219e+03
2.600000e-07	-6.461543e-06	-2.525621e-08	-4.677983e+01	-1.658866e+03
2.700000e-07	-6.394014e-06	-2.519118e-08	-4.629094e+01	-1.654111e+03
2.800000e-07	-6.324079e-06	-2.511163e-08	-4.578463e+01	-1.648959e+03
2.900000e-07	-6.251745e-06	-2.504101e-08	-4.526095e+01	-1.643443e+03
3.000000e-07	-6.176913e-06	-2.492983e-08	-4.471919e+01	-1.637615e+03
3.100000e-07	-6.099507e-06	-2.487458e-08	-4.415879e+01	-1.631538e+03
3.200000e-07	-6.019575e-06	-2.478847e-08	-4.358011e+01	-1.625279e+03
3.300000e-07	-5.937393e-06	-2.468949e-08	-4.298513e+01	-1.618887e+03
3.400000e-07	-5.853250e-06	-2.458251e-08	-4.237596e+01	-1.612392e+03
3.500000e-07	-5.767209e-06	-2.445504e-08	-4.175304e+01	-1.605793e+03
3.600000e-07	-5.679192e-06	-2.437272e-08	-4.111583e+01	-1.599055e+03
3.700000e-07	-5.589042e-06	-2.426712e-08	-4.046316e+01	-1.592116e+03
3.800000e-07	-5.496828e-06	-2.414169e-08	-3.979556e+01	-1.584892e+03
3.900000e-07	-5.402704e-06	-2.401278e-08	-3.911413e+01	-1.577288e+03
4.000000e-07	-5.306682e-06	-2.388316e-08	-3.841895e+01	-1.569214e+03
4.100000e-07	-5.208753e-06	-2.374606e-08	-3.770997e+01	-1.560596e+03
4.200000e-07	-5.109024e-06	-2.360762e-08	-3.698796e+01	-1.551390e+03
4.300000e-07	-5.007477e-06	-2.347645e-08	-3.625279e+01	-1.541582e+03
4.400000e-07	-4.904108e-06	-2.331824e-08	-3.550442e+01	-1.531194e+03
4.500000e-07	-4.799043e-06	-2.315043e-08	-3.474378e+01	-1.520274e+03
4.600000e-07	-4.692231e-06	-2.298226e-08	-3.397049e+01	-1.508890e+03
4.700000e-07	-4.583707e-06	-2.281123e-08	-3.318481e+01	-1.497109e+03
4.800000e-07	-4.473602e-06	-2.263825e-08	-3.238768e+01	-1.484988e+03
4.900000e-07	-4.361946e-06	-2.245695e-08	-3.157932e+01	-1.472554e+03
5.000000e-07	-4.248569e-06	-2.225663e-08	-3.075850e+01	-1.459796e+03
5.100000e-07	-4.133401e-06	-2.203423e-08	-2.992471e+01	-1.446663e+03
5.200000e-07	-4.016579e-06	-2.180962e-08	-2.907895e+01	-1.433061e+03
5.300000e-07	-3.898273e-06	-2.158571e-08	-2.822245e+01	-1.418866e+03
5.400000e-07	-3.778578e-06	-2.135243e-08	-2.735589e+01	-1.403936e+03
5.500000e-07	-3.657464e-06	-2.110519e-08	-2.647906e+01	-1.388129e+03
5.600000e-07	-3.534899e-06	-2.084389e-08	-2.559172e+01	-1.371321e+03
5.700000e-07	-3.410963e-06	-2.057041e-08	-2.469446e+01	-1.353421e+03
5.800000e-07	-3.285813e-06	-2.028302e-08	-2.378840e+01	-1.334378e+03
5.900000e-07	-3.159523e-06	-1.998644e-08	-2.287410e+01	-1.314186e+03
6.000000e-07	-3.032087e-06	-1.967560e-08	-2.195150e+01	-1.292872e+03
6.100000e-07	-2.903470e-06	-1.934238e-08	-2.102034e+01	-1.270484e+03
6.200000e-07	-2.773703e-06	-1.898860e-08	-2.008086e+01	-1.247069e+03
6.300000e-07	-2.642869e-06	-1.861849e-08	-1.913366e+01	-1.222647e+03
6.400000e-07	-2.511040e-06	-1.823028e-08	-1.817926e+01	-1.197189e+03
6.500000e-07	-2.378326e-06	-1.781816e-08	-1.721844e+01	-1.170598e+03
6.600000e-07	-2.244830e-06	-1.738097e-08	-1.625197e+01	-1.142696e+03
6.700000e-07	-2.110599e-06	-1.691462e-08	-1.528017e+01	-1.113231e+03
6.800000e-07	-1.975640e-06	-1.641941e-08	-1.430310e+01	-1.081884e+03
6.900000e-07	-1.839983e-06	-1.589378e-08	-1.332098e+01	-1.048294e+03
7.000000e-07	-1.703637e-06	-1.533744e-08	-1.233388e+01	-1.012094e+03
7.100000e-07	-1.566611e-06	-1.474211e-08	-1.134184e+01	-9.729468e+02
7.200000e-07	-1.429017e-06	-1.410051e-08	-1.034570e+01	-9.305833e+02
7.300000e-07	-1.290936e-06	-1.341598e-08	-9.346026e+00	-8.848361e+02
7.400000e-07	-1.152417e-06	-1.268424e-08	-8.343186e+00	-8.356619e+02
7.500000e-07	-1.013479e-06	-1.190383e-08	-7.337319e+00	-7.831516e+02
7.600000e-07	-8.741041e-07	-1.107541e-08	-6.328279e+00	-7.275240e+02
7.700000e-07	-7.343594e-07	-1.019899e-08	-5.316565e+00	-6.691045e+02
7.800000e-07	-5.943665e-07	-9.271240e-09	-4.303054e+00	-6.082911e+02
7.900000e-07	-4.541131e-07	-8.300225e-09	-3.287657e+00	-5.455115e+02
8.000000e-07	-3.136356e-07	-7.297217e-09	-2.270638e+00	-4.811772e+02
8.100000e-07	-1.729911e-07	-6.271268e-09	-1.252409e+00	-4.156405e+02
8.200000e-07	-3.219282e-08	-5.233100e-09	-2.330674e-01	-3.491609e+02
8.300000e-07	1.085737e-07	-4.191901e-09	7.860445e-01	-2.818852e+02
8.400000e-07	2.492800e-07	-3.154343e-09	1.804720e+00	-2.138455e+02
8.500000e-07	3.899234e-07	-2.118414e-09	2.822941e+00	-1.449738e+02
8.600000e-07	5.304130e-07	-1.080293e-09	3.840048e+00	-7.513482e+01
8.700000e-07	6.707636e-07	-3.241382e-11	4.856148e+00	-4.169400e+00
8.800000e-07	8.108653e-07	1.034693e-09	5.870447e+00	6.805395e+01
8.900000e-07	9.505990e-07	2.131344e-09	6.882081e+00	1.415883e+02
9.000000e-07	1.089990e-06	3.261939e-09	7.891237e+00	2.163646e+02
9.100000e-07	1.228991e-06	4.422326e-09	8.897565e+00	2.921607e+02
9.200000e-07	1.367476e-06	5.606293e-09	9.900162e+00	3.685892e+02
9.300000e-07	1.505430e-06	6.800206e-09	1.089891e+01	4.451045e+02
9.400000e-07	1.642845e-06	7.987513e-09	1.189376e+01	5.210306e+02
9.500000e-07	1.779660e-06	9.147648e-09	1.288426e+01	5.956051e+02
9.600000e-07	1.915800e-06	1.026335e-08	1.386988e+01	6.680368e+02
9.700000e-07	2.051098e-06	1.131951e-08	1.484940e+01	7.375667e+02
9.800000e-07	2.185528e-06	1.230555e-08	1.582263e+01	8.035292e+02
9.900000e-07	2.319147e-06	1.321903e-08	1.679000e+01	8.654035e+02
1.000000e-06	2.451913e-06	1.406349e-08	1.775119e+01	9.228503e+02
1.010000e-06	2.583835e-06	1.484343e-08	1.870627e+01	9.757299e+02
1.020000e-06	2.714796e-06	1.556217e-08	1.965439e+01	1.024101e+03
1.030000e-06	2.844677e-06	1.622663e-08	2.059470e+01	1.068199e+03
1.040000e-06	2.973530e-06	1.684441e-08	2.152756e+01	1.108399e+03
1.050000e-06	3.101250e-06	1.741754e-08	2.245221e+01	1.145168e+03
1.060000e-06	3.227756e-06	1.795047e-08	2.336809e+01	1.179011e+03
1.070000e-06	3.353183e-06	1.844610e-08	2.427614e+01	1.210423e+03
1.080000e-06	3.477522e-06	1.890721e-08	2.517632e+01	1.239844e+03
1.090000e-06	3.600662e-06	1.933689e-08	2.606783e+01	1.267626e+03
1.100000e-06	3.722533e-06	1.973760e-08	2.695014e+01	1.294022e+03
1.110000e-06	3.843054e-06	2.011366e-08	2.782268e+01	1.319180e+03
1.120000e-06	3.962140e-06	2.047127e-08	2.868483e+01	1.343159e+03
1.130000e-06	4.079798e-06	2.080949e-08	2.953664e+01	1.365950e+03
1.140000e-06	4.195994e-06	2.112528e-08	3.037787e+01	1.387507e+03
1.150000e-06	4.310531e-06	2.142183e-08	3.120709e+01	1.407777e+03
1.160000e-06	4.423359e-06	2.170259e-08	3.202393e+01	1.426728e+03
1.170000e-06	4.534521e-06	2.196762e-08	3.282871e+01	1.444364e+03
1.180000e-06	4.644112e-06	2.221621e-08	3.362212e+01	1.460741e+03
1.190000e-06	4.752179e-06	2.245352e-08	3.440450e+01	1.475963e+03
1.200000e-06	4.858588e-06	2.267942e-08	3.517487e+01	1.490173e+03
1.210000e-06	4.963237e-06	2.289416e-08	3.593250e+01	1.503537e+03
1.220000e-06	5.066059e-06	2.309621e-08	3.667690e+01	1.516222e+03
1.230000e-06	5.167051e-06	2.328705e-08	3.740806e+01	1.528378e+03
1.240000e-06	5.266110e-06	2.346809e-08	3.812522e+01	1.540119e+03
1.250000e-06	5.363142e-06	2.363906e-08	3.882770e+01	1.551512e+03
1.260000e-06	5.458212e-06	2.380171e-08	3.951599e+01	1.562574e+03
1.270000e-06	5.551380e-06	2.395871e-08	4.019050e+01	1.573279e+03
1.280000e-06	5.642624e-06	2.410778e-08	4.085108e+01	1.583564e+03
1.290000e-06	5.731763e-06	2.424854e-08	4.149643e+01	1.593350e+03
1.300000e-06	5.818747e-06	2.438304e-08	4.212617e+01	1.602559e+03
1.310000e-06	5.903717e-06	2.451117e-08	4.274132e+01	1.611129e+03
1.320000e-06	5.986659e-06	2.463371e-08	4.334180e+01	1.619030e+03
1.330000e-06	6.067394e-06	2.474885e-08	4.392630e+01	1.626272e+03
1.340000e-06	6.145901e-06	2.485509e-08	4.449467e+01	1.632902e+03
1.350000e-06	6.222162e-06	2.495313e-08	4.504678e+01	1.639001e+03
1.360000e-06	6.295959e-06	2.504396e-08	4.558105e+01	1.644675e+03
1.370000e-06	6.367383e-06	2.513043e-08	4.609814e+01	1.650033e+03
1.380000e-06	6.436627e-06	2.521323e-08	4.659945e+01	1.655180e+03
1.390000e-06	6.503524e-06	2.529252e-08	4.708377e+01	1.660197e+03
1.400000e-06	6.568023e-06	2.536780e-08	4.755072e+01	1.665133e+03
1.410000e-06	6.630257e-06	2.543820e-08	4.800128e+01	1.669999e+03
1.420000e-06	6.690299e-06	2.550423e-08	4.843597e+01	1.674773e+03
1.430000e-06	6.747975e-06	2.556679e-08	4.885353e+01	1.679402e+03
1.440000e-06	6.803215e-06	2.562707e-08	4.925345e+01	1.683816e+03
1.450000e-06	6.855924e-06	2.568537e-08	4.963505e+01	1.687943e+03
1.460000e-06	6.905809e-06	2.574122e-08	4.999620e+01	1.691717e+03
1.470000e-06	6.953005e-06	2.579231e-08	5.033789e+01	1.695097e+03
1.480000e-06	6.997822e-06	2.583871e-08	5.066235e+01	1.698066e+03
1.490000e-06	7.040169e-06	2.588175e-08	5.096893e+01	1.700642e+03
1.500000e-06	7.079885e-06	2.592110e-08	5.125646e+01	1.702868e+03
1.510000e-06	7.117171e-06	2.595773e-08	5.152641e+01	1.704807e+03
1.520000e-06	7.152003e-06	2.599219e-08	5.177858e+01	1.706534e+03
1.530000e-06	7.184125e-06	2.602288e-08	5.201114e+01	1.708120e+03
1.540000e-06	7.213739e-06	2.604876e-08	5.222553e+01	1.709621e+03
1.550000e-06	7.240946e-06	2.606992e-08	5.242250e+01	1.711074e+03
1.560000e-06	7.265475e-06	2.608791e-08	5.260009e+01	1.712486e+03
1.570000e-06	7.287356e-06	2.610360e-08	5.275850e+01	1.713839e+03
1.580000e-06	7.306753e-06	2.611682e-08	5.289893e+01	1.715092e+03
1.590000e-06	7.323530e-06	2.612822e-08	5.302039e+01	1.716192e+03
1.600000e-06	7.337518e-06	2.613797e-08	5.312166e+01	1.717079e+03
1.610000e-06	7.348583e-06	2.614510e-08	5.320176e+01	1.717705e+03
1.620000e-06	7.356749e-06	2.614932e-08	5.326089e+01	1.718037e+03
1.630000e-06	7.362324e-06	2.615166e-08	5.330125e+01	1.718065e+03
1.640000e-06	7.365343e-06	2.615334e-08	5.332310e+01	1.717804e+03
1.650000e-06	7.365632e-06	2.615703e-08	5.332520e+01	1.717293e+03
1.660000e-06	7.363407e-06	2.614849e-08	5.330909e+01	1.716587e+03
1.670000e-06	7.358860e-06	2.613481e-08	5.327617e+01	1.715750e+03
1.680000e-06	7.351804e-06	2.612569e-08	5.322509e+01	1.714841e+03
1.690000e-06	7.342247e-06	2.611352e-08	5.315589e+01	1.713908e+03
1.700000e-06	7.330217e-06	2.610278e-08	5.306880e+01	1.712981e+03
1.710000e-06	7.315565e-06	2.609656e-08	5.296272e+01	1.712063e+03
1.720000e-06	7.298515e-06	2.609650e-08	5.283929e+01	1.711134e+03
1.730000e-06	7.279421e-06	2.608000e-08	5.270105e+01	1.710156e+03
1.740000e-06	7.257905e-06	2.595134e-08	5.254528e+01	1.709076e+03
1.750000e-06	7.233216e-06	2.592555e-08	5.236654e+01	1.707840e+03
1.760000e-06	7.205108e-06	2.598153e-08	5.216305e+01	1.706400e+03
1.770000e-06	7.174037e-06	2.594658e-08	5.193810e+01	1.704722e+03
1.780000e-06	7.140682e-06	2.591822e-08	5.169662e+01	1.702794e+03
1.790000e-06	7.105513e-06	2.601619e-08	5.144201e+01	1.700623e+03
1.800000e-06	7.068788e-06	2.591566e-08	5.117612e+01	1.698237e+03
1.810000e-06	7.029951e-06	2.575281e-08	5.089496e+01	1.695678e+03
1.820000e-06	6.988391e-06	2.589782e-08	5.059407e+01	1.692989e+03
1.830000e-06	6.944525e-06	2.575565e-08	5.027649e+01	1.690210e+03
1.840000e-06	6.898337e-06	2.578176e-08	4.994210e+01	1.687367e+03
1.850000e-06	6.849482e-06	2.579305e-08	4.958841e+01	1.684464e+03
1.860000e-06	6.798028e-06	2.558534e-08	4.921589e+01	1.681480e+03
1.870000e-06	6.743784e-06	2.567677e-08	4.882319e+01	1.678374e+03
1.880000e-06	6.686976e-06	2.553619e-08	4.841191e+01	1.675087e+03
1.890000e-06	6.627732e-06	2.551539e-08	4.798300e+01	1.671552e+03
1.900000e-06	6.565789e-06	2.550083e-08	4.753455e+01	1.667704e+03
1.910000e-06	6.501375e-06	2.533227e-08	4.706821e+01	1.663489e+03
1.920000e-06	6.434611e-06	2.533938e-08	4.658486e+01	1.658878e+03
1.930000e-06	6.365443e-06	2.520071e-08	4.608410e+01	1.653864e+03
1.940000e-06	6.293778e-06	2.518537e-08	4.556526e+01	1.648472e+03
1.950000e-06	6.219655e-06	2.509434e-08	4.502863e+01	1.642747e+03
1.960000e-06	6.143069e-06	2.496979e-08	4.447417e+01	1.636751e+03
1.970000e-06	6.063936e-06	2.492394e-08	4.390126e+01	1.630549e+03
1.980000e-06	5.982547e-06	2.477713e-08	4.331204e+01	1.624198e+03
1.990000e-06	5.899095e-06	2.475014e-08	4.270787e+01	1.617738e+03
2.000000e-06	5.813564e-06	2.461753e-08	4.208864e+01	1.611177e+03
2.010000e-06	5.725885e-06	2.451920e-08	4.145387e+01	1.604493e+03
2.020000e-06	5.636150e-06	2.440002e-08	4.080422e+01	1.597634e+03
2.030000e-06	5.544505e-06	2.426109e-08	4.014073e+01	1.590521e+03
2.040000e-06	5.450801e-06	2.416908e-08	3.946234e+01	1.583062e+03
2.050000e-06	5.355119e-06	2.404413e-08	3.876962e+01	1.575165e+03
2.060000e-06	5.257648e-06	2.393884e-08	3.806396e+01	1.566747e+03
2.070000e-06	5.158452e-06	2.376855e-08	3.734581e+01	1.557753e+03
2.080000e-06	5.057428e-06	2.363315e-08	3.661442e+01	1.548158e+03
2.090000e-06	4.954464e-06	2.347860e-08	3.586899e+01	1.537972e+03
2.100000e-06	4.849676e-06	2.333180e-08	3.511035e+01	1.527234e+03
2.110000e-06	4.743268e-06	2.317018e-08	3.433998e+01	1.516007e+03
2.120000e-06	4.635362e-06	2.299173e-08	3.355878e+01	1.504359e+03
2.130000e-06	4.525861e-06	2.280375e-08	3.276602e+01	1.492353e+03
2.140000e-06	4.414629e-06	2.260592e-08	3.196073e+01	1.480029e+03
2.150000e-06	4.301666e-06	2.243021e-08	3.114290e+01	1.467389e+03
2.160000e-06	4.187048e-06	2.224039e-08	3.031310e+01	1.454398e+03
2.170000e-06	4.070752e-06	2.204538e-08	2.947115e+01	1.440975e+03
2.180000e-06	3.952792e-06	2.181765e-08	2.861715e+01	1.427007e+03
2.190000e-06	3.833268e-06	2.158294e-08	2.775183e+01	1.412355e+03
2.200000e-06	3.712261e-06	2.132925e-08	2.687577e+01	1.396875e+03
2.210000e-06	3.589844e-06	2.107428e-08	2.598951e+01	1.380436e+03
2.220000e-06	3.466153e-06	2.081054e-08	2.509402e+01	1.362933e+03
2.230000e-06	3.341210e-06	2.053381e-08	2.418946e+01	1.344300e+03
2.240000e-06	3.214916e-06	2.023825e-08	2.327513e+01	1.324516e+03
2.250000e-06	3.087327e-06	1.992853e-08	2.235142e+01	1.303597e+03
2.260000e-06	2.958651e-06	1.961297e-08	2.141984e+01	1.281585e+03
2.270000e-06	2.828940e-06	1.927882e-08	2.048076e+01	1.258532e+03
2.280000e-06	2.698187e-06	1.892476e-08	1.953415e+01	1.234469e+03
2.290000e-06	2.566501e-06	1.854093e-08	1.858078e+01	1.209387e+03
2.300000e-06	2.433969e-06	1.813419e-08	1.762128e+01	1.183215e+03
2.310000e-06	2.300602e-06	1.770223e-08	1.665574e+01	1.155806e+03
2.320000e-06	2.166402e-06	1.724982e-08	1.568417e+01	1.126932e+03
2.330000e-06	2.031454e-06	1.676930e-08	1.470718e+01	1.096296e+03
2.340000e-06	1.895795e-06	1.625840e-08	1.372505e+01	1.063548e+03
2.350000e-06	1.759444e-06	1.571283e-08	1.273790e+01	1.028320e+03
2.360000e-06	1.622491e-06	1.513008e-08	1.174640e+01	9.902599e+02
2.370000e-06	1.485052e-06	1.450806e-08	1.075138e+01	9.490690e+02
2.380000e-06	1.347242e-06	1.384168e-08	9.753667e+00	9.045409e+02
2.390000e-06	1.209003e-06	1.312815e-08	8.752857e+00	8.565861e+02
2.400000e-06	1.070278e-06	1.236137e-08	7.748523e+00	8.052475e+02
2.410000e-06	9.311097e-07	1.154252e-08	6.740984e+00	7.506997e+02
2.420000e-06	7.915504e-07	1.067722e-08	5.730612e+00	6.932335e+02
2.430000e-06	6.517300e-07	9.768915e-09	4.718350e+00	6.332254e+02
2.440000e-06	5.117296e-07	8.816254e-09	3.704785e+00	5.710979e+02
2.450000e-06	3.715158e-07	7.821976e-09	2.689675e+00	5.072734e+02
2.460000e-06	2.310868e-07	6.798949e-09	1.673007e+00	4.421299e+02
2.470000e-06	9.052562e-08	5.757506e-09	6.553812e-01	3.759630e+02
2.480000e-06	-5.010693e-08	4.708847e-09	-3.627607e-01	3.089610e+02
2.490000e-06	-1.907510e-07	3.661185e-09	-1.380986e+00	2.411962e+02
2.500000e-06	-3.313176e-07	2.616046e-09	-2.398651e+00	1.726335e+02
2.510000e-06	-4.717981e-07	1.569455e-09	-3.415692e+00	1.031570e+02
2.520000e-06	-6.121867e-07	5.159041e-10	-4.432067e+00	3.261042e+01
2.530000e-06	-7.523580e-07	-5.500484e-10	-5.446870e+00	-3.915355e+01
2.540000e-06	-8.922054e-07	-1.635995e-09	-6.459327e+00	-1.122216e+02
2.550000e-06	-1.031692e-06	-2.750259e-09	-7.469174e+00	-1.865725e+02
2.560000e-06	-1.170703e-06	-3.898693e-09	-8.475576e+00	-2.620413e+02
2.570000e-06	-1.309214e-06	-5.078211e-09	-9.478361e+00	-3.382998e+02
2.580000e-06	-1.447279e-06	-6.277374e-09	-1.047791e+01	-4.148568e+02
2.590000e-06	-1.584821e-06	-7.479162e-09	-1.147368e+01	-4.910785e+02
2.600000e-06	-1.721757e-06	-8.662193e-09	-1.246506e+01	-5.662275e+02
2.610000e-06	-1.858022e-06	-9.803028e-09	-1.345158e+01	-6.395157e+02
2.620000e-06	-1.993615e-06	-1.088753e-08	-1.443323e+01	-7.101655e+02
2.630000e-06	-2.128468e-06	-1.190754e-08	-1.540953e+01	-7.774714e+02
2.640000e-06	-2.262455e-06	-1.285682e-08	-1.637957e+01	-8.408559e+02
2.650000e-06	-2.395614e-06	-1.373482e-08	-1.734360e+01	-8.999115e+02
2.660000e-06	-2.527880e-06	-1.454488e-08	-1.830117e+01	-9.544267e+02
2.670000e-06	-2.659081e-06	-1.529097e-08	-1.925103e+01	-1.004391e+03
2.680000e-06	-2.789318e-06	-1.598044e-08	-2.019391e+01	-1.049979e+03
2.690000e-06	-2.918606e-06	-1.661977e-08	-2.112993e+01	-1.091522e+03
2.700000e-06	-3.046835e-06	-1.721375e-08	-2.205826e+01	-1.129460e+03
2.710000e-06	-3.173999e-06	-1.776787e-08	-2.297890e+01	-1.164291e+03
2.720000e-06	-3.300032e-06	-1.828271e-08	-2.389135e+01	-1.196519e+03
2.730000e-06	-3.424851e-06	-1.875968e-08	-2.479500e+01	-1.226606e+03
2.740000e-06	-3.548324e-06	-1.920403e-08	-2.568891e+01	-1.254940e+03
2.750000e-06	-3.670549e-06	-1.961852e-08	-2.657379e+01	-1.281810e+03
2.760000e-06	-3.791578e-06	-2.000650e-08	-2.745001e+01	-1.307401e+03
2.770000e-06	-3.911195e-06	-2.036996e-08	-2.831600e+01	-1.331799e+03
2.780000e-06	-4.029339e-06	-2.071116e-08	-2.917133e+01	-1.355020e+03
2.790000e-06	-4.145967e-06	-2.103565e-08	-3.001569e+01	-1.377025e+03
2.800000e-06	-4.260858e-06	-2.134313e-08	-3.084747e+01	-1.397761e+03
2.810000e-06	-4.373965e-06	-2.163219e-08	-3.166633e+01	-1.417186e+03
2.820000e-06	-4.485415e-06	-2.190430e-08	-3.247320e+01	-1.435289e+03
2.830000e-06	-4.595219e-06	-2.216043e-08	-3.326815e+01	-1.452107e+03
2.840000e-06	-4.703446e-06	-2.240284e-08	-3.405169e+01	-1.467728e+03
2.850000e-06	-4.810152e-06	-2.263252e-08	-3.482421e+01	-1.482283e+03
2.860000e-06	-4.915263e-06	-2.285151e-08	-3.558518e+01	-1.495930e+03
2.870000e-06	-5.018521e-06	-2.306080e-08	-3.633274e+01	-1.508840e+03
2.880000e-06	-5.119852e-06	-2.325949e-08	-3.706635e+01	-1.521171e+03
2.890000e-06	-5.219312e-06	-2.344873e-08	-3.778641e+01	-1.533051e+03
2.900000e-06	-5.316966e-06	-2.362662e-08	-3.849340e+01	-1.544564e+03
2.910000e-06	-5.412775e-06	-2.379491e-08	-3.918704e+01	-1.555747e+03
2.920000e-06	-5.506537e-06	-2.395482e-08	-3.986585e+01	-1.566586e+03
2.930000e-06	-5.598275e-06	-2.410543e-08	-4.053000e+01	-1.577031e+03
2.940000e-06	-5.688051e-06	-2.424888e-08	-4.117996e+01	-1.587005e+03
