# Temperatura_=_51.6
# Concentracion g/m^3_=_28370.0
# C_Vs_to_Am_M_A/Vsm_=_65563218390.804596
# pendiente_HvsI_1/m_=_3716.3
# ordenada_HvsI_A/m_=_1297.0
# frecuencia_Hz_=_302399.7800061179

Tiempo_(s)	Campo_(V.s)	Magnetizacion_(V.s)	Campo_(kA/m)	Magnetizacion_(A/m)
0.000000e+00	-7.315619e-06	-2.623799e-08	-5.318948e+01	-1.717921e+03
1.000000e-08	-7.312212e-06	-2.623727e-08	-5.316472e+01	-1.717123e+03
2.000000e-08	-7.306390e-06	-2.622588e-08	-5.312239e+01	-1.716220e+03
3.000000e-08	-7.298223e-06	-2.621045e-08	-5.306301e+01	-1.715268e+03
4.000000e-08	-7.287482e-06	-2.619370e-08	-5.298492e+01	-1.714306e+03
5.000000e-08	-7.274029e-06	-2.617519e-08	-5.288710e+01	-1.713353e+03
6.000000e-08	-7.257887e-06	-2.615418e-08	-5.276974e+01	-1.712402e+03
7.000000e-08	-7.239465e-06	-2.613192e-08	-5.263579e+01	-1.711426e+03
8.000000e-08	-7.219009e-06	-2.610869e-08	-5.248707e+01	-1.710380e+03
9.000000e-08	-7.196088e-06	-2.614706e-08	-5.232042e+01	-1.709211e+03
1.000000e-07	-7.170213e-06	-2.614254e-08	-5.213229e+01	-1.707868e+03
1.100000e-07	-7.141423e-06	-2.605153e-08	-5.192296e+01	-1.706310e+03
1.200000e-07	-7.110139e-06	-2.599624e-08	-5.169551e+01	-1.704513e+03
1.300000e-07	-7.076429e-06	-2.597232e-08	-5.145042e+01	-1.702472e+03
1.400000e-07	-7.040424e-06	-2.590999e-08	-5.118863e+01	-1.700203e+03
1.500000e-07	-7.002546e-06	-2.582020e-08	-5.091323e+01	-1.697739e+03
1.600000e-07	-6.962627e-06	-2.590111e-08	-5.062300e+01	-1.695119e+03
1.700000e-07	-6.920250e-06	-2.585991e-08	-5.031489e+01	-1.692383e+03
1.800000e-07	-6.875495e-06	-2.569097e-08	-4.998949e+01	-1.689560e+03
1.900000e-07	-6.828248e-06	-2.575664e-08	-4.964597e+01	-1.686664e+03
2.000000e-07	-6.778129e-06	-2.568006e-08	-4.928158e+01	-1.683686e+03
2.100000e-07	-6.725273e-06	-2.558282e-08	-4.889727e+01	-1.680594e+03
2.200000e-07	-6.669833e-06	-2.556816e-08	-4.849419e+01	-1.677339e+03
2.300000e-07	-6.611895e-06	-2.547448e-08	-4.807294e+01	-1.673858e+03
2.400000e-07	-6.551574e-06	-2.544670e-08	-4.763436e+01	-1.670088e+03
2.500000e-07	-6.488801e-06	-2.536923e-08	-4.717796e+01	-1.665972e+03
2.600000e-07	-6.423527e-06	-2.529970e-08	-4.670338e+01	-1.661471e+03
2.700000e-07	-6.355804e-06	-2.521490e-08	-4.621099e+01	-1.656570e+03
2.800000e-07	-6.285811e-06	-2.513683e-08	-4.570209e+01	-1.651280e+03
2.900000e-07	-6.213460e-06	-2.506337e-08	-4.517605e+01	-1.645637e+03
3.000000e-07	-6.138534e-06	-2.496074e-08	-4.463129e+01	-1.639698e+03
3.100000e-07	-6.061000e-06	-2.491476e-08	-4.406756e+01	-1.633524e+03
3.200000e-07	-5.980960e-06	-2.481868e-08	-4.348562e+01	-1.627178e+03
3.300000e-07	-5.898721e-06	-2.470560e-08	-4.288768e+01	-1.620705e+03
3.400000e-07	-5.814545e-06	-2.459016e-08	-4.227567e+01	-1.614127e+03
3.500000e-07	-5.728532e-06	-2.448079e-08	-4.165030e+01	-1.607437e+03
3.600000e-07	-5.640535e-06	-2.439499e-08	-4.101050e+01	-1.600594e+03
3.700000e-07	-5.550423e-06	-2.428269e-08	-4.035532e+01	-1.593532e+03
3.800000e-07	-5.458308e-06	-2.415919e-08	-3.968558e+01	-1.586163e+03
3.900000e-07	-5.364311e-06	-2.402025e-08	-3.900216e+01	-1.578394e+03
4.000000e-07	-5.268436e-06	-2.388456e-08	-3.830508e+01	-1.570138e+03
4.100000e-07	-5.170643e-06	-2.374792e-08	-3.759406e+01	-1.561327e+03
4.200000e-07	-5.070978e-06	-2.361859e-08	-3.686943e+01	-1.551923e+03
4.300000e-07	-4.969489e-06	-2.348181e-08	-3.613154e+01	-1.541917e+03
4.400000e-07	-4.866281e-06	-2.332245e-08	-3.538115e+01	-1.531339e+03
4.500000e-07	-4.761402e-06	-2.315433e-08	-3.461860e+01	-1.520239e+03
4.600000e-07	-4.654769e-06	-2.298103e-08	-3.384331e+01	-1.508685e+03
4.700000e-07	-4.546388e-06	-2.280516e-08	-3.305531e+01	-1.496744e+03
4.800000e-07	-4.436416e-06	-2.263015e-08	-3.225574e+01	-1.484466e+03
4.900000e-07	-4.324935e-06	-2.244629e-08	-3.144519e+01	-1.471873e+03
5.000000e-07	-4.211791e-06	-2.223519e-08	-3.062256e+01	-1.458948e+03
5.100000e-07	-4.096894e-06	-2.201104e-08	-2.978718e+01	-1.445631e+03
5.200000e-07	-3.980346e-06	-2.178970e-08	-2.893980e+01	-1.431827e+03
5.300000e-07	-3.862345e-06	-2.156566e-08	-2.808185e+01	-1.417407e+03
5.400000e-07	-3.742950e-06	-2.132688e-08	-2.721377e+01	-1.402231e+03
5.500000e-07	-3.622107e-06	-2.107640e-08	-2.633517e+01	-1.386162e+03
5.600000e-07	-3.499850e-06	-2.081218e-08	-2.544627e+01	-1.369082e+03
5.700000e-07	-3.376167e-06	-2.053344e-08	-2.454701e+01	-1.350908e+03
5.800000e-07	-3.251206e-06	-2.024094e-08	-2.363846e+01	-1.331599e+03
5.900000e-07	-3.125122e-06	-1.993920e-08	-2.272174e+01	-1.311152e+03
6.000000e-07	-2.997953e-06	-1.962487e-08	-2.179714e+01	-1.289600e+03
6.100000e-07	-2.869714e-06	-1.928982e-08	-2.086476e+01	-1.266991e+03
6.200000e-07	-2.740350e-06	-1.893639e-08	-1.992420e+01	-1.243367e+03
6.300000e-07	-2.609940e-06	-1.856285e-08	-1.897603e+01	-1.218740e+03
6.400000e-07	-2.478546e-06	-1.816918e-08	-1.802070e+01	-1.193071e+03
6.500000e-07	-2.346216e-06	-1.775038e-08	-1.705857e+01	-1.166249e+03
6.600000e-07	-2.213099e-06	-1.730625e-08	-1.609073e+01	-1.138088e+03
6.700000e-07	-2.079327e-06	-1.683515e-08	-1.511811e+01	-1.108324e+03
6.800000e-07	-1.944835e-06	-1.633831e-08	-1.414026e+01	-1.076634e+03
6.900000e-07	-1.809609e-06	-1.581336e-08	-1.315708e+01	-1.042659e+03
7.000000e-07	-1.673736e-06	-1.525176e-08	-1.216919e+01	-1.006037e+03
7.100000e-07	-1.537185e-06	-1.464857e-08	-1.117637e+01	-9.664427e+02
7.200000e-07	-1.400085e-06	-1.399953e-08	-1.017956e+01	-9.236220e+02
7.300000e-07	-1.262548e-06	-1.330893e-08	-9.179577e+00	-8.774241e+02
7.400000e-07	-1.124618e-06	-1.257143e-08	-8.176729e+00	-8.278217e+02
7.500000e-07	-9.862867e-07	-1.178524e-08	-7.170970e+00	-7.749174e+02
7.600000e-07	-8.475636e-07	-1.095107e-08	-6.162360e+00	-7.189358e+02
7.700000e-07	-7.085129e-07	-1.006634e-08	-5.151367e+00	-6.602004e+02
7.800000e-07	-5.691405e-07	-9.130848e-09	-4.138036e+00	-5.990991e+02
7.900000e-07	-4.294988e-07	-8.152739e-09	-3.122746e+00	-5.360413e+02
8.000000e-07	-2.896619e-07	-7.144732e-09	-2.106038e+00	-4.714145e+02
8.100000e-07	-1.497024e-07	-6.114948e-09	-1.088438e+00	-4.055436e+02
8.200000e-07	-9.666566e-09	-5.072943e-09	-7.028246e-02	-3.386613e+02
8.300000e-07	1.304202e-07	-4.026387e-09	9.482429e-01	-2.708921e+02
8.400000e-07	2.704989e-07	-2.980397e-09	1.966710e+00	-2.022538e+02
8.500000e-07	4.105074e-07	-1.934185e-09	2.984666e+00	-1.326756e+02
8.600000e-07	5.504046e-07	-8.867499e-10	4.001813e+00	-6.203238e+01
8.700000e-07	6.900552e-07	1.712876e-10	5.017167e+00	9.810727e+00
8.800000e-07	8.293536e-07	1.253050e-09	6.029961e+00	8.294850e+01
8.900000e-07	9.683349e-07	2.365822e-09	7.040449e+00	1.573873e+02
9.000000e-07	1.106986e-06	3.511104e-09	8.048537e+00	2.330052e+02
9.100000e-07	1.245223e-06	4.685632e-09	9.053610e+00	3.095264e+02
9.200000e-07	1.383021e-06	5.882604e-09	1.005550e+01	3.865135e+02
9.300000e-07	1.520296e-06	7.084130e-09	1.105358e+01	4.633803e+02
9.400000e-07	1.657019e-06	8.272547e-09	1.204765e+01	5.394228e+02
9.500000e-07	1.793117e-06	9.429097e-09	1.303717e+01	6.138672e+02
9.600000e-07	1.928478e-06	1.053564e-08	1.402134e+01	6.859272e+02
9.700000e-07	2.063072e-06	1.157778e-08	1.499992e+01	7.548660e+02
9.800000e-07	2.196836e-06	1.254799e-08	1.597248e+01	8.200541e+02
9.900000e-07	2.329852e-06	1.344666e-08	1.693960e+01	8.810172e+02
1.000000e-06	2.462094e-06	1.427736e-08	1.790108e+01	9.374686e+02
1.010000e-06	2.593345e-06	1.504341e-08	1.885537e+01	9.893225e+02
1.020000e-06	2.723537e-06	1.574814e-08	1.980195e+01	1.036687e+03
1.030000e-06	2.852740e-06	1.640014e-08	2.074135e+01	1.079840e+03
1.040000e-06	2.980878e-06	1.700614e-08	2.167300e+01	1.119187e+03
1.050000e-06	3.107849e-06	1.756984e-08	2.259616e+01	1.155212e+03
1.060000e-06	3.233697e-06	1.809397e-08	2.351116e+01	1.188429e+03
1.070000e-06	3.358564e-06	1.858052e-08	2.441903e+01	1.219325e+03
1.080000e-06	3.482333e-06	1.903376e-08	2.531891e+01	1.248325e+03
1.090000e-06	3.604790e-06	1.945569e-08	2.620926e+01	1.275763e+03
1.100000e-06	3.725960e-06	1.985053e-08	2.709024e+01	1.301868e+03
1.110000e-06	3.845723e-06	2.022269e-08	2.796100e+01	1.326768e+03
1.120000e-06	3.964028e-06	2.057599e-08	2.882116e+01	1.350502e+03
1.130000e-06	4.080962e-06	2.090983e-08	2.967135e+01	1.373050e+03
1.140000e-06	4.196334e-06	2.122280e-08	3.051018e+01	1.394361e+03
1.150000e-06	4.310008e-06	2.151666e-08	3.133667e+01	1.414380e+03
1.160000e-06	4.422044e-06	2.179434e-08	3.215124e+01	1.433080e+03
1.170000e-06	4.532464e-06	2.205641e-08	3.295407e+01	1.450475e+03
1.180000e-06	4.641433e-06	2.230322e-08	3.374635e+01	1.466629e+03
1.190000e-06	4.748913e-06	2.253932e-08	3.452780e+01	1.481653e+03
1.200000e-06	4.854617e-06	2.276296e-08	3.529634e+01	1.495698e+03
1.210000e-06	4.958471e-06	2.297363e-08	3.605143e+01	1.508931e+03
1.220000e-06	5.060588e-06	2.317303e-08	3.679389e+01	1.521518e+03
1.230000e-06	5.160958e-06	2.336360e-08	3.752365e+01	1.533604e+03
1.240000e-06	5.259332e-06	2.354532e-08	3.823889e+01	1.545295e+03
1.250000e-06	5.355624e-06	2.371563e-08	3.893900e+01	1.556648e+03
1.260000e-06	5.449983e-06	2.387591e-08	3.962506e+01	1.567671e+03
1.270000e-06	5.542543e-06	2.403003e-08	4.029803e+01	1.578330e+03
1.280000e-06	5.633136e-06	2.417874e-08	4.095670e+01	1.588557e+03
1.290000e-06	5.721540e-06	2.432059e-08	4.159946e+01	1.598271e+03
1.300000e-06	5.807852e-06	2.445511e-08	4.222700e+01	1.607394e+03
1.310000e-06	5.892195e-06	2.458289e-08	4.284024e+01	1.615870e+03
1.320000e-06	5.974449e-06	2.470437e-08	4.343828e+01	1.623675e+03
1.330000e-06	6.054460e-06	2.481727e-08	4.402001e+01	1.630824e+03
1.340000e-06	6.132246e-06	2.492114e-08	4.458557e+01	1.637373e+03
1.350000e-06	6.207766e-06	2.501819e-08	4.513465e+01	1.643409e+03
1.360000e-06	6.280857e-06	2.510956e-08	4.566607e+01	1.649040e+03
1.370000e-06	6.351634e-06	2.519715e-08	4.618066e+01	1.654376e+03
1.380000e-06	6.420245e-06	2.528152e-08	4.667951e+01	1.659521e+03
1.390000e-06	6.486535e-06	2.536126e-08	4.716148e+01	1.664551e+03
1.400000e-06	6.550444e-06	2.543567e-08	4.762615e+01	1.669509e+03
1.410000e-06	6.612108e-06	2.550472e-08	4.807449e+01	1.674401e+03
1.420000e-06	6.671583e-06	2.556987e-08	4.850691e+01	1.679199e+03
1.430000e-06	6.728715e-06	2.563404e-08	4.892230e+01	1.683846e+03
1.440000e-06	6.783469e-06	2.569662e-08	4.932040e+01	1.688268e+03
1.450000e-06	6.835582e-06	2.575532e-08	4.969929e+01	1.692392e+03
1.460000e-06	6.884736e-06	2.580960e-08	5.005668e+01	1.696155e+03
1.470000e-06	6.931222e-06	2.585955e-08	5.039466e+01	1.699516e+03
1.480000e-06	6.975444e-06	2.590642e-08	5.071619e+01	1.702464e+03
1.490000e-06	7.017227e-06	2.595110e-08	5.101997e+01	1.705018e+03
1.500000e-06	7.056348e-06	2.599291e-08	5.130441e+01	1.707225e+03
1.510000e-06	7.093112e-06	2.603081e-08	5.157171e+01	1.709151e+03
1.520000e-06	7.127434e-06	2.606348e-08	5.182126e+01	1.710869e+03
1.530000e-06	7.159085e-06	2.609080e-08	5.205138e+01	1.712449e+03
1.540000e-06	7.188229e-06	2.611285e-08	5.226328e+01	1.713946e+03
1.550000e-06	7.214824e-06	2.613099e-08	5.245664e+01	1.715394e+03
1.560000e-06	7.238710e-06	2.614782e-08	5.263031e+01	1.716796e+03
1.570000e-06	7.260057e-06	2.616413e-08	5.278551e+01	1.718132e+03
1.580000e-06	7.278951e-06	2.617898e-08	5.292289e+01	1.719360e+03
1.590000e-06	7.295163e-06	2.619247e-08	5.304076e+01	1.720425e+03
1.600000e-06	7.308563e-06	2.620321e-08	5.313819e+01	1.721270e+03
1.610000e-06	7.319045e-06	2.621075e-08	5.321439e+01	1.721847e+03
1.620000e-06	7.326676e-06	2.621497e-08	5.326988e+01	1.722126e+03
1.630000e-06	7.331765e-06	2.621575e-08	5.330688e+01	1.722101e+03
1.640000e-06	7.334285e-06	2.621567e-08	5.332520e+01	1.721790e+03
1.650000e-06	7.334166e-06	2.621648e-08	5.332434e+01	1.721233e+03
1.660000e-06	7.331627e-06	2.620632e-08	5.330587e+01	1.720486e+03
1.670000e-06	7.326750e-06	2.619494e-08	5.327042e+01	1.719613e+03
1.680000e-06	7.319392e-06	2.618575e-08	5.321692e+01	1.718671e+03
1.690000e-06	7.309575e-06	2.617401e-08	5.314554e+01	1.717709e+03
1.700000e-06	7.297213e-06	2.616380e-08	5.305566e+01	1.716751e+03
1.710000e-06	7.282269e-06	2.615578e-08	5.294701e+01	1.715800e+03
1.720000e-06	7.265050e-06	2.615084e-08	5.282182e+01	1.714836e+03
1.730000e-06	7.245763e-06	2.612256e-08	5.268159e+01	1.713820e+03
1.740000e-06	7.223969e-06	2.601349e-08	5.252313e+01	1.712700e+03
1.750000e-06	7.198893e-06	2.600518e-08	5.234081e+01	1.711423e+03
1.760000e-06	7.170340e-06	2.603838e-08	5.213321e+01	1.709945e+03
1.770000e-06	7.138873e-06	2.600127e-08	5.190443e+01	1.708233e+03
1.780000e-06	7.105284e-06	2.599255e-08	5.166021e+01	1.706277e+03
1.790000e-06	7.070016e-06	2.606335e-08	5.140379e+01	1.704086e+03
1.800000e-06	7.033203e-06	2.592798e-08	5.113614e+01	1.701687e+03
1.810000e-06	6.994145e-06	2.583260e-08	5.085216e+01	1.699116e+03
1.820000e-06	6.952333e-06	2.595558e-08	5.054815e+01	1.696416e+03
1.830000e-06	6.908276e-06	2.581793e-08	5.022783e+01	1.693621e+03
1.840000e-06	6.861830e-06	2.587202e-08	4.989014e+01	1.690750e+03
1.850000e-06	6.812769e-06	2.583632e-08	4.953343e+01	1.687802e+03
1.860000e-06	6.761142e-06	2.567956e-08	4.915806e+01	1.684754e+03
1.870000e-06	6.706697e-06	2.572597e-08	4.876221e+01	1.681563e+03
1.880000e-06	6.649739e-06	2.557583e-08	4.834809e+01	1.678169e+03
1.890000e-06	6.590310e-06	2.556921e-08	4.791600e+01	1.674508e+03
1.900000e-06	6.528232e-06	2.551492e-08	4.746465e+01	1.670520e+03
1.910000e-06	6.463693e-06	2.539624e-08	4.699541e+01	1.666159e+03
1.920000e-06	6.396736e-06	2.539000e-08	4.650859e+01	1.661399e+03
1.930000e-06	6.327429e-06	2.525855e-08	4.600468e+01	1.656244e+03
1.940000e-06	6.255669e-06	2.523307e-08	4.548293e+01	1.650721e+03
1.950000e-06	6.181463e-06	2.510612e-08	4.494341e+01	1.644879e+03
1.960000e-06	6.104813e-06	2.500297e-08	4.438611e+01	1.638780e+03
1.970000e-06	6.025663e-06	2.495246e-08	4.381064e+01	1.632488e+03
1.980000e-06	5.944315e-06	2.483320e-08	4.321918e+01	1.626055e+03
1.990000e-06	5.860893e-06	2.478399e-08	4.261265e+01	1.619513e+03
2.000000e-06	5.775362e-06	2.464629e-08	4.199078e+01	1.612865e+03
2.010000e-06	5.687652e-06	2.454408e-08	4.135307e+01	1.606082e+03
2.020000e-06	5.597890e-06	2.441017e-08	4.070044e+01	1.599106e+03
2.030000e-06	5.506239e-06	2.429080e-08	4.003407e+01	1.591856e+03
2.040000e-06	5.412635e-06	2.420083e-08	3.935351e+01	1.584240e+03
2.050000e-06	5.317120e-06	2.407703e-08	3.865905e+01	1.576165e+03
2.060000e-06	5.219812e-06	2.394680e-08	3.795156e+01	1.567558e+03
2.070000e-06	5.120786e-06	2.377569e-08	3.723157e+01	1.558367e+03
2.080000e-06	5.019911e-06	2.363531e-08	3.649814e+01	1.548573e+03
2.090000e-06	4.917122e-06	2.348013e-08	3.575080e+01	1.538194e+03
2.100000e-06	4.812512e-06	2.333645e-08	3.499021e+01	1.527272e+03
2.110000e-06	4.706283e-06	2.317425e-08	3.421785e+01	1.515871e+03
2.120000e-06	4.598549e-06	2.299276e-08	3.343455e+01	1.504060e+03
2.130000e-06	4.489235e-06	2.279637e-08	3.263977e+01	1.491897e+03
2.140000e-06	4.378252e-06	2.260331e-08	3.183285e+01	1.479415e+03
2.150000e-06	4.265523e-06	2.242248e-08	3.101323e+01	1.466611e+03
2.160000e-06	4.151117e-06	2.222662e-08	3.018142e+01	1.453443e+03
2.170000e-06	4.035037e-06	2.202129e-08	2.933744e+01	1.439825e+03
2.180000e-06	3.917312e-06	2.179080e-08	2.848150e+01	1.425639e+03
2.190000e-06	3.798022e-06	2.155039e-08	2.761419e+01	1.410749e+03
2.200000e-06	3.677273e-06	2.129694e-08	2.673626e+01	1.395012e+03
2.210000e-06	3.555157e-06	2.104324e-08	2.584839e+01	1.378304e+03
2.220000e-06	3.431721e-06	2.077576e-08	2.495093e+01	1.360527e+03
2.230000e-06	3.307015e-06	2.049563e-08	2.404423e+01	1.341624e+03
2.240000e-06	3.181083e-06	2.019823e-08	2.312862e+01	1.321580e+03
2.250000e-06	3.053985e-06	1.988887e-08	2.220453e+01	1.300416e+03
2.260000e-06	2.925698e-06	1.956479e-08	2.127180e+01	1.278178e+03
2.270000e-06	2.796320e-06	1.922113e-08	2.033114e+01	1.254912e+03
2.280000e-06	2.665981e-06	1.885986e-08	1.938348e+01	1.230643e+03
2.290000e-06	2.534700e-06	1.847417e-08	1.842898e+01	1.205354e+03
2.300000e-06	2.402514e-06	1.806665e-08	1.746790e+01	1.178960e+03
2.310000e-06	2.269475e-06	1.763265e-08	1.650061e+01	1.151302e+03
2.320000e-06	2.135663e-06	1.717616e-08	1.552771e+01	1.122144e+03
2.330000e-06	2.001179e-06	1.668694e-08	1.454993e+01	1.091181e+03
2.340000e-06	1.866070e-06	1.616632e-08	1.356759e+01	1.058063e+03
2.350000e-06	1.730237e-06	1.561585e-08	1.257999e+01	1.022425e+03
2.360000e-06	1.593704e-06	1.503032e-08	1.158730e+01	9.839251e+02
2.370000e-06	1.456687e-06	1.440401e-08	1.059110e+01	9.422787e+02
2.380000e-06	1.319287e-06	1.372970e-08	9.592104e+00	8.972957e+02
2.390000e-06	1.181485e-06	1.300789e-08	8.590194e+00	8.489029e+02
2.400000e-06	1.043232e-06	1.223555e-08	7.584998e+00	7.971569e+02
2.410000e-06	9.045472e-07	1.141347e-08	6.576668e+00	7.422405e+02
2.420000e-06	7.654997e-07	1.054555e-08	5.565699e+00	6.844455e+02
2.430000e-06	6.261873e-07	9.630713e-09	4.552804e+00	6.241411e+02
2.440000e-06	4.866785e-07	8.668974e-09	3.538481e+00	5.617344e+02
2.450000e-06	3.470309e-07	7.666719e-09	2.523149e+00	4.976255e+02
2.460000e-06	2.072479e-07	6.636909e-09	1.506832e+00	4.321658e+02
2.470000e-06	6.731198e-08	5.590458e-09	4.894035e-01	3.656235e+02
2.480000e-06	-7.269548e-08	4.537785e-09	-5.285452e-01	2.981625e+02
2.490000e-06	-2.126696e-07	3.485683e-09	-1.546252e+00	2.298376e+02
2.500000e-06	-3.525625e-07	2.432687e-09	-2.563367e+00	1.606063e+02
2.510000e-06	-4.923621e-07	1.375930e-09	-3.579805e+00	9.035828e+01
2.520000e-06	-6.320109e-07	3.107845e-10	-4.595146e+00	1.895659e+01
2.530000e-06	-7.714103e-07	-7.685572e-10	-5.608674e+00	-5.371367e+01
2.540000e-06	-9.105580e-07	-1.868842e-09	-6.620372e+00	-1.276956e+02
2.550000e-06	-1.049402e-06	-2.998696e-09	-7.629863e+00	-2.029169e+02
2.560000e-06	-1.187745e-06	-4.162676e-09	-8.635708e+00	-2.791585e+02
2.570000e-06	-1.325604e-06	-5.356431e-09	-9.638032e+00	-3.560405e+02
2.580000e-06	-1.463000e-06	-6.565469e-09	-1.063700e+01	-4.330269e+02
2.590000e-06	-1.599948e-06	-7.770537e-09	-1.163270e+01	-5.094513e+02
2.600000e-06	-1.736381e-06	-8.949862e-09	-1.262466e+01	-5.845585e+02
2.610000e-06	-1.872056e-06	-1.008324e-08	-1.361111e+01	-6.575597e+02
2.620000e-06	-2.006894e-06	-1.115707e-08	-1.459148e+01	-7.276934e+02
2.630000e-06	-2.140938e-06	-1.216318e-08	-1.556606e+01	-7.942856e+02
2.640000e-06	-2.274206e-06	-1.309771e-08	-1.653501e+01	-8.568019e+02
2.650000e-06	-2.406620e-06	-1.396063e-08	-1.749775e+01	-9.148860e+02
2.660000e-06	-2.538130e-06	-1.475571e-08	-1.845392e+01	-9.683804e+02
2.670000e-06	-2.668735e-06	-1.548891e-08	-1.940350e+01	-1.017326e+03
2.680000e-06	-2.798416e-06	-1.616598e-08	-2.034637e+01	-1.061943e+03
2.690000e-06	-2.927097e-06	-1.679489e-08	-2.128197e+01	-1.102597e+03
2.700000e-06	-3.054689e-06	-1.738143e-08	-2.220965e+01	-1.139752e+03
2.710000e-06	-3.181147e-06	-1.792665e-08	-2.312908e+01	-1.173915e+03
2.720000e-06	-3.306443e-06	-1.843069e-08	-2.404008e+01	-1.205588e+03
2.730000e-06	-3.430527e-06	-1.889784e-08	-2.494225e+01	-1.235223e+03
2.740000e-06	-3.553329e-06	-1.933426e-08	-2.583510e+01	-1.263188e+03
2.750000e-06	-3.674939e-06	-1.974266e-08	-2.671929e+01	-1.289751e+03
2.760000e-06	-3.795292e-06	-2.012689e-08	-2.759433e+01	-1.315073e+03
2.770000e-06	-3.914129e-06	-2.048770e-08	-2.845836e+01	-1.339224e+03
2.780000e-06	-4.031433e-06	-2.082648e-08	-2.931124e+01	-1.362202e+03
2.790000e-06	-4.147213e-06	-2.114577e-08	-3.015304e+01	-1.383963e+03
2.800000e-06	-4.261311e-06	-2.144674e-08	-3.098261e+01	-1.404449e+03
2.810000e-06	-4.373702e-06	-2.173156e-08	-3.179976e+01	-1.423623e+03
2.820000e-06	-4.484360e-06	-2.200023e-08	-3.260432e+01	-1.441480e+03
2.830000e-06	-4.593375e-06	-2.225455e-08	-3.339694e+01	-1.458068e+03
2.840000e-06	-4.700934e-06	-2.249647e-08	-3.417896e+01	-1.473481e+03
2.850000e-06	-4.806984e-06	-2.272557e-08	-3.495002e+01	-1.487858e+03
2.860000e-06	-4.911343e-06	-2.294218e-08	-3.570878e+01	-1.501363e+03
2.870000e-06	-5.013757e-06	-2.314811e-08	-3.645340e+01	-1.514164e+03
2.880000e-06	-5.114266e-06	-2.334392e-08	-3.718417e+01	-1.526416e+03
2.890000e-06	-5.213061e-06	-2.353054e-08	-3.790247e+01	-1.538239e+03
2.900000e-06	-5.310088e-06	-2.370747e-08	-3.860793e+01	-1.549710e+03
2.910000e-06	-5.405122e-06	-2.387604e-08	-3.929888e+01	-1.560855e+03
2.920000e-06	-5.498090e-06	-2.403494e-08	-3.997483e+01	-1.571651e+03
2.930000e-06	-5.589177e-06	-2.418283e-08	-4.063709e+01	-1.582042e+03
2.940000e-06	-5.678339e-06	-2.432311e-08	-4.128536e+01	-1.591950e+03
