# Temperatura_=_88.98
# Concentracion g/m^3_=_28370.0
# C_Vs_to_Am_M_A/Vsm_=_65563218390.804596
# pendiente_HvsI_1/m_=_3716.3
# ordenada_HvsI_A/m_=_1297.0
# frecuencia_Hz_=_302392.894130194

Tiempo_(s)	Campo_(V.s)	Magnetizacion_(V.s)	Campo_(kA/m)	Magnetizacion_(A/m)
0.000000e+00	-7.274202e-06	-2.879553e-08	-5.318401e+01	-1.885240e+03
1.000000e-08	-7.270363e-06	-2.879073e-08	-5.315594e+01	-1.884320e+03
2.000000e-08	-7.264199e-06	-2.877516e-08	-5.311087e+01	-1.883288e+03
3.000000e-08	-7.255733e-06	-2.875541e-08	-5.304897e+01	-1.882190e+03
4.000000e-08	-7.244707e-06	-2.873386e-08	-5.296836e+01	-1.881056e+03
5.000000e-08	-7.230939e-06	-2.871226e-08	-5.286770e+01	-1.879890e+03
6.000000e-08	-7.214499e-06	-2.868922e-08	-5.274750e+01	-1.878675e+03
7.000000e-08	-7.195846e-06	-2.866038e-08	-5.261112e+01	-1.877376e+03
8.000000e-08	-7.175141e-06	-2.863818e-08	-5.245974e+01	-1.875946e+03
9.000000e-08	-7.151893e-06	-2.867325e-08	-5.228977e+01	-1.874337e+03
1.000000e-07	-7.125670e-06	-2.865240e-08	-5.209804e+01	-1.872507e+03
1.100000e-07	-7.096635e-06	-2.855831e-08	-5.188576e+01	-1.870428e+03
1.200000e-07	-7.065180e-06	-2.849884e-08	-5.165578e+01	-1.868088e+03
1.300000e-07	-7.031259e-06	-2.845651e-08	-5.140777e+01	-1.865498e+03
1.400000e-07	-6.995072e-06	-2.837544e-08	-5.114320e+01	-1.862682e+03
1.500000e-07	-6.957096e-06	-2.831389e-08	-5.086555e+01	-1.859676e+03
1.600000e-07	-6.917109e-06	-2.838004e-08	-5.057318e+01	-1.856518e+03
1.700000e-07	-6.874596e-06	-2.829359e-08	-5.026236e+01	-1.853237e+03
1.800000e-07	-6.829680e-06	-2.816678e-08	-4.993397e+01	-1.849849e+03
1.900000e-07	-6.782270e-06	-2.819040e-08	-4.958733e+01	-1.846349e+03
2.000000e-07	-6.731968e-06	-2.808048e-08	-4.921956e+01	-1.842707e+03
2.100000e-07	-6.678972e-06	-2.798923e-08	-4.883209e+01	-1.838878e+03
2.200000e-07	-6.623526e-06	-2.792924e-08	-4.842671e+01	-1.834798e+03
2.300000e-07	-6.565538e-06	-2.784483e-08	-4.800274e+01	-1.830402e+03
2.400000e-07	-6.505070e-06	-2.781276e-08	-4.756064e+01	-1.825628e+03
2.500000e-07	-6.442275e-06	-2.771692e-08	-4.710153e+01	-1.820430e+03
2.600000e-07	-6.377056e-06	-2.762906e-08	-4.662469e+01	-1.814785e+03
2.700000e-07	-6.309398e-06	-2.753483e-08	-4.613002e+01	-1.808696e+03
2.800000e-07	-6.239415e-06	-2.744301e-08	-4.561835e+01	-1.802196e+03
2.900000e-07	-6.167063e-06	-2.734326e-08	-4.508936e+01	-1.795336e+03
3.000000e-07	-6.092227e-06	-2.723739e-08	-4.454221e+01	-1.788183e+03
3.100000e-07	-6.014838e-06	-2.717599e-08	-4.397639e+01	-1.780803e+03
3.200000e-07	-5.934903e-06	-2.705245e-08	-4.339196e+01	-1.773254e+03
3.300000e-07	-5.852771e-06	-2.690481e-08	-4.279147e+01	-1.765571e+03
3.400000e-07	-5.768787e-06	-2.676382e-08	-4.217744e+01	-1.757760e+03
3.500000e-07	-5.682935e-06	-2.665030e-08	-4.154975e+01	-1.749792e+03
3.600000e-07	-5.595107e-06	-2.653996e-08	-4.090761e+01	-1.741612e+03
3.700000e-07	-5.505154e-06	-2.639368e-08	-4.024994e+01	-1.733139e+03
3.800000e-07	-5.413213e-06	-2.625066e-08	-3.957772e+01	-1.724277e+03
3.900000e-07	-5.319390e-06	-2.609240e-08	-3.889175e+01	-1.714936e+03
4.000000e-07	-5.223738e-06	-2.592932e-08	-3.819241e+01	-1.705036e+03
4.100000e-07	-5.126221e-06	-2.577286e-08	-3.747943e+01	-1.694525e+03
4.200000e-07	-5.026810e-06	-2.562985e-08	-3.675261e+01	-1.683383e+03
4.300000e-07	-4.925647e-06	-2.546493e-08	-3.601297e+01	-1.671622e+03
4.400000e-07	-4.822750e-06	-2.527206e-08	-3.526066e+01	-1.659287e+03
4.500000e-07	-4.718178e-06	-2.507773e-08	-3.449610e+01	-1.646441e+03
4.600000e-07	-4.611834e-06	-2.488067e-08	-3.371859e+01	-1.633153e+03
4.700000e-07	-4.503807e-06	-2.467797e-08	-3.292877e+01	-1.619483e+03
4.800000e-07	-4.394276e-06	-2.447119e-08	-3.212795e+01	-1.605466e+03
4.900000e-07	-4.283235e-06	-2.425731e-08	-3.131610e+01	-1.591102e+03
5.000000e-07	-4.170602e-06	-2.401629e-08	-3.049260e+01	-1.576350e+03
5.100000e-07	-4.056153e-06	-2.376188e-08	-2.965582e+01	-1.561125e+03
5.200000e-07	-3.939940e-06	-2.350994e-08	-2.880616e+01	-1.545310e+03
5.300000e-07	-3.822231e-06	-2.325363e-08	-2.794555e+01	-1.528767e+03
5.400000e-07	-3.703196e-06	-2.298165e-08	-2.707524e+01	-1.511354e+03
5.500000e-07	-3.582855e-06	-2.269714e-08	-2.619540e+01	-1.492940e+03
5.600000e-07	-3.461059e-06	-2.240126e-08	-2.530491e+01	-1.473425e+03
5.700000e-07	-3.337784e-06	-2.208874e-08	-2.440360e+01	-1.452748e+03
5.800000e-07	-3.213301e-06	-2.175959e-08	-2.349347e+01	-1.430892e+03
5.900000e-07	-3.087738e-06	-2.141685e-08	-2.257543e+01	-1.407875e+03
6.000000e-07	-2.961089e-06	-2.106070e-08	-2.164946e+01	-1.383744e+03
6.100000e-07	-2.833369e-06	-2.068549e-08	-2.071566e+01	-1.358547e+03
6.200000e-07	-2.704631e-06	-2.029289e-08	-1.977442e+01	-1.332315e+03
6.300000e-07	-2.574856e-06	-1.988029e-08	-1.882559e+01	-1.305036e+03
6.400000e-07	-2.443945e-06	-1.944591e-08	-1.786846e+01	-1.276635e+03
6.500000e-07	-2.312073e-06	-1.898298e-08	-1.690430e+01	-1.246961e+03
6.600000e-07	-2.179507e-06	-1.848783e-08	-1.593507e+01	-1.215782e+03
6.700000e-07	-2.046311e-06	-1.796436e-08	-1.496123e+01	-1.182798e+03
6.800000e-07	-1.912431e-06	-1.741537e-08	-1.398239e+01	-1.147655e+03
6.900000e-07	-1.777887e-06	-1.683756e-08	-1.299870e+01	-1.109980e+03
7.000000e-07	-1.642697e-06	-1.621852e-08	-1.201028e+01	-1.069412e+03
7.100000e-07	-1.506906e-06	-1.555306e-08	-1.101747e+01	-1.025640e+03
7.200000e-07	-1.370620e-06	-1.484117e-08	-1.002104e+01	-9.784359e+02
7.300000e-07	-1.233931e-06	-1.408157e-08	-9.021665e+00	-9.276800e+02
7.400000e-07	-1.096868e-06	-1.327176e-08	-8.019550e+00	-8.733742e+02
7.500000e-07	-9.594077e-07	-1.241221e-08	-7.014535e+00	-8.156410e+02
7.600000e-07	-8.215614e-07	-1.150138e-08	-6.006697e+00	-7.547083e+02
7.700000e-07	-6.833463e-07	-1.053264e-08	-4.996163e+00	-6.908821e+02
7.800000e-07	-5.447806e-07	-9.509351e-09	-3.983064e+00	-6.245103e+02
7.900000e-07	-4.059773e-07	-8.442930e-09	-2.968229e+00	-5.559417e+02
8.000000e-07	-2.669912e-07	-7.341506e-09	-1.952057e+00	-4.854879e+02
8.100000e-07	-1.278145e-07	-6.213945e-09	-9.344929e-01	-4.133925e+02
8.200000e-07	1.146133e-08	-5.070428e-09	8.379743e-02	-3.398123e+02
8.300000e-07	1.507992e-07	-3.918943e-09	1.102541e+00	-2.648139e+02
8.400000e-07	2.901397e-07	-2.761229e-09	2.121304e+00	-1.883872e+02
8.500000e-07	4.294000e-07	-1.594129e-09	3.139480e+00	-1.104737e+02
8.600000e-07	5.684457e-07	-4.167058e-10	4.156088e+00	-3.100618e+01
8.700000e-07	7.071665e-07	7.790939e-10	5.170320e+00	5.004456e+01
8.800000e-07	8.455836e-07	2.005343e-09	6.182331e+00	1.326237e+02
8.900000e-07	9.836383e-07	3.266031e-09	7.191693e+00	2.165526e+02
9.000000e-07	1.121261e-06	4.560070e-09	8.197897e+00	3.015026e+02
9.100000e-07	1.258448e-06	5.879354e-09	9.200911e+00	3.869845e+02
9.200000e-07	1.395276e-06	7.210217e-09	1.020131e+01	4.723592e+02
9.300000e-07	1.531687e-06	8.531962e-09	1.119865e+01	5.568666e+02
9.400000e-07	1.667511e-06	9.824084e-09	1.219170e+01	6.396715e+02
9.500000e-07	1.802661e-06	1.106613e-08	1.317983e+01	7.199214e+02
9.600000e-07	1.937060e-06	1.223947e-08	1.416246e+01	7.968091e+02
9.700000e-07	2.070725e-06	1.333103e-08	1.513973e+01	8.696340e+02
9.800000e-07	2.203697e-06	1.433928e-08	1.611193e+01	9.378541e+02
9.900000e-07	2.336007e-06	1.526935e-08	1.707929e+01	1.001123e+03
1.000000e-06	2.467452e-06	1.612509e-08	1.804033e+01	1.059308e+03
1.010000e-06	2.597758e-06	1.691178e-08	1.899303e+01	1.112489e+03
1.020000e-06	2.727018e-06	1.763717e-08	1.993810e+01	1.160932e+03
1.030000e-06	2.855339e-06	1.830941e-08	2.087629e+01	1.205056e+03
1.040000e-06	2.982580e-06	1.893559e-08	2.180659e+01	1.245379e+03
1.050000e-06	3.108713e-06	1.951799e-08	2.272879e+01	1.282461e+03
1.060000e-06	3.233789e-06	2.006074e-08	2.364326e+01	1.316853e+03
1.070000e-06	3.357822e-06	2.056738e-08	2.455010e+01	1.349048e+03
1.080000e-06	3.480688e-06	2.104060e-08	2.544842e+01	1.379448e+03
1.090000e-06	3.602249e-06	2.148321e-08	2.633719e+01	1.408345e+03
1.100000e-06	3.722494e-06	2.189853e-08	2.721634e+01	1.435915e+03
1.110000e-06	3.841326e-06	2.229018e-08	2.808515e+01	1.462235e+03
1.120000e-06	3.958762e-06	2.265965e-08	2.894377e+01	1.487305e+03
1.130000e-06	4.074803e-06	2.300666e-08	2.979218e+01	1.511077e+03
1.140000e-06	4.189266e-06	2.333281e-08	3.062906e+01	1.533488e+03
1.150000e-06	4.302064e-06	2.364266e-08	3.145376e+01	1.554494e+03
1.160000e-06	4.413206e-06	2.393746e-08	3.226635e+01	1.574086e+03
1.170000e-06	4.522868e-06	2.421718e-08	3.306813e+01	1.592311e+03
1.180000e-06	4.631110e-06	2.448083e-08	3.385952e+01	1.609267e+03
1.190000e-06	4.737698e-06	2.473101e-08	3.463882e+01	1.625099e+03
1.200000e-06	4.842548e-06	2.496723e-08	3.540541e+01	1.639981e+03
1.210000e-06	4.945640e-06	2.519083e-08	3.615915e+01	1.654098e+03
1.220000e-06	5.046980e-06	2.540334e-08	3.690008e+01	1.667620e+03
1.230000e-06	5.146475e-06	2.560699e-08	3.762752e+01	1.680684e+03
1.240000e-06	5.243959e-06	2.580132e-08	3.834025e+01	1.693382e+03
1.250000e-06	5.339402e-06	2.598501e-08	3.903807e+01	1.705752e+03
1.260000e-06	5.432945e-06	2.616049e-08	3.972199e+01	1.717780e+03
1.270000e-06	5.524676e-06	2.632914e-08	4.039266e+01	1.729415e+03
1.280000e-06	5.614420e-06	2.649039e-08	4.104881e+01	1.740576e+03
1.290000e-06	5.702038e-06	2.664450e-08	4.168942e+01	1.751179e+03
1.300000e-06	5.787631e-06	2.679247e-08	4.231521e+01	1.761147e+03
1.310000e-06	5.871275e-06	2.693252e-08	4.292676e+01	1.770432e+03
1.320000e-06	5.952823e-06	2.706555e-08	4.352299e+01	1.779024e+03
1.330000e-06	6.032120e-06	2.719168e-08	4.410275e+01	1.786951e+03
1.340000e-06	6.109204e-06	2.731168e-08	4.466634e+01	1.794278e+03
1.350000e-06	6.183964e-06	2.742486e-08	4.521293e+01	1.801098e+03
1.360000e-06	6.256272e-06	2.753072e-08	4.574160e+01	1.807518e+03
1.370000e-06	6.326346e-06	2.763092e-08	4.625393e+01	1.813644e+03
1.380000e-06	6.394284e-06	2.772595e-08	4.675065e+01	1.819564e+03
1.390000e-06	6.459917e-06	2.781670e-08	4.723051e+01	1.825339e+03
1.400000e-06	6.523150e-06	2.790158e-08	4.769283e+01	1.830995e+03
1.410000e-06	6.584114e-06	2.798075e-08	4.813855e+01	1.836524e+03
1.420000e-06	6.642847e-06	2.805517e-08	4.856797e+01	1.841887e+03
1.430000e-06	6.699202e-06	2.812588e-08	4.898000e+01	1.847023e+03
1.440000e-06	6.753073e-06	2.819351e-08	4.937387e+01	1.851864e+03
1.450000e-06	6.804310e-06	2.825791e-08	4.974848e+01	1.856347e+03
1.460000e-06	6.852790e-06	2.831927e-08	5.010293e+01	1.860426e+03
1.470000e-06	6.898758e-06	2.837656e-08	5.043902e+01	1.864078e+03
1.480000e-06	6.942385e-06	2.843103e-08	5.075799e+01	1.867312e+03
1.490000e-06	6.983495e-06	2.848280e-08	5.105855e+01	1.870163e+03
1.500000e-06	7.022087e-06	2.852874e-08	5.134072e+01	1.872688e+03
1.510000e-06	7.058334e-06	2.856896e-08	5.160572e+01	1.874955e+03
1.520000e-06	7.092096e-06	2.860579e-08	5.185257e+01	1.877035e+03
1.530000e-06	7.123211e-06	2.863964e-08	5.208007e+01	1.878986e+03
1.540000e-06	7.151900e-06	2.866906e-08	5.228982e+01	1.880847e+03
1.550000e-06	7.178040e-06	2.869429e-08	5.248093e+01	1.882633e+03
1.560000e-06	7.201435e-06	2.871626e-08	5.265199e+01	1.884330e+03
1.570000e-06	7.222306e-06	2.873541e-08	5.280458e+01	1.885903e+03
1.580000e-06	7.240700e-06	2.875165e-08	5.293906e+01	1.887301e+03
1.590000e-06	7.256406e-06	2.876335e-08	5.305390e+01	1.888466e+03
1.600000e-06	7.269335e-06	2.877041e-08	5.314842e+01	1.889346e+03
1.610000e-06	7.279402e-06	2.877652e-08	5.322203e+01	1.889901e+03
1.620000e-06	7.286661e-06	2.878163e-08	5.327510e+01	1.890116e+03
1.630000e-06	7.291376e-06	2.878431e-08	5.330958e+01	1.889997e+03
1.640000e-06	7.293514e-06	2.878603e-08	5.332520e+01	1.889575e+03
1.650000e-06	7.293033e-06	2.878517e-08	5.332168e+01	1.888901e+03
1.660000e-06	7.290152e-06	2.877383e-08	5.330062e+01	1.888033e+03
1.670000e-06	7.284889e-06	2.876156e-08	5.326214e+01	1.887034e+03
1.680000e-06	7.277124e-06	2.874867e-08	5.320537e+01	1.885954e+03
1.690000e-06	7.266937e-06	2.873283e-08	5.313089e+01	1.884830e+03
1.700000e-06	7.254200e-06	2.871787e-08	5.303777e+01	1.883674e+03
1.710000e-06	7.238954e-06	2.870537e-08	5.292630e+01	1.882479e+03
1.720000e-06	7.221494e-06	2.869732e-08	5.279864e+01	1.881213e+03
1.730000e-06	7.201871e-06	2.864776e-08	5.265517e+01	1.879835e+03
1.740000e-06	7.179605e-06	2.853594e-08	5.249238e+01	1.878294e+03
1.750000e-06	7.154085e-06	2.852430e-08	5.230580e+01	1.876546e+03
1.760000e-06	7.125274e-06	2.854210e-08	5.209515e+01	1.874556e+03
1.770000e-06	7.093695e-06	2.850772e-08	5.186426e+01	1.872308e+03
1.780000e-06	7.060026e-06	2.851392e-08	5.161810e+01	1.869803e+03
1.790000e-06	7.024681e-06	2.853903e-08	5.135968e+01	1.867063e+03
1.800000e-06	6.987719e-06	2.838695e-08	5.108944e+01	1.864119e+03
1.810000e-06	6.948442e-06	2.832647e-08	5.080227e+01	1.861010e+03
1.820000e-06	6.906497e-06	2.837848e-08	5.049560e+01	1.857769e+03
1.830000e-06	6.862372e-06	2.827165e-08	5.017299e+01	1.854418e+03
1.840000e-06	6.815842e-06	2.833262e-08	4.983279e+01	1.850958e+03
1.850000e-06	6.766679e-06	2.825942e-08	4.947335e+01	1.847370e+03
1.860000e-06	6.714927e-06	2.815218e-08	4.909497e+01	1.843613e+03
1.870000e-06	6.660376e-06	2.814628e-08	4.869613e+01	1.839629e+03
1.880000e-06	6.603324e-06	2.797499e-08	4.827900e+01	1.835352e+03
1.890000e-06	6.543824e-06	2.794816e-08	4.784398e+01	1.830718e+03
1.900000e-06	6.481708e-06	2.785443e-08	4.738983e+01	1.825674e+03
1.910000e-06	6.417129e-06	2.775235e-08	4.691767e+01	1.820188e+03
1.920000e-06	6.350260e-06	2.772432e-08	4.642877e+01	1.814254e+03
1.930000e-06	6.281141e-06	2.759199e-08	4.592342e+01	1.807894e+03
1.940000e-06	6.209529e-06	2.753420e-08	4.539984e+01	1.801154e+03
1.950000e-06	6.135413e-06	2.737262e-08	4.485796e+01	1.794097e+03
1.960000e-06	6.058723e-06	2.726637e-08	4.429726e+01	1.786789e+03
1.970000e-06	5.979515e-06	2.719242e-08	4.371814e+01	1.779294e+03
1.980000e-06	5.898247e-06	2.707470e-08	4.312396e+01	1.771655e+03
1.990000e-06	5.815002e-06	2.699090e-08	4.251533e+01	1.763890e+03
2.000000e-06	5.729637e-06	2.682754e-08	4.189120e+01	1.755982e+03
2.010000e-06	5.642078e-06	2.670466e-08	4.125103e+01	1.747885e+03
2.020000e-06	5.552551e-06	2.654394e-08	4.059647e+01	1.739525e+03
2.030000e-06	5.461193e-06	2.641852e-08	3.992852e+01	1.730811e+03
2.040000e-06	5.367882e-06	2.631059e-08	3.924629e+01	1.721650e+03
2.050000e-06	5.272544e-06	2.615999e-08	3.854925e+01	1.711956e+03
2.060000e-06	5.175354e-06	2.598585e-08	3.783866e+01	1.701666e+03
2.070000e-06	5.076537e-06	2.578874e-08	3.711618e+01	1.690748e+03
2.080000e-06	4.975985e-06	2.563169e-08	3.638101e+01	1.679203e+03
2.090000e-06	4.873471e-06	2.545453e-08	3.563150e+01	1.667066e+03
2.100000e-06	4.769104e-06	2.528428e-08	3.486844e+01	1.654393e+03
2.110000e-06	4.663208e-06	2.509153e-08	3.409420e+01	1.641254e+03
2.120000e-06	4.555854e-06	2.488173e-08	3.330930e+01	1.627713e+03
2.130000e-06	4.446978e-06	2.465363e-08	3.251327e+01	1.613816e+03
2.140000e-06	4.336396e-06	2.443709e-08	3.170478e+01	1.599578e+03
2.150000e-06	4.224056e-06	2.423452e-08	3.088342e+01	1.584970e+03
2.160000e-06	4.110069e-06	2.400867e-08	3.005002e+01	1.569924e+03
2.170000e-06	3.994422e-06	2.376338e-08	2.920449e+01	1.554334e+03
2.180000e-06	3.877149e-06	2.349692e-08	2.834707e+01	1.538067e+03
2.190000e-06	3.758190e-06	2.322714e-08	2.747733e+01	1.520979e+03
2.200000e-06	3.637698e-06	2.294140e-08	2.659637e+01	1.502934e+03
2.210000e-06	3.515911e-06	2.265268e-08	2.570595e+01	1.483820e+03
2.220000e-06	3.392907e-06	2.234780e-08	2.480662e+01	1.463561e+03
2.230000e-06	3.268758e-06	2.203057e-08	2.389893e+01	1.442124e+03
2.240000e-06	3.143401e-06	2.169717e-08	2.298241e+01	1.419517e+03
2.250000e-06	3.016786e-06	2.135092e-08	2.205668e+01	1.395776e+03
2.260000e-06	2.888954e-06	2.098634e-08	2.112206e+01	1.370953e+03
2.270000e-06	2.760088e-06	2.059977e-08	2.017988e+01	1.345088e+03
2.280000e-06	2.630306e-06	2.019178e-08	1.923101e+01	1.318187e+03
2.290000e-06	2.499635e-06	1.975878e-08	1.827563e+01	1.290199e+03
2.300000e-06	2.368138e-06	1.930589e-08	1.731421e+01	1.261000e+03
2.310000e-06	2.235837e-06	1.882631e-08	1.634691e+01	1.230388e+03
2.320000e-06	2.102810e-06	1.831836e-08	1.537431e+01	1.198086e+03
2.330000e-06	1.969118e-06	1.777485e-08	1.439685e+01	1.163755e+03
2.340000e-06	1.834717e-06	1.720099e-08	1.341420e+01	1.127026e+03
2.350000e-06	1.699511e-06	1.659772e-08	1.242567e+01	1.087529e+03
2.360000e-06	1.563547e-06	1.595594e-08	1.143159e+01	1.044931e+03
2.370000e-06	1.427077e-06	1.526866e-08	1.043382e+01	9.989712e+02
2.380000e-06	1.290250e-06	1.453003e-08	9.433429e+00	9.494887e+02
2.390000e-06	1.153104e-06	1.373473e-08	8.430707e+00	8.964414e+02
2.400000e-06	1.015644e-06	1.288575e-08	7.425696e+00	8.399097e+02
2.410000e-06	8.778495e-07	1.199033e-08	6.418238e+00	7.800865e+02
2.420000e-06	7.397399e-07	1.104766e-08	5.408474e+00	7.172538e+02
2.430000e-06	6.013389e-07	1.005152e-08	4.396580e+00	6.517489e+02
2.440000e-06	4.627287e-07	9.001946e-09	3.383157e+00	5.839250e+02
2.450000e-06	3.239556e-07	7.907965e-09	2.368543e+00	5.141111e+02
2.460000e-06	1.850190e-07	6.781292e-09	1.352733e+00	4.425779e+02
2.470000e-06	4.597818e-08	5.632557e-09	3.361611e-01	3.695144e+02
2.480000e-06	-9.307533e-08	4.474514e-09	-6.805033e-01	2.950188e+02
2.490000e-06	-2.321185e-07	3.312380e-09	-1.697092e+00	2.191058e+02
2.500000e-06	-3.711145e-07	2.141599e-09	-2.713336e+00	1.417302e+02
2.510000e-06	-5.099621e-07	9.607280e-10	-3.728495e+00	6.282263e+01
2.520000e-06	-6.486684e-07	-2.343578e-10	-4.742621e+00	-1.766503e+01
2.530000e-06	-7.871755e-07	-1.451849e-09	-5.755291e+00	-9.971299e+01
2.540000e-06	-9.253940e-07	-2.698700e-09	-6.765851e+00	-1.831908e+02
2.550000e-06	-1.063294e-06	-3.978218e-09	-7.774082e+00	-2.678253e+02
2.560000e-06	-1.200809e-06	-5.288714e-09	-8.779494e+00	-3.531846e+02
2.570000e-06	-1.337891e-06	-6.621964e-09	-9.781747e+00	-4.386807e+02
2.580000e-06	-1.474589e-06	-7.959848e-09	-1.078119e+01	-5.235924e+02
2.590000e-06	-1.610877e-06	-9.278583e-09	-1.177763e+01	-6.071050e+02
2.600000e-06	-1.746509e-06	-1.055117e-08	-1.276928e+01	-6.883651e+02
2.610000e-06	-1.881256e-06	-1.175871e-08	-1.375446e+01	-7.665421e+02
2.620000e-06	-2.015126e-06	-1.288913e-08	-1.473323e+01	-8.408908e+02
2.630000e-06	-2.148297e-06	-1.393634e-08	-1.570688e+01	-9.108073e+02
2.640000e-06	-2.280764e-06	-1.490358e-08	-1.667539e+01	-9.758724e+02
2.650000e-06	-2.412301e-06	-1.579468e-08	-1.763710e+01	-1.035876e+03
2.660000e-06	-2.542896e-06	-1.661472e-08	-1.859192e+01	-1.090824e+03
2.670000e-06	-2.672647e-06	-1.737055e-08	-1.954057e+01	-1.140919e+03
2.680000e-06	-2.801543e-06	-1.806952e-08	-2.048297e+01	-1.186532e+03
2.690000e-06	-2.929467e-06	-1.871889e-08	-2.141827e+01	-1.228150e+03
2.700000e-06	-3.056153e-06	-1.932427e-08	-2.234451e+01	-1.266326e+03
2.710000e-06	-3.181706e-06	-1.988970e-08	-2.326246e+01	-1.301620e+03
2.720000e-06	-3.306208e-06	-2.041575e-08	-2.417274e+01	-1.334550e+03
2.730000e-06	-3.429406e-06	-2.090459e-08	-2.507348e+01	-1.365553e+03
2.740000e-06	-3.551342e-06	-2.136127e-08	-2.596499e+01	-1.394961e+03
2.750000e-06	-3.672125e-06	-2.178846e-08	-2.684807e+01	-1.422993e+03
2.760000e-06	-3.791545e-06	-2.218839e-08	-2.772119e+01	-1.449758e+03
2.770000e-06	-3.909454e-06	-2.256594e-08	-2.858326e+01	-1.475279e+03
2.780000e-06	-4.025923e-06	-2.292601e-08	-2.943481e+01	-1.499523e+03
2.790000e-06	-4.140796e-06	-2.326520e-08	-3.027468e+01	-1.522428e+03
2.800000e-06	-4.253868e-06	-2.358105e-08	-3.110138e+01	-1.543940e+03
2.810000e-06	-4.365226e-06	-2.387890e-08	-3.191556e+01	-1.564037e+03
2.820000e-06	-4.474970e-06	-2.416241e-08	-3.271793e+01	-1.582743e+03
2.830000e-06	-4.583250e-06	-2.443383e-08	-3.350960e+01	-1.600139e+03
2.840000e-06	-4.690110e-06	-2.469188e-08	-3.429088e+01	-1.616354e+03
2.850000e-06	-4.795345e-06	-2.493511e-08	-3.506029e+01	-1.631556e+03
2.860000e-06	-4.898804e-06	-2.516453e-08	-3.581671e+01	-1.645927e+03
2.870000e-06	-5.000414e-06	-2.538169e-08	-3.655962e+01	-1.659645e+03
2.880000e-06	-5.100176e-06	-2.559031e-08	-3.728901e+01	-1.672861e+03
2.890000e-06	-5.198146e-06	-2.579296e-08	-3.800530e+01	-1.685684e+03
2.900000e-06	-5.294310e-06	-2.598842e-08	-3.870838e+01	-1.698171e+03
2.910000e-06	-5.388542e-06	-2.617263e-08	-3.939734e+01	-1.710327e+03
2.920000e-06	-5.480816e-06	-2.634430e-08	-4.007199e+01	-1.722112e+03
2.930000e-06	-5.571155e-06	-2.650576e-08	-4.073249e+01	-1.733454e+03
2.940000e-06	-5.659460e-06	-2.665892e-08	-4.137811e+01	-1.744266e+03
