# Temperatura_=_67.82
# Concentracion g/m^3_=_28370.0
# C_Vs_to_Am_M_A/Vsm_=_65563218390.804596
# pendiente_HvsI_1/m_=_3716.3
# ordenada_HvsI_A/m_=_1297.0
# frecuencia_Hz_=_302400.78451966244

Tiempo_(s)	Campo_(V.s)	Magnetizacion_(V.s)	Campo_(kA/m)	Magnetizacion_(A/m)
0.000000e+00	-7.355108e-06	-2.691776e-08	-5.318980e+01	-1.762986e+03
1.000000e-08	-7.351677e-06	-2.691792e-08	-5.316498e+01	-1.762152e+03
2.000000e-08	-7.345886e-06	-2.690616e-08	-5.312311e+01	-1.761211e+03
3.000000e-08	-7.337794e-06	-2.689008e-08	-5.306459e+01	-1.760214e+03
4.000000e-08	-7.327150e-06	-2.687480e-08	-5.298761e+01	-1.759194e+03
5.000000e-08	-7.313746e-06	-2.685658e-08	-5.289068e+01	-1.758163e+03
6.000000e-08	-7.297603e-06	-2.683402e-08	-5.277394e+01	-1.757112e+03
7.000000e-08	-7.279133e-06	-2.680937e-08	-5.264037e+01	-1.756009e+03
8.000000e-08	-7.258571e-06	-2.678474e-08	-5.249167e+01	-1.754811e+03
9.000000e-08	-7.235486e-06	-2.682471e-08	-5.232473e+01	-1.753471e+03
1.000000e-07	-7.209425e-06	-2.681885e-08	-5.213626e+01	-1.751944e+03
1.100000e-07	-7.180497e-06	-2.672181e-08	-5.192707e+01	-1.750199e+03
1.200000e-07	-7.149050e-06	-2.666493e-08	-5.169965e+01	-1.748220e+03
1.300000e-07	-7.115100e-06	-2.664200e-08	-5.145414e+01	-1.746012e+03
1.400000e-07	-7.078874e-06	-2.657719e-08	-5.119216e+01	-1.743598e+03
1.500000e-07	-7.040832e-06	-2.647760e-08	-5.091706e+01	-1.741011e+03
1.600000e-07	-7.000765e-06	-2.655683e-08	-5.062730e+01	-1.738290e+03
1.700000e-07	-6.958173e-06	-2.652587e-08	-5.031929e+01	-1.735468e+03
1.800000e-07	-6.913171e-06	-2.634688e-08	-4.999385e+01	-1.732566e+03
1.900000e-07	-6.865690e-06	-2.640986e-08	-4.965048e+01	-1.729584e+03
2.000000e-07	-6.815330e-06	-2.633395e-08	-4.928630e+01	-1.726501e+03
2.100000e-07	-6.762220e-06	-2.623171e-08	-4.890222e+01	-1.723273e+03
2.200000e-07	-6.706565e-06	-2.621602e-08	-4.849974e+01	-1.719840e+03
2.300000e-07	-6.648362e-06	-2.612643e-08	-4.807884e+01	-1.716136e+03
2.400000e-07	-6.587687e-06	-2.609866e-08	-4.764005e+01	-1.712095e+03
2.500000e-07	-6.524607e-06	-2.599229e-08	-4.718388e+01	-1.707665e+03
2.600000e-07	-6.459085e-06	-2.592164e-08	-4.671004e+01	-1.702814e+03
2.700000e-07	-6.391115e-06	-2.585432e-08	-4.621850e+01	-1.697538e+03
2.800000e-07	-6.320704e-06	-2.575789e-08	-4.570932e+01	-1.691860e+03
2.900000e-07	-6.247847e-06	-2.566680e-08	-4.518244e+01	-1.685828e+03
3.000000e-07	-6.172465e-06	-2.557574e-08	-4.463730e+01	-1.679505e+03
3.100000e-07	-6.094525e-06	-2.552041e-08	-4.407366e+01	-1.672960e+03
3.200000e-07	-6.014126e-06	-2.539690e-08	-4.349224e+01	-1.666256e+03
3.300000e-07	-5.931588e-06	-2.529655e-08	-4.289535e+01	-1.659436e+03
3.400000e-07	-5.847110e-06	-2.519524e-08	-4.228444e+01	-1.652514e+03
3.500000e-07	-5.760708e-06	-2.506320e-08	-4.165960e+01	-1.645475e+03
3.600000e-07	-5.672355e-06	-2.496416e-08	-4.102066e+01	-1.638269e+03
3.700000e-07	-5.581863e-06	-2.485215e-08	-4.036626e+01	-1.630819e+03
3.800000e-07	-5.489263e-06	-2.472042e-08	-3.969660e+01	-1.623035e+03
3.900000e-07	-5.394716e-06	-2.457437e-08	-3.901287e+01	-1.614819e+03
4.000000e-07	-5.298261e-06	-2.443954e-08	-3.831533e+01	-1.606088e+03
4.100000e-07	-5.199936e-06	-2.429518e-08	-3.760428e+01	-1.596778e+03
4.200000e-07	-5.099816e-06	-2.414682e-08	-3.688024e+01	-1.586860e+03
4.300000e-07	-4.997941e-06	-2.400259e-08	-3.614352e+01	-1.576336e+03
4.400000e-07	-4.894255e-06	-2.384401e-08	-3.539369e+01	-1.565244e+03
4.500000e-07	-4.788814e-06	-2.366887e-08	-3.463117e+01	-1.553645e+03
4.600000e-07	-4.681643e-06	-2.348666e-08	-3.385615e+01	-1.541608e+03
4.700000e-07	-4.572777e-06	-2.330632e-08	-3.306887e+01	-1.529203e+03
4.800000e-07	-4.462363e-06	-2.312130e-08	-3.227038e+01	-1.516475e+03
4.900000e-07	-4.350281e-06	-2.292251e-08	-3.145985e+01	-1.503439e+03
5.000000e-07	-4.236480e-06	-2.270934e-08	-3.063687e+01	-1.490067e+03
5.100000e-07	-4.120988e-06	-2.248829e-08	-2.980167e+01	-1.476289e+03
5.200000e-07	-4.003814e-06	-2.225709e-08	-2.895430e+01	-1.461996e+03
5.300000e-07	-3.885165e-06	-2.201802e-08	-2.809628e+01	-1.447055e+03
5.400000e-07	-3.765125e-06	-2.177015e-08	-2.722818e+01	-1.431321e+03
5.500000e-07	-3.643638e-06	-2.151166e-08	-2.634963e+01	-1.414656e+03
5.600000e-07	-3.520745e-06	-2.123790e-08	-2.546091e+01	-1.396948e+03
5.700000e-07	-3.396469e-06	-2.095114e-08	-2.456218e+01	-1.378123e+03
5.800000e-07	-3.270948e-06	-2.065101e-08	-2.365445e+01	-1.358149e+03
5.900000e-07	-3.144316e-06	-2.034023e-08	-2.273869e+01	-1.337038e+03
6.000000e-07	-3.016513e-06	-2.001570e-08	-2.181446e+01	-1.314832e+03
6.100000e-07	-2.887515e-06	-1.967109e-08	-2.088159e+01	-1.291586e+03
6.200000e-07	-2.757401e-06	-1.930738e-08	-1.994065e+01	-1.267344e+03
6.300000e-07	-2.626330e-06	-1.892357e-08	-1.899278e+01	-1.242116e+03
6.400000e-07	-2.494269e-06	-1.852032e-08	-1.803776e+01	-1.215857e+03
6.500000e-07	-2.361254e-06	-1.809246e-08	-1.707584e+01	-1.188445e+03
6.600000e-07	-2.227517e-06	-1.764033e-08	-1.610869e+01	-1.159679e+03
6.700000e-07	-2.093122e-06	-1.716074e-08	-1.513679e+01	-1.129285e+03
6.800000e-07	-1.957998e-06	-1.665261e-08	-1.415962e+01	-1.096926e+03
6.900000e-07	-1.822059e-06	-1.611304e-08	-1.317655e+01	-1.062234e+03
7.000000e-07	-1.685331e-06	-1.553814e-08	-1.218778e+01	-1.024844e+03
7.100000e-07	-1.547980e-06	-1.492455e-08	-1.119450e+01	-9.844262e+02
7.200000e-07	-1.410134e-06	-1.426618e-08	-1.019764e+01	-9.407289e+02
7.300000e-07	-1.271827e-06	-1.356325e-08	-9.197447e+00	-8.936015e+02
7.400000e-07	-1.133132e-06	-1.281112e-08	-8.194451e+00	-8.430157e+02
7.500000e-07	-9.940452e-07	-1.201036e-08	-7.188618e+00	-7.890684e+02
7.600000e-07	-8.545304e-07	-1.115957e-08	-6.179692e+00	-7.319721e+02
7.700000e-07	-7.146538e-07	-1.025721e-08	-5.168149e+00	-6.720303e+02
7.800000e-07	-5.744910e-07	-9.301870e-09	-4.154536e+00	-6.096027e+02
7.900000e-07	-4.340497e-07	-8.299529e-09	-3.138909e+00	-5.450643e+02
8.000000e-07	-2.933866e-07	-7.262312e-09	-2.121678e+00	-4.787643e+02
8.100000e-07	-1.525866e-07	-6.199163e-09	-1.103457e+00	-4.109898e+02
8.200000e-07	-1.158726e-08	-5.120525e-09	-8.379539e-02	-3.419411e+02
8.300000e-07	1.294071e-07	-4.035031e-09	9.358306e-01	-2.717208e+02
8.400000e-07	2.702872e-07	-2.949168e-09	1.954631e+00	-2.003406e+02
8.500000e-07	4.111351e-07	-1.859423e-09	2.973198e+00	-1.277429e+02
8.600000e-07	5.517968e-07	-7.632190e-10	3.990418e+00	-5.383710e+01
8.700000e-07	6.922147e-07	3.466715e-10	5.005876e+00	2.145534e+01
8.800000e-07	8.323317e-07	1.479908e-09	6.019157e+00	9.815358e+01
8.900000e-07	9.721062e-07	2.643716e-09	7.029962e+00	1.761734e+02
9.000000e-07	1.111541e-06	3.843195e-09	8.038310e+00	2.552937e+02
9.100000e-07	1.250559e-06	5.072650e-09	9.043642e+00	3.351380e+02
9.200000e-07	1.389170e-06	6.321687e-09	1.004604e+01	4.151754e+02
9.300000e-07	1.527328e-06	7.571529e-09	1.104515e+01	4.947402e+02
9.400000e-07	1.664889e-06	8.798922e-09	1.203994e+01	5.730699e+02
9.500000e-07	1.801790e-06	9.980824e-09	1.302997e+01	6.493572e+02
9.600000e-07	1.937908e-06	1.110302e-08	1.401433e+01	7.228098e+02
9.700000e-07	2.073156e-06	1.215467e-08	1.499240e+01	7.927114e+02
9.800000e-07	2.207591e-06	1.312918e-08	1.596459e+01	8.584770e+02
9.900000e-07	2.341306e-06	1.402816e-08	1.693158e+01	9.196952e+02
1.000000e-06	2.474263e-06	1.485829e-08	1.789308e+01	9.761543e+02
1.010000e-06	2.606256e-06	1.562274e-08	1.884762e+01	1.027848e+03
1.020000e-06	2.737173e-06	1.632623e-08	1.979436e+01	1.074962e+03
1.030000e-06	2.867100e-06	1.697725e-08	2.073395e+01	1.117840e+03
1.040000e-06	2.995982e-06	1.758225e-08	2.166599e+01	1.156943e+03
1.050000e-06	3.123620e-06	1.814448e-08	2.258902e+01	1.192793e+03
1.060000e-06	3.250059e-06	1.866747e-08	2.350339e+01	1.225921e+03
1.070000e-06	3.375455e-06	1.915515e-08	2.441022e+01	1.256818e+03
1.080000e-06	3.499783e-06	1.960922e-08	2.530931e+01	1.285900e+03
1.090000e-06	3.622872e-06	2.003307e-08	2.619946e+01	1.313480e+03
1.100000e-06	3.744667e-06	2.042951e-08	2.708024e+01	1.339763e+03
1.110000e-06	3.865063e-06	2.080257e-08	2.795091e+01	1.364852e+03
1.120000e-06	3.984011e-06	2.115772e-08	2.881110e+01	1.388766e+03
1.130000e-06	4.101610e-06	2.149335e-08	2.966154e+01	1.411471e+03
1.140000e-06	4.217718e-06	2.180764e-08	3.050119e+01	1.432909e+03
1.150000e-06	4.332136e-06	2.210305e-08	3.132862e+01	1.453026e+03
1.160000e-06	4.444785e-06	2.238195e-08	3.214327e+01	1.471803e+03
1.170000e-06	4.555723e-06	2.264617e-08	3.294554e+01	1.489266e+03
1.180000e-06	4.665152e-06	2.289602e-08	3.373689e+01	1.505492e+03
1.190000e-06	4.773115e-06	2.313454e-08	3.451765e+01	1.520608e+03
1.200000e-06	4.879455e-06	2.336139e-08	3.528666e+01	1.534773e+03
1.210000e-06	4.983948e-06	2.357683e-08	3.604232e+01	1.548161e+03
1.220000e-06	5.086553e-06	2.378046e-08	3.678433e+01	1.560940e+03
1.230000e-06	5.187407e-06	2.397361e-08	3.751368e+01	1.573248e+03
1.240000e-06	5.286417e-06	2.415627e-08	3.822968e+01	1.585186e+03
1.250000e-06	5.383340e-06	2.432742e-08	3.893060e+01	1.596800e+03
1.260000e-06	5.478218e-06	2.449129e-08	3.961673e+01	1.608089e+03
1.270000e-06	5.571232e-06	2.464983e-08	4.028938e+01	1.619008e+03
1.280000e-06	5.662301e-06	2.480277e-08	4.094796e+01	1.629484e+03
1.290000e-06	5.751219e-06	2.494814e-08	4.159098e+01	1.639432e+03
1.300000e-06	5.837989e-06	2.508551e-08	4.221848e+01	1.648774e+03
1.310000e-06	5.922719e-06	2.521600e-08	4.283122e+01	1.657457e+03
1.320000e-06	6.005431e-06	2.534010e-08	4.342936e+01	1.665461e+03
1.330000e-06	6.085988e-06	2.545738e-08	4.401192e+01	1.672808e+03
1.340000e-06	6.164274e-06	2.556631e-08	4.457807e+01	1.679557e+03
1.350000e-06	6.240262e-06	2.566781e-08	4.512759e+01	1.685798e+03
1.360000e-06	6.313780e-06	2.576228e-08	4.565925e+01	1.691638e+03
1.370000e-06	6.384934e-06	2.585243e-08	4.617380e+01	1.697187e+03
1.380000e-06	6.453886e-06	2.594031e-08	4.667245e+01	1.702540e+03
1.390000e-06	6.520565e-06	2.602352e-08	4.715464e+01	1.707770e+03
1.400000e-06	6.584820e-06	2.610072e-08	4.761932e+01	1.712912e+03
1.410000e-06	6.646756e-06	2.617302e-08	4.806722e+01	1.717967e+03
1.420000e-06	6.706617e-06	2.624147e-08	4.850012e+01	1.722903e+03
1.430000e-06	6.764099e-06	2.630753e-08	4.891581e+01	1.727662e+03
1.440000e-06	6.819074e-06	2.637049e-08	4.931337e+01	1.732175e+03
1.450000e-06	6.871501e-06	2.643047e-08	4.969250e+01	1.736372e+03
1.460000e-06	6.921024e-06	2.648776e-08	5.005064e+01	1.740199e+03
1.470000e-06	6.967822e-06	2.654000e-08	5.038907e+01	1.743622e+03
1.480000e-06	7.012310e-06	2.658787e-08	5.071079e+01	1.746640e+03
1.490000e-06	7.054365e-06	2.663362e-08	5.101492e+01	1.749277e+03
1.500000e-06	7.093787e-06	2.667565e-08	5.130001e+01	1.751583e+03
1.510000e-06	7.130747e-06	2.671251e-08	5.156729e+01	1.753626e+03
1.520000e-06	7.165221e-06	2.674630e-08	5.181659e+01	1.755474e+03
1.530000e-06	7.197073e-06	2.677690e-08	5.204694e+01	1.757193e+03
1.540000e-06	7.226431e-06	2.680492e-08	5.225925e+01	1.758829e+03
1.550000e-06	7.253233e-06	2.682870e-08	5.245307e+01	1.760406e+03
1.560000e-06	7.277271e-06	2.684733e-08	5.262690e+01	1.761920e+03
1.570000e-06	7.298709e-06	2.686344e-08	5.278194e+01	1.763345e+03
1.580000e-06	7.317728e-06	2.687702e-08	5.291948e+01	1.764634e+03
1.590000e-06	7.334090e-06	2.688825e-08	5.303780e+01	1.765731e+03
1.600000e-06	7.347633e-06	2.689746e-08	5.313574e+01	1.766584e+03
1.610000e-06	7.358285e-06	2.690544e-08	5.321277e+01	1.767148e+03
1.620000e-06	7.366049e-06	2.691084e-08	5.326892e+01	1.767400e+03
1.630000e-06	7.371218e-06	2.691254e-08	5.330630e+01	1.767339e+03
1.640000e-06	7.373832e-06	2.691225e-08	5.332520e+01	1.766989e+03
1.650000e-06	7.373797e-06	2.691309e-08	5.332495e+01	1.766394e+03
1.660000e-06	7.371291e-06	2.690215e-08	5.330683e+01	1.765611e+03
1.670000e-06	7.366378e-06	2.689002e-08	5.327130e+01	1.764701e+03
1.680000e-06	7.358914e-06	2.688142e-08	5.321732e+01	1.763718e+03
1.690000e-06	7.349024e-06	2.686848e-08	5.314580e+01	1.762702e+03
1.700000e-06	7.336676e-06	2.685422e-08	5.305650e+01	1.761674e+03
1.710000e-06	7.321711e-06	2.684119e-08	5.294828e+01	1.760631e+03
1.720000e-06	7.304374e-06	2.683246e-08	5.282290e+01	1.759550e+03
1.730000e-06	7.284911e-06	2.680200e-08	5.268215e+01	1.758391e+03
1.740000e-06	7.262942e-06	2.668386e-08	5.252328e+01	1.757106e+03
1.750000e-06	7.237729e-06	2.667192e-08	5.234095e+01	1.755649e+03
1.760000e-06	7.209104e-06	2.670942e-08	5.213394e+01	1.753983e+03
1.770000e-06	7.177594e-06	2.666832e-08	5.190607e+01	1.752086e+03
1.780000e-06	7.143910e-06	2.664579e-08	5.166248e+01	1.749958e+03
1.790000e-06	7.108517e-06	2.672987e-08	5.140653e+01	1.747612e+03
1.800000e-06	7.071507e-06	2.661312e-08	5.113889e+01	1.745082e+03
1.810000e-06	7.032242e-06	2.647836e-08	5.085493e+01	1.742403e+03
1.820000e-06	6.990285e-06	2.661653e-08	5.055151e+01	1.739613e+03
1.830000e-06	6.946047e-06	2.647754e-08	5.023160e+01	1.736737e+03
1.840000e-06	6.899400e-06	2.650749e-08	4.989426e+01	1.733784e+03
1.850000e-06	6.850115e-06	2.650144e-08	4.953785e+01	1.730739e+03
1.860000e-06	6.798203e-06	2.633852e-08	4.916244e+01	1.727568e+03
1.870000e-06	6.743457e-06	2.638296e-08	4.876653e+01	1.724214e+03
1.880000e-06	6.686226e-06	2.621187e-08	4.835265e+01	1.720614e+03
1.890000e-06	6.626545e-06	2.620416e-08	4.792106e+01	1.716699e+03
1.900000e-06	6.564210e-06	2.616564e-08	4.747027e+01	1.712411e+03
1.910000e-06	6.499440e-06	2.601287e-08	4.700188e+01	1.707711e+03
1.920000e-06	6.432271e-06	2.601525e-08	4.651613e+01	1.702585e+03
1.930000e-06	6.362644e-06	2.588827e-08	4.601261e+01	1.697045e+03
1.940000e-06	6.290530e-06	2.584327e-08	4.549111e+01	1.691131e+03
1.950000e-06	6.216001e-06	2.572356e-08	4.495214e+01	1.684903e+03
1.960000e-06	6.138950e-06	2.562346e-08	4.439493e+01	1.678429e+03
1.970000e-06	6.059323e-06	2.555808e-08	4.381909e+01	1.671774e+03
1.980000e-06	5.977517e-06	2.541170e-08	4.322750e+01	1.664991e+03
1.990000e-06	5.893679e-06	2.537104e-08	4.262121e+01	1.658104e+03
2.000000e-06	5.807745e-06	2.523184e-08	4.199976e+01	1.651110e+03
2.010000e-06	5.719649e-06	2.511931e-08	4.136268e+01	1.643970e+03
2.020000e-06	5.629499e-06	2.498636e-08	4.071074e+01	1.636616e+03
2.030000e-06	5.537403e-06	2.485831e-08	4.004474e+01	1.628961e+03
2.040000e-06	5.443283e-06	2.475046e-08	3.936409e+01	1.620909e+03
2.050000e-06	5.347192e-06	2.461077e-08	3.866919e+01	1.612369e+03
2.060000e-06	5.249332e-06	2.449159e-08	3.796150e+01	1.603270e+03
2.070000e-06	5.149801e-06	2.432086e-08	3.724172e+01	1.593569e+03
2.080000e-06	5.048410e-06	2.416717e-08	3.650849e+01	1.583258e+03
2.090000e-06	4.945117e-06	2.400095e-08	3.576151e+01	1.572362e+03
2.100000e-06	4.840002e-06	2.384920e-08	3.500135e+01	1.560934e+03
2.110000e-06	4.733289e-06	2.367726e-08	3.422964e+01	1.549044e+03
2.120000e-06	4.625036e-06	2.348951e-08	3.344679e+01	1.536762e+03
2.130000e-06	4.515137e-06	2.329380e-08	3.265203e+01	1.524145e+03
2.140000e-06	4.403567e-06	2.309249e-08	3.184519e+01	1.511219e+03
2.150000e-06	4.290302e-06	2.289549e-08	3.102610e+01	1.497971e+03
2.160000e-06	4.175291e-06	2.268781e-08	3.019438e+01	1.484347e+03
2.170000e-06	4.058480e-06	2.247625e-08	2.934963e+01	1.470252e+03
2.180000e-06	3.940039e-06	2.223797e-08	2.849311e+01	1.455558e+03
2.190000e-06	3.820034e-06	2.199362e-08	2.762527e+01	1.440122e+03
2.200000e-06	3.698582e-06	2.173410e-08	2.674697e+01	1.423803e+03
2.210000e-06	3.575887e-06	2.147273e-08	2.585968e+01	1.406477e+03
2.220000e-06	3.451894e-06	2.119615e-08	2.496300e+01	1.388055e+03
2.230000e-06	3.326542e-06	2.090597e-08	2.405649e+01	1.368491e+03
2.240000e-06	3.199902e-06	2.059735e-08	2.314067e+01	1.347782e+03
2.250000e-06	3.072105e-06	2.027386e-08	2.221648e+01	1.325960e+03
2.260000e-06	2.943144e-06	1.993921e-08	2.128388e+01	1.303077e+03
2.270000e-06	2.813147e-06	1.958562e-08	2.034378e+01	1.279186e+03
2.280000e-06	2.682260e-06	1.921422e-08	1.939725e+01	1.254312e+03
2.290000e-06	2.550350e-06	1.882019e-08	1.844332e+01	1.228429e+03
2.300000e-06	2.417386e-06	1.840570e-08	1.748176e+01	1.201446e+03
2.310000e-06	2.283567e-06	1.796379e-08	1.651403e+01	1.173191e+03
2.320000e-06	2.149046e-06	1.749678e-08	1.554121e+01	1.143413e+03
2.330000e-06	2.013889e-06	1.699718e-08	1.456380e+01	1.111796e+03
2.340000e-06	1.878139e-06	1.646537e-08	1.358210e+01	1.077979e+03
2.350000e-06	1.741669e-06	1.590027e-08	1.259519e+01	1.041591e+03
2.360000e-06	1.604505e-06	1.530059e-08	1.160327e+01	1.002287e+03
2.370000e-06	1.466808e-06	1.466200e-08	1.060749e+01	9.597833e+02
2.380000e-06	1.328686e-06	1.397705e-08	9.608636e+00	9.138896e+02
2.390000e-06	1.190210e-06	1.324370e-08	8.607217e+00	8.645330e+02
2.400000e-06	1.051325e-06	1.245803e-08	7.602845e+00	8.117663e+02
2.410000e-06	9.119634e-07	1.162034e-08	6.595028e+00	7.557626e+02
2.420000e-06	7.722063e-07	1.073204e-08	5.584350e+00	6.967967e+02
2.430000e-06	6.322056e-07	9.793886e-09	4.571909e+00	6.352125e+02
2.440000e-06	4.919347e-07	8.808014e-09	3.557515e+00	5.713844e+02
2.450000e-06	3.513965e-07	7.780204e-09	2.541187e+00	5.056755e+02
2.460000e-06	2.106516e-07	6.721252e-09	1.523365e+00	4.383985e+02
2.470000e-06	6.977078e-08	5.643789e-09	5.045600e-01	3.697867e+02
2.480000e-06	-7.110822e-08	4.557019e-09	-5.142320e-01	2.999779e+02
2.490000e-06	-2.119519e-07	3.465517e-09	-1.532769e+00	2.290144e+02
2.500000e-06	-3.527156e-07	2.370714e-09	-2.550727e+00	1.568599e+02
2.510000e-06	-4.933670e-07	1.271840e-09	-3.567873e+00	8.343069e+01
2.520000e-06	-6.338662e-07	1.615868e-10	-4.583918e+00	8.638566e+00
2.530000e-06	-7.741039e-07	-9.688064e-10	-5.598073e+00	-6.756228e+01
2.540000e-06	-9.140124e-07	-2.125116e-09	-6.609846e+00	-1.451290e+02
2.550000e-06	-1.053496e-06	-3.313308e-09	-7.618547e+00	-2.238925e+02
2.560000e-06	-1.192518e-06	-4.532525e-09	-8.623913e+00	-3.035326e+02
2.570000e-06	-1.331067e-06	-5.776483e-09	-9.625852e+00	-3.835723e+02
2.580000e-06	-1.469190e-06	-7.031109e-09	-1.062471e+01	-4.633906e+02
2.590000e-06	-1.606847e-06	-8.276836e-09	-1.162020e+01	-5.422542e+02
2.600000e-06	-1.743875e-06	-9.489128e-09	-1.261115e+01	-6.193652e+02
2.610000e-06	-1.880212e-06	-1.064492e-08	-1.359709e+01	-6.939189e+02
2.620000e-06	-2.015813e-06	-1.173253e-08	-1.457771e+01	-7.651650e+02
2.630000e-06	-2.150671e-06	-1.274464e-08	-1.555297e+01	-8.324659e+02
2.640000e-06	-2.284795e-06	-1.368071e-08	-1.652291e+01	-8.953443e+02
2.650000e-06	-2.418020e-06	-1.454254e-08	-1.748635e+01	-9.535156e+02
2.660000e-06	-2.550187e-06	-1.533832e-08	-1.844214e+01	-1.006901e+03
2.670000e-06	-2.681358e-06	-1.607139e-08	-1.939073e+01	-1.055619e+03
2.680000e-06	-2.811647e-06	-1.674636e-08	-2.033294e+01	-1.099964e+03
2.690000e-06	-2.940998e-06	-1.737438e-08	-2.126836e+01	-1.140358e+03
2.700000e-06	-3.069284e-06	-1.795835e-08	-2.219608e+01	-1.177310e+03
2.710000e-06	-3.196434e-06	-1.850091e-08	-2.311559e+01	-1.211351e+03
2.720000e-06	-3.322449e-06	-1.900341e-08	-2.402689e+01	-1.242994e+03
2.730000e-06	-3.447213e-06	-1.947258e-08	-2.492915e+01	-1.272684e+03
2.740000e-06	-3.570641e-06	-1.991216e-08	-2.582174e+01	-1.300773e+03
2.750000e-06	-3.692860e-06	-2.032176e-08	-2.670559e+01	-1.327503e+03
2.760000e-06	-3.813781e-06	-2.070574e-08	-2.758005e+01	-1.353014e+03
2.770000e-06	-3.933300e-06	-2.106788e-08	-2.844437e+01	-1.377351e+03
2.780000e-06	-4.051377e-06	-2.140941e-08	-2.929827e+01	-1.400495e+03
2.790000e-06	-4.167843e-06	-2.172968e-08	-3.014051e+01	-1.422393e+03
2.800000e-06	-4.282607e-06	-2.203097e-08	-3.097045e+01	-1.442988e+03
2.810000e-06	-4.395662e-06	-2.231760e-08	-3.178803e+01	-1.462244e+03
2.820000e-06	-4.506950e-06	-2.258977e-08	-3.259283e+01	-1.480171e+03
2.830000e-06	-4.616547e-06	-2.284695e-08	-3.338539e+01	-1.496828e+03
2.840000e-06	-4.724667e-06	-2.308961e-08	-3.416729e+01	-1.512325e+03
2.850000e-06	-4.831293e-06	-2.331958e-08	-3.493837e+01	-1.526811e+03
2.860000e-06	-4.936256e-06	-2.353896e-08	-3.569743e+01	-1.540458e+03
2.870000e-06	-5.039375e-06	-2.374683e-08	-3.644315e+01	-1.553437e+03
2.880000e-06	-5.140489e-06	-2.394588e-08	-3.717438e+01	-1.565901e+03
2.890000e-06	-5.239690e-06	-2.413685e-08	-3.789177e+01	-1.577964e+03
2.900000e-06	-5.337117e-06	-2.431825e-08	-3.859633e+01	-1.589693e+03
2.910000e-06	-5.432712e-06	-2.448939e-08	-3.928764e+01	-1.601103e+03
2.920000e-06	-5.526323e-06	-2.464978e-08	-3.996460e+01	-1.612163e+03
2.930000e-06	-5.617940e-06	-2.480152e-08	-4.062715e+01	-1.622807e+03
2.940000e-06	-5.707565e-06	-2.494587e-08	-4.127529e+01	-1.632954e+03
