# Temperatura_=_81.53
# Concentracion g/m^3_=_28370.0
# C_Vs_to_Am_M_A/Vsm_=_65563218390.804596
# pendiente_HvsI_1/m_=_3716.3
# ordenada_HvsI_A/m_=_1297.0
# frecuencia_Hz_=_302394.46260934434

Tiempo_(s)	Campo_(V.s)	Magnetizacion_(V.s)	Campo_(kA/m)	Magnetizacion_(A/m)
0.000000e+00	-7.304280e-06	-2.775762e-08	-5.318746e+01	-1.817712e+03
1.000000e-08	-7.300622e-06	-2.775556e-08	-5.316082e+01	-1.816824e+03
2.000000e-08	-7.294577e-06	-2.774043e-08	-5.311681e+01	-1.815833e+03
3.000000e-08	-7.286238e-06	-2.772439e-08	-5.305608e+01	-1.814787e+03
4.000000e-08	-7.275346e-06	-2.770826e-08	-5.297678e+01	-1.813716e+03
5.000000e-08	-7.261697e-06	-2.768901e-08	-5.287739e+01	-1.812627e+03
6.000000e-08	-7.245332e-06	-2.766244e-08	-5.275822e+01	-1.811504e+03
7.000000e-08	-7.226675e-06	-2.762929e-08	-5.262237e+01	-1.810311e+03
8.000000e-08	-7.205983e-06	-2.760051e-08	-5.247169e+01	-1.809001e+03
9.000000e-08	-7.182754e-06	-2.766756e-08	-5.230255e+01	-1.807526e+03
1.000000e-07	-7.156500e-06	-2.764893e-08	-5.211137e+01	-1.805840e+03
1.100000e-07	-7.127368e-06	-2.753311e-08	-5.189924e+01	-1.803913e+03
1.200000e-07	-7.095794e-06	-2.748262e-08	-5.166933e+01	-1.801734e+03
1.300000e-07	-7.061786e-06	-2.745718e-08	-5.142169e+01	-1.799308e+03
1.400000e-07	-7.025565e-06	-2.736172e-08	-5.115795e+01	-1.796662e+03
1.500000e-07	-6.987526e-06	-2.725918e-08	-5.088096e+01	-1.793831e+03
1.600000e-07	-6.947423e-06	-2.739827e-08	-5.058894e+01	-1.790853e+03
1.700000e-07	-6.904805e-06	-2.730057e-08	-5.027861e+01	-1.787760e+03
1.800000e-07	-6.859766e-06	-2.712586e-08	-4.995065e+01	-1.784572e+03
1.900000e-07	-6.812241e-06	-2.721946e-08	-4.960459e+01	-1.781284e+03
2.000000e-07	-6.761871e-06	-2.708866e-08	-4.923781e+01	-1.777874e+03
2.100000e-07	-6.708812e-06	-2.700894e-08	-4.885145e+01	-1.774295e+03
2.200000e-07	-6.653228e-06	-2.698257e-08	-4.844670e+01	-1.770488e+03
2.300000e-07	-6.595113e-06	-2.688314e-08	-4.802353e+01	-1.766386e+03
2.400000e-07	-6.534533e-06	-2.685372e-08	-4.758240e+01	-1.761928e+03
2.500000e-07	-6.471541e-06	-2.672662e-08	-4.712372e+01	-1.757066e+03
2.600000e-07	-6.406119e-06	-2.666714e-08	-4.664733e+01	-1.751774e+03
2.700000e-07	-6.338257e-06	-2.658548e-08	-4.615319e+01	-1.746054e+03
2.800000e-07	-6.268064e-06	-2.648325e-08	-4.564206e+01	-1.739933e+03
2.900000e-07	-6.195530e-06	-2.639458e-08	-4.511390e+01	-1.733463e+03
3.000000e-07	-6.120469e-06	-2.629305e-08	-4.456732e+01	-1.726707e+03
3.100000e-07	-6.042815e-06	-2.623391e-08	-4.400187e+01	-1.719734e+03
3.200000e-07	-5.962617e-06	-2.609593e-08	-4.341789e+01	-1.712601e+03
3.300000e-07	-5.880239e-06	-2.600070e-08	-4.281805e+01	-1.705344e+03
3.400000e-07	-5.796000e-06	-2.587573e-08	-4.220464e+01	-1.697971e+03
3.500000e-07	-5.709897e-06	-2.574155e-08	-4.157767e+01	-1.690458e+03
3.600000e-07	-5.621840e-06	-2.564664e-08	-4.093646e+01	-1.682750e+03
3.700000e-07	-5.531675e-06	-2.551728e-08	-4.027991e+01	-1.674766e+03
3.800000e-07	-5.439479e-06	-2.537726e-08	-3.960857e+01	-1.666414e+03
3.900000e-07	-5.345396e-06	-2.522006e-08	-3.892348e+01	-1.657601e+03
4.000000e-07	-5.249414e-06	-2.508034e-08	-3.822457e+01	-1.648247e+03
4.100000e-07	-5.151527e-06	-2.492012e-08	-3.751179e+01	-1.638298e+03
4.200000e-07	-5.051821e-06	-2.477012e-08	-3.678576e+01	-1.627731e+03
4.300000e-07	-4.950365e-06	-2.461994e-08	-3.604700e+01	-1.616560e+03
4.400000e-07	-4.847150e-06	-2.444904e-08	-3.529542e+01	-1.604827e+03
4.500000e-07	-4.742203e-06	-2.425999e-08	-3.453123e+01	-1.592596e+03
4.600000e-07	-4.635517e-06	-2.406770e-08	-3.375437e+01	-1.579938e+03
4.700000e-07	-4.527118e-06	-2.388048e-08	-3.296504e+01	-1.566917e+03
4.800000e-07	-4.417187e-06	-2.368415e-08	-3.216456e+01	-1.553571e+03
4.900000e-07	-4.305710e-06	-2.347878e-08	-3.135282e+01	-1.539904e+03
5.000000e-07	-4.192524e-06	-2.325359e-08	-3.052863e+01	-1.525880e+03
5.100000e-07	-4.077576e-06	-2.301865e-08	-2.969162e+01	-1.511417e+03
5.200000e-07	-3.960987e-06	-2.277092e-08	-2.884266e+01	-1.496400e+03
5.300000e-07	-3.842902e-06	-2.252201e-08	-2.798280e+01	-1.480691e+03
5.400000e-07	-3.723451e-06	-2.226554e-08	-2.711299e+01	-1.464146e+03
5.500000e-07	-3.602641e-06	-2.199770e-08	-2.623329e+01	-1.446633e+03
5.600000e-07	-3.480413e-06	-2.171309e-08	-2.534327e+01	-1.428049e+03
5.700000e-07	-3.356784e-06	-2.141329e-08	-2.444304e+01	-1.408328e+03
5.800000e-07	-3.231863e-06	-2.110048e-08	-2.353340e+01	-1.387453e+03
5.900000e-07	-3.105843e-06	-2.077373e-08	-2.261576e+01	-1.365441e+03
6.000000e-07	-2.978777e-06	-2.043511e-08	-2.169052e+01	-1.342342e+03
6.100000e-07	-2.850613e-06	-2.007539e-08	-2.075726e+01	-1.318209e+03
6.200000e-07	-2.721304e-06	-1.969745e-08	-1.981568e+01	-1.293082e+03
6.300000e-07	-2.590997e-06	-1.929778e-08	-1.886682e+01	-1.266961e+03
6.400000e-07	-2.459702e-06	-1.887892e-08	-1.791078e+01	-1.239783e+03
6.500000e-07	-2.327412e-06	-1.843450e-08	-1.694748e+01	-1.211410e+03
6.600000e-07	-2.194383e-06	-1.796550e-08	-1.597881e+01	-1.181624e+03
6.700000e-07	-2.060690e-06	-1.746927e-08	-1.500529e+01	-1.150134e+03
6.800000e-07	-1.926307e-06	-1.694388e-08	-1.402676e+01	-1.116592e+03
6.900000e-07	-1.791279e-06	-1.638775e-08	-1.304353e+01	-1.080628e+03
7.000000e-07	-1.655602e-06	-1.579396e-08	-1.205557e+01	-1.041877e+03
7.100000e-07	-1.519326e-06	-1.515877e-08	-1.106325e+01	-1.000020e+03
7.200000e-07	-1.382557e-06	-1.447627e-08	-1.006735e+01	-9.548174e+02
7.300000e-07	-1.245317e-06	-1.375154e-08	-9.068006e+00	-9.061353e+02
7.400000e-07	-1.107571e-06	-1.297646e-08	-8.064981e+00	-8.539600e+02
7.500000e-07	-9.693961e-07	-1.215017e-08	-7.058836e+00	-7.983996e+02
7.600000e-07	-8.308533e-07	-1.127323e-08	-6.050011e+00	-7.396702e+02
7.700000e-07	-6.919340e-07	-1.034312e-08	-5.038445e+00	-6.780699e+02
7.800000e-07	-5.527273e-07	-9.358364e-09	-4.024786e+00	-6.139436e+02
7.900000e-07	-4.132782e-07	-8.326245e-09	-3.009361e+00	-5.476420e+02
8.000000e-07	-2.736325e-07	-7.259231e-09	-1.992506e+00	-4.794835e+02
8.100000e-07	-1.338077e-07	-6.164646e-09	-9.743457e-01	-4.097216e+02
8.200000e-07	6.127779e-09	-5.054023e-09	4.462055e-02	-3.385248e+02
8.300000e-07	1.460518e-07	-3.934069e-09	1.063503e+00	-2.659707e+02
8.400000e-07	2.859346e-07	-2.811481e-09	2.082086e+00	-1.920577e+02
8.500000e-07	4.257128e-07	-1.684789e-09	3.099906e+00	-1.167313e+02
8.600000e-07	5.653389e-07	-5.495157e-10	4.116619e+00	-3.992201e+01
8.700000e-07	7.047491e-07	6.030176e-10	5.131760e+00	3.840862e+01
8.800000e-07	8.438878e-07	1.783936e-09	6.144925e+00	1.182221e+02
8.900000e-07	9.827077e-07	2.998428e-09	7.155767e+00	1.993628e+02
9.000000e-07	1.121145e-06	4.250006e-09	8.163821e+00	2.815297e+02
9.100000e-07	1.259116e-06	5.528324e-09	9.168486e+00	3.642646e+02
9.200000e-07	1.396579e-06	6.820164e-09	1.016945e+01	4.469598e+02
9.300000e-07	1.533503e-06	8.104553e-09	1.116648e+01	5.288849e+02
9.400000e-07	1.669825e-06	9.358991e-09	1.215914e+01	6.092302e+02
9.500000e-07	1.805507e-06	1.056404e-08	1.314713e+01	6.871630e+02
9.600000e-07	1.940530e-06	1.170382e-08	1.413033e+01	7.618886e+02
9.700000e-07	2.074804e-06	1.276672e-08	1.510807e+01	8.327119e+02
9.800000e-07	2.208268e-06	1.374845e-08	1.607991e+01	8.990886e+02
9.900000e-07	2.341014e-06	1.465166e-08	1.704652e+01	9.606641e+02
1.000000e-06	2.472947e-06	1.548300e-08	1.800722e+01	1.017293e+03
1.010000e-06	2.603842e-06	1.624730e-08	1.896036e+01	1.069038e+03
1.020000e-06	2.733687e-06	1.695132e-08	1.990585e+01	1.116150e+03
1.030000e-06	2.862489e-06	1.760600e-08	2.084374e+01	1.159030e+03
1.040000e-06	2.990209e-06	1.821632e-08	2.177376e+01	1.198183e+03
1.050000e-06	3.116899e-06	1.878273e-08	2.269628e+01	1.234157e+03
1.060000e-06	3.242554e-06	1.930904e-08	2.361126e+01	1.267496e+03
1.070000e-06	3.367150e-06	1.979930e-08	2.451852e+01	1.298689e+03
1.080000e-06	3.490594e-06	2.025704e-08	2.541741e+01	1.328136e+03
1.090000e-06	3.612758e-06	2.068537e-08	2.630696e+01	1.356129e+03
1.100000e-06	3.733538e-06	2.108563e-08	2.718644e+01	1.382847e+03
1.110000e-06	3.852949e-06	2.146317e-08	2.805596e+01	1.408369e+03
1.120000e-06	3.971026e-06	2.182302e-08	2.891575e+01	1.432693e+03
1.130000e-06	4.087651e-06	2.216384e-08	2.976499e+01	1.455773e+03
1.140000e-06	4.202639e-06	2.248263e-08	3.060229e+01	1.477543e+03
1.150000e-06	4.315872e-06	2.278226e-08	3.142682e+01	1.497955e+03
1.160000e-06	4.427506e-06	2.306646e-08	3.223970e+01	1.516996e+03
1.170000e-06	4.537655e-06	2.333693e-08	3.304177e+01	1.534704e+03
1.180000e-06	4.646332e-06	2.359127e-08	3.383312e+01	1.551173e+03
1.190000e-06	4.753422e-06	2.383335e-08	3.461292e+01	1.566542e+03
1.200000e-06	4.858700e-06	2.406558e-08	3.537952e+01	1.580981e+03
1.210000e-06	4.962219e-06	2.428719e-08	3.613331e+01	1.594670e+03
1.220000e-06	5.063980e-06	2.449503e-08	3.687431e+01	1.607777e+03
1.230000e-06	5.163910e-06	2.469081e-08	3.760196e+01	1.620437e+03
1.240000e-06	5.261864e-06	2.487677e-08	3.831523e+01	1.632743e+03
1.250000e-06	5.357750e-06	2.505362e-08	3.901344e+01	1.644731e+03
1.260000e-06	5.451726e-06	2.522350e-08	3.969774e+01	1.656389e+03
1.270000e-06	5.543840e-06	2.538698e-08	4.036849e+01	1.667664e+03
1.280000e-06	5.633925e-06	2.554337e-08	4.102446e+01	1.678475e+03
1.290000e-06	5.721913e-06	2.569207e-08	4.166517e+01	1.688735e+03
1.300000e-06	5.807903e-06	2.583444e-08	4.229131e+01	1.698368e+03
1.310000e-06	5.891972e-06	2.597019e-08	4.290348e+01	1.707324e+03
1.320000e-06	5.973982e-06	2.609962e-08	4.350065e+01	1.715589e+03
1.330000e-06	6.053665e-06	2.622183e-08	4.408088e+01	1.723193e+03
1.340000e-06	6.131068e-06	2.633763e-08	4.464450e+01	1.730200e+03
1.350000e-06	6.206152e-06	2.644625e-08	4.519124e+01	1.736705e+03
1.360000e-06	6.278828e-06	2.654639e-08	4.572044e+01	1.742818e+03
1.370000e-06	6.349239e-06	2.664098e-08	4.623315e+01	1.748646e+03
1.380000e-06	6.417493e-06	2.673035e-08	4.673016e+01	1.754283e+03
1.390000e-06	6.483452e-06	2.681424e-08	4.721045e+01	1.759793e+03
1.400000e-06	6.547047e-06	2.689421e-08	4.767353e+01	1.765207e+03
1.410000e-06	6.608431e-06	2.697037e-08	4.812051e+01	1.770517e+03
1.420000e-06	6.667624e-06	2.704179e-08	4.855153e+01	1.775687e+03
1.430000e-06	6.724415e-06	2.710925e-08	4.896506e+01	1.780656e+03
1.440000e-06	6.778715e-06	2.717446e-08	4.936046e+01	1.785354e+03
1.450000e-06	6.830314e-06	2.723903e-08	4.973619e+01	1.789714e+03
1.460000e-06	6.879050e-06	2.730161e-08	5.009107e+01	1.793687e+03
1.470000e-06	6.925246e-06	2.735886e-08	5.042746e+01	1.797246e+03
1.480000e-06	6.969163e-06	2.740982e-08	5.074724e+01	1.800394e+03
1.490000e-06	7.010549e-06	2.745531e-08	5.104860e+01	1.803164e+03
1.500000e-06	7.049286e-06	2.749697e-08	5.133067e+01	1.805610e+03
1.510000e-06	7.085702e-06	2.753575e-08	5.159585e+01	1.807798e+03
1.520000e-06	7.119655e-06	2.757269e-08	5.184308e+01	1.809798e+03
1.530000e-06	7.150993e-06	2.760642e-08	5.207127e+01	1.811670e+03
1.540000e-06	7.179924e-06	2.763586e-08	5.228194e+01	1.813455e+03
1.550000e-06	7.206272e-06	2.766136e-08	5.247379e+01	1.815169e+03
1.560000e-06	7.229837e-06	2.768325e-08	5.264539e+01	1.816801e+03
1.570000e-06	7.250867e-06	2.770192e-08	5.279852e+01	1.818319e+03
1.580000e-06	7.269465e-06	2.771599e-08	5.293395e+01	1.819672e+03
1.590000e-06	7.285363e-06	2.772551e-08	5.304971e+01	1.820803e+03
1.600000e-06	7.298451e-06	2.773233e-08	5.314501e+01	1.821660e+03
1.610000e-06	7.308654e-06	2.773922e-08	5.321931e+01	1.822204e+03
1.620000e-06	7.316071e-06	2.774692e-08	5.327331e+01	1.822416e+03
1.630000e-06	7.320952e-06	2.775258e-08	5.330886e+01	1.822304e+03
1.640000e-06	7.323196e-06	2.775452e-08	5.332520e+01	1.821896e+03
1.650000e-06	7.322810e-06	2.775409e-08	5.332239e+01	1.821243e+03
1.660000e-06	7.320041e-06	2.773822e-08	5.330223e+01	1.820405e+03
1.670000e-06	7.314895e-06	2.772551e-08	5.326475e+01	1.819443e+03
1.680000e-06	7.307247e-06	2.771488e-08	5.320906e+01	1.818411e+03
1.690000e-06	7.297163e-06	2.769957e-08	5.313564e+01	1.817346e+03
1.700000e-06	7.284541e-06	2.768476e-08	5.304373e+01	1.816263e+03
1.710000e-06	7.269332e-06	2.767597e-08	5.293298e+01	1.815153e+03
1.720000e-06	7.251862e-06	2.767740e-08	5.280577e+01	1.813989e+03
1.730000e-06	7.232358e-06	2.763245e-08	5.266374e+01	1.812725e+03
1.740000e-06	7.210267e-06	2.748482e-08	5.250289e+01	1.811314e+03
1.750000e-06	7.184819e-06	2.749895e-08	5.231758e+01	1.809706e+03
1.760000e-06	7.155966e-06	2.753621e-08	5.210749e+01	1.807866e+03
1.770000e-06	7.124327e-06	2.747489e-08	5.187710e+01	1.805776e+03
1.780000e-06	7.090595e-06	2.748217e-08	5.163147e+01	1.803435e+03
1.790000e-06	7.055170e-06	2.757855e-08	5.137352e+01	1.800862e+03
1.800000e-06	7.018195e-06	2.737658e-08	5.110428e+01	1.798091e+03
1.810000e-06	6.978925e-06	2.730475e-08	5.081833e+01	1.795160e+03
1.820000e-06	6.936893e-06	2.743796e-08	5.051226e+01	1.792104e+03
1.830000e-06	6.892669e-06	2.723303e-08	5.019024e+01	1.788948e+03
1.840000e-06	6.845987e-06	2.735172e-08	4.985031e+01	1.785696e+03
1.850000e-06	6.796634e-06	2.725833e-08	4.949094e+01	1.782333e+03
1.860000e-06	6.744739e-06	2.710943e-08	4.911306e+01	1.778819e+03
1.870000e-06	6.689986e-06	2.716281e-08	4.871437e+01	1.775099e+03
1.880000e-06	6.632800e-06	2.694472e-08	4.829795e+01	1.771109e+03
1.890000e-06	6.573235e-06	2.700459e-08	4.786422e+01	1.766784e+03
1.900000e-06	6.511020e-06	2.690506e-08	4.741119e+01	1.762069e+03
1.910000e-06	6.446361e-06	2.676956e-08	4.694036e+01	1.756930e+03
1.920000e-06	6.379329e-06	2.677571e-08	4.645226e+01	1.751359e+03
1.930000e-06	6.309925e-06	2.660524e-08	4.594688e+01	1.745375e+03
1.940000e-06	6.238026e-06	2.658923e-08	4.542334e+01	1.739022e+03
1.950000e-06	6.163702e-06	2.642613e-08	4.488213e+01	1.732359e+03
1.960000e-06	6.086865e-06	2.635468e-08	4.432263e+01	1.725455e+03
1.970000e-06	6.007490e-06	2.626715e-08	4.374465e+01	1.718372e+03
1.980000e-06	5.925972e-06	2.611956e-08	4.315106e+01	1.711155e+03
1.990000e-06	5.842466e-06	2.608440e-08	4.254299e+01	1.703824e+03
2.000000e-06	5.756913e-06	2.590839e-08	4.192002e+01	1.696364e+03
2.010000e-06	5.669156e-06	2.580900e-08	4.128100e+01	1.688733e+03
2.020000e-06	5.579346e-06	2.564763e-08	4.062703e+01	1.680856e+03
2.030000e-06	5.487656e-06	2.552629e-08	3.995938e+01	1.672645e+03
2.040000e-06	5.393988e-06	2.540698e-08	3.927732e+01	1.664006e+03
2.050000e-06	5.298328e-06	2.526371e-08	3.858075e+01	1.654851e+03
2.060000e-06	5.200894e-06	2.513345e-08	3.787127e+01	1.645118e+03
2.070000e-06	5.101854e-06	2.494266e-08	3.715009e+01	1.634771e+03
2.080000e-06	5.000964e-06	2.479076e-08	3.641544e+01	1.623811e+03
2.090000e-06	4.898148e-06	2.461091e-08	3.566677e+01	1.612271e+03
2.100000e-06	4.793513e-06	2.445540e-08	3.490485e+01	1.600208e+03
2.110000e-06	4.687294e-06	2.426699e-08	3.413139e+01	1.587694e+03
2.120000e-06	4.579574e-06	2.407405e-08	3.334701e+01	1.574795e+03
2.130000e-06	4.470298e-06	2.386512e-08	3.255130e+01	1.561561e+03
2.140000e-06	4.359377e-06	2.365477e-08	3.174360e+01	1.548009e+03
2.150000e-06	4.246661e-06	2.344919e-08	3.092284e+01	1.534118e+03
2.160000e-06	4.132288e-06	2.323323e-08	3.009001e+01	1.519822e+03
2.170000e-06	4.016241e-06	2.301076e-08	2.924500e+01	1.505017e+03
2.180000e-06	3.898472e-06	2.275740e-08	2.838744e+01	1.489570e+03
2.190000e-06	3.779105e-06	2.250194e-08	2.751825e+01	1.473339e+03
2.200000e-06	3.658318e-06	2.222594e-08	2.663872e+01	1.456184e+03
2.210000e-06	3.536195e-06	2.195234e-08	2.574945e+01	1.437990e+03
2.220000e-06	3.412761e-06	2.166172e-08	2.485064e+01	1.418679e+03
2.230000e-06	3.288070e-06	2.136333e-08	2.394269e+01	1.398214e+03
2.240000e-06	3.162170e-06	2.104183e-08	2.302592e+01	1.376603e+03
2.250000e-06	3.035126e-06	2.070664e-08	2.210083e+01	1.353884e+03
2.260000e-06	2.906935e-06	2.035749e-08	2.116738e+01	1.330113e+03
2.270000e-06	2.777672e-06	1.998917e-08	2.022613e+01	1.305338e+03
2.280000e-06	2.647394e-06	1.960266e-08	1.927748e+01	1.279574e+03
2.290000e-06	2.516128e-06	1.919298e-08	1.832165e+01	1.252784e+03
2.300000e-06	2.384059e-06	1.876337e-08	1.735996e+01	1.224857e+03
2.310000e-06	2.251193e-06	1.830289e-08	1.639248e+01	1.195605e+03
2.320000e-06	2.117525e-06	1.781683e-08	1.541915e+01	1.164759e+03
2.330000e-06	1.983178e-06	1.729909e-08	1.444087e+01	1.131991e+03
2.340000e-06	1.848179e-06	1.675258e-08	1.345786e+01	1.096934e+03
2.350000e-06	1.712468e-06	1.617196e-08	1.246965e+01	1.059216e+03
2.360000e-06	1.576064e-06	1.555289e-08	1.147640e+01	1.018499e+03
2.370000e-06	1.439147e-06	1.489064e-08	1.047941e+01	9.745117e+02
2.380000e-06	1.301859e-06	1.418160e-08	9.479727e+00	9.270789e+02
2.390000e-06	1.164169e-06	1.342420e-08	8.477113e+00	8.761436e+02
2.400000e-06	1.026030e-06	1.261444e-08	7.471228e+00	8.217712e+02
2.410000e-06	8.875264e-07	1.175205e-08	6.462687e+00	7.641416e+02
2.420000e-06	7.487628e-07	1.083875e-08	5.452254e+00	7.035274e+02
2.430000e-06	6.097311e-07	9.873488e-09	4.439869e+00	6.402611e+02
2.440000e-06	4.704517e-07	8.858255e-09	3.425681e+00	5.746960e+02
2.450000e-06	3.310332e-07	7.800223e-09	2.410479e+00	5.071663e+02
2.460000e-06	1.914642e-07	6.712290e-09	1.394182e+00	4.379518e+02
2.470000e-06	5.175614e-08	5.604473e-09	3.768719e-01	3.672525e+02
2.480000e-06	-8.796433e-08	4.482962e-09	-6.405285e-01	2.951783e+02
2.490000e-06	-2.276244e-07	3.355937e-09	-1.657489e+00	2.217536e+02
2.500000e-06	-3.671958e-07	2.224862e-09	-2.673804e+00	1.469388e+02
2.510000e-06	-5.066326e-07	1.085182e-09	-3.689138e+00	7.066479e+01
2.520000e-06	-6.459793e-07	-6.915136e-11	-4.703818e+00	-7.123287e+00
2.530000e-06	-7.851774e-07	-1.245437e-09	-5.717414e+00	-8.641954e+01
2.540000e-06	-9.240829e-07	-2.452114e-09	-6.728880e+00	-1.671142e+02
2.550000e-06	-1.062651e-06	-3.690135e-09	-7.737891e+00	-2.489603e+02
2.560000e-06	-1.200797e-06	-4.956996e-09	-8.743827e+00	-3.315560e+02
2.570000e-06	-1.338511e-06	-6.247056e-09	-9.746616e+00	-4.143450e+02
2.580000e-06	-1.475778e-06	-7.544675e-09	-1.074615e+01	-4.966363e+02
2.590000e-06	-1.612513e-06	-8.825352e-09	-1.174181e+01	-5.776428e+02
2.600000e-06	-1.748643e-06	-1.006285e-08	-1.273307e+01	-6.565331e+02
2.610000e-06	-1.884007e-06	-1.123798e-08	-1.371874e+01	-7.324916e+02
2.620000e-06	-2.018551e-06	-1.233707e-08	-1.469845e+01	-8.047812e+02
2.630000e-06	-2.152327e-06	-1.335574e-08	-1.567257e+01	-8.727985e+02
2.640000e-06	-2.285259e-06	-1.429627e-08	-1.664053e+01	-9.361177e+02
2.650000e-06	-2.417344e-06	-1.516160e-08	-1.760234e+01	-9.945179e+02
2.660000e-06	-2.548587e-06	-1.595730e-08	-1.855801e+01	-1.047989e+03
2.670000e-06	-2.678883e-06	-1.669024e-08	-1.950678e+01	-1.096717e+03
2.680000e-06	-2.808294e-06	-1.736927e-08	-2.044911e+01	-1.141057e+03
2.690000e-06	-2.936746e-06	-1.800260e-08	-2.138446e+01	-1.181480e+03
2.700000e-06	-3.064022e-06	-1.859226e-08	-2.231124e+01	-1.218527e+03
2.710000e-06	-3.190181e-06	-1.914058e-08	-2.322989e+01	-1.252749e+03
2.720000e-06	-3.315186e-06	-1.964942e-08	-2.414013e+01	-1.284658e+03
2.730000e-06	-3.438990e-06	-2.012236e-08	-2.504164e+01	-1.314691e+03
2.740000e-06	-3.561569e-06	-2.056440e-08	-2.593422e+01	-1.343178e+03
2.750000e-06	-3.682859e-06	-2.097800e-08	-2.681742e+01	-1.370339e+03
2.760000e-06	-3.802860e-06	-2.136864e-08	-2.769123e+01	-1.396286e+03
2.770000e-06	-3.921375e-06	-2.173759e-08	-2.855421e+01	-1.421043e+03
2.780000e-06	-4.038301e-06	-2.208532e-08	-2.940563e+01	-1.444576e+03
2.790000e-06	-4.153682e-06	-2.241212e-08	-3.024580e+01	-1.466822e+03
2.800000e-06	-4.267358e-06	-2.271946e-08	-3.107355e+01	-1.487724e+03
2.810000e-06	-4.379184e-06	-2.301139e-08	-3.188784e+01	-1.507254e+03
2.820000e-06	-4.489387e-06	-2.328781e-08	-3.269030e+01	-1.525432e+03
2.830000e-06	-4.598139e-06	-2.354941e-08	-3.348220e+01	-1.542331e+03
2.840000e-06	-4.705446e-06	-2.379704e-08	-3.426357e+01	-1.558076e+03
2.850000e-06	-4.811243e-06	-2.403109e-08	-3.503395e+01	-1.572827e+03
2.860000e-06	-4.915274e-06	-2.425344e-08	-3.579147e+01	-1.586765e+03
2.870000e-06	-5.017341e-06	-2.446667e-08	-3.653469e+01	-1.600063e+03
2.880000e-06	-5.117542e-06	-2.467157e-08	-3.726432e+01	-1.612872e+03
2.890000e-06	-5.215968e-06	-2.486770e-08	-3.798103e+01	-1.625298e+03
2.900000e-06	-5.312580e-06	-2.505401e-08	-3.868453e+01	-1.637400e+03
2.910000e-06	-5.407261e-06	-2.523101e-08	-3.937397e+01	-1.649181e+03
2.920000e-06	-5.499978e-06	-2.539821e-08	-4.004911e+01	-1.660603e+03
2.930000e-06	-5.590741e-06	-2.555535e-08	-4.071001e+01	-1.671591e+03
2.940000e-06	-5.679505e-06	-2.570552e-08	-4.135636e+01	-1.682059e+03
