# Temperatura_=_27.16
# Concentracion g/m^3_=_28370.0
# C_Vs_to_Am_M_A/Vsm_=_65563218390.804596
# pendiente_HvsI_1/m_=_3716.3
# ordenada_HvsI_A/m_=_1297.0
# frecuencia_Hz_=_302405.83728547685

Tiempo_(s)	Campo_(V.s)	Magnetizacion_(V.s)	Campo_(kA/m)	Magnetizacion_(A/m)
0.000000e+00	-7.334508e-06	-2.621712e-08	-5.318322e+01	-1.716636e+03
1.000000e-08	-7.331079e-06	-2.621671e-08	-5.315836e+01	-1.715836e+03
2.000000e-08	-7.325240e-06	-2.620601e-08	-5.311602e+01	-1.714904e+03
3.000000e-08	-7.317100e-06	-2.618938e-08	-5.305700e+01	-1.713901e+03
4.000000e-08	-7.306420e-06	-2.617316e-08	-5.297956e+01	-1.712877e+03
5.000000e-08	-7.293042e-06	-2.615612e-08	-5.288255e+01	-1.711863e+03
6.000000e-08	-7.276964e-06	-2.613710e-08	-5.276597e+01	-1.710864e+03
7.000000e-08	-7.258509e-06	-2.611812e-08	-5.263215e+01	-1.709863e+03
8.000000e-08	-7.238011e-06	-2.609335e-08	-5.248352e+01	-1.708824e+03
9.000000e-08	-7.215041e-06	-2.611030e-08	-5.231696e+01	-1.707694e+03
1.000000e-07	-7.189109e-06	-2.611244e-08	-5.212892e+01	-1.706419e+03
1.100000e-07	-7.160304e-06	-2.603318e-08	-5.192006e+01	-1.704948e+03
1.200000e-07	-7.128971e-06	-2.597288e-08	-5.169286e+01	-1.703244e+03
1.300000e-07	-7.095113e-06	-2.594637e-08	-5.144735e+01	-1.701287e+03
1.400000e-07	-7.058954e-06	-2.590314e-08	-5.118516e+01	-1.699081e+03
1.500000e-07	-7.020973e-06	-2.582569e-08	-5.090976e+01	-1.696645e+03
1.600000e-07	-6.981016e-06	-2.585606e-08	-5.062002e+01	-1.694012e+03
1.700000e-07	-6.938584e-06	-2.585573e-08	-5.031235e+01	-1.691223e+03
1.800000e-07	-6.893680e-06	-2.569319e-08	-4.998674e+01	-1.688313e+03
1.900000e-07	-6.846247e-06	-2.572570e-08	-4.964280e+01	-1.685306e+03
2.000000e-07	-6.795939e-06	-2.567448e-08	-4.927801e+01	-1.682207e+03
2.100000e-07	-6.742871e-06	-2.555672e-08	-4.889321e+01	-1.679003e+03
2.200000e-07	-6.687283e-06	-2.553497e-08	-4.849014e+01	-1.675657e+03
2.300000e-07	-6.629255e-06	-2.543843e-08	-4.806937e+01	-1.672120e+03
2.400000e-07	-6.568810e-06	-2.542304e-08	-4.763107e+01	-1.668334e+03
2.500000e-07	-6.505944e-06	-2.535371e-08	-4.717523e+01	-1.664243e+03
2.600000e-07	-6.440639e-06	-2.527237e-08	-4.670170e+01	-1.659801e+03
2.700000e-07	-6.372872e-06	-2.519886e-08	-4.621031e+01	-1.654983e+03
2.800000e-07	-6.302705e-06	-2.511976e-08	-4.570153e+01	-1.649785e+03
2.900000e-07	-6.230129e-06	-2.503951e-08	-4.517527e+01	-1.644228e+03
3.000000e-07	-6.155040e-06	-2.493913e-08	-4.463079e+01	-1.638354e+03
3.100000e-07	-6.077356e-06	-2.489744e-08	-4.406750e+01	-1.632216e+03
3.200000e-07	-5.997158e-06	-2.480769e-08	-4.348597e+01	-1.625871e+03
3.300000e-07	-5.914791e-06	-2.467835e-08	-4.288872e+01	-1.619365e+03
3.400000e-07	-5.830481e-06	-2.456557e-08	-4.227738e+01	-1.612728e+03
3.500000e-07	-5.744269e-06	-2.445946e-08	-4.165225e+01	-1.605963e+03
3.600000e-07	-5.656031e-06	-2.437423e-08	-4.101243e+01	-1.599043e+03
3.700000e-07	-5.565699e-06	-2.426152e-08	-4.035742e+01	-1.591913e+03
3.800000e-07	-5.473344e-06	-2.413385e-08	-3.968775e+01	-1.584498e+03
3.900000e-07	-5.379066e-06	-2.400091e-08	-3.900413e+01	-1.576711e+03
4.000000e-07	-5.282894e-06	-2.385954e-08	-3.830678e+01	-1.568465e+03
4.100000e-07	-5.184831e-06	-2.372401e-08	-3.759571e+01	-1.559688e+03
4.200000e-07	-5.084934e-06	-2.359226e-08	-3.687135e+01	-1.550331e+03
4.300000e-07	-4.983252e-06	-2.345896e-08	-3.613404e+01	-1.540375e+03
4.400000e-07	-4.879817e-06	-2.329666e-08	-3.538403e+01	-1.529833e+03
4.500000e-07	-4.774630e-06	-2.312391e-08	-3.462130e+01	-1.518748e+03
4.600000e-07	-4.667767e-06	-2.295368e-08	-3.384643e+01	-1.507176e+03
4.700000e-07	-4.559215e-06	-2.277854e-08	-3.305931e+01	-1.495182e+03
4.800000e-07	-4.449092e-06	-2.260157e-08	-3.226080e+01	-1.482821e+03
4.900000e-07	-4.337366e-06	-2.241225e-08	-3.145066e+01	-1.470121e+03
5.000000e-07	-4.223843e-06	-2.220438e-08	-3.062749e+01	-1.457078e+03
5.100000e-07	-4.108629e-06	-2.198021e-08	-2.979206e+01	-1.443648e+03
5.200000e-07	-3.991801e-06	-2.175724e-08	-2.894494e+01	-1.429745e+03
5.300000e-07	-3.873484e-06	-2.153122e-08	-2.808701e+01	-1.415252e+03
5.400000e-07	-3.753739e-06	-2.129340e-08	-2.721872e+01	-1.400034e+03
5.500000e-07	-3.632513e-06	-2.104238e-08	-2.633970e+01	-1.383948e+03
5.600000e-07	-3.509925e-06	-2.077673e-08	-2.545080e+01	-1.366869e+03
5.700000e-07	-3.386013e-06	-2.049796e-08	-2.455231e+01	-1.348699e+03
5.800000e-07	-3.260837e-06	-2.020209e-08	-2.364465e+01	-1.329375e+03
5.900000e-07	-3.134506e-06	-1.989599e-08	-2.272861e+01	-1.308879e+03
6.000000e-07	-3.007036e-06	-1.957529e-08	-2.180431e+01	-1.287225e+03
6.100000e-07	-2.878444e-06	-1.923659e-08	-2.087187e+01	-1.264448e+03
6.200000e-07	-2.748726e-06	-1.887910e-08	-1.993128e+01	-1.240586e+03
6.300000e-07	-2.618018e-06	-1.850391e-08	-1.898350e+01	-1.215653e+03
6.400000e-07	-2.486381e-06	-1.811058e-08	-1.802899e+01	-1.189620e+03
6.500000e-07	-2.353758e-06	-1.769088e-08	-1.706732e+01	-1.162393e+03
6.600000e-07	-2.220293e-06	-1.724305e-08	-1.609956e+01	-1.133802e+03
6.700000e-07	-2.086164e-06	-1.676503e-08	-1.512698e+01	-1.103604e+03
6.800000e-07	-1.951333e-06	-1.626165e-08	-1.414931e+01	-1.071490e+03
6.900000e-07	-1.815778e-06	-1.572805e-08	-1.316638e+01	-1.037114e+03
7.000000e-07	-1.679521e-06	-1.515718e-08	-1.217837e+01	-1.000120e+03
7.100000e-07	-1.542624e-06	-1.454581e-08	-1.118572e+01	-9.601838e+02
7.200000e-07	-1.405095e-06	-1.389081e-08	-1.018848e+01	-9.170515e+02
7.300000e-07	-1.267042e-06	-1.319295e-08	-9.187446e+00	-8.705742e+02
7.400000e-07	-1.128653e-06	-1.244902e-08	-8.183969e+00	-8.207331e+02
7.500000e-07	-9.898968e-07	-1.166031e-08	-7.177837e+00	-7.676514e+02
7.600000e-07	-8.507673e-07	-1.082669e-08	-6.168996e+00	-7.115897e+02
7.700000e-07	-7.113228e-07	-9.945848e-09	-5.157870e+00	-6.529253e+02
7.800000e-07	-5.716680e-07	-9.015798e-09	-4.145220e+00	-5.921172e+02
7.900000e-07	-4.317924e-07	-8.050048e-09	-3.130969e+00	-5.296604e+02
8.000000e-07	-2.916804e-07	-7.062142e-09	-2.115003e+00	-4.660354e+02
8.100000e-07	-1.513772e-07	-6.057993e-09	-1.097651e+00	-4.016594e+02
8.200000e-07	-1.091751e-08	-5.049140e-09	-7.916391e-02	-3.368454e+02
8.300000e-07	1.296094e-07	-4.045305e-09	9.398105e-01	-2.717748e+02
8.400000e-07	2.700844e-07	-3.051033e-09	1.958408e+00	-2.064884e+02
8.500000e-07	4.104425e-07	-2.061536e-09	2.976158e+00	-1.408959e+02
8.600000e-07	5.506937e-07	-1.075320e-09	3.993133e+00	-7.480471e+01
8.700000e-07	6.907414e-07	-8.517813e-11	5.008633e+00	-7.964130e+00
8.800000e-07	8.304998e-07	9.215571e-10	6.022035e+00	5.988079e+01
8.900000e-07	9.699378e-07	1.953019e-09	7.033113e+00	1.289320e+02
9.000000e-07	1.109026e-06	3.013650e-09	8.041656e+00	1.992854e+02
9.100000e-07	1.247724e-06	4.104455e-09	9.047369e+00	2.708890e+02
9.200000e-07	1.385968e-06	5.224221e-09	1.004979e+01	3.435180e+02
9.300000e-07	1.523665e-06	6.362211e-09	1.104824e+01	4.167698e+02
9.400000e-07	1.660715e-06	7.504774e-09	1.204201e+01	4.900810e+02
9.500000e-07	1.797079e-06	8.634653e-09	1.303079e+01	5.627635e+02
9.600000e-07	1.932808e-06	9.736078e-09	1.401498e+01	6.340561e+02
9.700000e-07	2.067820e-06	1.079142e-08	1.499396e+01	7.031862e+02
9.800000e-07	2.201988e-06	1.178819e-08	1.596683e+01	7.694327e+02
9.900000e-07	2.335338e-06	1.272163e-08	1.693376e+01	8.321841e+02
1.000000e-06	2.467863e-06	1.358994e-08	1.789471e+01	8.909855e+02
1.010000e-06	2.599462e-06	1.439512e-08	1.884895e+01	9.455673e+02
1.020000e-06	2.730053e-06	1.513984e-08	1.979588e+01	9.958556e+02
1.030000e-06	2.859613e-06	1.583100e-08	2.073533e+01	1.041962e+03
1.040000e-06	2.988041e-06	1.647461e-08	2.166657e+01	1.084156e+03
1.050000e-06	3.115358e-06	1.707250e-08	2.258977e+01	1.122823e+03
1.060000e-06	3.241583e-06	1.762748e-08	2.350503e+01	1.158415e+03
1.070000e-06	3.366731e-06	1.814409e-08	2.441250e+01	1.191401e+03
1.080000e-06	3.490763e-06	1.862572e-08	2.531186e+01	1.222221e+03
1.090000e-06	3.613490e-06	1.907511e-08	2.620177e+01	1.251246e+03
1.100000e-06	3.734826e-06	1.949572e-08	2.708158e+01	1.278759e+03
1.110000e-06	3.854864e-06	1.989179e-08	2.795199e+01	1.304948e+03
1.120000e-06	3.973590e-06	2.026765e-08	2.881288e+01	1.329905e+03
1.130000e-06	4.090847e-06	2.062051e-08	2.966313e+01	1.353651e+03
1.140000e-06	4.206562e-06	2.094996e-08	3.050219e+01	1.376160e+03
1.150000e-06	4.320599e-06	2.126033e-08	3.132908e+01	1.397383e+03
1.160000e-06	4.432975e-06	2.155462e-08	3.214393e+01	1.417283e+03
1.170000e-06	4.543742e-06	2.183200e-08	3.294711e+01	1.435851e+03
1.180000e-06	4.653000e-06	2.209342e-08	3.373935e+01	1.453124e+03
1.190000e-06	4.760814e-06	2.234327e-08	3.452112e+01	1.469183e+03
1.200000e-06	4.866866e-06	2.257957e-08	3.529011e+01	1.484157e+03
1.210000e-06	4.971079e-06	2.280187e-08	3.604577e+01	1.498198e+03
1.220000e-06	5.073518e-06	2.301202e-08	3.678857e+01	1.511473e+03
1.230000e-06	5.174129e-06	2.321289e-08	3.751811e+01	1.524136e+03
1.240000e-06	5.272780e-06	2.340317e-08	3.823344e+01	1.536316e+03
1.250000e-06	5.369322e-06	2.358068e-08	3.893347e+01	1.548097e+03
1.260000e-06	5.463910e-06	2.374872e-08	3.961934e+01	1.559520e+03
1.270000e-06	5.556710e-06	2.391114e-08	4.029225e+01	1.570577e+03
1.280000e-06	5.647533e-06	2.406655e-08	4.095081e+01	1.581223e+03
1.290000e-06	5.736195e-06	2.421454e-08	4.159370e+01	1.591389e+03
1.300000e-06	5.822744e-06	2.435585e-08	4.222128e+01	1.600999e+03
1.310000e-06	5.907310e-06	2.448965e-08	4.283447e+01	1.609987e+03
1.320000e-06	5.989832e-06	2.461623e-08	4.343285e+01	1.618312e+03
1.330000e-06	6.070135e-06	2.473518e-08	4.401513e+01	1.625969e+03
1.340000e-06	6.148256e-06	2.484719e-08	4.458160e+01	1.632988e+03
1.350000e-06	6.224067e-06	2.495082e-08	4.513131e+01	1.639437e+03
1.360000e-06	6.297388e-06	2.504562e-08	4.566297e+01	1.645409e+03
1.370000e-06	6.368363e-06	2.513574e-08	4.617761e+01	1.651009e+03
1.380000e-06	6.437145e-06	2.522258e-08	4.667636e+01	1.656342e+03
1.390000e-06	6.503567e-06	2.530521e-08	4.715799e+01	1.661495e+03
1.400000e-06	6.567596e-06	2.538255e-08	4.762228e+01	1.666529e+03
1.410000e-06	6.629415e-06	2.545565e-08	4.807053e+01	1.671472e+03
1.420000e-06	6.689055e-06	2.552551e-08	4.850299e+01	1.676313e+03
1.430000e-06	6.746333e-06	2.559211e-08	4.891832e+01	1.681015e+03
1.440000e-06	6.801164e-06	2.565512e-08	4.931590e+01	1.685517e+03
1.450000e-06	6.853381e-06	2.571438e-08	4.969453e+01	1.689750e+03
1.460000e-06	6.902758e-06	2.576956e-08	5.005256e+01	1.693650e+03
1.470000e-06	6.949462e-06	2.582026e-08	5.039122e+01	1.697169e+03
1.480000e-06	6.993778e-06	2.586934e-08	5.071256e+01	1.700281e+03
1.490000e-06	7.035631e-06	2.591569e-08	5.101604e+01	1.702994e+03
1.500000e-06	7.074871e-06	2.595642e-08	5.130057e+01	1.705340e+03
1.510000e-06	7.111711e-06	2.599261e-08	5.156770e+01	1.707376e+03
1.520000e-06	7.146069e-06	2.602619e-08	5.181684e+01	1.709169e+03
1.530000e-06	7.177796e-06	2.605642e-08	5.204690e+01	1.710790e+03
1.540000e-06	7.207099e-06	2.608286e-08	5.225937e+01	1.712300e+03
1.550000e-06	7.233895e-06	2.610571e-08	5.245367e+01	1.713741e+03
1.560000e-06	7.257960e-06	2.612515e-08	5.262817e+01	1.715130e+03
1.570000e-06	7.279418e-06	2.614214e-08	5.278377e+01	1.716458e+03
1.580000e-06	7.298384e-06	2.615564e-08	5.292129e+01	1.717691e+03
1.590000e-06	7.314659e-06	2.616618e-08	5.303930e+01	1.718782e+03
1.600000e-06	7.328174e-06	2.617458e-08	5.313730e+01	1.719674e+03
1.610000e-06	7.338756e-06	2.618195e-08	5.321403e+01	1.720315e+03
1.620000e-06	7.346393e-06	2.618816e-08	5.326940e+01	1.720667e+03
1.630000e-06	7.351496e-06	2.619076e-08	5.330641e+01	1.720712e+03
1.640000e-06	7.354087e-06	2.619020e-08	5.332520e+01	1.720458e+03
1.650000e-06	7.354044e-06	2.619017e-08	5.332489e+01	1.719937e+03
1.660000e-06	7.351532e-06	2.618255e-08	5.330667e+01	1.719198e+03
1.670000e-06	7.346651e-06	2.617059e-08	5.327128e+01	1.718305e+03
1.680000e-06	7.339273e-06	2.616149e-08	5.321778e+01	1.717319e+03
1.690000e-06	7.329402e-06	2.615113e-08	5.314621e+01	1.716297e+03
1.700000e-06	7.317005e-06	2.614072e-08	5.305631e+01	1.715276e+03
1.710000e-06	7.302052e-06	2.612987e-08	5.294789e+01	1.714271e+03
1.720000e-06	7.284751e-06	2.611828e-08	5.282244e+01	1.713274e+03
1.730000e-06	7.265329e-06	2.610279e-08	5.268161e+01	1.712253e+03
1.740000e-06	7.243405e-06	2.601053e-08	5.252263e+01	1.711160e+03
1.750000e-06	7.218181e-06	2.598226e-08	5.233973e+01	1.709942e+03
1.760000e-06	7.189532e-06	2.601296e-08	5.213199e+01	1.708545e+03
1.770000e-06	7.158080e-06	2.599277e-08	5.190393e+01	1.706926e+03
1.780000e-06	7.124467e-06	2.596496e-08	5.166020e+01	1.705060e+03
1.790000e-06	7.089071e-06	2.601371e-08	5.140354e+01	1.702940e+03
1.800000e-06	7.052064e-06	2.594175e-08	5.113520e+01	1.700582e+03
1.810000e-06	7.012847e-06	2.580951e-08	5.085083e+01	1.698014e+03
1.820000e-06	6.970973e-06	2.591854e-08	5.054720e+01	1.695275e+03
1.830000e-06	6.926842e-06	2.581557e-08	5.022720e+01	1.692403e+03
1.840000e-06	6.880270e-06	2.580713e-08	4.988950e+01	1.689428e+03
1.850000e-06	6.831043e-06	2.582283e-08	4.953255e+01	1.686361e+03
1.860000e-06	6.779258e-06	2.565699e-08	4.915706e+01	1.683197e+03
1.870000e-06	6.724649e-06	2.570568e-08	4.876108e+01	1.679905e+03
1.880000e-06	6.667514e-06	2.558168e-08	4.834679e+01	1.676442e+03
1.890000e-06	6.607966e-06	2.551835e-08	4.791500e+01	1.672751e+03
1.900000e-06	6.545783e-06	2.549490e-08	4.746410e+01	1.668773e+03
1.910000e-06	6.481107e-06	2.536195e-08	4.699513e+01	1.664460e+03
1.920000e-06	6.414014e-06	2.535684e-08	4.650864e+01	1.659777e+03
1.930000e-06	6.344568e-06	2.524464e-08	4.600508e+01	1.654712e+03
1.940000e-06	6.272658e-06	2.520052e-08	4.548365e+01	1.649278e+03
1.950000e-06	6.198278e-06	2.509335e-08	4.494431e+01	1.643511e+03
1.960000e-06	6.121382e-06	2.496047e-08	4.438673e+01	1.637459e+03
1.970000e-06	6.041970e-06	2.492794e-08	4.381091e+01	1.631181e+03
1.980000e-06	5.960409e-06	2.481131e-08	4.321950e+01	1.624727e+03
1.990000e-06	5.876795e-06	2.476125e-08	4.261321e+01	1.618134e+03
2.000000e-06	5.791075e-06	2.463204e-08	4.199164e+01	1.611415e+03
2.010000e-06	5.703211e-06	2.451499e-08	4.135453e+01	1.604554e+03
2.020000e-06	5.613323e-06	2.438938e-08	4.070275e+01	1.597506e+03
2.030000e-06	5.521476e-06	2.425854e-08	4.003676e+01	1.590201e+03
2.040000e-06	5.427622e-06	2.417977e-08	3.935621e+01	1.582556e+03
2.050000e-06	5.331855e-06	2.405613e-08	3.866180e+01	1.574482e+03
2.060000e-06	5.234263e-06	2.392917e-08	3.795415e+01	1.565900e+03
2.070000e-06	5.134927e-06	2.375218e-08	3.723385e+01	1.556753e+03
2.080000e-06	5.033746e-06	2.360852e-08	3.650018e+01	1.547010e+03
2.090000e-06	4.930716e-06	2.345810e-08	3.575310e+01	1.536673e+03
2.100000e-06	4.825880e-06	2.330943e-08	3.499292e+01	1.525775e+03
2.110000e-06	4.719419e-06	2.315001e-08	3.422097e+01	1.514368e+03
2.120000e-06	4.611451e-06	2.296664e-08	3.343808e+01	1.502517e+03
2.130000e-06	4.501804e-06	2.277489e-08	3.264302e+01	1.490281e+03
2.140000e-06	4.390434e-06	2.257844e-08	3.183546e+01	1.477699e+03
2.150000e-06	4.277342e-06	2.239980e-08	3.101542e+01	1.464781e+03
2.160000e-06	4.162583e-06	2.220387e-08	3.018329e+01	1.451496e+03
2.170000e-06	4.046125e-06	2.199517e-08	2.933884e+01	1.437772e+03
2.180000e-06	3.927976e-06	2.176032e-08	2.848213e+01	1.423504e+03
2.190000e-06	3.808309e-06	2.152150e-08	2.761442e+01	1.408560e+03
2.200000e-06	3.687251e-06	2.127018e-08	2.673662e+01	1.392798e+03
2.210000e-06	3.564892e-06	2.101580e-08	2.584937e+01	1.376086e+03
2.220000e-06	3.441187e-06	2.074944e-08	2.495238e+01	1.358314e+03
2.230000e-06	3.316116e-06	2.046813e-08	2.404548e+01	1.339405e+03
2.240000e-06	3.189824e-06	2.017054e-08	2.312972e+01	1.319327e+03
2.250000e-06	3.062394e-06	1.985568e-08	2.220571e+01	1.298082e+03
2.260000e-06	2.933771e-06	1.952945e-08	2.127305e+01	1.275700e+03
2.270000e-06	2.804059e-06	1.918146e-08	2.033250e+01	1.252221e+03
2.280000e-06	2.673404e-06	1.881402e-08	1.938511e+01	1.227670e+03
2.290000e-06	2.541808e-06	1.842343e-08	1.843089e+01	1.202036e+03
2.300000e-06	2.409310e-06	1.801478e-08	1.747014e+01	1.175249e+03
2.310000e-06	2.275949e-06	1.758177e-08	1.650313e+01	1.147169e+03
2.320000e-06	2.141774e-06	1.712043e-08	1.553021e+01	1.117576e+03
2.330000e-06	2.006942e-06	1.662519e-08	1.455253e+01	1.086183e+03
2.340000e-06	1.871503e-06	1.609709e-08	1.357045e+01	1.052656e+03
2.350000e-06	1.735366e-06	1.553609e-08	1.258331e+01	1.016635e+03
2.360000e-06	1.598581e-06	1.494124e-08	1.159147e+01	9.777821e+02
2.370000e-06	1.461237e-06	1.430949e-08	1.059557e+01	9.358134e+02
2.380000e-06	1.323459e-06	1.363244e-08	9.596530e+00	8.905389e+02
2.390000e-06	1.185298e-06	1.290439e-08	8.594709e+00	8.418914e+02
2.400000e-06	1.046688e-06	1.212437e-08	7.589636e+00	7.899428e+02
2.410000e-06	9.076220e-07	1.129934e-08	6.581255e+00	7.349064e+02
2.420000e-06	7.682313e-07	1.043297e-08	5.570520e+00	6.771211e+02
2.430000e-06	6.286136e-07	9.525282e-09	4.558138e+00	6.170215e+02
2.440000e-06	4.887845e-07	8.575970e-09	3.544224e+00	5.550954e+02
2.450000e-06	3.487833e-07	7.589744e-09	2.529061e+00	4.918343e+02
2.460000e-06	2.086048e-07	6.581305e-09	1.512613e+00	4.276834e+02
2.470000e-06	6.830162e-08	5.563325e-09	4.952617e-01	3.629966e+02
2.480000e-06	-7.208630e-08	4.547405e-09	-5.227048e-01	2.980046e+02
2.490000e-06	-2.124898e-07	3.541437e-09	-1.540784e+00	2.327981e+02
2.500000e-06	-3.527823e-07	2.543757e-09	-2.558059e+00	1.673314e+02
2.510000e-06	-4.929710e-07	1.549897e-09	-3.574581e+00	1.014440e+02
2.520000e-06	-6.330234e-07	5.539984e-10	-4.590114e+00	3.490026e+01
2.530000e-06	-7.728655e-07	-4.525016e-10	-5.604123e+00	-3.255995e+01
2.540000e-06	-9.124180e-07	-1.478318e-09	-6.616031e+00	-1.011639e+02
2.550000e-06	-1.051508e-06	-2.529667e-09	-7.624583e+00	-1.710509e+02
2.560000e-06	-1.190184e-06	-3.610919e-09	-8.630136e+00	-2.422257e+02
2.570000e-06	-1.328475e-06	-4.723458e-09	-9.632903e+00	-3.145267e+02
2.580000e-06	-1.466259e-06	-5.859874e-09	-1.063199e+01	-3.876141e+02
2.590000e-06	-1.603533e-06	-7.008702e-09	-1.162737e+01	-4.609787e+02
2.600000e-06	-1.740251e-06	-8.151888e-09	-1.261873e+01	-5.339716e+02
2.610000e-06	-1.876254e-06	-9.270931e-09	-1.360490e+01	-6.058512e+02
2.620000e-06	-2.011518e-06	-1.035121e-08	-1.458571e+01	-6.758416e+02
2.630000e-06	-2.146018e-06	-1.137938e-08	-1.556098e+01	-7.431960e+02
2.640000e-06	-2.279602e-06	-1.234666e-08	-1.652961e+01	-8.072580e+02
2.650000e-06	-2.412291e-06	-1.324831e-08	-1.749175e+01	-8.675122e+02
2.660000e-06	-2.544192e-06	-1.408557e-08	-1.844818e+01	-9.236207e+02
2.670000e-06	-2.675157e-06	-1.485992e-08	-1.939782e+01	-9.754399e+02
2.680000e-06	-2.805090e-06	-1.557756e-08	-2.033998e+01	-1.023017e+03
2.690000e-06	-2.934079e-06	-1.624531e-08	-2.127529e+01	-1.066571e+03
2.700000e-06	-3.062008e-06	-1.686585e-08	-2.220291e+01	-1.106449e+03
2.710000e-06	-3.188777e-06	-1.744356e-08	-2.312213e+01	-1.143086e+03
2.720000e-06	-3.314404e-06	-1.798185e-08	-2.403307e+01	-1.176951e+03
2.730000e-06	-3.438878e-06	-1.848118e-08	-2.493563e+01	-1.208499e+03
2.740000e-06	-3.562086e-06	-1.894465e-08	-2.582903e+01	-1.238128e+03
2.750000e-06	-3.683995e-06	-1.937803e-08	-2.671300e+01	-1.266156e+03
2.760000e-06	-3.804609e-06	-1.978546e-08	-2.758759e+01	-1.292804e+03
2.770000e-06	-3.923714e-06	-2.016939e-08	-2.845123e+01	-1.318196e+03
2.780000e-06	-4.041255e-06	-2.053249e-08	-2.930353e+01	-1.342378e+03
2.790000e-06	-4.157326e-06	-2.087478e-08	-3.014518e+01	-1.365334e+03
2.800000e-06	-4.271793e-06	-2.119438e-08	-3.097519e+01	-1.387023e+03
2.810000e-06	-4.384449e-06	-2.149375e-08	-3.179206e+01	-1.407400e+03
2.820000e-06	-4.495371e-06	-2.177669e-08	-3.259637e+01	-1.426443e+03
2.830000e-06	-4.604748e-06	-2.204623e-08	-3.338947e+01	-1.444172e+03
2.840000e-06	-4.712631e-06	-2.230143e-08	-3.417175e+01	-1.460654e+03
2.850000e-06	-4.818997e-06	-2.254150e-08	-3.494301e+01	-1.475999e+03
2.860000e-06	-4.923686e-06	-2.276992e-08	-3.570212e+01	-1.490356e+03
2.870000e-06	-5.026466e-06	-2.298770e-08	-3.644739e+01	-1.503887e+03
2.880000e-06	-5.127288e-06	-2.319483e-08	-3.717846e+01	-1.516753e+03
2.890000e-06	-5.226252e-06	-2.339289e-08	-3.789606e+01	-1.529094e+03
2.900000e-06	-5.323454e-06	-2.357997e-08	-3.860088e+01	-1.541012e+03
2.910000e-06	-5.418785e-06	-2.375582e-08	-3.929214e+01	-1.552563e+03
2.920000e-06	-5.512103e-06	-2.392094e-08	-3.996880e+01	-1.563755e+03
2.930000e-06	-5.603456e-06	-2.407675e-08	-4.063120e+01	-1.574556e+03
2.940000e-06	-5.692828e-06	-2.422571e-08	-4.127925e+01	-1.584904e+03
