# Temperatura_=_73.34
# Concentracion g/m^3_=_28370.0
# C_Vs_to_Am_M_A/Vsm_=_65563218390.804596
# pendiente_HvsI_1/m_=_3716.3
# ordenada_HvsI_A/m_=_1297.0
# frecuencia_Hz_=_302398.3122229549

Tiempo_(s)	Campo_(V.s)	Magnetizacion_(V.s)	Campo_(kA/m)	Magnetizacion_(A/m)
0.000000e+00	-7.353508e-06	-2.728603e-08	-5.318732e+01	-1.786794e+03
1.000000e-08	-7.349859e-06	-2.728508e-08	-5.316092e+01	-1.785937e+03
2.000000e-08	-7.343879e-06	-2.727210e-08	-5.311767e+01	-1.784984e+03
3.000000e-08	-7.335613e-06	-2.725686e-08	-5.305788e+01	-1.783985e+03
4.000000e-08	-7.324731e-06	-2.724162e-08	-5.297917e+01	-1.782973e+03
5.000000e-08	-7.311014e-06	-2.722210e-08	-5.287996e+01	-1.781954e+03
6.000000e-08	-7.294602e-06	-2.719763e-08	-5.276126e+01	-1.780913e+03
7.000000e-08	-7.275941e-06	-2.717075e-08	-5.262628e+01	-1.779814e+03
8.000000e-08	-7.255218e-06	-2.714834e-08	-5.247639e+01	-1.778608e+03
9.000000e-08	-7.231972e-06	-2.719640e-08	-5.230826e+01	-1.777243e+03
1.000000e-07	-7.205738e-06	-2.717576e-08	-5.211851e+01	-1.775672e+03
1.100000e-07	-7.176620e-06	-2.707838e-08	-5.190790e+01	-1.773862e+03
1.200000e-07	-7.144971e-06	-2.703307e-08	-5.167898e+01	-1.771799e+03
1.300000e-07	-7.110835e-06	-2.700643e-08	-5.143208e+01	-1.769490e+03
1.400000e-07	-7.074485e-06	-2.692820e-08	-5.116916e+01	-1.766960e+03
1.500000e-07	-7.036309e-06	-2.683073e-08	-5.089304e+01	-1.764248e+03
1.600000e-07	-6.996048e-06	-2.692246e-08	-5.060184e+01	-1.761394e+03
1.700000e-07	-6.953233e-06	-2.684078e-08	-5.029216e+01	-1.758436e+03
1.800000e-07	-6.907989e-06	-2.668068e-08	-4.996491e+01	-1.755396e+03
1.900000e-07	-6.860170e-06	-2.676526e-08	-4.961905e+01	-1.752274e+03
2.000000e-07	-6.809482e-06	-2.666813e-08	-4.925242e+01	-1.749049e+03
2.100000e-07	-6.756215e-06	-2.659022e-08	-4.886715e+01	-1.745676e+03
2.200000e-07	-6.700438e-06	-2.657781e-08	-4.846372e+01	-1.742095e+03
2.300000e-07	-6.642090e-06	-2.647389e-08	-4.804169e+01	-1.738238e+03
2.400000e-07	-6.581280e-06	-2.641131e-08	-4.760186e+01	-1.734037e+03
2.500000e-07	-6.518029e-06	-2.630255e-08	-4.714437e+01	-1.729441e+03
2.600000e-07	-6.452278e-06	-2.624678e-08	-4.666880e+01	-1.724420e+03
2.700000e-07	-6.384048e-06	-2.616923e-08	-4.617529e+01	-1.718970e+03
2.800000e-07	-6.313475e-06	-2.608750e-08	-4.566484e+01	-1.713117e+03
2.900000e-07	-6.240516e-06	-2.600242e-08	-4.513714e+01	-1.706909e+03
3.000000e-07	-6.164965e-06	-2.589192e-08	-4.459068e+01	-1.700412e+03
3.100000e-07	-6.086771e-06	-2.582487e-08	-4.402512e+01	-1.693696e+03
3.200000e-07	-6.006118e-06	-2.569972e-08	-4.344175e+01	-1.686821e+03
3.300000e-07	-5.923365e-06	-2.560799e-08	-4.284321e+01	-1.679829e+03
3.400000e-07	-5.838641e-06	-2.550477e-08	-4.223041e+01	-1.672733e+03
3.500000e-07	-5.752007e-06	-2.537381e-08	-4.160379e+01	-1.665512e+03
3.600000e-07	-5.663382e-06	-2.525850e-08	-4.096278e+01	-1.658112e+03
3.700000e-07	-5.572621e-06	-2.513652e-08	-4.030631e+01	-1.650456e+03
3.800000e-07	-5.479881e-06	-2.501141e-08	-3.963553e+01	-1.642448e+03
3.900000e-07	-5.385235e-06	-2.486687e-08	-3.895096e+01	-1.633994e+03
4.000000e-07	-5.288606e-06	-2.473710e-08	-3.825205e+01	-1.625008e+03
4.100000e-07	-5.190097e-06	-2.458838e-08	-3.753955e+01	-1.615430e+03
4.200000e-07	-5.089816e-06	-2.443313e-08	-3.681422e+01	-1.605235e+03
4.300000e-07	-4.987763e-06	-2.427256e-08	-3.607608e+01	-1.594431e+03
4.400000e-07	-4.883881e-06	-2.410606e-08	-3.532471e+01	-1.583059e+03
4.500000e-07	-4.778246e-06	-2.393063e-08	-3.456066e+01	-1.571182e+03
4.600000e-07	-4.670966e-06	-2.374813e-08	-3.378471e+01	-1.558875e+03
4.700000e-07	-4.562024e-06	-2.356401e-08	-3.299674e+01	-1.546205e+03
4.800000e-07	-4.451505e-06	-2.337257e-08	-3.219737e+01	-1.533217e+03
4.900000e-07	-4.339251e-06	-2.317174e-08	-3.138544e+01	-1.519922e+03
5.000000e-07	-4.225247e-06	-2.295106e-08	-3.056086e+01	-1.506287e+03
5.100000e-07	-4.109593e-06	-2.272492e-08	-2.972435e+01	-1.492237e+03
5.200000e-07	-3.992298e-06	-2.248911e-08	-2.887596e+01	-1.477658e+03
5.300000e-07	-3.873539e-06	-2.224529e-08	-2.801699e+01	-1.462410e+03
5.400000e-07	-3.753323e-06	-2.199199e-08	-2.714748e+01	-1.446347e+03
5.500000e-07	-3.631693e-06	-2.173075e-08	-2.626773e+01	-1.429331e+03
5.600000e-07	-3.508689e-06	-2.145354e-08	-2.537806e+01	-1.411251e+03
5.700000e-07	-3.384281e-06	-2.116187e-08	-2.447823e+01	-1.392035e+03
5.800000e-07	-3.258681e-06	-2.085986e-08	-2.356978e+01	-1.371657e+03
5.900000e-07	-3.131979e-06	-2.054557e-08	-2.265335e+01	-1.350131e+03
6.000000e-07	-3.004082e-06	-2.021424e-08	-2.172828e+01	-1.327504e+03
6.100000e-07	-2.874997e-06	-1.985840e-08	-2.079462e+01	-1.303831e+03
6.200000e-07	-2.744856e-06	-1.948288e-08	-1.985332e+01	-1.279157e+03
6.300000e-07	-2.613762e-06	-1.908828e-08	-1.890512e+01	-1.253488e+03
6.400000e-07	-2.481623e-06	-1.867753e-08	-1.794937e+01	-1.226770e+03
6.500000e-07	-2.348506e-06	-1.824480e-08	-1.698655e+01	-1.198876e+03
6.600000e-07	-2.214671e-06	-1.778861e-08	-1.601853e+01	-1.169595e+03
6.700000e-07	-2.080226e-06	-1.730321e-08	-1.504611e+01	-1.138642e+03
6.800000e-07	-1.945025e-06	-1.678554e-08	-1.406821e+01	-1.105674e+03
6.900000e-07	-1.809055e-06	-1.623481e-08	-1.308475e+01	-1.070319e+03
7.000000e-07	-1.672391e-06	-1.564804e-08	-1.209627e+01	-1.032208e+03
7.100000e-07	-1.535047e-06	-1.502202e-08	-1.110287e+01	-9.910154e+02
7.200000e-07	-1.397122e-06	-1.435109e-08	-1.010527e+01	-9.464953e+02
7.300000e-07	-1.258756e-06	-1.363816e-08	-9.104480e+00	-8.985058e+02
7.400000e-07	-1.119991e-06	-1.287427e-08	-8.100804e+00	-8.470287e+02
7.500000e-07	-9.807925e-07	-1.205989e-08	-7.093992e+00	-7.921710e+02
7.600000e-07	-8.411736e-07	-1.119641e-08	-6.084139e+00	-7.341532e+02
7.700000e-07	-7.012455e-07	-1.028000e-08	-5.072051e+00	-6.732832e+02
7.800000e-07	-5.610728e-07	-9.309944e-09	-4.058193e+00	-6.099210e+02
7.900000e-07	-4.206316e-07	-8.292459e-09	-3.042394e+00	-5.444369e+02
8.000000e-07	-2.799982e-07	-7.238448e-09	-2.025204e+00	-4.771712e+02
8.100000e-07	-1.392022e-07	-6.154835e-09	-1.006838e+00	-4.083986e+02
8.200000e-07	1.700222e-09	-5.057342e-09	1.229756e-02	-3.383061e+02
8.300000e-07	1.426015e-07	-3.956536e-09	1.031425e+00	-2.669839e+02
8.400000e-07	2.834154e-07	-2.857323e-09	2.049920e+00	-1.944345e+02
8.500000e-07	4.241588e-07	-1.754854e-09	3.067905e+00	-1.205977e+02
8.600000e-07	5.647879e-07	-6.421893e-10	4.085064e+00	-4.538746e+01
8.700000e-07	7.052256e-07	4.873676e-10	5.100839e+00	3.126134e+01
8.800000e-07	8.454062e-07	1.644271e-09	6.114753e+00	1.093458e+02
8.900000e-07	9.852390e-07	2.834274e-09	7.126152e+00	1.887520e+02
9.000000e-07	1.124664e-06	4.059611e-09	8.134599e+00	2.692236e+02
9.100000e-07	1.263630e-06	5.312449e-09	9.139733e+00	3.503468e+02
9.200000e-07	1.402174e-06	6.580672e-09	1.014181e+01	4.315535e+02
9.300000e-07	1.540239e-06	7.844548e-09	1.114042e+01	5.121458e+02
9.400000e-07	1.677651e-06	9.081332e-09	1.213431e+01	5.913363e+02
9.500000e-07	1.814341e-06	1.027091e-08	1.312298e+01	6.683029e+02
9.600000e-07	1.950262e-06	1.139859e-08	1.410608e+01	7.422502e+02
9.700000e-07	2.085399e-06	1.245283e-08	1.508352e+01	8.124705e+02
9.800000e-07	2.219793e-06	1.342907e-08	1.605558e+01	8.783981e+02
9.900000e-07	2.353411e-06	1.432887e-08	1.702203e+01	9.396503e+02
1.000000e-06	2.486182e-06	1.515823e-08	1.798235e+01	9.960497e+02
1.010000e-06	2.617977e-06	1.592189e-08	1.893561e+01	1.047627e+03
1.020000e-06	2.748773e-06	1.662399e-08	1.988165e+01	1.094602e+03
1.030000e-06	2.878563e-06	1.727412e-08	2.082041e+01	1.137352e+03
1.040000e-06	3.007222e-06	1.787811e-08	2.175099e+01	1.176361e+03
1.050000e-06	3.134757e-06	1.844002e-08	2.267344e+01	1.212166e+03
1.060000e-06	3.261174e-06	1.896281e-08	2.358781e+01	1.245306e+03
1.070000e-06	3.386501e-06	1.945087e-08	2.449428e+01	1.276269e+03
1.080000e-06	3.510729e-06	1.990749e-08	2.539282e+01	1.305462e+03
1.090000e-06	3.633719e-06	2.033236e-08	2.628239e+01	1.333185e+03
1.100000e-06	3.755373e-06	2.072894e-08	2.716230e+01	1.359625e+03
1.110000e-06	3.875626e-06	2.110456e-08	2.803208e+01	1.384869e+03
1.120000e-06	3.994458e-06	2.146258e-08	2.889158e+01	1.408924e+03
1.130000e-06	4.111924e-06	2.179936e-08	2.974121e+01	1.431746e+03
1.140000e-06	4.227920e-06	2.211402e-08	3.058020e+01	1.453271e+03
1.150000e-06	4.342207e-06	2.241145e-08	3.140683e+01	1.473449e+03
1.160000e-06	4.454719e-06	2.269281e-08	3.222062e+01	1.492265e+03
1.170000e-06	4.565570e-06	2.295694e-08	3.302240e+01	1.509754e+03
1.180000e-06	4.674901e-06	2.320708e-08	3.381318e+01	1.526004e+03
1.190000e-06	4.782721e-06	2.344807e-08	3.459303e+01	1.541152e+03
1.200000e-06	4.888880e-06	2.367674e-08	3.536087e+01	1.555366e+03
1.210000e-06	4.993194e-06	2.389213e-08	3.611536e+01	1.568824e+03
1.220000e-06	5.095637e-06	2.409561e-08	3.685632e+01	1.581696e+03
1.230000e-06	5.196303e-06	2.429070e-08	3.758443e+01	1.594121e+03
1.240000e-06	5.295072e-06	2.447634e-08	3.829882e+01	1.606191e+03
1.250000e-06	5.391768e-06	2.464869e-08	3.899821e+01	1.617947e+03
1.260000e-06	5.486464e-06	2.481316e-08	3.968315e+01	1.629379e+03
1.270000e-06	5.579254e-06	2.497312e-08	4.035429e+01	1.640435e+03
1.280000e-06	5.669997e-06	2.512737e-08	4.101062e+01	1.651035e+03
1.290000e-06	5.758606e-06	2.527463e-08	4.165153e+01	1.661091e+03
1.300000e-06	5.845130e-06	2.541612e-08	4.227734e+01	1.670525e+03
1.310000e-06	5.929666e-06	2.555163e-08	4.288878e+01	1.679286e+03
1.320000e-06	6.012210e-06	2.567802e-08	4.348582e+01	1.687358e+03
1.330000e-06	6.092504e-06	2.579511e-08	4.406658e+01	1.694768e+03
1.340000e-06	6.170519e-06	2.590508e-08	4.463085e+01	1.701581e+03
1.350000e-06	6.246196e-06	2.600735e-08	4.517822e+01	1.707894e+03
1.360000e-06	6.319405e-06	2.610250e-08	4.570773e+01	1.713816e+03
1.370000e-06	6.390304e-06	2.619242e-08	4.622054e+01	1.719458e+03
1.380000e-06	6.459041e-06	2.627821e-08	4.671772e+01	1.724917e+03
1.390000e-06	6.525475e-06	2.636081e-08	4.719822e+01	1.730260e+03
1.400000e-06	6.589478e-06	2.643979e-08	4.766115e+01	1.735520e+03
1.410000e-06	6.651232e-06	2.651600e-08	4.810781e+01	1.740692e+03
1.420000e-06	6.710842e-06	2.658854e-08	4.853897e+01	1.745738e+03
1.430000e-06	6.768058e-06	2.665690e-08	4.895280e+01	1.750598e+03
1.440000e-06	6.822804e-06	2.672034e-08	4.934878e+01	1.755199e+03
1.450000e-06	6.874970e-06	2.677910e-08	4.972609e+01	1.759473e+03
1.460000e-06	6.924258e-06	2.683460e-08	5.008259e+01	1.763365e+03
1.470000e-06	6.970826e-06	2.688774e-08	5.041941e+01	1.766848e+03
1.480000e-06	7.015028e-06	2.693946e-08	5.073912e+01	1.769921e+03
1.490000e-06	7.056756e-06	2.698712e-08	5.104093e+01	1.772615e+03
1.500000e-06	7.095864e-06	2.703044e-08	5.132380e+01	1.774984e+03
1.510000e-06	7.132600e-06	2.707130e-08	5.158951e+01	1.777096e+03
1.520000e-06	7.166870e-06	2.710878e-08	5.183738e+01	1.779022e+03
1.530000e-06	7.198520e-06	2.713977e-08	5.206630e+01	1.780824e+03
1.540000e-06	7.227700e-06	2.716426e-08	5.227736e+01	1.782546e+03
1.550000e-06	7.254331e-06	2.718524e-08	5.246998e+01	1.784205e+03
1.560000e-06	7.278175e-06	2.720557e-08	5.264244e+01	1.785795e+03
1.570000e-06	7.299406e-06	2.722447e-08	5.279600e+01	1.787282e+03
1.580000e-06	7.318201e-06	2.724080e-08	5.293195e+01	1.788615e+03
1.590000e-06	7.334286e-06	2.725362e-08	5.304829e+01	1.789738e+03
1.600000e-06	7.347500e-06	2.726210e-08	5.314386e+01	1.790595e+03
1.610000e-06	7.357804e-06	2.726850e-08	5.321839e+01	1.791146e+03
1.620000e-06	7.365281e-06	2.727357e-08	5.327247e+01	1.791371e+03
1.630000e-06	7.370213e-06	2.727611e-08	5.330814e+01	1.791275e+03
1.640000e-06	7.372571e-06	2.727598e-08	5.332520e+01	1.790888e+03
1.650000e-06	7.372279e-06	2.727599e-08	5.332308e+01	1.790259e+03
1.660000e-06	7.369532e-06	2.726279e-08	5.330322e+01	1.789449e+03
1.670000e-06	7.364357e-06	2.725054e-08	5.326579e+01	1.788522e+03
1.680000e-06	7.356664e-06	2.724036e-08	5.321015e+01	1.787534e+03
1.690000e-06	7.346534e-06	2.722675e-08	5.313687e+01	1.786523e+03
1.700000e-06	7.333859e-06	2.721417e-08	5.304520e+01	1.785506e+03
1.710000e-06	7.318604e-06	2.720395e-08	5.293486e+01	1.784475e+03
1.720000e-06	7.301034e-06	2.719634e-08	5.280778e+01	1.783400e+03
1.730000e-06	7.281398e-06	2.715533e-08	5.266575e+01	1.782238e+03
1.740000e-06	7.259216e-06	2.703747e-08	5.250531e+01	1.780934e+03
1.750000e-06	7.233707e-06	2.704365e-08	5.232081e+01	1.779440e+03
1.760000e-06	7.204805e-06	2.707088e-08	5.211176e+01	1.777717e+03
1.770000e-06	7.173056e-06	2.701870e-08	5.188212e+01	1.775743e+03
1.780000e-06	7.139168e-06	2.701319e-08	5.163701e+01	1.773518e+03
1.790000e-06	7.103602e-06	2.709552e-08	5.137977e+01	1.771062e+03
1.800000e-06	7.066449e-06	2.694134e-08	5.111104e+01	1.768409e+03
1.810000e-06	7.027022e-06	2.686086e-08	5.082587e+01	1.765600e+03
1.820000e-06	6.984892e-06	2.698759e-08	5.052115e+01	1.762674e+03
1.830000e-06	6.940469e-06	2.681695e-08	5.019984e+01	1.759661e+03
1.840000e-06	6.893567e-06	2.688119e-08	4.986061e+01	1.756568e+03
1.850000e-06	6.844015e-06	2.682224e-08	4.950219e+01	1.753383e+03
1.860000e-06	6.791822e-06	2.666878e-08	4.912469e+01	1.750068e+03
1.870000e-06	6.736795e-06	2.670220e-08	4.872668e+01	1.746568e+03
1.880000e-06	6.679323e-06	2.655106e-08	4.831099e+01	1.742815e+03
1.890000e-06	6.619381e-06	2.658529e-08	4.787744e+01	1.738743e+03
1.900000e-06	6.556776e-06	2.649928e-08	4.742462e+01	1.734292e+03
1.910000e-06	6.491737e-06	2.636386e-08	4.695420e+01	1.729423e+03
1.920000e-06	6.424328e-06	2.633090e-08	4.646663e+01	1.724124e+03
1.930000e-06	6.354554e-06	2.618176e-08	4.596196e+01	1.718409e+03
1.940000e-06	6.282259e-06	2.617068e-08	4.543906e+01	1.712319e+03
1.950000e-06	6.207463e-06	2.605061e-08	4.489807e+01	1.705917e+03
1.960000e-06	6.130170e-06	2.597591e-08	4.433901e+01	1.699270e+03
1.970000e-06	6.050387e-06	2.588359e-08	4.376195e+01	1.692444e+03
1.980000e-06	5.968462e-06	2.572639e-08	4.316939e+01	1.685490e+03
1.990000e-06	5.884427e-06	2.566594e-08	4.256158e+01	1.678430e+03
2.000000e-06	5.798266e-06	2.552727e-08	4.193838e+01	1.671256e+03
2.010000e-06	5.709991e-06	2.543756e-08	4.129989e+01	1.663927e+03
2.020000e-06	5.619708e-06	2.529895e-08	4.064688e+01	1.656372e+03
2.030000e-06	5.527433e-06	2.517266e-08	3.997947e+01	1.648500e+03
2.040000e-06	5.433155e-06	2.503807e-08	3.929757e+01	1.640214e+03
2.050000e-06	5.337000e-06	2.489075e-08	3.860208e+01	1.631425e+03
2.060000e-06	5.239061e-06	2.476471e-08	3.789369e+01	1.622062e+03
2.070000e-06	5.139365e-06	2.460132e-08	3.717261e+01	1.612087e+03
2.080000e-06	5.037747e-06	2.445468e-08	3.643761e+01	1.601496e+03
2.090000e-06	4.934278e-06	2.428273e-08	3.568922e+01	1.590319e+03
2.100000e-06	4.829019e-06	2.412387e-08	3.492790e+01	1.578613e+03
2.110000e-06	4.722183e-06	2.394258e-08	3.415516e+01	1.566450e+03
2.120000e-06	4.613792e-06	2.375480e-08	3.337118e+01	1.553902e+03
2.130000e-06	4.503807e-06	2.355572e-08	3.257566e+01	1.541023e+03
2.140000e-06	4.392175e-06	2.335704e-08	3.176824e+01	1.527838e+03
2.150000e-06	4.278758e-06	2.315309e-08	3.094790e+01	1.514330e+03
2.160000e-06	4.163624e-06	2.293858e-08	3.011515e+01	1.500438e+03
2.170000e-06	4.046724e-06	2.271930e-08	2.926962e+01	1.486061e+03
2.180000e-06	3.928199e-06	2.247726e-08	2.841234e+01	1.471068e+03
2.190000e-06	3.808157e-06	2.222694e-08	2.754409e+01	1.455311e+03
2.200000e-06	3.686673e-06	2.196209e-08	2.666540e+01	1.438649e+03
2.210000e-06	3.563901e-06	2.169680e-08	2.577740e+01	1.420958e+03
2.220000e-06	3.439785e-06	2.141272e-08	2.487968e+01	1.402152e+03
2.230000e-06	3.314315e-06	2.111599e-08	2.397216e+01	1.382187e+03
2.240000e-06	3.187648e-06	2.079962e-08	2.305599e+01	1.361066e+03
2.250000e-06	3.059828e-06	2.047131e-08	2.213148e+01	1.338825e+03
2.260000e-06	2.930808e-06	2.013019e-08	2.119829e+01	1.315518e+03
2.270000e-06	2.800768e-06	1.977398e-08	2.025773e+01	1.291197e+03
2.280000e-06	2.669866e-06	1.939879e-08	1.931092e+01	1.265884e+03
2.290000e-06	2.537923e-06	1.899735e-08	1.835659e+01	1.239551e+03
2.300000e-06	2.404963e-06	1.857045e-08	1.739490e+01	1.212095e+03
2.310000e-06	2.271193e-06	1.811611e-08	1.642735e+01	1.183337e+03
2.320000e-06	2.136679e-06	1.764120e-08	1.545442e+01	1.153017e+03
2.330000e-06	2.001436e-06	1.713585e-08	1.447622e+01	1.120810e+03
2.340000e-06	1.865536e-06	1.659593e-08	1.349326e+01	1.086349e+03
2.350000e-06	1.728993e-06	1.601957e-08	1.250567e+01	1.049261e+03
2.360000e-06	1.591797e-06	1.540588e-08	1.151333e+01	1.009201e+03
2.370000e-06	1.454080e-06	1.475199e-08	1.051724e+01	9.658904e+02
2.380000e-06	1.315925e-06	1.405524e-08	9.517980e+00	9.191474e+02
2.390000e-06	1.177355e-06	1.331270e-08	8.515715e+00	8.689087e+02
2.400000e-06	1.038346e-06	1.251776e-08	7.510274e+00	8.152372e+02
2.410000e-06	8.988681e-07	1.166623e-08	6.501439e+00	7.583152e+02
2.420000e-06	7.590569e-07	1.075941e-08	5.490196e+00	6.984231e+02
2.430000e-06	6.190096e-07	9.801804e-09	4.477246e+00	6.359068e+02
2.440000e-06	4.787160e-07	8.798126e-09	3.462513e+00	5.711379e+02
2.450000e-06	3.382382e-07	7.755076e-09	2.446449e+00	5.044716e+02
2.460000e-06	1.976385e-07	6.681385e-09	1.429503e+00	4.362096e+02
2.470000e-06	5.686209e-08	5.588490e-09	4.112788e-01	3.665718e+02
2.480000e-06	-8.398836e-08	4.486130e-09	-6.074809e-01	2.956830e+02
2.490000e-06	-2.247753e-07	3.379812e-09	-1.625781e+00	2.235750e+02
2.500000e-06	-3.654440e-07	2.270419e-09	-2.643226e+00	1.502062e+02
2.510000e-06	-5.059645e-07	1.154872e-09	-3.659600e+00	7.549475e+01
2.520000e-06	-6.463161e-07	2.628709e-11	-4.674751e+00	-6.373495e-01
2.530000e-06	-7.864438e-07	-1.123672e-09	-5.688284e+00	-7.821683e+01
2.540000e-06	-9.263039e-07	-2.302291e-09	-6.699880e+00	-1.571738e+02
2.550000e-06	-1.065789e-06	-3.513804e-09	-7.708762e+00	-2.373054e+02
2.560000e-06	-1.204812e-06	-4.757240e-09	-8.714306e+00	-3.182546e+02
2.570000e-06	-1.343391e-06	-6.023803e-09	-9.716634e+00	-3.995069e+02
2.580000e-06	-1.481497e-06	-7.296751e-09	-1.071555e+01	-4.804067e+02
2.590000e-06	-1.619099e-06	-8.555243e-09	-1.171081e+01	-5.601929e+02
2.600000e-06	-1.756154e-06	-9.775750e-09	-1.270212e+01	-6.380491e+02
2.610000e-06	-1.892468e-06	-1.093875e-08	-1.368807e+01	-7.131631e+02
2.620000e-06	-2.027964e-06	-1.203009e-08	-1.466810e+01	-7.847890e+02
2.630000e-06	-2.162656e-06	-1.304436e-08	-1.564231e+01	-8.523051e+02
2.640000e-06	-2.296560e-06	-1.398176e-08	-1.661083e+01	-9.152597e+02
2.650000e-06	-2.429560e-06	-1.484440e-08	-1.757281e+01	-9.734006e+02
2.660000e-06	-2.561573e-06	-1.563810e-08	-1.852765e+01	-1.026685e+03
2.670000e-06	-2.692669e-06	-1.636830e-08	-1.947586e+01	-1.075269e+03
2.680000e-06	-2.822832e-06	-1.704377e-08	-2.041731e+01	-1.119478e+03
2.690000e-06	-2.952038e-06	-1.767225e-08	-2.135185e+01	-1.159764e+03
2.700000e-06	-3.080174e-06	-1.825630e-08	-2.227865e+01	-1.196652e+03
2.710000e-06	-3.207250e-06	-1.880019e-08	-2.319777e+01	-1.230686e+03
2.720000e-06	-3.333178e-06	-1.930554e-08	-2.410860e+01	-1.262376e+03
2.730000e-06	-3.457815e-06	-1.977543e-08	-2.501009e+01	-1.292163e+03
2.740000e-06	-3.581171e-06	-2.021477e-08	-2.590231e+01	-1.320384e+03
2.750000e-06	-3.703311e-06	-2.062503e-08	-2.678574e+01	-1.347269e+03
2.760000e-06	-3.824180e-06	-2.101130e-08	-2.765998e+01	-1.372937e+03
2.770000e-06	-3.943578e-06	-2.137480e-08	-2.852358e+01	-1.397421e+03
2.780000e-06	-4.061447e-06	-2.171575e-08	-2.937611e+01	-1.420691e+03
2.790000e-06	-4.177740e-06	-2.203746e-08	-3.021725e+01	-1.442688e+03
2.800000e-06	-4.292352e-06	-2.234186e-08	-3.104623e+01	-1.463352e+03
2.810000e-06	-4.405196e-06	-2.263106e-08	-3.186242e+01	-1.482655e+03
2.820000e-06	-4.516280e-06	-2.290318e-08	-3.266588e+01	-1.500611e+03
2.830000e-06	-4.625756e-06	-2.315931e-08	-3.345771e+01	-1.517292e+03
2.840000e-06	-4.733779e-06	-2.340283e-08	-3.423903e+01	-1.532817e+03
2.850000e-06	-4.840291e-06	-2.363463e-08	-3.500943e+01	-1.547345e+03
2.860000e-06	-4.945125e-06	-2.385547e-08	-3.576769e+01	-1.561054e+03
2.870000e-06	-5.048072e-06	-2.406572e-08	-3.651229e+01	-1.574119e+03
2.880000e-06	-5.149034e-06	-2.426736e-08	-3.724254e+01	-1.586691e+03
2.890000e-06	-5.248113e-06	-2.446072e-08	-3.795917e+01	-1.598881e+03
2.900000e-06	-5.345418e-06	-2.464204e-08	-3.866297e+01	-1.610750e+03
2.910000e-06	-5.440826e-06	-2.481208e-08	-3.935305e+01	-1.622303e+03
2.920000e-06	-5.534166e-06	-2.497373e-08	-4.002817e+01	-1.633502e+03
2.930000e-06	-5.625502e-06	-2.512783e-08	-4.068879e+01	-1.644276e+03
2.940000e-06	-5.714934e-06	-2.527538e-08	-4.133564e+01	-1.654538e+03
