# Temperatura_=_62.96
# Concentracion g/m^3_=_28370.0
# C_Vs_to_Am_M_A/Vsm_=_65563218390.804596
# pendiente_HvsI_1/m_=_3716.3
# ordenada_HvsI_A/m_=_1297.0
# frecuencia_Hz_=_302395.79954019893

Tiempo_(s)	Campo_(V.s)	Magnetizacion_(V.s)	Campo_(kA/m)	Magnetizacion_(A/m)
0.000000e+00	-7.296524e-06	-2.655489e-08	-5.318524e+01	-1.738065e+03
1.000000e-08	-7.293165e-06	-2.655386e-08	-5.316075e+01	-1.737254e+03
2.000000e-08	-7.287450e-06	-2.654138e-08	-5.311910e+01	-1.736328e+03
3.000000e-08	-7.279477e-06	-2.652475e-08	-5.306098e+01	-1.735341e+03
4.000000e-08	-7.268936e-06	-2.650887e-08	-5.298414e+01	-1.734330e+03
5.000000e-08	-7.255663e-06	-2.649116e-08	-5.288740e+01	-1.733314e+03
6.000000e-08	-7.239662e-06	-2.646856e-08	-5.277076e+01	-1.732289e+03
7.000000e-08	-7.221296e-06	-2.644141e-08	-5.263689e+01	-1.731230e+03
8.000000e-08	-7.200885e-06	-2.641315e-08	-5.248812e+01	-1.730097e+03
9.000000e-08	-7.178047e-06	-2.644889e-08	-5.232165e+01	-1.728843e+03
1.000000e-07	-7.152268e-06	-2.645573e-08	-5.213374e+01	-1.727421e+03
1.100000e-07	-7.123592e-06	-2.636445e-08	-5.192471e+01	-1.725795e+03
1.200000e-07	-7.092419e-06	-2.630306e-08	-5.169749e+01	-1.723943e+03
1.300000e-07	-7.058788e-06	-2.627350e-08	-5.145235e+01	-1.721862e+03
1.400000e-07	-7.022915e-06	-2.620723e-08	-5.119087e+01	-1.719567e+03
1.500000e-07	-6.985192e-06	-2.612414e-08	-5.091590e+01	-1.717084e+03
1.600000e-07	-6.945431e-06	-2.618983e-08	-5.062608e+01	-1.714447e+03
1.700000e-07	-6.903187e-06	-2.617298e-08	-5.031816e+01	-1.711690e+03
1.800000e-07	-6.858544e-06	-2.599699e-08	-4.999275e+01	-1.708835e+03
1.900000e-07	-6.811457e-06	-2.603844e-08	-4.964953e+01	-1.705886e+03
2.000000e-07	-6.761553e-06	-2.597044e-08	-4.928577e+01	-1.702830e+03
2.100000e-07	-6.708885e-06	-2.586269e-08	-4.890186e+01	-1.699633e+03
2.200000e-07	-6.653642e-06	-2.585190e-08	-4.849919e+01	-1.696243e+03
2.300000e-07	-6.595881e-06	-2.575900e-08	-4.807817e+01	-1.692600e+03
2.400000e-07	-6.535681e-06	-2.572374e-08	-4.763936e+01	-1.688647e+03
2.500000e-07	-6.473157e-06	-2.562397e-08	-4.718362e+01	-1.684332e+03
2.600000e-07	-6.408221e-06	-2.555940e-08	-4.671029e+01	-1.679623e+03
2.700000e-07	-6.340799e-06	-2.550587e-08	-4.621884e+01	-1.674513e+03
2.800000e-07	-6.271024e-06	-2.540675e-08	-4.571024e+01	-1.669018e+03
2.900000e-07	-6.198913e-06	-2.531674e-08	-4.518462e+01	-1.663179e+03
3.000000e-07	-6.124280e-06	-2.522968e-08	-4.464061e+01	-1.657052e+03
3.100000e-07	-6.047077e-06	-2.516876e-08	-4.407787e+01	-1.650698e+03
3.200000e-07	-5.967350e-06	-2.505278e-08	-4.349673e+01	-1.644174e+03
3.300000e-07	-5.885323e-06	-2.495358e-08	-4.289883e+01	-1.637521e+03
3.400000e-07	-5.801334e-06	-2.486093e-08	-4.228662e+01	-1.630755e+03
3.500000e-07	-5.715480e-06	-2.472472e-08	-4.166082e+01	-1.623860e+03
3.600000e-07	-5.627738e-06	-2.461958e-08	-4.102125e+01	-1.616792e+03
3.700000e-07	-5.537984e-06	-2.451099e-08	-4.036703e+01	-1.609482e+03
3.800000e-07	-5.446206e-06	-2.438342e-08	-3.969805e+01	-1.601843e+03
3.900000e-07	-5.352503e-06	-2.424313e-08	-3.901503e+01	-1.593784e+03
4.000000e-07	-5.256896e-06	-2.411000e-08	-3.831815e+01	-1.585223e+03
4.100000e-07	-5.159407e-06	-2.397520e-08	-3.760754e+01	-1.576099e+03
4.200000e-07	-5.060065e-06	-2.382607e-08	-3.688342e+01	-1.566381e+03
4.300000e-07	-4.958921e-06	-2.368176e-08	-3.614617e+01	-1.556069e+03
4.400000e-07	-4.856024e-06	-2.352458e-08	-3.539614e+01	-1.545196e+03
4.500000e-07	-4.751386e-06	-2.335365e-08	-3.463342e+01	-1.533817e+03
4.600000e-07	-4.645017e-06	-2.317343e-08	-3.385808e+01	-1.522000e+03
4.700000e-07	-4.537003e-06	-2.299554e-08	-3.307076e+01	-1.509808e+03
4.800000e-07	-4.427404e-06	-2.281554e-08	-3.227188e+01	-1.497288e+03
4.900000e-07	-4.316277e-06	-2.261926e-08	-3.146186e+01	-1.484455e+03
5.000000e-07	-4.203533e-06	-2.240944e-08	-3.064006e+01	-1.471284e+03
5.100000e-07	-4.088975e-06	-2.218983e-08	-2.980503e+01	-1.457711e+03
5.200000e-07	-3.972701e-06	-2.196448e-08	-2.895749e+01	-1.443634e+03
5.300000e-07	-3.854936e-06	-2.173057e-08	-2.809909e+01	-1.428923e+03
5.400000e-07	-3.735818e-06	-2.148867e-08	-2.723083e+01	-1.413439e+03
5.500000e-07	-3.615380e-06	-2.123525e-08	-2.635294e+01	-1.397048e+03
5.600000e-07	-3.493495e-06	-2.096560e-08	-2.546451e+01	-1.379639e+03
5.700000e-07	-3.370166e-06	-2.068150e-08	-2.456555e+01	-1.361134e+03
5.800000e-07	-3.245549e-06	-2.038428e-08	-2.365719e+01	-1.341501e+03
5.900000e-07	-3.119764e-06	-2.007876e-08	-2.274033e+01	-1.320743e+03
6.000000e-07	-2.992902e-06	-1.975890e-08	-2.181562e+01	-1.298898e+03
6.100000e-07	-2.865008e-06	-1.941926e-08	-2.088339e+01	-1.276014e+03
6.200000e-07	-2.736082e-06	-1.905887e-08	-1.994363e+01	-1.252134e+03
6.300000e-07	-2.606038e-06	-1.868020e-08	-1.899572e+01	-1.227266e+03
6.400000e-07	-2.474918e-06	-1.828267e-08	-1.803998e+01	-1.201363e+03
6.500000e-07	-2.342912e-06	-1.786056e-08	-1.707776e+01	-1.174310e+03
6.600000e-07	-2.210188e-06	-1.741495e-08	-1.611032e+01	-1.145913e+03
6.700000e-07	-2.076772e-06	-1.694303e-08	-1.513784e+01	-1.115904e+03
6.800000e-07	-1.942549e-06	-1.644311e-08	-1.415947e+01	-1.083957e+03
6.900000e-07	-1.807587e-06	-1.590969e-08	-1.317572e+01	-1.049714e+03
7.000000e-07	-1.672082e-06	-1.534091e-08	-1.218801e+01	-1.012814e+03
7.100000e-07	-1.536111e-06	-1.473353e-08	-1.119690e+01	-9.729386e+02
7.200000e-07	-1.399645e-06	-1.408210e-08	-1.020218e+01	-9.298380e+02
7.300000e-07	-1.262619e-06	-1.338692e-08	-9.203383e+00	-8.833657e+02
7.400000e-07	-1.125055e-06	-1.264369e-08	-8.200661e+00	-8.334956e+02
7.500000e-07	-9.870416e-07	-1.185175e-08	-7.194664e+00	-7.803270e+02
7.600000e-07	-8.486924e-07	-1.101314e-08	-6.186220e+00	-7.240754e+02
7.700000e-07	-7.100356e-07	-1.012642e-08	-5.175534e+00	-6.650489e+02
7.800000e-07	-5.710908e-07	-9.188127e-09	-4.162750e+00	-6.036141e+02
7.900000e-07	-4.319080e-07	-8.205684e-09	-3.148229e+00	-5.401549e+02
8.000000e-07	-2.924710e-07	-7.187763e-09	-2.131856e+00	-4.750306e+02
8.100000e-07	-1.528347e-07	-6.143626e-09	-1.114031e+00	-4.085389e+02
8.200000e-07	-1.309759e-08	-5.085509e-09	-9.546993e-02	-3.408889e+02
8.300000e-07	1.266447e-07	-4.024030e-09	9.231284e-01	-2.721888e+02
8.400000e-07	2.663598e-07	-2.964959e-09	1.941528e+00	-2.024497e+02
8.500000e-07	4.060864e-07	-1.903801e-09	2.960012e+00	-1.316063e+02
8.600000e-07	5.456406e-07	-8.358279e-10	3.977240e+00	-5.955174e+01
8.700000e-07	6.849023e-07	2.462709e-10	4.992335e+00	1.381833e+01
8.800000e-07	8.238942e-07	1.351062e-09	6.005464e+00	8.855712e+01
8.900000e-07	9.625619e-07	2.487681e-09	7.016229e+00	1.646215e+02
9.000000e-07	1.100851e-06	3.658518e-09	8.024235e+00	2.418360e+02
9.100000e-07	1.238748e-06	4.856917e-09	9.029385e+00	3.198710e+02
9.200000e-07	1.376220e-06	6.074155e-09	1.003143e+01	3.982400e+02
9.300000e-07	1.513145e-06	7.294847e-09	1.102950e+01	4.763158e+02
9.400000e-07	1.649439e-06	8.499873e-09	1.202296e+01	5.533653e+02
9.500000e-07	1.785057e-06	9.667407e-09	1.301149e+01	6.285990e+02
9.600000e-07	1.920007e-06	1.078021e-08	1.399516e+01	7.012292e+02
9.700000e-07	2.054289e-06	1.182542e-08	1.497396e+01	7.705314e+02
9.800000e-07	2.187803e-06	1.279681e-08	1.594716e+01	8.359003e+02
9.900000e-07	2.320559e-06	1.369574e-08	1.691483e+01	8.968944e+02
1.000000e-06	2.452548e-06	1.452662e-08	1.787692e+01	9.532656e+02
1.010000e-06	2.583531e-06	1.529188e-08	1.883167e+01	1.004968e+03
1.020000e-06	2.713442e-06	1.599630e-08	1.977860e+01	1.052148e+03
1.030000e-06	2.842330e-06	1.664677e-08	2.071808e+01	1.095115e+03
1.040000e-06	2.970127e-06	1.724977e-08	2.164961e+01	1.134301e+03
1.050000e-06	3.096821e-06	1.780916e-08	2.257310e+01	1.170209e+03
1.060000e-06	3.222427e-06	1.833089e-08	2.348866e+01	1.203359e+03
1.070000e-06	3.347025e-06	1.881777e-08	2.439687e+01	1.234240e+03
1.080000e-06	3.470533e-06	1.927153e-08	2.529713e+01	1.263272e+03
1.090000e-06	3.592670e-06	1.969549e-08	2.618740e+01	1.290779e+03
1.100000e-06	3.713424e-06	2.009221e-08	2.706759e+01	1.316977e+03
1.110000e-06	3.832817e-06	2.046557e-08	2.793786e+01	1.341983e+03
1.120000e-06	3.950848e-06	2.081859e-08	2.879820e+01	1.365826e+03
1.130000e-06	4.067550e-06	2.115220e-08	2.964886e+01	1.388479e+03
1.140000e-06	4.182679e-06	2.146605e-08	3.048805e+01	1.409886e+03
1.150000e-06	4.296126e-06	2.176054e-08	3.131498e+01	1.429993e+03
1.160000e-06	4.407939e-06	2.203758e-08	3.213000e+01	1.448774e+03
1.170000e-06	4.518161e-06	2.229983e-08	3.293342e+01	1.466247e+03
1.180000e-06	4.626950e-06	2.254933e-08	3.372639e+01	1.482481e+03
1.190000e-06	4.734163e-06	2.278847e-08	3.450789e+01	1.497594e+03
1.200000e-06	4.839548e-06	2.301608e-08	3.527604e+01	1.511739e+03
1.210000e-06	4.943117e-06	2.323120e-08	3.603097e+01	1.525086e+03
1.220000e-06	5.044976e-06	2.343280e-08	3.677343e+01	1.537802e+03
1.230000e-06	5.145044e-06	2.362335e-08	3.750285e+01	1.550031e+03
1.240000e-06	5.243162e-06	2.380333e-08	3.821804e+01	1.561875e+03
1.250000e-06	5.339274e-06	2.397517e-08	3.891861e+01	1.573391e+03
1.260000e-06	5.433469e-06	2.413975e-08	3.960521e+01	1.584581e+03
1.270000e-06	5.525825e-06	2.429784e-08	4.027840e+01	1.595409e+03
1.280000e-06	5.616181e-06	2.444956e-08	4.093701e+01	1.605804e+03
1.290000e-06	5.704402e-06	2.459356e-08	4.158007e+01	1.615684e+03
1.300000e-06	5.790557e-06	2.473094e-08	4.220807e+01	1.624969e+03
1.310000e-06	5.874751e-06	2.486091e-08	4.282176e+01	1.633603e+03
1.320000e-06	5.956858e-06	2.498384e-08	4.342025e+01	1.641562e+03
1.330000e-06	6.036733e-06	2.509965e-08	4.400247e+01	1.648862e+03
1.340000e-06	6.114438e-06	2.520718e-08	4.456887e+01	1.655557e+03
1.350000e-06	6.189879e-06	2.530738e-08	4.511877e+01	1.661734e+03
1.360000e-06	6.262874e-06	2.540131e-08	4.565084e+01	1.667498e+03
1.370000e-06	6.333531e-06	2.549016e-08	4.616586e+01	1.672961e+03
1.380000e-06	6.401989e-06	2.557530e-08	4.666487e+01	1.678223e+03
1.390000e-06	6.468157e-06	2.565674e-08	4.714717e+01	1.683357e+03
1.400000e-06	6.531959e-06	2.573406e-08	4.761223e+01	1.688409e+03
1.410000e-06	6.593549e-06	2.580622e-08	4.806117e+01	1.693382e+03
1.420000e-06	6.652953e-06	2.587355e-08	4.849417e+01	1.698250e+03
1.430000e-06	6.709993e-06	2.593750e-08	4.890994e+01	1.702958e+03
1.440000e-06	6.764611e-06	2.599976e-08	4.930806e+01	1.707436e+03
1.450000e-06	6.816618e-06	2.605961e-08	4.968714e+01	1.711613e+03
1.460000e-06	6.865770e-06	2.611627e-08	5.004542e+01	1.715429e+03
1.470000e-06	6.912249e-06	2.616907e-08	5.038421e+01	1.718848e+03
1.480000e-06	6.956407e-06	2.621749e-08	5.070608e+01	1.721858e+03
1.490000e-06	6.998122e-06	2.626245e-08	5.101015e+01	1.724482e+03
1.500000e-06	7.037221e-06	2.630276e-08	5.129515e+01	1.726764e+03
1.510000e-06	7.073941e-06	2.633809e-08	5.156281e+01	1.728769e+03
1.520000e-06	7.108188e-06	2.637101e-08	5.181244e+01	1.730568e+03
1.530000e-06	7.139786e-06	2.640161e-08	5.204275e+01	1.732228e+03
1.540000e-06	7.168947e-06	2.642816e-08	5.225531e+01	1.733802e+03
1.550000e-06	7.195607e-06	2.645095e-08	5.244964e+01	1.735319e+03
1.560000e-06	7.219580e-06	2.647123e-08	5.262438e+01	1.736782e+03
1.570000e-06	7.240985e-06	2.648927e-08	5.278041e+01	1.738169e+03
1.580000e-06	7.259905e-06	2.650321e-08	5.291832e+01	1.739438e+03
1.590000e-06	7.276133e-06	2.651344e-08	5.303660e+01	1.740535e+03
1.600000e-06	7.289581e-06	2.652074e-08	5.313463e+01	1.741405e+03
1.610000e-06	7.300167e-06	2.652769e-08	5.321179e+01	1.742001e+03
1.620000e-06	7.307892e-06	2.653348e-08	5.326810e+01	1.742294e+03
1.630000e-06	7.313059e-06	2.653663e-08	5.330577e+01	1.742279e+03
1.640000e-06	7.315701e-06	2.653694e-08	5.332502e+01	1.741972e+03
1.650000e-06	7.315725e-06	2.653682e-08	5.332520e+01	1.741414e+03
1.660000e-06	7.313273e-06	2.652767e-08	5.330733e+01	1.740659e+03
1.670000e-06	7.308441e-06	2.651512e-08	5.327210e+01	1.739766e+03
1.680000e-06	7.301107e-06	2.650576e-08	5.321865e+01	1.738794e+03
1.690000e-06	7.291289e-06	2.649335e-08	5.314708e+01	1.737787e+03
1.700000e-06	7.278961e-06	2.648092e-08	5.305722e+01	1.736771e+03
1.710000e-06	7.264062e-06	2.647048e-08	5.294862e+01	1.735750e+03
1.720000e-06	7.246857e-06	2.646631e-08	5.282321e+01	1.734706e+03
1.730000e-06	7.227621e-06	2.644008e-08	5.268299e+01	1.733604e+03
1.740000e-06	7.205932e-06	2.632405e-08	5.252490e+01	1.732397e+03
1.750000e-06	7.181014e-06	2.630390e-08	5.234328e+01	1.731039e+03
1.760000e-06	7.152650e-06	2.634589e-08	5.213652e+01	1.729488e+03
1.770000e-06	7.121419e-06	2.631461e-08	5.190888e+01	1.727717e+03
1.780000e-06	7.088023e-06	2.630162e-08	5.166545e+01	1.725716e+03
1.790000e-06	7.052865e-06	2.636775e-08	5.140918e+01	1.723493e+03
1.800000e-06	7.016156e-06	2.625039e-08	5.114160e+01	1.721072e+03
1.810000e-06	6.977303e-06	2.611697e-08	5.085840e+01	1.718486e+03
1.820000e-06	6.935719e-06	2.623222e-08	5.055529e+01	1.715767e+03
1.830000e-06	6.891782e-06	2.610912e-08	5.023503e+01	1.712944e+03
1.840000e-06	6.845462e-06	2.613609e-08	4.989740e+01	1.710028e+03
1.850000e-06	6.796543e-06	2.614070e-08	4.954082e+01	1.707012e+03
1.860000e-06	6.745063e-06	2.596959e-08	4.916558e+01	1.703869e+03
1.870000e-06	6.690790e-06	2.600329e-08	4.876997e+01	1.700553e+03
1.880000e-06	6.634001e-06	2.584953e-08	4.835603e+01	1.697007e+03
1.890000e-06	6.574801e-06	2.583119e-08	4.792451e+01	1.693170e+03
1.900000e-06	6.512963e-06	2.579830e-08	4.747377e+01	1.688987e+03
1.910000e-06	6.448606e-06	2.564836e-08	4.700466e+01	1.684420e+03
1.920000e-06	6.381858e-06	2.565539e-08	4.651813e+01	1.679452e+03
1.930000e-06	6.312812e-06	2.552522e-08	4.601485e+01	1.674090e+03
1.940000e-06	6.241321e-06	2.547280e-08	4.549373e+01	1.668367e+03
1.950000e-06	6.167376e-06	2.537061e-08	4.495474e+01	1.662334e+03
1.960000e-06	6.090939e-06	2.527292e-08	4.439758e+01	1.656053e+03
1.970000e-06	6.011933e-06	2.521692e-08	4.382170e+01	1.649583e+03
1.980000e-06	5.930718e-06	2.506345e-08	4.322971e+01	1.642972e+03
1.990000e-06	5.847511e-06	2.502353e-08	4.262321e+01	1.636245e+03
2.000000e-06	5.762247e-06	2.489336e-08	4.200171e+01	1.629398e+03
2.010000e-06	5.674839e-06	2.477961e-08	4.136458e+01	1.622398e+03
2.020000e-06	5.585409e-06	2.465494e-08	4.071272e+01	1.615183e+03
2.030000e-06	5.494061e-06	2.453264e-08	4.004687e+01	1.607670e+03
2.040000e-06	5.400744e-06	2.443119e-08	3.936667e+01	1.599770e+03
2.050000e-06	5.305437e-06	2.428150e-08	3.867197e+01	1.591395e+03
2.060000e-06	5.208292e-06	2.416270e-08	3.796387e+01	1.582477e+03
2.070000e-06	5.109464e-06	2.399797e-08	3.724350e+01	1.572972e+03
2.080000e-06	5.008902e-06	2.385200e-08	3.651048e+01	1.562869e+03
2.090000e-06	4.906466e-06	2.368859e-08	3.576382e+01	1.552189e+03
2.100000e-06	4.802160e-06	2.353656e-08	3.500352e+01	1.540983e+03
2.110000e-06	4.696253e-06	2.337075e-08	3.423155e+01	1.529313e+03
2.120000e-06	4.588895e-06	2.318636e-08	3.344901e+01	1.517247e+03
2.130000e-06	4.479964e-06	2.299871e-08	3.265500e+01	1.504840e+03
2.140000e-06	4.369346e-06	2.280422e-08	3.184869e+01	1.492118e+03
2.150000e-06	4.256989e-06	2.261407e-08	3.102971e+01	1.479072e+03
2.160000e-06	4.142959e-06	2.240560e-08	3.019853e+01	1.465651e+03
2.170000e-06	4.027234e-06	2.219425e-08	2.935499e+01	1.451767e+03
2.180000e-06	3.909811e-06	2.195745e-08	2.849908e+01	1.437297e+03
2.190000e-06	3.790795e-06	2.171558e-08	2.763156e+01	1.422104e+03
2.200000e-06	3.670308e-06	2.145948e-08	2.675331e+01	1.406050e+03
2.210000e-06	3.548489e-06	2.120208e-08	2.586536e+01	1.389014e+03
2.220000e-06	3.425373e-06	2.093150e-08	2.496795e+01	1.370905e+03
2.230000e-06	3.301070e-06	2.064725e-08	2.406189e+01	1.351675e+03
2.240000e-06	3.175554e-06	2.034767e-08	2.314700e+01	1.331315e+03
2.250000e-06	3.048747e-06	2.003172e-08	2.222269e+01	1.309851e+03
2.260000e-06	2.920778e-06	1.970145e-08	2.128990e+01	1.287332e+03
2.270000e-06	2.791771e-06	1.935024e-08	2.034955e+01	1.263804e+03
2.280000e-06	2.661793e-06	1.898293e-08	1.940213e+01	1.239289e+03
2.290000e-06	2.530826e-06	1.859421e-08	1.844749e+01	1.213764e+03
2.300000e-06	2.398959e-06	1.818536e-08	1.748630e+01	1.187139e+03
2.310000e-06	2.266354e-06	1.774879e-08	1.651973e+01	1.159248e+03
2.320000e-06	2.133011e-06	1.728931e-08	1.554777e+01	1.129848e+03
2.330000e-06	1.998871e-06	1.679877e-08	1.457001e+01	1.098633e+03
2.340000e-06	1.863984e-06	1.627410e-08	1.358681e+01	1.065250e+03
2.350000e-06	1.728444e-06	1.571509e-08	1.259883e+01	1.029337e+03
2.360000e-06	1.592321e-06	1.512123e-08	1.160662e+01	9.905565e+02
2.370000e-06	1.455688e-06	1.448971e-08	1.061069e+01	9.486291e+02
2.380000e-06	1.318622e-06	1.381266e-08	9.611596e+00	9.033693e+02
2.390000e-06	1.181164e-06	1.308988e-08	8.609648e+00	8.547066e+02
2.400000e-06	1.043323e-06	1.231752e-08	7.604909e+00	8.026958e+02
2.410000e-06	9.050671e-07	1.149286e-08	6.597143e+00	7.475129e+02
2.420000e-06	7.664403e-07	1.061857e-08	5.586675e+00	6.894364e+02
2.430000e-06	6.275719e-07	9.696199e-09	4.574447e+00	6.288165e+02
2.440000e-06	4.884745e-07	8.727972e-09	3.560549e+00	5.660357e+02
2.450000e-06	3.491965e-07	7.718944e-09	2.545335e+00	5.014669e+02
2.460000e-06	2.097952e-07	6.679717e-09	1.529222e+00	4.354334e+02
2.470000e-06	7.025343e-08	5.620819e-09	5.120857e-01	3.681782e+02
2.480000e-06	-6.936573e-08	4.553018e-09	-5.056151e-01	2.998459e+02
2.490000e-06	-2.089672e-07	3.483003e-09	-1.523187e+00	2.304808e+02
2.500000e-06	-3.484855e-07	2.411554e-09	-2.540152e+00	1.600417e+02
2.510000e-06	-4.879078e-07	1.337470e-09	-3.556418e+00	8.843161e+01
2.520000e-06	-6.271969e-07	2.549713e-10	-4.571713e+00	1.553998e+01
2.530000e-06	-7.662526e-07	-8.439174e-10	-5.585307e+00	-5.871020e+01
2.540000e-06	-9.050035e-07	-1.969382e-09	-6.596679e+00	-1.343150e+02
2.550000e-06	-1.043384e-06	-3.127858e-09	-7.605348e+00	-2.111495e+02
2.560000e-06	-1.181313e-06	-4.319890e-09	-8.610734e+00	-2.889404e+02
2.570000e-06	-1.318827e-06	-5.537405e-09	-9.613091e+00	-3.672566e+02
2.580000e-06	-1.455982e-06	-6.766063e-09	-1.061283e+01	-4.455178e+02
2.590000e-06	-1.592692e-06	-7.988833e-09	-1.160932e+01	-5.230239e+02
2.600000e-06	-1.728803e-06	-9.182832e-09	-1.260145e+01	-5.989991e+02
2.610000e-06	-1.864151e-06	-1.032732e-08	-1.358802e+01	-6.726480e+02
2.620000e-06	-1.998710e-06	-1.140746e-08	-1.456883e+01	-7.432168e+02
2.630000e-06	-2.132441e-06	-1.241501e-08	-1.554362e+01	-8.100515e+02
2.640000e-06	-2.265362e-06	-1.334748e-08	-1.651249e+01	-8.726482e+02
2.650000e-06	-2.397532e-06	-1.420693e-08	-1.747590e+01	-9.306873e+02
2.660000e-06	-2.528836e-06	-1.500050e-08	-1.843299e+01	-9.840511e+02
2.670000e-06	-2.659144e-06	-1.573281e-08	-1.938282e+01	-1.032819e+03
2.680000e-06	-2.788511e-06	-1.640959e-08	-2.032579e+01	-1.077248e+03
2.690000e-06	-2.916952e-06	-1.703828e-08	-2.126201e+01	-1.117731e+03
2.700000e-06	-3.044261e-06	-1.762179e-08	-2.218998e+01	-1.154751e+03
2.710000e-06	-3.170390e-06	-1.816483e-08	-2.310936e+01	-1.188828e+03
2.720000e-06	-3.295421e-06	-1.866914e-08	-2.402072e+01	-1.220468e+03
2.730000e-06	-3.419268e-06	-1.913726e-08	-2.492345e+01	-1.250119e+03
2.740000e-06	-3.541769e-06	-1.957585e-08	-2.581638e+01	-1.278141e+03
2.750000e-06	-3.663007e-06	-1.998574e-08	-2.670010e+01	-1.304789e+03
2.760000e-06	-3.782979e-06	-2.037234e-08	-2.757459e+01	-1.330215e+03
2.770000e-06	-3.901454e-06	-2.073540e-08	-2.843817e+01	-1.354475e+03
2.780000e-06	-4.018433e-06	-2.107478e-08	-2.929084e+01	-1.377560e+03
2.790000e-06	-4.133896e-06	-2.139372e-08	-3.013246e+01	-1.399420e+03
2.800000e-06	-4.247663e-06	-2.169463e-08	-3.096173e+01	-1.419998e+03
2.810000e-06	-4.359686e-06	-2.198156e-08	-3.177827e+01	-1.439254e+03
2.820000e-06	-4.469981e-06	-2.225269e-08	-3.258223e+01	-1.457190e+03
2.830000e-06	-4.578731e-06	-2.250938e-08	-3.337492e+01	-1.473856e+03
2.840000e-06	-4.686075e-06	-2.275305e-08	-3.415736e+01	-1.489355e+03
2.850000e-06	-4.791935e-06	-2.298393e-08	-3.492899e+01	-1.503827e+03
2.860000e-06	-4.896133e-06	-2.320226e-08	-3.568850e+01	-1.517441e+03
2.870000e-06	-4.998426e-06	-2.340948e-08	-3.643412e+01	-1.530365e+03
2.880000e-06	-5.098780e-06	-2.360745e-08	-3.716562e+01	-1.542755e+03
2.890000e-06	-5.197330e-06	-2.379659e-08	-3.788396e+01	-1.554729e+03
2.900000e-06	-5.294084e-06	-2.397701e-08	-3.858921e+01	-1.566360e+03
2.910000e-06	-5.388899e-06	-2.414807e-08	-3.928033e+01	-1.577670e+03
2.920000e-06	-5.481767e-06	-2.430762e-08	-3.995725e+01	-1.588636e+03
2.930000e-06	-5.572717e-06	-2.445823e-08	-4.062020e+01	-1.599196e+03
2.940000e-06	-5.661654e-06	-2.460229e-08	-4.126848e+01	-1.609270e+03
