# Temperatura_=_38.26
# Concentracion g/m^3_=_28370.0
# C_Vs_to_Am_M_A/Vsm_=_65563218390.804596
# pendiente_HvsI_1/m_=_3716.3
# ordenada_HvsI_A/m_=_1297.0
# frecuencia_Hz_=_302401.7687894521

Tiempo_(s)	Campo_(V.s)	Magnetizacion_(V.s)	Campo_(kA/m)	Magnetizacion_(A/m)
0.000000e+00	-7.328518e-06	-2.612482e-08	-5.318079e+01	-1.709792e+03
1.000000e-08	-7.324848e-06	-2.612330e-08	-5.315416e+01	-1.709012e+03
2.000000e-08	-7.318785e-06	-2.611190e-08	-5.311016e+01	-1.708123e+03
3.000000e-08	-7.310360e-06	-2.609706e-08	-5.304903e+01	-1.707180e+03
4.000000e-08	-7.299376e-06	-2.607973e-08	-5.296932e+01	-1.706225e+03
5.000000e-08	-7.285660e-06	-2.606115e-08	-5.286978e+01	-1.705276e+03
6.000000e-08	-7.269234e-06	-2.604145e-08	-5.275058e+01	-1.704328e+03
7.000000e-08	-7.250537e-06	-2.601897e-08	-5.261491e+01	-1.703355e+03
8.000000e-08	-7.229757e-06	-2.600505e-08	-5.246411e+01	-1.702314e+03
9.000000e-08	-7.206409e-06	-2.603674e-08	-5.229469e+01	-1.701151e+03
1.000000e-07	-7.180078e-06	-2.601513e-08	-5.210361e+01	-1.699817e+03
1.100000e-07	-7.150921e-06	-2.593454e-08	-5.189202e+01	-1.698269e+03
1.200000e-07	-7.119280e-06	-2.588752e-08	-5.166242e+01	-1.696485e+03
1.300000e-07	-7.085135e-06	-2.585692e-08	-5.141463e+01	-1.694458e+03
1.400000e-07	-7.048738e-06	-2.579454e-08	-5.115052e+01	-1.692207e+03
1.500000e-07	-7.010492e-06	-2.573603e-08	-5.087298e+01	-1.689761e+03
1.600000e-07	-6.970156e-06	-2.579319e-08	-5.058027e+01	-1.687162e+03
1.700000e-07	-6.927374e-06	-2.571318e-08	-5.026981e+01	-1.684449e+03
1.800000e-07	-6.882254e-06	-2.560029e-08	-4.994239e+01	-1.681655e+03
1.900000e-07	-6.834569e-06	-2.563847e-08	-4.959635e+01	-1.678791e+03
2.000000e-07	-6.783963e-06	-2.556117e-08	-4.922912e+01	-1.675851e+03
2.100000e-07	-6.730680e-06	-2.551160e-08	-4.884246e+01	-1.672805e+03
2.200000e-07	-6.674922e-06	-2.546372e-08	-4.843785e+01	-1.669602e+03
2.300000e-07	-6.616663e-06	-2.536666e-08	-4.801508e+01	-1.666181e+03
2.400000e-07	-6.555948e-06	-2.533210e-08	-4.757449e+01	-1.662477e+03
2.500000e-07	-6.492824e-06	-2.525168e-08	-4.711642e+01	-1.658435e+03
2.600000e-07	-6.427229e-06	-2.518323e-08	-4.664041e+01	-1.654013e+03
2.700000e-07	-6.359150e-06	-2.512335e-08	-4.614639e+01	-1.649196e+03
2.800000e-07	-6.288740e-06	-2.505161e-08	-4.563545e+01	-1.643995e+03
2.900000e-07	-6.215999e-06	-2.495257e-08	-4.510758e+01	-1.638443e+03
3.000000e-07	-6.140672e-06	-2.485697e-08	-4.456096e+01	-1.632597e+03
3.100000e-07	-6.062734e-06	-2.480524e-08	-4.399539e+01	-1.626519e+03
3.200000e-07	-5.982400e-06	-2.470724e-08	-4.341243e+01	-1.620269e+03
3.300000e-07	-5.899885e-06	-2.460909e-08	-4.281364e+01	-1.613895e+03
3.400000e-07	-5.815406e-06	-2.449999e-08	-4.220060e+01	-1.607418e+03
3.500000e-07	-5.729062e-06	-2.439089e-08	-4.157403e+01	-1.600830e+03
3.600000e-07	-5.640743e-06	-2.429787e-08	-4.093313e+01	-1.594093e+03
3.700000e-07	-5.550310e-06	-2.418148e-08	-4.027688e+01	-1.587138e+03
3.800000e-07	-5.457855e-06	-2.406296e-08	-3.960597e+01	-1.579880e+03
3.900000e-07	-5.363451e-06	-2.393715e-08	-3.892091e+01	-1.572224e+03
4.000000e-07	-5.267126e-06	-2.380759e-08	-3.822190e+01	-1.564084e+03
4.100000e-07	-5.168925e-06	-2.366824e-08	-3.750929e+01	-1.555391e+03
4.200000e-07	-5.068897e-06	-2.353789e-08	-3.678342e+01	-1.546105e+03
4.300000e-07	-4.967119e-06	-2.339698e-08	-3.604485e+01	-1.536219e+03
4.400000e-07	-4.863568e-06	-2.323386e-08	-3.529341e+01	-1.525760e+03
4.500000e-07	-4.758295e-06	-2.306714e-08	-3.452948e+01	-1.514779e+03
4.600000e-07	-4.651271e-06	-2.289975e-08	-3.375284e+01	-1.503342e+03
4.700000e-07	-4.542580e-06	-2.272849e-08	-3.296410e+01	-1.491514e+03
4.800000e-07	-4.432318e-06	-2.255231e-08	-3.216396e+01	-1.479346e+03
4.900000e-07	-4.320430e-06	-2.236879e-08	-3.135202e+01	-1.466859e+03
5.000000e-07	-4.206881e-06	-2.216134e-08	-3.052804e+01	-1.454033e+03
5.100000e-07	-4.091516e-06	-2.193890e-08	-2.969087e+01	-1.440809e+03
5.200000e-07	-3.974494e-06	-2.171491e-08	-2.884168e+01	-1.427087e+03
5.300000e-07	-3.856081e-06	-2.149045e-08	-2.798239e+01	-1.412741e+03
5.400000e-07	-3.736296e-06	-2.125261e-08	-2.711315e+01	-1.397627e+03
5.500000e-07	-3.615132e-06	-2.100092e-08	-2.623390e+01	-1.381608e+03
5.600000e-07	-3.492529e-06	-2.073867e-08	-2.534420e+01	-1.364566e+03
5.700000e-07	-3.368521e-06	-2.046226e-08	-2.444432e+01	-1.346417e+03
5.800000e-07	-3.243296e-06	-2.017297e-08	-2.353560e+01	-1.327120e+03
5.900000e-07	-3.116955e-06	-1.987221e-08	-2.261878e+01	-1.306673e+03
6.000000e-07	-2.989498e-06	-1.955604e-08	-2.169387e+01	-1.285108e+03
6.100000e-07	-2.860889e-06	-1.921478e-08	-2.076059e+01	-1.262473e+03
6.200000e-07	-2.731142e-06	-1.885377e-08	-1.981905e+01	-1.238810e+03
6.300000e-07	-2.600415e-06	-1.847790e-08	-1.887041e+01	-1.214127e+03
6.400000e-07	-2.468617e-06	-1.808547e-08	-1.791399e+01	-1.188383e+03
6.500000e-07	-2.335844e-06	-1.766989e-08	-1.695050e+01	-1.161462e+03
6.600000e-07	-2.202449e-06	-1.722672e-08	-1.598250e+01	-1.133172e+03
6.700000e-07	-2.068364e-06	-1.675403e-08	-1.500948e+01	-1.103244e+03
6.800000e-07	-1.933441e-06	-1.625192e-08	-1.403038e+01	-1.071351e+03
6.900000e-07	-1.797795e-06	-1.571875e-08	-1.304604e+01	-1.037128e+03
7.000000e-07	-1.661535e-06	-1.514872e-08	-1.205725e+01	-1.000215e+03
7.100000e-07	-1.524680e-06	-1.453847e-08	-1.106413e+01	-9.602893e+02
7.200000e-07	-1.387304e-06	-1.388543e-08	-1.006724e+01	-9.171043e+02
7.300000e-07	-1.249429e-06	-1.318915e-08	-9.066722e+00	-8.705233e+02
7.400000e-07	-1.111127e-06	-1.244402e-08	-8.063108e+00	-8.205384e+02
7.500000e-07	-9.724969e-07	-1.165184e-08	-7.057110e+00	-7.672770e+02
7.600000e-07	-8.335006e-07	-1.081425e-08	-6.048456e+00	-7.109929e+02
7.700000e-07	-6.941222e-07	-9.925601e-09	-5.037030e+00	-6.520419e+02
7.800000e-07	-5.543866e-07	-8.986677e-09	-4.023013e+00	-5.908446e+02
7.900000e-07	-4.143574e-07	-8.008430e-09	-3.006863e+00	-5.278417e+02
8.000000e-07	-2.741548e-07	-7.002172e-09	-1.989457e+00	-4.634476e+02
8.100000e-07	-1.337794e-07	-5.975799e-09	-9.707960e-01	-3.980073e+02
8.200000e-07	6.718066e-09	-4.941776e-09	4.875093e-02	-3.317645e+02
8.300000e-07	1.472149e-07	-3.909253e-09	1.068293e+00	-2.648439e+02
8.400000e-07	2.876958e-07	-2.882042e-09	2.087719e+00	-1.972520e+02
8.500000e-07	4.281247e-07	-1.856493e-09	3.106768e+00	-1.288951e+02
8.600000e-07	5.684036e-07	-8.271570e-10	4.124729e+00	-5.961443e+01
8.700000e-07	7.084119e-07	2.116200e-10	5.140726e+00	1.076750e+01
8.800000e-07	8.480527e-07	1.272372e-09	6.154056e+00	8.239416e+01
8.900000e-07	9.873149e-07	2.364086e-09	7.164640e+00	1.553238e+02
9.000000e-07	1.126186e-06	3.487780e-09	8.172381e+00	2.294860e+02
9.100000e-07	1.264655e-06	4.640686e-09	9.177211e+00	3.046529e+02
9.200000e-07	1.402665e-06	5.817374e-09	1.017871e+01	3.804282e+02
9.300000e-07	1.540136e-06	7.001923e-09	1.117629e+01	4.562575e+02
9.400000e-07	1.677017e-06	8.176259e-09	1.216960e+01	5.314578e+02
9.500000e-07	1.813178e-06	9.322035e-09	1.315767e+01	6.052647e+02
9.600000e-07	1.948620e-06	1.042143e-08	1.414054e+01	6.768898e+02
9.700000e-07	2.083329e-06	1.145980e-08	1.511808e+01	7.455836e+02
9.800000e-07	2.217193e-06	1.242735e-08	1.608948e+01	8.106956e+02
9.900000e-07	2.350310e-06	1.332609e-08	1.705547e+01	8.717240e+02
1.000000e-06	2.482678e-06	1.415965e-08	1.801603e+01	9.283514e+02
1.010000e-06	2.614052e-06	1.492794e-08	1.896937e+01	9.804600e+02
1.020000e-06	2.744324e-06	1.563658e-08	1.991471e+01	1.028128e+03
1.030000e-06	2.873581e-06	1.629359e-08	2.085269e+01	1.071605e+03
1.040000e-06	3.001826e-06	1.690471e-08	2.178333e+01	1.111275e+03
1.050000e-06	3.128918e-06	1.747108e-08	2.270559e+01	1.147607e+03
1.060000e-06	3.254889e-06	1.799574e-08	2.361973e+01	1.181101e+03
1.070000e-06	3.379841e-06	1.848302e-08	2.452646e+01	1.212241e+03
1.080000e-06	3.503641e-06	1.893756e-08	2.542484e+01	1.241450e+03
1.090000e-06	3.626124e-06	1.936203e-08	2.631366e+01	1.269064e+03
1.100000e-06	3.747297e-06	1.975880e-08	2.719297e+01	1.295317e+03
1.110000e-06	3.867071e-06	2.013436e-08	2.806214e+01	1.320341e+03
1.120000e-06	3.985430e-06	2.049016e-08	2.892104e+01	1.344181e+03
1.130000e-06	4.102445e-06	2.082447e-08	2.977017e+01	1.366820e+03
1.140000e-06	4.217953e-06	2.113690e-08	3.060838e+01	1.388211e+03
1.150000e-06	4.331770e-06	2.143043e-08	3.143431e+01	1.408299e+03
1.160000e-06	4.443813e-06	2.170812e-08	3.224738e+01	1.427058e+03
1.170000e-06	4.554184e-06	2.197006e-08	3.304831e+01	1.444501e+03
1.180000e-06	4.663102e-06	2.221626e-08	3.383869e+01	1.460689e+03
1.190000e-06	4.770495e-06	2.245139e-08	3.461801e+01	1.475736e+03
1.200000e-06	4.876192e-06	2.267601e-08	3.538502e+01	1.489789e+03
1.210000e-06	4.980040e-06	2.288778e-08	3.613861e+01	1.503016e+03
1.220000e-06	5.082073e-06	2.308689e-08	3.687904e+01	1.515585e+03
1.230000e-06	5.182366e-06	2.327624e-08	3.760683e+01	1.527642e+03
1.240000e-06	5.280685e-06	2.345540e-08	3.832030e+01	1.539296e+03
1.250000e-06	5.376930e-06	2.362235e-08	3.901872e+01	1.550606e+03
1.260000e-06	5.471217e-06	2.378106e-08	3.970293e+01	1.561586e+03
1.270000e-06	5.563668e-06	2.393625e-08	4.037382e+01	1.572201e+03
1.280000e-06	5.654108e-06	2.408662e-08	4.103012e+01	1.582386e+03
1.290000e-06	5.742399e-06	2.422830e-08	4.167081e+01	1.592062e+03
1.300000e-06	5.828647e-06	2.436363e-08	4.229669e+01	1.601151e+03
1.310000e-06	5.912921e-06	2.449096e-08	4.290824e+01	1.609596e+03
1.320000e-06	5.995108e-06	2.460881e-08	4.350465e+01	1.617371e+03
1.330000e-06	6.075068e-06	2.472025e-08	4.408489e+01	1.624491e+03
1.340000e-06	6.152813e-06	2.482441e-08	4.464907e+01	1.631009e+03
1.350000e-06	6.228205e-06	2.492028e-08	4.519616e+01	1.637010e+03
1.360000e-06	6.301139e-06	2.500981e-08	4.572542e+01	1.642599e+03
1.370000e-06	6.371775e-06	2.509687e-08	4.623800e+01	1.647889e+03
1.380000e-06	6.440212e-06	2.518033e-08	4.673463e+01	1.652979e+03
1.390000e-06	6.506307e-06	2.525757e-08	4.721426e+01	1.657948e+03
1.400000e-06	6.570018e-06	2.533013e-08	4.767659e+01	1.662839e+03
1.410000e-06	6.631525e-06	2.539877e-08	4.812293e+01	1.667658e+03
1.420000e-06	6.690848e-06	2.546399e-08	4.855342e+01	1.672379e+03
1.430000e-06	6.747824e-06	2.552656e-08	4.896687e+01	1.676947e+03
1.440000e-06	6.802342e-06	2.558768e-08	4.936250e+01	1.681290e+03
1.450000e-06	6.854199e-06	2.564698e-08	4.973881e+01	1.685335e+03
1.460000e-06	6.903223e-06	2.570126e-08	5.009455e+01	1.689022e+03
1.470000e-06	6.949644e-06	2.574905e-08	5.043142e+01	1.692311e+03
1.480000e-06	6.993690e-06	2.579338e-08	5.075105e+01	1.695192e+03
1.490000e-06	7.035173e-06	2.583703e-08	5.105208e+01	1.697686e+03
1.500000e-06	7.074020e-06	2.587681e-08	5.133398e+01	1.699839e+03
1.510000e-06	7.110530e-06	2.591210e-08	5.159892e+01	1.701718e+03
1.520000e-06	7.144584e-06	2.594477e-08	5.184604e+01	1.703398e+03
1.530000e-06	7.175923e-06	2.597399e-08	5.207346e+01	1.704949e+03
1.540000e-06	7.204804e-06	2.599697e-08	5.228304e+01	1.706425e+03
1.550000e-06	7.231206e-06	2.601601e-08	5.247463e+01	1.707860e+03
1.560000e-06	7.254844e-06	2.603438e-08	5.264616e+01	1.709257e+03
1.570000e-06	7.275926e-06	2.605098e-08	5.279915e+01	1.710594e+03
1.580000e-06	7.294498e-06	2.606434e-08	5.293392e+01	1.711830e+03
1.590000e-06	7.310354e-06	2.607456e-08	5.304898e+01	1.712906e+03
1.600000e-06	7.323532e-06	2.608203e-08	5.314461e+01	1.713767e+03
1.610000e-06	7.333873e-06	2.608777e-08	5.321965e+01	1.714362e+03
1.620000e-06	7.341318e-06	2.609259e-08	5.327368e+01	1.714661e+03
1.630000e-06	7.346157e-06	2.609506e-08	5.330879e+01	1.714655e+03
1.640000e-06	7.348418e-06	2.609629e-08	5.332520e+01	1.714361e+03
1.650000e-06	7.348010e-06	2.609591e-08	5.332224e+01	1.713820e+03
1.660000e-06	7.345123e-06	2.608537e-08	5.330129e+01	1.713087e+03
1.670000e-06	7.339860e-06	2.607448e-08	5.326310e+01	1.712225e+03
1.680000e-06	7.332103e-06	2.606459e-08	5.320681e+01	1.711293e+03
1.690000e-06	7.321921e-06	2.605344e-08	5.313292e+01	1.710337e+03
1.700000e-06	7.309219e-06	2.604333e-08	5.304075e+01	1.709384e+03
1.710000e-06	7.293923e-06	2.603437e-08	5.292974e+01	1.708437e+03
1.720000e-06	7.276358e-06	2.602864e-08	5.280228e+01	1.707474e+03
1.730000e-06	7.256726e-06	2.598736e-08	5.265982e+01	1.706459e+03
1.740000e-06	7.234468e-06	2.589713e-08	5.249830e+01	1.705339e+03
1.750000e-06	7.208887e-06	2.589645e-08	5.231267e+01	1.704064e+03
1.760000e-06	7.179939e-06	2.591502e-08	5.210260e+01	1.702587e+03
1.770000e-06	7.148138e-06	2.588307e-08	5.187183e+01	1.700879e+03
1.780000e-06	7.114248e-06	2.588810e-08	5.162590e+01	1.698928e+03
1.790000e-06	7.078731e-06	2.592700e-08	5.136817e+01	1.696745e+03
1.800000e-06	7.041597e-06	2.579870e-08	5.109869e+01	1.694356e+03
1.810000e-06	7.002106e-06	2.573943e-08	5.081212e+01	1.691800e+03
1.820000e-06	6.959918e-06	2.579991e-08	5.050597e+01	1.689118e+03
1.830000e-06	6.915470e-06	2.570375e-08	5.018343e+01	1.686346e+03
1.840000e-06	6.868566e-06	2.575326e-08	4.984306e+01	1.683503e+03
1.850000e-06	6.819080e-06	2.566834e-08	4.948395e+01	1.680589e+03
1.860000e-06	6.766957e-06	2.556144e-08	4.910572e+01	1.677580e+03
1.870000e-06	6.712013e-06	2.559454e-08	4.870701e+01	1.674432e+03
1.880000e-06	6.654652e-06	2.547090e-08	4.829076e+01	1.671087e+03
1.890000e-06	6.594883e-06	2.546989e-08	4.785703e+01	1.667479e+03
1.900000e-06	6.532462e-06	2.539815e-08	4.740406e+01	1.663550e+03
1.910000e-06	6.467496e-06	2.528432e-08	4.693262e+01	1.659252e+03
1.920000e-06	6.400108e-06	2.524601e-08	4.644361e+01	1.654560e+03
1.930000e-06	6.330383e-06	2.514666e-08	4.593763e+01	1.649478e+03
1.940000e-06	6.258231e-06	2.512483e-08	4.541405e+01	1.644033e+03
1.950000e-06	6.183676e-06	2.500695e-08	4.487302e+01	1.638273e+03
1.960000e-06	6.106565e-06	2.491888e-08	4.431345e+01	1.632261e+03
1.970000e-06	6.026889e-06	2.483976e-08	4.373527e+01	1.626059e+03
1.980000e-06	5.945118e-06	2.472839e-08	4.314188e+01	1.619720e+03
1.990000e-06	5.861305e-06	2.467161e-08	4.253368e+01	1.613274e+03
2.000000e-06	5.775357e-06	2.454938e-08	4.190998e+01	1.606723e+03
2.010000e-06	5.687246e-06	2.445571e-08	4.127059e+01	1.600039e+03
2.020000e-06	5.597129e-06	2.432408e-08	4.061664e+01	1.593161e+03
2.030000e-06	5.505115e-06	2.420272e-08	3.994892e+01	1.586009e+03
2.040000e-06	5.411106e-06	2.409897e-08	3.926673e+01	1.578490e+03
2.050000e-06	5.315156e-06	2.397726e-08	3.857044e+01	1.570513e+03
2.060000e-06	5.217421e-06	2.384314e-08	3.786121e+01	1.562002e+03
2.070000e-06	5.117970e-06	2.368487e-08	3.713953e+01	1.552907e+03
2.080000e-06	5.016657e-06	2.354981e-08	3.640433e+01	1.543212e+03
2.090000e-06	4.913410e-06	2.339889e-08	3.565510e+01	1.532931e+03
2.100000e-06	4.808371e-06	2.325194e-08	3.489287e+01	1.522109e+03
2.110000e-06	4.701776e-06	2.308816e-08	3.411934e+01	1.510809e+03
2.120000e-06	4.593647e-06	2.291219e-08	3.333468e+01	1.499099e+03
2.130000e-06	4.483929e-06	2.271991e-08	3.253849e+01	1.487036e+03
2.140000e-06	4.372511e-06	2.253230e-08	3.172996e+01	1.474649e+03
2.150000e-06	4.259350e-06	2.235284e-08	3.090879e+01	1.461936e+03
2.160000e-06	4.144507e-06	2.215753e-08	3.007541e+01	1.448847e+03
2.170000e-06	4.028016e-06	2.194538e-08	2.923007e+01	1.435297e+03
2.180000e-06	3.909946e-06	2.171261e-08	2.837327e+01	1.421165e+03
2.190000e-06	3.790252e-06	2.147620e-08	2.750468e+01	1.406312e+03
2.200000e-06	3.669076e-06	2.122721e-08	2.662535e+01	1.390597e+03
2.210000e-06	3.546544e-06	2.097424e-08	2.573617e+01	1.373893e+03
2.220000e-06	3.422709e-06	2.070904e-08	2.483754e+01	1.356106e+03
2.230000e-06	3.297637e-06	2.042791e-08	2.392994e+01	1.337178e+03
2.240000e-06	3.171293e-06	2.012603e-08	2.301310e+01	1.317097e+03
2.250000e-06	3.043782e-06	1.981468e-08	2.208779e+01	1.295885e+03
2.260000e-06	2.915177e-06	1.949172e-08	2.115454e+01	1.273588e+03
2.270000e-06	2.785548e-06	1.914997e-08	2.021386e+01	1.250250e+03
2.280000e-06	2.654911e-06	1.878586e-08	1.926587e+01	1.225896e+03
2.290000e-06	2.523270e-06	1.839659e-08	1.831059e+01	1.200500e+03
2.300000e-06	2.390774e-06	1.798724e-08	1.734911e+01	1.173973e+03
2.310000e-06	2.257504e-06	1.755307e-08	1.638201e+01	1.146147e+03
2.320000e-06	2.123453e-06	1.709344e-08	1.540925e+01	1.116778e+03
2.330000e-06	1.988679e-06	1.660240e-08	1.443123e+01	1.085554e+03
2.340000e-06	1.853230e-06	1.607972e-08	1.344832e+01	1.052119e+03
2.350000e-06	1.717033e-06	1.552069e-08	1.245998e+01	1.016107e+03
2.360000e-06	1.580158e-06	1.492351e-08	1.146672e+01	9.771791e+02
2.370000e-06	1.442834e-06	1.428902e-08	1.047020e+01	9.350608e+02
2.380000e-06	1.305185e-06	1.361294e-08	9.471328e+00	8.895774e+02
2.390000e-06	1.167160e-06	1.288781e-08	8.469721e+00	8.406777e+02
2.400000e-06	1.028688e-06	1.210953e-08	7.464874e+00	7.884461e+02
2.410000e-06	8.897984e-07	1.128101e-08	6.456992e+00	7.330976e+02
2.420000e-06	7.504900e-07	1.040592e-08	5.446074e+00	6.749589e+02
2.430000e-06	6.108871e-07	9.484394e-09	4.433019e+00	6.144341e+02
2.440000e-06	4.711425e-07	8.520083e-09	3.418936e+00	5.519628e+02
2.450000e-06	3.312407e-07	7.520061e-09	2.403711e+00	4.879727e+02
2.460000e-06	1.911934e-07	6.496331e-09	1.387432e+00	4.228353e+02
2.470000e-06	5.105142e-08	5.460757e-09	3.704644e-01	3.568296e+02
2.480000e-06	-8.919224e-08	4.421594e-09	-6.472405e-01	2.901193e+02
2.490000e-06	-2.294439e-07	3.385300e-09	-1.665004e+00	2.227477e+02
2.500000e-06	-3.695795e-07	2.350055e-09	-2.681924e+00	1.546504e+02
2.510000e-06	-5.095391e-07	1.315149e-09	-3.697568e+00	8.568466e+01
2.520000e-06	-6.493681e-07	2.746375e-10	-4.712264e+00	1.567364e+01
2.530000e-06	-7.890476e-07	-7.820232e-10	-5.725875e+00	-5.554292e+01
2.540000e-06	-9.284109e-07	-1.862895e-09	-6.737191e+00	-1.280559e+02
2.550000e-06	-1.067396e-06	-2.973012e-09	-7.745763e+00	-2.018402e+02
2.560000e-06	-1.205948e-06	-4.116271e-09	-8.751191e+00	-2.767208e+02
2.570000e-06	-1.343979e-06	-5.290243e-09	-9.752841e+00	-3.523552e+02
2.580000e-06	-1.481551e-06	-6.479966e-09	-1.075116e+01	-4.282376e+02
2.590000e-06	-1.618704e-06	-7.668037e-09	-1.174644e+01	-5.037221e+02
2.600000e-06	-1.755294e-06	-8.834817e-09	-1.273762e+01	-5.780644e+02
2.610000e-06	-1.891155e-06	-9.960928e-09	-1.372353e+01	-6.504770e+02
2.620000e-06	-2.026188e-06	-1.103107e-08	-1.470342e+01	-7.201913e+02
2.630000e-06	-2.160405e-06	-1.203445e-08	-1.567739e+01	-7.865187e+02
2.640000e-06	-2.293855e-06	-1.296813e-08	-1.664580e+01	-8.489051e+02
2.650000e-06	-2.426415e-06	-1.383181e-08	-1.760774e+01	-9.069710e+02
2.660000e-06	-2.558003e-06	-1.462935e-08	-1.856264e+01	-9.605341e+02
2.670000e-06	-2.688641e-06	-1.536590e-08	-1.951064e+01	-1.009611e+03
2.680000e-06	-2.818351e-06	-1.604778e-08	-2.045190e+01	-1.054400e+03
2.690000e-06	-2.947143e-06	-1.668077e-08	-2.138650e+01	-1.095247e+03
2.700000e-06	-3.074861e-06	-1.726795e-08	-2.231332e+01	-1.132599e+03
2.710000e-06	-3.201402e-06	-1.781428e-08	-2.323159e+01	-1.166953e+03
2.720000e-06	-3.326798e-06	-1.832115e-08	-2.414155e+01	-1.198801e+03
2.730000e-06	-3.451002e-06	-1.879171e-08	-2.504286e+01	-1.228591e+03
2.740000e-06	-3.573910e-06	-1.923117e-08	-2.593476e+01	-1.256689e+03
2.750000e-06	-3.695576e-06	-1.964284e-08	-2.681765e+01	-1.283362e+03
2.760000e-06	-3.815923e-06	-2.002924e-08	-2.769098e+01	-1.308773e+03
2.770000e-06	-3.934772e-06	-2.039123e-08	-2.855342e+01	-1.332994e+03
2.780000e-06	-4.052172e-06	-2.073142e-08	-2.940536e+01	-1.356025e+03
2.790000e-06	-4.167990e-06	-2.105225e-08	-3.024582e+01	-1.377825e+03
2.800000e-06	-4.282048e-06	-2.135452e-08	-3.107350e+01	-1.398338e+03
2.810000e-06	-4.394405e-06	-2.164093e-08	-3.188884e+01	-1.417526e+03
2.820000e-06	-4.505077e-06	-2.191179e-08	-3.269195e+01	-1.435389e+03
2.830000e-06	-4.614190e-06	-2.216612e-08	-3.348375e+01	-1.451972e+03
2.840000e-06	-4.721873e-06	-2.240618e-08	-3.426518e+01	-1.467373e+03
2.850000e-06	-4.828015e-06	-2.263408e-08	-3.503541e+01	-1.481729e+03
2.860000e-06	-4.932371e-06	-2.285118e-08	-3.579269e+01	-1.495204e+03
2.870000e-06	-5.034783e-06	-2.305762e-08	-3.653586e+01	-1.507969e+03
2.880000e-06	-5.135271e-06	-2.325356e-08	-3.726508e+01	-1.520178e+03
2.890000e-06	-5.233959e-06	-2.344006e-08	-3.798122e+01	-1.531953e+03
2.900000e-06	-5.330912e-06	-2.361705e-08	-3.868478e+01	-1.543372e+03
2.910000e-06	-5.425900e-06	-2.378449e-08	-3.937408e+01	-1.554461e+03
2.920000e-06	-5.518836e-06	-2.394178e-08	-4.004848e+01	-1.565200e+03
2.930000e-06	-5.609829e-06	-2.408970e-08	-4.070880e+01	-1.575534e+03
2.940000e-06	-5.698830e-06	-2.423062e-08	-4.135465e+01	-1.585384e+03
