# Temperatura_=_60.39447916666666
# Concentracion g/m^3_=_28370.0
# C_Vs_to_Am_M_A/Vsm_=_65563218390.804596
# pendiente_HvsI_1/m_=_3716.3
# ordenada_HvsI_A/m_=_1297.0
# frecuencia_Hz_=_302425.15127006924
# Promedio de 96 ciclos

Tiempo_(s)	Campo_(V.s)	Magnetizacion_(V.s)	Campo_(kA/m)	Magnetizacion_(A/m)
0.000000e+00	-7.327434e-09	-2.704430e-08	-5.318524e+01	-1.770776e+03
1.000000e-08	-7.323888e-09	-2.704268e-08	-5.315949e+01	-1.769939e+03
2.000000e-08	-7.317961e-09	-2.703048e-08	-5.311648e+01	-1.768994e+03
3.000000e-08	-7.309710e-09	-2.701474e-08	-5.305658e+01	-1.767994e+03
4.000000e-08	-7.298903e-09	-2.699843e-08	-5.297814e+01	-1.766977e+03
5.000000e-08	-7.285348e-09	-2.697981e-08	-5.287975e+01	-1.765957e+03
6.000000e-08	-7.269096e-09	-2.695723e-08	-5.276179e+01	-1.764923e+03
7.000000e-08	-7.250550e-09	-2.693190e-08	-5.262718e+01	-1.763847e+03
8.000000e-08	-7.229943e-09	-2.690868e-08	-5.247760e+01	-1.762682e+03
9.000000e-08	-7.206835e-09	-2.694699e-08	-5.230988e+01	-1.761378e+03
1.000000e-07	-7.180746e-09	-2.693593e-08	-5.212051e+01	-1.759885e+03
1.100000e-07	-7.151779e-09	-2.684385e-08	-5.191025e+01	-1.758167e+03
1.200000e-07	-7.120315e-09	-2.678948e-08	-5.168188e+01	-1.756203e+03
1.300000e-07	-7.086366e-09	-2.676028e-08	-5.143546e+01	-1.753993e+03
1.400000e-07	-7.050152e-09	-2.669190e-08	-5.117260e+01	-1.751555e+03
1.500000e-07	-7.012113e-09	-2.660978e-08	-5.089650e+01	-1.748923e+03
1.600000e-07	-6.972028e-09	-2.668120e-08	-5.060555e+01	-1.746135e+03
1.700000e-07	-6.929445e-09	-2.662987e-08	-5.029647e+01	-1.743229e+03
1.800000e-07	-6.884452e-09	-2.647798e-08	-4.996989e+01	-1.740229e+03
1.900000e-07	-6.836952e-09	-2.652605e-08	-4.962511e+01	-1.737143e+03
2.000000e-07	-6.786585e-09	-2.644234e-08	-4.925954e+01	-1.733956e+03
2.100000e-07	-6.733502e-09	-2.635252e-08	-4.887424e+01	-1.730633e+03
2.200000e-07	-6.677898e-09	-2.632378e-08	-4.847064e+01	-1.727120e+03
2.300000e-07	-6.619772e-09	-2.623225e-08	-4.804874e+01	-1.723352e+03
2.400000e-07	-6.559202e-09	-2.619673e-08	-4.760910e+01	-1.719269e+03
2.500000e-07	-6.496251e-09	-2.610047e-08	-4.715218e+01	-1.714815e+03
2.600000e-07	-6.430822e-09	-2.603452e-08	-4.667727e+01	-1.709957e+03
2.700000e-07	-6.362903e-09	-2.596140e-08	-4.618429e+01	-1.704685e+03
2.800000e-07	-6.292649e-09	-2.587016e-08	-4.567435e+01	-1.699018e+03
2.900000e-07	-6.220032e-09	-2.578165e-08	-4.514727e+01	-1.692996e+03
3.000000e-07	-6.144881e-09	-2.568381e-08	-4.460180e+01	-1.686678e+03
3.100000e-07	-6.067135e-09	-2.562428e-08	-4.403749e+01	-1.680129e+03
3.200000e-07	-5.986881e-09	-2.551057e-08	-4.345497e+01	-1.673407e+03
3.300000e-07	-5.904445e-09	-2.540616e-08	-4.285662e+01	-1.666557e+03
3.400000e-07	-5.820083e-09	-2.529489e-08	-4.224429e+01	-1.659595e+03
3.500000e-07	-5.733835e-09	-2.517089e-08	-4.161827e+01	-1.652506e+03
3.600000e-07	-5.645613e-09	-2.507012e-08	-4.097792e+01	-1.645246e+03
3.700000e-07	-5.555266e-09	-2.495083e-08	-4.032215e+01	-1.637742e+03
3.800000e-07	-5.462883e-09	-2.482165e-08	-3.965159e+01	-1.629905e+03
3.900000e-07	-5.368612e-09	-2.467860e-08	-3.896734e+01	-1.621644e+03
4.000000e-07	-5.272443e-09	-2.454147e-08	-3.826931e+01	-1.612873e+03
4.100000e-07	-5.174366e-09	-2.439742e-08	-3.755743e+01	-1.603529e+03
4.200000e-07	-5.074463e-09	-2.425373e-08	-3.683230e+01	-1.593580e+03
4.300000e-07	-4.972799e-09	-2.410571e-08	-3.609438e+01	-1.583026e+03
4.400000e-07	-4.869365e-09	-2.394001e-08	-3.534362e+01	-1.571900e+03
4.500000e-07	-4.764199e-09	-2.376367e-08	-3.458028e+01	-1.560258e+03
4.600000e-07	-4.657306e-09	-2.358204e-08	-3.380441e+01	-1.548168e+03
4.700000e-07	-4.548725e-09	-2.339980e-08	-3.301629e+01	-1.535696e+03
4.800000e-07	-4.438597e-09	-2.321329e-08	-3.221694e+01	-1.522887e+03
4.900000e-07	-4.326870e-09	-2.301637e-08	-3.140599e+01	-1.509756e+03
5.000000e-07	-4.213433e-09	-2.280008e-08	-3.058261e+01	-1.496278e+03
5.100000e-07	-4.098244e-09	-2.257291e-08	-2.974653e+01	-1.482385e+03
5.200000e-07	-3.981393e-09	-2.234065e-08	-2.889838e+01	-1.467972e+03
5.300000e-07	-3.863085e-09	-2.210322e-08	-2.803966e+01	-1.452907e+03
5.400000e-07	-3.743363e-09	-2.185455e-08	-2.717067e+01	-1.437047e+03
5.500000e-07	-3.622229e-09	-2.159433e-08	-2.629143e+01	-1.420257e+03
5.600000e-07	-3.499702e-09	-2.131991e-08	-2.540209e+01	-1.402423e+03
5.700000e-07	-3.375780e-09	-2.103078e-08	-2.450262e+01	-1.383468e+03
5.800000e-07	-3.250620e-09	-2.072789e-08	-2.359416e+01	-1.363358e+03
5.900000e-07	-3.124353e-09	-2.041374e-08	-2.267766e+01	-1.342100e+03
6.000000e-07	-2.996946e-09	-2.008534e-08	-2.175289e+01	-1.319730e+03
6.100000e-07	-2.868388e-09	-1.973599e-08	-2.081977e+01	-1.296298e+03
6.200000e-07	-2.738754e-09	-1.936754e-08	-1.987884e+01	-1.271846e+03
6.300000e-07	-2.608099e-09	-1.898013e-08	-1.893050e+01	-1.246380e+03
6.400000e-07	-2.476415e-09	-1.857381e-08	-1.797469e+01	-1.219849e+03
6.500000e-07	-2.343795e-09	-1.814242e-08	-1.701208e+01	-1.192133e+03
6.600000e-07	-2.210451e-09	-1.768541e-08	-1.604422e+01	-1.163029e+03
6.700000e-07	-2.076449e-09	-1.719991e-08	-1.507158e+01	-1.132262e+03
6.800000e-07	-1.941704e-09	-1.668529e-08	-1.409355e+01	-1.099496e+03
6.900000e-07	-1.806208e-09	-1.613928e-08	-1.311007e+01	-1.064366e+03
7.000000e-07	-1.670026e-09	-1.555710e-08	-1.212161e+01	-1.026507e+03
7.100000e-07	-1.533244e-09	-1.493484e-08	-1.112880e+01	-9.855943e+02
7.200000e-07	-1.395941e-09	-1.426748e-08	-1.013220e+01	-9.413804e+02
7.300000e-07	-1.258168e-09	-1.355614e-08	-9.132194e+00	-8.937229e+02
7.400000e-07	-1.119966e-09	-1.279519e-08	-8.129076e+00	-8.426036e+02
7.500000e-07	-9.813507e-10	-1.198487e-08	-7.122955e+00	-7.881336e+02
7.600000e-07	-8.423591e-10	-1.112576e-08	-6.114104e+00	-7.305426e+02
7.700000e-07	-7.030352e-10	-1.021531e-08	-5.102841e+00	-6.701546e+02
7.800000e-07	-5.634127e-10	-9.253021e-09	-4.089410e+00	-6.073522e+02
7.900000e-07	-4.235381e-10	-8.247117e-09	-3.074149e+00	-5.425342e+02
8.000000e-07	-2.834545e-10	-7.208788e-09	-2.057372e+00	-4.760729e+02
8.100000e-07	-1.432078e-10	-6.146359e-09	-1.039410e+00	-4.082756e+02
8.200000e-07	-2.845490e-12	-5.071527e-09	-2.060932e-02	-3.393576e+02
8.300000e-07	1.375528e-10	-3.992656e-09	9.984528e-01	-2.694295e+02
8.400000e-07	2.779075e-10	-2.914818e-09	2.017198e+00	-1.985014e+02
8.500000e-07	4.181574e-10	-1.835312e-09	3.035184e+00	-1.265046e+02
8.600000e-07	5.582503e-10	-7.499400e-10	4.052029e+00	-5.332675e+01
8.700000e-07	6.981276e-10	3.486746e-10	5.067309e+00	2.114226e+01
8.800000e-07	8.377237e-10	1.471169e-09	6.080548e+00	9.696128e+01
8.900000e-07	9.769884e-10	2.624848e-09	7.091381e+00	1.740915e+02
9.000000e-07	1.115872e-09	3.812388e-09	8.099448e+00	2.523595e+02
9.100000e-07	1.254331e-09	5.028323e-09	9.104436e+00	3.314362e+02
9.200000e-07	1.392332e-09	6.263382e-09	1.010609e+01	4.108329e+02
9.300000e-07	1.529825e-09	7.500484e-09	1.110407e+01	4.899187e+02
9.400000e-07	1.666741e-09	8.719751e-09	1.209786e+01	5.679555e+02
9.500000e-07	1.803008e-09	9.900815e-09	1.308693e+01	6.441485e+02
9.600000e-07	1.938546e-09	1.102718e-08	1.407071e+01	7.177051e+02
9.700000e-07	2.073283e-09	1.208561e-08	1.504868e+01	7.878967e+02
9.800000e-07	2.207228e-09	1.306962e-08	1.602091e+01	8.541155e+02
9.900000e-07	2.340434e-09	1.398002e-08	1.698777e+01	9.159192e+02
1.000000e-06	2.472829e-09	1.482075e-08	1.794874e+01	9.730603e+02
1.010000e-06	2.604241e-09	1.559533e-08	1.890258e+01	1.025495e+03
1.020000e-06	2.734610e-09	1.630908e-08	1.984884e+01	1.073372e+03
1.030000e-06	2.863971e-09	1.697028e-08	2.078779e+01	1.117005e+03
1.040000e-06	2.992270e-09	1.758514e-08	2.171903e+01	1.156828e+03
1.050000e-06	3.119418e-09	1.815591e-08	2.264192e+01	1.193346e+03
1.060000e-06	3.245441e-09	1.868668e-08	2.355665e+01	1.227079e+03
1.070000e-06	3.370410e-09	1.918123e-08	2.446372e+01	1.258517e+03
1.080000e-06	3.494246e-09	1.964272e-08	2.536257e+01	1.288078e+03
1.090000e-06	3.616811e-09	2.007327e-08	2.625218e+01	1.316084e+03
1.100000e-06	3.738065e-09	2.047551e-08	2.713229e+01	1.342751e+03
1.110000e-06	3.857936e-09	2.085518e-08	2.800236e+01	1.368192e+03
1.120000e-06	3.976389e-09	2.121545e-08	2.886214e+01	1.392438e+03
1.130000e-06	4.093447e-09	2.155478e-08	2.971178e+01	1.415459e+03
1.140000e-06	4.208959e-09	2.187263e-08	3.055022e+01	1.437203e+03
1.150000e-06	4.322792e-09	2.217254e-08	3.137646e+01	1.457618e+03
1.160000e-06	4.434952e-09	2.245637e-08	3.219055e+01	1.476682e+03
1.170000e-06	4.545494e-09	2.272423e-08	3.299291e+01	1.494418e+03
1.180000e-06	4.654539e-09	2.297682e-08	3.378440e+01	1.510900e+03
1.190000e-06	4.762036e-09	2.321827e-08	3.456465e+01	1.526249e+03
1.200000e-06	4.867826e-09	2.344763e-08	3.533251e+01	1.540623e+03
1.210000e-06	4.971813e-09	2.366513e-08	3.608729e+01	1.554193e+03
1.220000e-06	5.073992e-09	2.387074e-08	3.682894e+01	1.567128e+03
1.230000e-06	5.174371e-09	2.406608e-08	3.755753e+01	1.579570e+03
1.240000e-06	5.272806e-09	2.425122e-08	3.827200e+01	1.591623e+03
1.250000e-06	5.369187e-09	2.442491e-08	3.897157e+01	1.603338e+03
1.260000e-06	5.463603e-09	2.459066e-08	3.965688e+01	1.614720e+03
1.270000e-06	5.556161e-09	2.475042e-08	4.032870e+01	1.625728e+03
1.280000e-06	5.646757e-09	2.490366e-08	4.098628e+01	1.636292e+03
1.290000e-06	5.735224e-09	2.504976e-08	4.162841e+01	1.646330e+03
1.300000e-06	5.821590e-09	2.518936e-08	4.225528e+01	1.655765e+03
1.310000e-06	5.905963e-09	2.532208e-08	4.286770e+01	1.664542e+03
1.320000e-06	5.988282e-09	2.544739e-08	4.346519e+01	1.672640e+03
1.330000e-06	6.068379e-09	2.556534e-08	4.404657e+01	1.680076e+03
1.340000e-06	6.146224e-09	2.567588e-08	4.461159e+01	1.686908e+03
1.350000e-06	6.221748e-09	2.577863e-08	4.515977e+01	1.693224e+03
1.360000e-06	6.294848e-09	2.587456e-08	4.569036e+01	1.699129e+03
1.370000e-06	6.365634e-09	2.596597e-08	4.620415e+01	1.704732e+03
1.380000e-06	6.434220e-09	2.605314e-08	4.670198e+01	1.710132e+03
1.390000e-06	6.500503e-09	2.613562e-08	4.718308e+01	1.715399e+03
1.400000e-06	6.564401e-09	2.621342e-08	4.764687e+01	1.720574e+03
1.410000e-06	6.626050e-09	2.628695e-08	4.809434e+01	1.725660e+03
1.420000e-06	6.685487e-09	2.635631e-08	4.852576e+01	1.730624e+03
1.430000e-06	6.742538e-09	2.642240e-08	4.893986e+01	1.735413e+03
1.440000e-06	6.797148e-09	2.648559e-08	4.933624e+01	1.739955e+03
1.450000e-06	6.849155e-09	2.654546e-08	4.971372e+01	1.744182e+03
1.460000e-06	6.898317e-09	2.660201e-08	5.007056e+01	1.748038e+03
1.470000e-06	6.944838e-09	2.665451e-08	5.040823e+01	1.751487e+03
1.480000e-06	6.989008e-09	2.670350e-08	5.072882e+01	1.754527e+03
1.490000e-06	7.030686e-09	2.674928e-08	5.103134e+01	1.757180e+03
1.500000e-06	7.069759e-09	2.679114e-08	5.131494e+01	1.759496e+03
1.510000e-06	7.106437e-09	2.682914e-08	5.158116e+01	1.761542e+03
1.520000e-06	7.140646e-09	2.686364e-08	5.182947e+01	1.763389e+03
1.530000e-06	7.172224e-09	2.689437e-08	5.205867e+01	1.765103e+03
1.540000e-06	7.201331e-09	2.692088e-08	5.226994e+01	1.766732e+03
1.550000e-06	7.227914e-09	2.694371e-08	5.246289e+01	1.768303e+03
1.560000e-06	7.251754e-09	2.696372e-08	5.263593e+01	1.769814e+03
1.570000e-06	7.273006e-09	2.698129e-08	5.279018e+01	1.771239e+03
1.580000e-06	7.291796e-09	2.699581e-08	5.292656e+01	1.772532e+03
1.590000e-06	7.307906e-09	2.700689e-08	5.304350e+01	1.773638e+03
1.600000e-06	7.321223e-09	2.701471e-08	5.314015e+01	1.774501e+03
1.610000e-06	7.331652e-09	2.702109e-08	5.321585e+01	1.775076e+03
1.620000e-06	7.339230e-09	2.702656e-08	5.327086e+01	1.775338e+03
1.630000e-06	7.344248e-09	2.702965e-08	5.330728e+01	1.775284e+03
1.640000e-06	7.346693e-09	2.703046e-08	5.332502e+01	1.774938e+03
1.650000e-06	7.346490e-09	2.703072e-08	5.332355e+01	1.774342e+03
1.660000e-06	7.343846e-09	2.702007e-08	5.330436e+01	1.773555e+03
1.670000e-06	7.338802e-09	2.700822e-08	5.326774e+01	1.772640e+03
1.680000e-06	7.331234e-09	2.699787e-08	5.321281e+01	1.771653e+03
1.690000e-06	7.321236e-09	2.698430e-08	5.314025e+01	1.770638e+03
1.700000e-06	7.308714e-09	2.697139e-08	5.304936e+01	1.769618e+03
1.710000e-06	7.293593e-09	2.696125e-08	5.293960e+01	1.768590e+03
1.720000e-06	7.276183e-09	2.695488e-08	5.281323e+01	1.767532e+03
1.730000e-06	7.256707e-09	2.691993e-08	5.267186e+01	1.766402e+03
1.740000e-06	7.234691e-09	2.680914e-08	5.251206e+01	1.765152e+03
1.750000e-06	7.209382e-09	2.680217e-08	5.232836e+01	1.763729e+03
1.760000e-06	7.180651e-09	2.683066e-08	5.211982e+01	1.762092e+03
1.770000e-06	7.149092e-09	2.679217e-08	5.189075e+01	1.760214e+03
1.780000e-06	7.115411e-09	2.678609e-08	5.164628e+01	1.758087e+03
1.790000e-06	7.080012e-09	2.684673e-08	5.138935e+01	1.755725e+03
1.800000e-06	7.043020e-09	2.671633e-08	5.112084e+01	1.753155e+03
1.810000e-06	7.003760e-09	2.662330e-08	5.083588e+01	1.750416e+03
1.820000e-06	6.961796e-09	2.672163e-08	5.053128e+01	1.747546e+03
1.830000e-06	6.917577e-09	2.659122e-08	5.021032e+01	1.744576e+03
1.840000e-06	6.870918e-09	2.663897e-08	4.987165e+01	1.741520e+03
1.850000e-06	6.821617e-09	2.659493e-08	4.951381e+01	1.738370e+03
1.860000e-06	6.769718e-09	2.645624e-08	4.913711e+01	1.735099e+03
1.870000e-06	6.715004e-09	2.648699e-08	4.873997e+01	1.731658e+03
1.880000e-06	6.657816e-09	2.633017e-08	4.832488e+01	1.727985e+03
1.890000e-06	6.598192e-09	2.632792e-08	4.789210e+01	1.724018e+03
1.900000e-06	6.535917e-09	2.626169e-08	4.744009e+01	1.719698e+03
1.910000e-06	6.471160e-09	2.613298e-08	4.697006e+01	1.714982e+03
1.920000e-06	6.404023e-09	2.611942e-08	4.648275e+01	1.709854e+03
1.930000e-06	6.334508e-09	2.599003e-08	4.597819e+01	1.704321e+03
1.940000e-06	6.262501e-09	2.595605e-08	4.545553e+01	1.698416e+03
1.950000e-06	6.188070e-09	2.583112e-08	4.491529e+01	1.692193e+03
1.960000e-06	6.111123e-09	2.573835e-08	4.435677e+01	1.685716e+03
1.970000e-06	6.031635e-09	2.566394e-08	4.377982e+01	1.679048e+03
1.980000e-06	5.950002e-09	2.552829e-08	4.318729e+01	1.672238e+03
1.990000e-06	5.866337e-09	2.547619e-08	4.258002e+01	1.665314e+03
2.000000e-06	5.780562e-09	2.533542e-08	4.195743e+01	1.658272e+03
2.010000e-06	5.692617e-09	2.523176e-08	4.131910e+01	1.651077e+03
2.020000e-06	5.602663e-09	2.509330e-08	4.066618e+01	1.643666e+03
2.030000e-06	5.510800e-09	2.496994e-08	3.999940e+01	1.635956e+03
2.040000e-06	5.416937e-09	2.486011e-08	3.931811e+01	1.627853e+03
2.050000e-06	5.321119e-09	2.472218e-08	3.862262e+01	1.619267e+03
2.060000e-06	5.223505e-09	2.459207e-08	3.791410e+01	1.610128e+03
2.070000e-06	5.124194e-09	2.441999e-08	3.719327e+01	1.600392e+03
2.080000e-06	5.023052e-09	2.427264e-08	3.645914e+01	1.590046e+03
2.090000e-06	4.919988e-09	2.410642e-08	3.571107e+01	1.579114e+03
2.100000e-06	4.815105e-09	2.395321e-08	3.494978e+01	1.567644e+03
2.110000e-06	4.708657e-09	2.377954e-08	3.417714e+01	1.555702e+03
2.120000e-06	4.600699e-09	2.359347e-08	3.339354e+01	1.543356e+03
2.130000e-06	4.491142e-09	2.339478e-08	3.259833e+01	1.530661e+03
2.140000e-06	4.379892e-09	2.319461e-08	3.179084e+01	1.517642e+03
2.150000e-06	4.266903e-09	2.299967e-08	3.097072e+01	1.504290e+03
2.160000e-06	4.152240e-09	2.279089e-08	3.013846e+01	1.490551e+03
2.170000e-06	4.035868e-09	2.257415e-08	2.929378e+01	1.476333e+03
2.180000e-06	3.917844e-09	2.233237e-08	2.843713e+01	1.461511e+03
2.190000e-06	3.798240e-09	2.208527e-08	2.756900e+01	1.445944e+03
2.200000e-06	3.677179e-09	2.182286e-08	2.669028e+01	1.429493e+03
2.210000e-06	3.554800e-09	2.155913e-08	2.580201e+01	1.412034e+03
2.220000e-06	3.431109e-09	2.128004e-08	2.490422e+01	1.393477e+03
2.230000e-06	3.306140e-09	2.098824e-08	2.399715e+01	1.373772e+03
2.240000e-06	3.179954e-09	2.067777e-08	2.308124e+01	1.352912e+03
2.250000e-06	3.052566e-09	2.035415e-08	2.215661e+01	1.330925e+03
2.260000e-06	2.923996e-09	2.001712e-08	2.122340e+01	1.307859e+03
2.270000e-06	2.794393e-09	1.966074e-08	2.028269e+01	1.283760e+03
2.280000e-06	2.663844e-09	1.928541e-08	1.933512e+01	1.258650e+03
2.290000e-06	2.532319e-09	1.888608e-08	1.838046e+01	1.232501e+03
2.300000e-06	2.399876e-09	1.846532e-08	1.741914e+01	1.205218e+03
2.310000e-06	2.266622e-09	1.801752e-08	1.645193e+01	1.176626e+03
2.320000e-06	2.132623e-09	1.754509e-08	1.547932e+01	1.146476e+03
2.330000e-06	1.997914e-09	1.704071e-08	1.450155e+01	1.114450e+03
2.340000e-06	1.862503e-09	1.650418e-08	1.351869e+01	1.080190e+03
2.350000e-06	1.726399e-09	1.593282e-08	1.253079e+01	1.043325e+03
2.360000e-06	1.589663e-09	1.532520e-08	1.153831e+01	1.003514e+03
2.370000e-06	1.452424e-09	1.467767e-08	1.054218e+01	9.604777e+02
2.380000e-06	1.314783e-09	1.398434e-08	9.543128e+00	9.140344e+02
2.390000e-06	1.176752e-09	1.324197e-08	8.541249e+00	8.641210e+02
2.400000e-06	1.038308e-09	1.244740e-08	7.536372e+00	8.108037e+02
2.410000e-06	8.994401e-10	1.160139e-08	6.528417e+00	7.542727e+02
2.420000e-06	7.602123e-10	1.070644e-08	5.517850e+00	6.948226e+02
2.430000e-06	6.207192e-10	9.763012e-09	4.505359e+00	6.328199e+02
2.440000e-06	4.809816e-10	8.772320e-09	3.491092e+00	5.686629e+02
2.450000e-06	3.410298e-10	7.741167e-09	2.475272e+00	5.027377e+02
2.460000e-06	2.009206e-10	6.681484e-09	1.458309e+00	4.353781e+02
2.470000e-06	6.069399e-11	5.604728e-09	4.404937e-01	3.668341e+02
2.480000e-06	-7.958759e-11	4.520696e-09	-5.777204e-01	2.972531e+02
2.490000e-06	-2.198443e-10	3.435604e-09	-1.595754e+00	2.266790e+02
2.500000e-06	-3.600203e-10	2.349145e-09	-2.613202e+00	1.550672e+02
2.510000e-06	-5.000828e-10	1.258571e-09	-3.629826e+00	8.231593e+01
2.520000e-06	-6.399850e-10	1.581528e-10	-4.645286e+00	8.308698e+00
2.530000e-06	-7.796617e-10	-9.600568e-10	-5.659110e+00	-6.703687e+01
2.540000e-06	-9.190337e-10	-2.104004e-09	-6.670722e+00	-1.437210e+02
2.550000e-06	-1.058014e-09	-3.279025e-09	-7.679490e+00	-2.216207e+02
2.560000e-06	-1.196543e-09	-4.485973e-09	-8.684985e+00	-3.004630e+02
2.570000e-06	-1.334617e-09	-5.719289e-09	-9.687177e+00	-3.798139e+02
2.580000e-06	-1.472251e-09	-6.964449e-09	-1.068618e+01	-4.590895e+02
2.590000e-06	-1.609401e-09	-8.202230e-09	-1.168167e+01	-5.375841e+02
2.600000e-06	-1.745955e-09	-9.409315e-09	-1.267283e+01	-6.145163e+02
2.610000e-06	-1.881787e-09	-1.056568e-08	-1.365874e+01	-6.890857e+02
2.620000e-06	-2.016829e-09	-1.165813e-08	-1.463893e+01	-7.605346e+02
2.630000e-06	-2.151091e-09	-1.267829e-08	-1.561345e+01	-8.282067e+02
2.640000e-06	-2.284570e-09	-1.362421e-08	-1.658230e+01	-8.915977e+02
2.650000e-06	-2.417200e-09	-1.449730e-08	-1.754497e+01	-9.503897e+02
2.660000e-06	-2.548889e-09	-1.530262e-08	-1.850082e+01	-1.004468e+03
2.670000e-06	-2.679594e-09	-1.604519e-08	-1.944952e+01	-1.053916e+03
2.680000e-06	-2.809371e-09	-1.673161e-08	-2.039149e+01	-1.098993e+03
2.690000e-06	-2.938201e-09	-1.736974e-08	-2.132659e+01	-1.140098e+03
2.700000e-06	-3.065934e-09	-1.796320e-08	-2.225373e+01	-1.177716e+03
2.710000e-06	-3.192535e-09	-1.851540e-08	-2.317264e+01	-1.212368e+03
2.720000e-06	-3.318017e-09	-1.902823e-08	-2.408344e+01	-1.244559e+03
2.730000e-06	-3.442283e-09	-1.950504e-08	-2.498540e+01	-1.274738e+03
2.740000e-06	-3.565239e-09	-1.995044e-08	-2.587786e+01	-1.303260e+03
2.750000e-06	-3.686960e-09	-2.036673e-08	-2.676136e+01	-1.330380e+03
2.760000e-06	-3.807396e-09	-2.075747e-08	-2.763553e+01	-1.356245e+03
2.770000e-06	-3.926354e-09	-2.112499e-08	-2.849897e+01	-1.380911e+03
2.780000e-06	-4.043817e-09	-2.147162e-08	-2.935156e+01	-1.404368e+03
2.790000e-06	-4.159720e-09	-2.179844e-08	-3.019282e+01	-1.426568e+03
2.800000e-06	-4.273892e-09	-2.210599e-08	-3.102153e+01	-1.447454e+03
2.810000e-06	-4.386325e-09	-2.239693e-08	-3.183761e+01	-1.466993e+03
2.820000e-06	-4.497072e-09	-2.267183e-08	-3.264145e+01	-1.485190e+03
2.830000e-06	-4.606227e-09	-2.293195e-08	-3.343373e+01	-1.502101e+03
2.840000e-06	-4.713894e-09	-2.317866e-08	-3.421522e+01	-1.517832e+03
2.850000e-06	-4.820035e-09	-2.341220e-08	-3.498563e+01	-1.532530e+03
2.860000e-06	-4.924480e-09	-2.363386e-08	-3.574373e+01	-1.546363e+03
2.870000e-06	-5.027037e-09	-2.384475e-08	-3.648813e+01	-1.559504e+03
2.880000e-06	-5.127661e-09	-2.404605e-08	-3.721849e+01	-1.572106e+03
2.890000e-06	-5.226451e-09	-2.423871e-08	-3.793555e+01	-1.584288e+03
2.900000e-06	-5.323474e-09	-2.442154e-08	-3.863978e+01	-1.596120e+03
2.910000e-06	-5.418596e-09	-2.459440e-08	-3.933021e+01	-1.607622e+03
2.920000e-06	-5.511703e-09	-2.475756e-08	-4.000601e+01	-1.618769e+03
2.930000e-06	-5.602849e-09	-2.491162e-08	-4.066759e+01	-1.629500e+03
2.940000e-06	-5.692022e-09	-2.505848e-08	-4.131484e+01	-1.639733e+03
