# Temperatura_=_76.81
# Concentracion g/m^3_=_28200.0
# C_Vs_to_Am_M_A/Vsm_=_65563218390.804596
# pendiente_HvsI_1/m_=_3716.3
# ordenada_HvsI_A/m_=_1297.0
# frecuencia_Hz_=_302285.6647098355

Tiempo_(s)	Campo_(V.s)	Magnetizacion_(V.s)	Campo_(kA/m)	Magnetizacion_(A/m)
0.000000e+00	-6.891205e-06	-2.681472e-08	-4.951800e+01	-1.754959e+03
1.000000e-08	-6.888276e-06	-2.680621e-08	-4.949695e+01	-1.754496e+03
2.000000e-08	-6.883146e-06	-2.679630e-08	-4.946009e+01	-1.753845e+03
3.000000e-08	-6.875929e-06	-2.678611e-08	-4.940823e+01	-1.753013e+03
4.000000e-08	-6.866310e-06	-2.677095e-08	-4.933911e+01	-1.751999e+03
5.000000e-08	-6.854112e-06	-2.675318e-08	-4.925146e+01	-1.750799e+03
6.000000e-08	-6.839350e-06	-2.672937e-08	-4.914538e+01	-1.749405e+03
7.000000e-08	-6.822238e-06	-2.670428e-08	-4.902242e+01	-1.747811e+03
8.000000e-08	-6.803124e-06	-2.669003e-08	-4.888508e+01	-1.746017e+03
9.000000e-08	-6.781852e-06	-2.668588e-08	-4.873223e+01	-1.744037e+03
1.000000e-07	-6.757893e-06	-2.663188e-08	-4.856006e+01	-1.741895e+03
1.100000e-07	-6.731110e-06	-2.658762e-08	-4.836761e+01	-1.739631e+03
1.200000e-07	-6.701874e-06	-2.655033e-08	-4.815752e+01	-1.737285e+03
1.300000e-07	-6.670416e-06	-2.648808e-08	-4.793148e+01	-1.734893e+03
1.400000e-07	-6.636747e-06	-2.641533e-08	-4.768955e+01	-1.732472e+03
1.500000e-07	-6.601203e-06	-2.642095e-08	-4.743414e+01	-1.730014e+03
1.600000e-07	-6.563904e-06	-2.639120e-08	-4.716611e+01	-1.727482e+03
1.700000e-07	-6.524479e-06	-2.625956e-08	-4.688282e+01	-1.724808e+03
1.800000e-07	-6.482720e-06	-2.629223e-08	-4.658275e+01	-1.721910e+03
1.900000e-07	-6.438520e-06	-2.620346e-08	-4.626515e+01	-1.718704e+03
2.000000e-07	-6.391944e-06	-2.610904e-08	-4.593046e+01	-1.715119e+03
2.100000e-07	-6.342919e-06	-2.608960e-08	-4.557819e+01	-1.711111e+03
2.200000e-07	-6.291218e-06	-2.598460e-08	-4.520668e+01	-1.706674e+03
2.300000e-07	-6.237049e-06	-2.595260e-08	-4.481744e+01	-1.701837e+03
2.400000e-07	-6.180521e-06	-2.585765e-08	-4.441125e+01	-1.696654e+03
2.500000e-07	-6.121582e-06	-2.576184e-08	-4.398773e+01	-1.691192e+03
2.600000e-07	-6.060428e-06	-2.568556e-08	-4.354830e+01	-1.685513e+03
2.700000e-07	-5.997072e-06	-2.559084e-08	-4.309305e+01	-1.679658e+03
2.800000e-07	-5.931474e-06	-2.550305e-08	-4.262168e+01	-1.673636e+03
2.900000e-07	-5.863654e-06	-2.540056e-08	-4.213435e+01	-1.667430e+03
3.000000e-07	-5.793608e-06	-2.532240e-08	-4.163101e+01	-1.660994e+03
3.100000e-07	-5.721352e-06	-2.521048e-08	-4.111181e+01	-1.654274e+03
3.200000e-07	-5.646837e-06	-2.508154e-08	-4.057637e+01	-1.647217e+03
3.300000e-07	-5.569967e-06	-2.497881e-08	-4.002400e+01	-1.639789e+03
3.400000e-07	-5.490771e-06	-2.485376e-08	-3.945492e+01	-1.631976e+03
3.500000e-07	-5.409517e-06	-2.473994e-08	-3.887106e+01	-1.623789e+03
3.600000e-07	-5.326431e-06	-2.460821e-08	-3.827403e+01	-1.615252e+03
3.700000e-07	-5.241597e-06	-2.447331e-08	-3.766444e+01	-1.606395e+03
3.800000e-07	-5.155089e-06	-2.434183e-08	-3.704282e+01	-1.597235e+03
3.900000e-07	-5.066781e-06	-2.418880e-08	-3.640827e+01	-1.587773e+03
4.000000e-07	-4.976600e-06	-2.403851e-08	-3.576026e+01	-1.577984e+03
4.100000e-07	-4.884657e-06	-2.387524e-08	-3.509958e+01	-1.567828e+03
4.200000e-07	-4.791070e-06	-2.371716e-08	-3.442710e+01	-1.557251e+03
4.300000e-07	-4.695878e-06	-2.354575e-08	-3.374308e+01	-1.546205e+03
4.400000e-07	-4.598994e-06	-2.336860e-08	-3.304690e+01	-1.534653e+03
4.500000e-07	-4.500376e-06	-2.318750e-08	-3.233826e+01	-1.522581e+03
4.600000e-07	-4.400105e-06	-2.299497e-08	-3.161775e+01	-1.509990e+03
4.700000e-07	-4.298302e-06	-2.279909e-08	-3.088622e+01	-1.496898e+03
4.800000e-07	-4.194985e-06	-2.258729e-08	-3.014382e+01	-1.483320e+03
4.900000e-07	-4.090172e-06	-2.237424e-08	-2.939067e+01	-1.469262e+03
5.000000e-07	-3.983868e-06	-2.214988e-08	-2.862680e+01	-1.454706e+03
5.100000e-07	-3.876008e-06	-2.191778e-08	-2.785176e+01	-1.439611e+03
5.200000e-07	-3.766769e-06	-2.167231e-08	-2.706680e+01	-1.423912e+03
5.300000e-07	-3.656277e-06	-2.141852e-08	-2.627284e+01	-1.407535e+03
5.400000e-07	-3.544320e-06	-2.115862e-08	-2.546835e+01	-1.390406e+03
5.500000e-07	-3.430958e-06	-2.088382e-08	-2.465377e+01	-1.372467e+03
5.600000e-07	-3.316238e-06	-2.059902e-08	-2.382943e+01	-1.353680e+03
5.700000e-07	-3.200058e-06	-2.029864e-08	-2.299459e+01	-1.334027e+03
5.800000e-07	-3.082604e-06	-1.998639e-08	-2.215061e+01	-1.313502e+03
5.900000e-07	-2.964022e-06	-1.965775e-08	-2.129851e+01	-1.292096e+03
6.000000e-07	-2.844298e-06	-1.931796e-08	-2.043822e+01	-1.269783e+03
6.100000e-07	-2.723499e-06	-1.896122e-08	-1.957019e+01	-1.246505e+03
6.200000e-07	-2.601734e-06	-1.858562e-08	-1.869523e+01	-1.222169e+03
6.300000e-07	-2.478949e-06	-1.819149e-08	-1.781294e+01	-1.196650e+03
6.400000e-07	-2.355117e-06	-1.777585e-08	-1.692312e+01	-1.169798e+03
6.500000e-07	-2.230503e-06	-1.733987e-08	-1.602768e+01	-1.141464e+03
6.600000e-07	-2.105294e-06	-1.688106e-08	-1.512797e+01	-1.111502e+03
6.700000e-07	-1.979365e-06	-1.640202e-08	-1.422308e+01	-1.079788e+03
6.800000e-07	-1.852693e-06	-1.589440e-08	-1.331286e+01	-1.046218e+03
6.900000e-07	-1.725414e-06	-1.535463e-08	-1.239827e+01	-1.010697e+03
7.000000e-07	-1.597520e-06	-1.478118e-08	-1.147927e+01	-9.731250e+02
7.100000e-07	-1.469058e-06	-1.417450e-08	-1.055618e+01	-9.333850e+02
7.200000e-07	-1.340145e-06	-1.353095e-08	-9.629854e+00	-8.913328e+02
7.300000e-07	-1.210879e-06	-1.284795e-08	-8.700988e+00	-8.468035e+02
7.400000e-07	-1.081283e-06	-1.212358e-08	-7.769752e+00	-7.996323e+02
7.500000e-07	-9.512906e-07	-1.135582e-08	-6.835670e+00	-7.496888e+02
7.600000e-07	-8.209659e-07	-1.055104e-08	-5.899199e+00	-6.969179e+02
7.700000e-07	-6.903342e-07	-9.705477e-09	-4.960521e+00	-6.413785e+02
7.800000e-07	-5.594415e-07	-8.824273e-09	-4.019968e+00	-5.832663e+02
7.900000e-07	-4.282995e-07	-7.910496e-09	-3.077623e+00	-5.229134e+02
8.000000e-07	-2.969069e-07	-6.966861e-09	-2.133478e+00	-4.607599e+02
8.100000e-07	-1.653384e-07	-6.001215e-09	-1.188069e+00	-3.972980e+02
8.200000e-07	-3.363035e-08	-5.019589e-09	-2.416570e-01	-3.329989e+02
8.300000e-07	9.812462e-08	-4.029399e-09	7.050922e-01	-2.682366e+02
8.400000e-07	2.298686e-07	-3.034649e-09	1.651762e+00	-2.032248e+02
8.500000e-07	3.615467e-07	-2.040466e-09	2.597959e+00	-1.379823e+02
8.600000e-07	4.930978e-07	-1.043322e-09	3.543243e+00	-7.233853e+01
8.700000e-07	6.244571e-07	-3.667499e-11	4.487149e+00	-5.979784e+00
8.800000e-07	7.555365e-07	9.854367e-10	5.429044e+00	6.146965e+01
8.900000e-07	8.862975e-07	2.029273e-09	6.368651e+00	1.303457e+02
9.000000e-07	1.016720e-06	3.098155e-09	7.305823e+00	2.008426e+02
9.100000e-07	1.146742e-06	4.193412e-09	8.240120e+00	2.729305e+02
9.200000e-07	1.276348e-06	5.312884e-09	9.171431e+00	3.463103e+02
9.300000e-07	1.405557e-06	6.447436e-09	1.009988e+01	4.204153e+02
9.400000e-07	1.534335e-06	7.581914e-09	1.102524e+01	4.944596e+02
9.500000e-07	1.662558e-06	8.697618e-09	1.194661e+01	5.675241e+02
9.600000e-07	1.790135e-06	9.777260e-09	1.286334e+01	6.386647e+02
9.700000e-07	1.917069e-06	1.081082e-08	1.377545e+01	7.070213e+02
9.800000e-07	2.043279e-06	1.178878e-08	1.468235e+01	7.719089e+02
9.900000e-07	2.168698e-06	1.270703e-08	1.558357e+01	8.328763e+02
1.000000e-06	2.293438e-06	1.356590e-08	1.647991e+01	8.897240e+02
1.010000e-06	2.417444e-06	1.436709e-08	1.737098e+01	9.424844e+02
1.020000e-06	2.540433e-06	1.511141e-08	1.825474e+01	9.913705e+02
1.030000e-06	2.662362e-06	1.580221e-08	1.913089e+01	1.036708e+03
1.040000e-06	2.783292e-06	1.644494e-08	1.999985e+01	1.078868e+03
1.050000e-06	2.903168e-06	1.704183e-08	2.086124e+01	1.118205e+03
1.060000e-06	3.021969e-06	1.759981e-08	2.171490e+01	1.155024e+03
1.070000e-06	3.139703e-06	1.812094e-08	2.256090e+01	1.189562e+03
1.080000e-06	3.256296e-06	1.860853e-08	2.339870e+01	1.221996e+03
1.090000e-06	3.371527e-06	1.906694e-08	2.422671e+01	1.252460e+03
1.100000e-06	3.485364e-06	1.949857e-08	2.504471e+01	1.281066e+03
1.110000e-06	3.597906e-06	1.990598e-08	2.585340e+01	1.307930e+03
1.120000e-06	3.709111e-06	2.029036e-08	2.665249e+01	1.333177e+03
1.130000e-06	3.818994e-06	2.065532e-08	2.744207e+01	1.356946e+03
1.140000e-06	3.927697e-06	2.100156e-08	2.822317e+01	1.379382e+03
1.150000e-06	4.035177e-06	2.132735e-08	2.899549e+01	1.400622e+03
1.160000e-06	4.141140e-06	2.163402e-08	2.975691e+01	1.420781e+03
1.170000e-06	4.245468e-06	2.192383e-08	3.050658e+01	1.439951e+03
1.180000e-06	4.348244e-06	2.219677e-08	3.124509e+01	1.458193e+03
1.190000e-06	4.449564e-06	2.245571e-08	3.197315e+01	1.475548e+03
1.200000e-06	4.549403e-06	2.270393e-08	3.269056e+01	1.492043e+03
1.210000e-06	4.647540e-06	2.294061e-08	3.339574e+01	1.507705e+03
1.220000e-06	4.743849e-06	2.316692e-08	3.408778e+01	1.522569e+03
1.230000e-06	4.838405e-06	2.338249e-08	3.476723e+01	1.536682e+03
1.240000e-06	4.931330e-06	2.358838e-08	3.543496e+01	1.550101e+03
1.250000e-06	5.022608e-06	2.378455e-08	3.609086e+01	1.562886e+03
1.260000e-06	5.112014e-06	2.397031e-08	3.673330e+01	1.575094e+03
1.270000e-06	5.199502e-06	2.414749e-08	3.736196e+01	1.586771e+03
1.280000e-06	5.285157e-06	2.431561e-08	3.797745e+01	1.597945e+03
1.290000e-06	5.368971e-06	2.447556e-08	3.857971e+01	1.608631e+03
1.300000e-06	5.450908e-06	2.462889e-08	3.916849e+01	1.618828e+03
1.310000e-06	5.530779e-06	2.477689e-08	3.974241e+01	1.628531e+03
1.320000e-06	5.608546e-06	2.491968e-08	4.030122e+01	1.637738e+03
1.330000e-06	5.684228e-06	2.505691e-08	4.084504e+01	1.646451e+03
1.340000e-06	5.757636e-06	2.518674e-08	4.137254e+01	1.654685e+03
1.350000e-06	5.828897e-06	2.530758e-08	4.188459e+01	1.662460e+03
1.360000e-06	5.898150e-06	2.542099e-08	4.238222e+01	1.669807e+03
1.370000e-06	5.965286e-06	2.552806e-08	4.286464e+01	1.676753e+03
1.380000e-06	6.030229e-06	2.562667e-08	4.333130e+01	1.683326e+03
1.390000e-06	6.093050e-06	2.571821e-08	4.378271e+01	1.689547e+03
1.400000e-06	6.153895e-06	2.580534e-08	4.421992e+01	1.695431e+03
1.410000e-06	6.212584e-06	2.588866e-08	4.464164e+01	1.700993e+03
1.420000e-06	6.268985e-06	2.596850e-08	4.504692e+01	1.706245e+03
1.430000e-06	6.323164e-06	2.604471e-08	4.543624e+01	1.711203e+03
1.440000e-06	6.374808e-06	2.611882e-08	4.580733e+01	1.715883e+03
1.450000e-06	6.423786e-06	2.618919e-08	4.615928e+01	1.720306e+03
1.460000e-06	6.470387e-06	2.625201e-08	4.649414e+01	1.724488e+03
1.470000e-06	6.514824e-06	2.630946e-08	4.681344e+01	1.728440e+03
1.480000e-06	6.556971e-06	2.636488e-08	4.711630e+01	1.732165e+03
1.490000e-06	6.596675e-06	2.641818e-08	4.740160e+01	1.735655e+03
1.500000e-06	6.634122e-06	2.646768e-08	4.767068e+01	1.738894e+03
1.510000e-06	6.669286e-06	2.651186e-08	4.792336e+01	1.741864e+03
1.520000e-06	6.701933e-06	2.655281e-08	4.815795e+01	1.744546e+03
1.530000e-06	6.732193e-06	2.659134e-08	4.837539e+01	1.746930e+03
1.540000e-06	6.760267e-06	2.662370e-08	4.857712e+01	1.749017e+03
1.550000e-06	6.785896e-06	2.665032e-08	4.876128e+01	1.750820e+03
1.560000e-06	6.808891e-06	2.667354e-08	4.892651e+01	1.752362e+03
1.570000e-06	6.829522e-06	2.669276e-08	4.907477e+01	1.753671e+03
1.580000e-06	6.847808e-06	2.670894e-08	4.920616e+01	1.754773e+03
1.590000e-06	6.863541e-06	2.672292e-08	4.931921e+01	1.755689e+03
1.600000e-06	6.876745e-06	2.673559e-08	4.941409e+01	1.756429e+03
1.610000e-06	6.887218e-06	2.674650e-08	4.948934e+01	1.756995e+03
1.620000e-06	6.894948e-06	2.675357e-08	4.954489e+01	1.757383e+03
1.630000e-06	6.900341e-06	2.675770e-08	4.958364e+01	1.757582e+03
1.640000e-06	6.903377e-06	2.676048e-08	4.960546e+01	1.757586e+03
1.650000e-06	6.903856e-06	2.676050e-08	4.960890e+01	1.757393e+03
1.660000e-06	6.901884e-06	2.675329e-08	4.959473e+01	1.757005e+03
1.670000e-06	6.897697e-06	2.674514e-08	4.956465e+01	1.756427e+03
1.680000e-06	6.891234e-06	2.673134e-08	4.951821e+01	1.755666e+03
1.690000e-06	6.882469e-06	2.671595e-08	4.945522e+01	1.754723e+03
1.700000e-06	6.871489e-06	2.670022e-08	4.937632e+01	1.753596e+03
1.710000e-06	6.858111e-06	2.668427e-08	4.928020e+01	1.752279e+03
1.720000e-06	6.842334e-06	2.666632e-08	4.916683e+01	1.750763e+03
1.730000e-06	6.824443e-06	2.661614e-08	4.903827e+01	1.749047e+03
1.740000e-06	6.804367e-06	2.657142e-08	4.889401e+01	1.747137e+03
1.750000e-06	6.781362e-06	2.656252e-08	4.872870e+01	1.745055e+03
1.760000e-06	6.755121e-06	2.652205e-08	4.854014e+01	1.742834e+03
1.770000e-06	6.726137e-06	2.648314e-08	4.833187e+01	1.740514e+03
1.780000e-06	6.694905e-06	2.650408e-08	4.810745e+01	1.738137e+03
1.790000e-06	6.661889e-06	2.644332e-08	4.787020e+01	1.735726e+03
1.800000e-06	6.627442e-06	2.636265e-08	4.762268e+01	1.733286e+03
1.810000e-06	6.591047e-06	2.642706e-08	4.736116e+01	1.730789e+03
1.820000e-06	6.552167e-06	2.633398e-08	4.708178e+01	1.728179e+03
1.830000e-06	6.511030e-06	2.632990e-08	4.678618e+01	1.725379e+03
1.840000e-06	6.467662e-06	2.634265e-08	4.647455e+01	1.722304e+03
1.850000e-06	6.421995e-06	2.619373e-08	4.614640e+01	1.718874e+03
1.860000e-06	6.373989e-06	2.621972e-08	4.580145e+01	1.715034e+03
1.870000e-06	6.323536e-06	2.610473e-08	4.543891e+01	1.710764e+03
1.880000e-06	6.270666e-06	2.601943e-08	4.505900e+01	1.706079e+03
1.890000e-06	6.215172e-06	2.600130e-08	4.466024e+01	1.701024e+03
1.900000e-06	6.157177e-06	2.586413e-08	4.424351e+01	1.695663e+03
1.910000e-06	6.096963e-06	2.583546e-08	4.381083e+01	1.690062e+03
1.920000e-06	6.034390e-06	2.572299e-08	4.336120e+01	1.684273e+03
1.930000e-06	5.969579e-06	2.562431e-08	4.289549e+01	1.678317e+03
1.940000e-06	5.902651e-06	2.555074e-08	4.241456e+01	1.672187e+03
1.950000e-06	5.833570e-06	2.542270e-08	4.191817e+01	1.665847e+03
1.960000e-06	5.762129e-06	2.537149e-08	4.140482e+01	1.659245e+03
1.970000e-06	5.688344e-06	2.521949e-08	4.087462e+01	1.652325e+03
1.980000e-06	5.612386e-06	2.512710e-08	4.032881e+01	1.645045e+03
1.990000e-06	5.534133e-06	2.501101e-08	3.976651e+01	1.637383e+03
2.000000e-06	5.453774e-06	2.487226e-08	3.918908e+01	1.629340e+03
2.010000e-06	5.371578e-06	2.476497e-08	3.859844e+01	1.620937e+03
2.020000e-06	5.287546e-06	2.461227e-08	3.799462e+01	1.612203e+03
2.030000e-06	5.201551e-06	2.450422e-08	3.737668e+01	1.603160e+03
2.040000e-06	5.113581e-06	2.434428e-08	3.674456e+01	1.593818e+03
2.050000e-06	5.023856e-06	2.420270e-08	3.609983e+01	1.584161e+03
2.060000e-06	4.932501e-06	2.404856e-08	3.544338e+01	1.574155e+03
2.070000e-06	4.839476e-06	2.388771e-08	3.477493e+01	1.563749e+03
2.080000e-06	4.744672e-06	2.372532e-08	3.409370e+01	1.552892e+03
2.090000e-06	4.648130e-06	2.354186e-08	3.339998e+01	1.541542e+03
2.100000e-06	4.550059e-06	2.337346e-08	3.269527e+01	1.529674e+03
2.110000e-06	4.450478e-06	2.318255e-08	3.197971e+01	1.517285e+03
2.120000e-06	4.349287e-06	2.299420e-08	3.125259e+01	1.504387e+03
2.130000e-06	4.246505e-06	2.278548e-08	3.051403e+01	1.490999e+03
2.140000e-06	4.142146e-06	2.257632e-08	2.976413e+01	1.477130e+03
2.150000e-06	4.036277e-06	2.235756e-08	2.900340e+01	1.462773e+03
2.160000e-06	3.929051e-06	2.213346e-08	2.823291e+01	1.447895e+03
2.170000e-06	3.820428e-06	2.190084e-08	2.745237e+01	1.432442e+03
2.180000e-06	3.710427e-06	2.165463e-08	2.666194e+01	1.416339e+03
2.190000e-06	3.599003e-06	2.140061e-08	2.586128e+01	1.399514e+03
2.200000e-06	3.486168e-06	2.112762e-08	2.505049e+01	1.381899e+03
2.210000e-06	3.371958e-06	2.084706e-08	2.422982e+01	1.363448e+03
2.220000e-06	3.256261e-06	2.055400e-08	2.339845e+01	1.344135e+03
2.230000e-06	3.139141e-06	2.025392e-08	2.255687e+01	1.323953e+03
2.240000e-06	3.020799e-06	1.993263e-08	2.170649e+01	1.302894e+03
2.250000e-06	2.901249e-06	1.959909e-08	2.084745e+01	1.280942e+03
2.260000e-06	2.780504e-06	1.925039e-08	1.997982e+01	1.258052e+03
2.270000e-06	2.658832e-06	1.888781e-08	1.910551e+01	1.234145e+03
2.280000e-06	2.536248e-06	1.850733e-08	1.822467e+01	1.209107e+03
2.290000e-06	2.412732e-06	1.810529e-08	1.733712e+01	1.182797e+03
2.300000e-06	2.288346e-06	1.768302e-08	1.644333e+01	1.155062e+03
2.310000e-06	2.163156e-06	1.723616e-08	1.554375e+01	1.125755e+03
2.320000e-06	2.037293e-06	1.676465e-08	1.463934e+01	1.094743e+03
2.330000e-06	1.910799e-06	1.626541e-08	1.373039e+01	1.061913e+03
2.340000e-06	1.783659e-06	1.573971e-08	1.281680e+01	1.027170e+03
2.350000e-06	1.655731e-06	1.518191e-08	1.189755e+01	9.904157e+02
2.360000e-06	1.527019e-06	1.458947e-08	1.097267e+01	9.515428e+02
2.370000e-06	1.397854e-06	1.395884e-08	1.004453e+01	9.104173e+02
2.380000e-06	1.268440e-06	1.329081e-08	9.114602e+00	8.668811e+02
2.390000e-06	1.138789e-06	1.258750e-08	8.182974e+00	8.207658e+02
2.400000e-06	1.008788e-06	1.184421e-08	7.248831e+00	7.719227e+02
2.410000e-06	8.783249e-07	1.105778e-08	6.311362e+00	7.202622e+02
2.420000e-06	7.474898e-07	1.022730e-08	5.371223e+00	6.657946e+02
2.430000e-06	6.164410e-07	9.356411e-09	4.429548e+00	6.086603e+02
2.440000e-06	4.852249e-07	8.448980e-09	3.486671e+00	5.491398e+02
2.450000e-06	3.538534e-07	7.509440e-09	2.542677e+00	4.876360e+02
2.460000e-06	2.223293e-07	6.546975e-09	1.597587e+00	4.246286e+02
2.470000e-06	9.069081e-08	5.568212e-09	6.516752e-01	3.606065e+02
2.480000e-06	-4.097751e-08	4.579453e-09	-2.944513e-01	2.959903e+02
2.490000e-06	-1.726595e-07	3.583311e-09	-1.240676e+00	2.310627e+02
2.500000e-06	-3.042833e-07	2.582888e-09	-2.186482e+00	1.659209e+02
2.510000e-06	-4.357911e-07	1.579322e-09	-3.131456e+00	1.004654e+02
2.520000e-06	-5.671797e-07	5.687304e-10	-4.075572e+00	3.443066e+01
2.530000e-06	-6.984031e-07	-4.530358e-10	-5.018502e+00	-3.254603e+01
2.540000e-06	-8.294353e-07	-1.494311e-09	-5.960057e+00	-1.008289e+02
2.550000e-06	-9.601859e-07	-2.558762e-09	-6.899589e+00	-1.706791e+02
2.560000e-06	-1.090570e-06	-3.648518e-09	-7.836486e+00	-2.421626e+02
2.570000e-06	-1.220540e-06	-4.763241e-09	-8.770407e+00	-3.150886e+02
2.580000e-06	-1.350131e-06	-5.895872e-09	-9.701611e+00	-3.889923e+02
2.590000e-06	-1.479404e-06	-7.034630e-09	-1.063052e+01	-4.631653e+02
2.600000e-06	-1.608276e-06	-8.163122e-09	-1.155656e+01	-5.367288e+02
2.610000e-06	-1.736564e-06	-9.265594e-09	-1.247840e+01	-6.087351e+02
2.620000e-06	-1.864062e-06	-1.033036e-08	-1.339456e+01	-6.782789e+02
2.630000e-06	-1.990690e-06	-1.134479e-08	-1.430446e+01	-7.445973e+02
2.640000e-06	-2.116534e-06	-1.230072e-08	-1.520874e+01	-8.071428e+02
2.650000e-06	-2.241625e-06	-1.319531e-08	-1.610760e+01	-8.656175e+02
2.660000e-06	-2.365829e-06	-1.402789e-08	-1.700009e+01	-9.199672e+02
2.670000e-06	-2.489119e-06	-1.480053e-08	-1.788601e+01	-9.703415e+02
2.680000e-06	-2.611457e-06	-1.551649e-08	-1.876510e+01	-1.017030e+03
2.690000e-06	-2.732819e-06	-1.618433e-08	-1.963716e+01	-1.060395e+03
2.700000e-06	-2.853198e-06	-1.680937e-08	-2.050217e+01	-1.100801e+03
2.710000e-06	-2.972469e-06	-1.739366e-08	-2.135921e+01	-1.138578e+03
2.720000e-06	-3.090580e-06	-1.793815e-08	-2.220792e+01	-1.173988e+03
2.730000e-06	-3.207450e-06	-1.844467e-08	-2.304771e+01	-1.207232e+03
2.740000e-06	-3.323056e-06	-1.891880e-08	-2.387842e+01	-1.238455e+03
2.750000e-06	-3.437249e-06	-1.936561e-08	-2.469898e+01	-1.267778e+03
2.760000e-06	-3.549968e-06	-1.978635e-08	-2.550894e+01	-1.295313e+03
2.770000e-06	-3.661367e-06	-2.018350e-08	-2.630941e+01	-1.321179e+03
2.780000e-06	-3.771439e-06	-2.055964e-08	-2.710035e+01	-1.345513e+03
2.790000e-06	-3.880249e-06	-2.091283e-08	-2.788223e+01	-1.368456e+03
2.800000e-06	-3.987809e-06	-2.124433e-08	-2.865512e+01	-1.390151e+03
2.810000e-06	-4.094092e-06	-2.155925e-08	-2.941884e+01	-1.410722e+03
2.820000e-06	-4.199014e-06	-2.185920e-08	-3.017278e+01	-1.430272e+03
2.830000e-06	-4.302286e-06	-2.214367e-08	-3.091485e+01	-1.448873e+03
2.840000e-06	-4.403870e-06	-2.241359e-08	-3.164481e+01	-1.466573e+03
2.850000e-06	-4.503947e-06	-2.266932e-08	-3.236393e+01	-1.483403e+03
2.860000e-06	-4.602529e-06	-2.291123e-08	-3.307231e+01	-1.499390e+03
2.870000e-06	-4.699590e-06	-2.314325e-08	-3.376976e+01	-1.514563e+03
2.880000e-06	-4.794950e-06	-2.336695e-08	-3.445498e+01	-1.528965e+03
2.890000e-06	-4.888464e-06	-2.357913e-08	-3.512694e+01	-1.542650e+03
2.900000e-06	-4.980268e-06	-2.378056e-08	-3.578662e+01	-1.555677e+03
2.910000e-06	-5.070338e-06	-2.397234e-08	-3.643383e+01	-1.568106e+03
2.920000e-06	-5.158533e-06	-2.415521e-08	-3.706757e+01	-1.579987e+03
2.930000e-06	-5.244730e-06	-2.432961e-08	-3.768695e+01	-1.591357e+03
2.940000e-06	-5.328973e-06	-2.449494e-08	-3.829230e+01	-1.602234e+03
