# Temperatura_=_28.03
# Concentracion g/m^3_=_28200.0
# C_Vs_to_Am_M_A/Vsm_=_65563218390.804596
# pendiente_HvsI_1/m_=_3716.3
# ordenada_HvsI_A/m_=_1297.0
# frecuencia_Hz_=_302270.57100842753

Tiempo_(s)	Campo_(V.s)	Magnetizacion_(V.s)	Campo_(kA/m)	Magnetizacion_(A/m)
0.000000e+00	-6.883940e-06	-1.740091e-08	-4.952548e+01	-1.138756e+03
1.000000e-08	-6.880927e-06	-1.739781e-08	-4.950380e+01	-1.138491e+03
2.000000e-08	-6.875686e-06	-1.739155e-08	-4.946610e+01	-1.138112e+03
3.000000e-08	-6.868318e-06	-1.738559e-08	-4.941309e+01	-1.137607e+03
4.000000e-08	-6.858550e-06	-1.737659e-08	-4.934282e+01	-1.136964e+03
5.000000e-08	-6.846212e-06	-1.736255e-08	-4.925405e+01	-1.136171e+03
6.000000e-08	-6.831290e-06	-1.734386e-08	-4.914670e+01	-1.135223e+03
7.000000e-08	-6.814003e-06	-1.732365e-08	-4.902233e+01	-1.134126e+03
8.000000e-08	-6.794766e-06	-1.730675e-08	-4.888393e+01	-1.132895e+03
9.000000e-08	-6.773384e-06	-1.732296e-08	-4.873010e+01	-1.131559e+03
1.000000e-07	-6.749315e-06	-1.731549e-08	-4.855694e+01	-1.130153e+03
1.100000e-07	-6.722410e-06	-1.726859e-08	-4.836338e+01	-1.128713e+03
1.200000e-07	-6.692969e-06	-1.723342e-08	-4.815157e+01	-1.127270e+03
1.300000e-07	-6.661340e-06	-1.720017e-08	-4.792402e+01	-1.125840e+03
1.400000e-07	-6.627627e-06	-1.712261e-08	-4.768148e+01	-1.124420e+03
1.500000e-07	-6.592079e-06	-1.707773e-08	-4.742573e+01	-1.122983e+03
1.600000e-07	-6.554736e-06	-1.713061e-08	-4.715707e+01	-1.121484e+03
1.700000e-07	-6.515268e-06	-1.707186e-08	-4.687313e+01	-1.119866e+03
1.800000e-07	-6.473565e-06	-1.704128e-08	-4.657310e+01	-1.118064e+03
1.900000e-07	-6.429459e-06	-1.704829e-08	-4.625578e+01	-1.116024e+03
2.000000e-07	-6.382910e-06	-1.693578e-08	-4.592090e+01	-1.113706e+03
2.100000e-07	-6.333909e-06	-1.688436e-08	-4.556837e+01	-1.111093e+03
2.200000e-07	-6.282146e-06	-1.688758e-08	-4.519596e+01	-1.108189e+03
2.300000e-07	-6.227809e-06	-1.688278e-08	-4.480504e+01	-1.105022e+03
2.400000e-07	-6.171138e-06	-1.681423e-08	-4.439734e+01	-1.101631e+03
2.500000e-07	-6.112108e-06	-1.671076e-08	-4.397265e+01	-1.098059e+03
2.600000e-07	-6.050865e-06	-1.667349e-08	-4.353205e+01	-1.094342e+03
2.700000e-07	-5.987430e-06	-1.660522e-08	-4.307567e+01	-1.090503e+03
2.800000e-07	-5.921779e-06	-1.652210e-08	-4.260336e+01	-1.086547e+03
2.900000e-07	-5.853923e-06	-1.650197e-08	-4.211517e+01	-1.082464e+03
3.000000e-07	-5.783868e-06	-1.645759e-08	-4.161118e+01	-1.078229e+03
3.100000e-07	-5.711563e-06	-1.634325e-08	-4.109099e+01	-1.073813e+03
3.200000e-07	-5.636969e-06	-1.623867e-08	-4.055433e+01	-1.069187e+03
3.300000e-07	-5.560043e-06	-1.621682e-08	-4.000090e+01	-1.064330e+03
3.400000e-07	-5.480788e-06	-1.615543e-08	-3.943071e+01	-1.059230e+03
3.500000e-07	-5.399473e-06	-1.605114e-08	-3.884570e+01	-1.053883e+03
3.600000e-07	-5.316387e-06	-1.597246e-08	-3.824796e+01	-1.048291e+03
3.700000e-07	-5.231568e-06	-1.587991e-08	-3.763773e+01	-1.042459e+03
3.800000e-07	-5.145016e-06	-1.577681e-08	-3.701506e+01	-1.036388e+03
3.900000e-07	-5.056726e-06	-1.568803e-08	-3.637987e+01	-1.030072e+03
4.000000e-07	-4.966599e-06	-1.561517e-08	-3.573145e+01	-1.023500e+03
4.100000e-07	-4.874694e-06	-1.550082e-08	-3.507026e+01	-1.016652e+03
4.200000e-07	-4.781142e-06	-1.536112e-08	-3.439721e+01	-1.009511e+03
4.300000e-07	-4.685948e-06	-1.524213e-08	-3.371236e+01	-1.002059e+03
4.400000e-07	-4.589093e-06	-1.513277e-08	-3.301555e+01	-9.942849e+02
4.500000e-07	-4.490578e-06	-1.501382e-08	-3.230679e+01	-9.861822e+02
4.600000e-07	-4.390398e-06	-1.488772e-08	-3.158606e+01	-9.777500e+02
4.700000e-07	-4.288679e-06	-1.475468e-08	-3.085426e+01	-9.689880e+02
4.800000e-07	-4.185485e-06	-1.459999e-08	-3.011185e+01	-9.598926e+02
4.900000e-07	-4.080731e-06	-1.444815e-08	-2.935821e+01	-9.504520e+02
5.000000e-07	-3.974389e-06	-1.431416e-08	-2.859315e+01	-9.406444e+02
5.100000e-07	-3.866518e-06	-1.417379e-08	-2.781709e+01	-9.304374e+02
5.200000e-07	-3.757327e-06	-1.400595e-08	-2.703153e+01	-9.197908e+02
5.300000e-07	-3.646934e-06	-1.382456e-08	-2.623732e+01	-9.086612e+02
5.400000e-07	-3.535223e-06	-1.364149e-08	-2.543364e+01	-8.970070e+02
5.500000e-07	-3.422069e-06	-1.345305e-08	-2.461957e+01	-8.847924e+02
5.600000e-07	-3.307415e-06	-1.326080e-08	-2.379471e+01	-8.719894e+02
5.700000e-07	-3.191280e-06	-1.306051e-08	-2.295919e+01	-8.585770e+02
5.800000e-07	-3.073865e-06	-1.284554e-08	-2.211447e+01	-8.445372e+02
5.900000e-07	-2.955353e-06	-1.261362e-08	-2.126185e+01	-8.298506e+02
6.000000e-07	-2.835746e-06	-1.237676e-08	-2.040135e+01	-8.144906e+02
6.100000e-07	-2.715047e-06	-1.213554e-08	-1.953300e+01	-7.984196e+02
6.200000e-07	-2.593375e-06	-1.188228e-08	-1.865765e+01	-7.815880e+02
6.300000e-07	-2.470693e-06	-1.161133e-08	-1.777503e+01	-7.639354e+02
6.400000e-07	-2.347039e-06	-1.132128e-08	-1.688542e+01	-7.453940e+02
6.500000e-07	-2.222600e-06	-1.101594e-08	-1.599017e+01	-7.258935e+02
6.600000e-07	-2.097401e-06	-1.070153e-08	-1.508944e+01	-7.053652e+02
6.700000e-07	-1.971545e-06	-1.037695e-08	-1.418399e+01	-6.837436e+02
6.800000e-07	-1.845079e-06	-1.003068e-08	-1.327415e+01	-6.609669e+02
6.900000e-07	-1.717916e-06	-9.660866e-09	-1.235929e+01	-6.369743e+02
7.000000e-07	-1.590097e-06	-9.271442e-09	-1.143971e+01	-6.117037e+02
7.100000e-07	-1.461707e-06	-8.865072e-09	-1.051603e+01	-5.850911e+02
7.200000e-07	-1.332862e-06	-8.437279e-09	-9.589075e+00	-5.570726e+02
7.300000e-07	-1.203638e-06	-7.990081e-09	-8.659393e+00	-5.275921e+02
7.400000e-07	-1.074050e-06	-7.522532e-09	-7.727093e+00	-4.966132e+02
7.500000e-07	-9.441086e-07	-7.026617e-09	-6.792248e+00	-4.641342e+02
7.600000e-07	-8.138101e-07	-6.505097e-09	-5.854836e+00	-4.302022e+02
7.700000e-07	-6.832021e-07	-5.967217e-09	-4.915196e+00	-3.949242e+02
7.800000e-07	-5.523507e-07	-5.417621e-09	-3.973805e+00	-3.584695e+02
7.900000e-07	-4.212794e-07	-4.853345e-09	-3.030832e+00	-3.210617e+02
8.000000e-07	-2.900298e-07	-4.275838e-09	-2.086576e+00	-2.829594e+02
8.100000e-07	-1.586701e-07	-3.690006e-09	-1.141529e+00	-2.444283e+02
8.200000e-07	-2.720805e-08	-3.098875e-09	-1.957443e-01	-2.057073e+02
8.300000e-07	1.043002e-07	-2.506858e-09	7.503720e-01	-1.669755e+02
8.400000e-07	2.357834e-07	-1.920459e-09	1.696308e+00	-1.283267e+02
8.500000e-07	3.672335e-07	-1.337469e-09	2.642007e+00	-8.975585e+01
8.600000e-07	4.986090e-07	-7.526309e-10	3.587168e+00	-5.116278e+01
8.700000e-07	6.298183e-07	-1.653074e-10	4.531134e+00	-1.237182e+01
8.800000e-07	7.608116e-07	4.270890e-10	5.473546e+00	2.683350e+01
8.900000e-07	8.915341e-07	1.030358e-09	6.414010e+00	6.666699e+01
9.000000e-07	1.021925e-06	1.648040e-09	7.352085e+00	1.072946e+02
9.100000e-07	1.151945e-06	2.279610e-09	8.287500e+00	1.487948e+02
9.200000e-07	1.281515e-06	2.924703e-09	9.219670e+00	1.911321e+02
9.300000e-07	1.410592e-06	3.580727e-09	1.014830e+01	2.341463e+02
9.400000e-07	1.539170e-06	4.242026e-09	1.107333e+01	2.775613e+02
9.500000e-07	1.667182e-06	4.900002e-09	1.199429e+01	3.210096e+02
9.600000e-07	1.794545e-06	5.550243e-09	1.291058e+01	3.640688e+02
9.700000e-07	1.921213e-06	6.191423e-09	1.382188e+01	4.063040e+02
9.800000e-07	2.047195e-06	6.815490e-09	1.472824e+01	4.473092e+02
9.900000e-07	2.172452e-06	7.415176e-09	1.562938e+01	4.867419e+02
1.000000e-06	2.296978e-06	7.986870e-09	1.652527e+01	5.243463e+02
1.010000e-06	2.420762e-06	8.528199e-09	1.741581e+01	5.599637e+02
1.020000e-06	2.543645e-06	9.038895e-09	1.829987e+01	5.935302e+02
1.030000e-06	2.665493e-06	9.518810e-09	1.917650e+01	6.250640e+02
1.040000e-06	2.786276e-06	9.968288e-09	2.004545e+01	6.546459e+02
1.050000e-06	2.905964e-06	1.038844e-08	2.090652e+01	6.823978e+02
1.060000e-06	3.024564e-06	1.078293e-08	2.175977e+01	7.084604e+02
1.070000e-06	3.142114e-06	1.115721e-08	2.260547e+01	7.329768e+02
1.080000e-06	3.258575e-06	1.151051e-08	2.344334e+01	7.560793e+02
1.090000e-06	3.373826e-06	1.184378e-08	2.427249e+01	7.778831e+02
1.100000e-06	3.487592e-06	1.215966e-08	2.509096e+01	7.984844e+02
1.110000e-06	3.599849e-06	1.245937e-08	2.589858e+01	8.179620e+02
1.120000e-06	3.710814e-06	1.273967e-08	2.669690e+01	8.363819e+02
1.130000e-06	3.820537e-06	1.300146e-08	2.748629e+01	8.538020e+02
1.140000e-06	3.929042e-06	1.325029e-08	2.826691e+01	8.702766e+02
1.150000e-06	4.036261e-06	1.348690e-08	2.903828e+01	8.858602e+02
1.160000e-06	4.141998e-06	1.371092e-08	2.979899e+01	9.006086e+02
1.170000e-06	4.246146e-06	1.392252e-08	3.054826e+01	9.145800e+02
1.180000e-06	4.348744e-06	1.412265e-08	3.128639e+01	9.278327e+02
1.190000e-06	4.449893e-06	1.431369e-08	3.201409e+01	9.404235e+02
1.200000e-06	4.549570e-06	1.449614e-08	3.273121e+01	9.524043e+02
1.210000e-06	4.647490e-06	1.466915e-08	3.343567e+01	9.638196e+02
1.220000e-06	4.743599e-06	1.483510e-08	3.412712e+01	9.747037e+02
1.230000e-06	4.838013e-06	1.499399e-08	3.480637e+01	9.850805e+02
1.240000e-06	4.930792e-06	1.514614e-08	3.547385e+01	9.949638e+02
1.250000e-06	5.021928e-06	1.528956e-08	3.612951e+01	1.004360e+03
1.260000e-06	5.111174e-06	1.542622e-08	3.677158e+01	1.013270e+03
1.270000e-06	5.198451e-06	1.555592e-08	3.739948e+01	1.021696e+03
1.280000e-06	5.283885e-06	1.567652e-08	3.801413e+01	1.029643e+03
1.290000e-06	5.367539e-06	1.578912e-08	3.861596e+01	1.037127e+03
1.300000e-06	5.449278e-06	1.589596e-08	3.920402e+01	1.044168e+03
1.310000e-06	5.528965e-06	1.599727e-08	3.977732e+01	1.050798e+03
1.320000e-06	5.606626e-06	1.609287e-08	4.033603e+01	1.057055e+03
1.330000e-06	5.682177e-06	1.618521e-08	4.087958e+01	1.062978e+03
1.340000e-06	5.755433e-06	1.627252e-08	4.140661e+01	1.068607e+03
1.350000e-06	5.826489e-06	1.635419e-08	4.191781e+01	1.073975e+03
1.360000e-06	5.895491e-06	1.643227e-08	4.241423e+01	1.079105e+03
1.370000e-06	5.962326e-06	1.650687e-08	4.289507e+01	1.084014e+03
1.380000e-06	6.026983e-06	1.657642e-08	4.336023e+01	1.088706e+03
1.390000e-06	6.089570e-06	1.664241e-08	4.381050e+01	1.093180e+03
1.400000e-06	6.150194e-06	1.670641e-08	4.424665e+01	1.097434e+03
1.410000e-06	6.208677e-06	1.676720e-08	4.466740e+01	1.101462e+03
1.420000e-06	6.264845e-06	1.682331e-08	4.507149e+01	1.105263e+03
1.430000e-06	6.318772e-06	1.687705e-08	4.545946e+01	1.108836e+03
1.440000e-06	6.370215e-06	1.692931e-08	4.582957e+01	1.112186e+03
1.450000e-06	6.418990e-06	1.697823e-08	4.618047e+01	1.115320e+03
1.460000e-06	6.465377e-06	1.702138e-08	4.651419e+01	1.118244e+03
1.470000e-06	6.509681e-06	1.706171e-08	4.683293e+01	1.120965e+03
1.480000e-06	6.551666e-06	1.710018e-08	4.713499e+01	1.123485e+03
1.490000e-06	6.591133e-06	1.713416e-08	4.741892e+01	1.125808e+03
1.500000e-06	6.628391e-06	1.716570e-08	4.768697e+01	1.127933e+03
1.510000e-06	6.663440e-06	1.719493e-08	4.793913e+01	1.129862e+03
1.520000e-06	6.695977e-06	1.722278e-08	4.817321e+01	1.131596e+03
1.530000e-06	6.726084e-06	1.724802e-08	4.838981e+01	1.133140e+03
1.540000e-06	6.753990e-06	1.726796e-08	4.859058e+01	1.134501e+03
1.550000e-06	6.779449e-06	1.728273e-08	4.877374e+01	1.135686e+03
1.560000e-06	6.802279e-06	1.729543e-08	4.893799e+01	1.136707e+03
1.570000e-06	6.822776e-06	1.730686e-08	4.908545e+01	1.137573e+03
1.580000e-06	6.840925e-06	1.731745e-08	4.921602e+01	1.138293e+03
1.590000e-06	6.856477e-06	1.732746e-08	4.932790e+01	1.138875e+03
1.600000e-06	6.869434e-06	1.733692e-08	4.942112e+01	1.139326e+03
1.610000e-06	6.879623e-06	1.734530e-08	4.949443e+01	1.139652e+03
1.620000e-06	6.887157e-06	1.735016e-08	4.954863e+01	1.139861e+03
1.630000e-06	6.892384e-06	1.735226e-08	4.958623e+01	1.139957e+03
1.640000e-06	6.895207e-06	1.735430e-08	4.960654e+01	1.139947e+03
1.650000e-06	6.895535e-06	1.735496e-08	4.960890e+01	1.139833e+03
1.660000e-06	6.893517e-06	1.734783e-08	4.959438e+01	1.139613e+03
1.670000e-06	6.889269e-06	1.733930e-08	4.956382e+01	1.139284e+03
1.680000e-06	6.882674e-06	1.733308e-08	4.951637e+01	1.138834e+03
1.690000e-06	6.873799e-06	1.732596e-08	4.945253e+01	1.138252e+03
1.700000e-06	6.862734e-06	1.731654e-08	4.937292e+01	1.137524e+03
1.710000e-06	6.849229e-06	1.730845e-08	4.927576e+01	1.136642e+03
1.720000e-06	6.833309e-06	1.730336e-08	4.916122e+01	1.135608e+03
1.730000e-06	6.815332e-06	1.727987e-08	4.903189e+01	1.134431e+03
1.740000e-06	6.795218e-06	1.721205e-08	4.888718e+01	1.133136e+03
1.750000e-06	6.772173e-06	1.719164e-08	4.872139e+01	1.131755e+03
1.760000e-06	6.745818e-06	1.719504e-08	4.853179e+01	1.130326e+03
1.770000e-06	6.716664e-06	1.716034e-08	4.832204e+01	1.128881e+03
1.780000e-06	6.685258e-06	1.716738e-08	4.809610e+01	1.127445e+03
1.790000e-06	6.652141e-06	1.721493e-08	4.785784e+01	1.126022e+03
1.800000e-06	6.617662e-06	1.714204e-08	4.760978e+01	1.124596e+03
1.810000e-06	6.581240e-06	1.711905e-08	4.734775e+01	1.123131e+03
1.820000e-06	6.542264e-06	1.713607e-08	4.706734e+01	1.121571e+03
1.830000e-06	6.501058e-06	1.704770e-08	4.677090e+01	1.119855e+03
1.840000e-06	6.457682e-06	1.708709e-08	4.645883e+01	1.117923e+03
1.850000e-06	6.411993e-06	1.707226e-08	4.613013e+01	1.115728e+03
1.860000e-06	6.363978e-06	1.701988e-08	4.578469e+01	1.113241e+03
1.870000e-06	6.313498e-06	1.696876e-08	4.542152e+01	1.110460e+03
1.880000e-06	6.260597e-06	1.683104e-08	4.504094e+01	1.107401e+03
1.890000e-06	6.205075e-06	1.683318e-08	4.464149e+01	1.104101e+03
1.900000e-06	6.147083e-06	1.680014e-08	4.422428e+01	1.100601e+03
1.910000e-06	6.086885e-06	1.676221e-08	4.379119e+01	1.096943e+03
1.920000e-06	6.024263e-06	1.675590e-08	4.334066e+01	1.093154e+03
1.930000e-06	5.959389e-06	1.661701e-08	4.287394e+01	1.089249e+03
1.940000e-06	5.892431e-06	1.654886e-08	4.239221e+01	1.085222e+03
1.950000e-06	5.823254e-06	1.649748e-08	4.189453e+01	1.081055e+03
1.960000e-06	5.751736e-06	1.646739e-08	4.138001e+01	1.076720e+03
1.970000e-06	5.677940e-06	1.639990e-08	4.084910e+01	1.072188e+03
1.980000e-06	5.602001e-06	1.629333e-08	4.030276e+01	1.067432e+03
1.990000e-06	5.523753e-06	1.623832e-08	3.973982e+01	1.062436e+03
2.000000e-06	5.443347e-06	1.611619e-08	3.916135e+01	1.057195e+03
2.010000e-06	5.361143e-06	1.604743e-08	3.856994e+01	1.051707e+03
2.020000e-06	5.277154e-06	1.599670e-08	3.796570e+01	1.045978e+03
2.030000e-06	5.191210e-06	1.590625e-08	3.734739e+01	1.040009e+03
2.040000e-06	5.103273e-06	1.578017e-08	3.671474e+01	1.033800e+03
2.050000e-06	5.013598e-06	1.565336e-08	3.606959e+01	1.027339e+03
2.060000e-06	4.922354e-06	1.558789e-08	3.541315e+01	1.020611e+03
2.070000e-06	4.829419e-06	1.549168e-08	3.474454e+01	1.013598e+03
2.080000e-06	4.734625e-06	1.538423e-08	3.406255e+01	1.006281e+03
2.090000e-06	4.638078e-06	1.526048e-08	3.336796e+01	9.986458e+02
2.100000e-06	4.539990e-06	1.513204e-08	3.266228e+01	9.906840e+02
2.110000e-06	4.440425e-06	1.500286e-08	3.194598e+01	9.823928e+02
2.120000e-06	4.339301e-06	1.488085e-08	3.121846e+01	9.737722e+02
2.130000e-06	4.236510e-06	1.477085e-08	3.047894e+01	9.648204e+02
2.140000e-06	4.132117e-06	1.462359e-08	2.972790e+01	9.555297e+02
2.150000e-06	4.026266e-06	1.445843e-08	2.896637e+01	9.458826e+02
2.160000e-06	3.919089e-06	1.428889e-08	2.819531e+01	9.358512e+02
2.170000e-06	3.810529e-06	1.413226e-08	2.741429e+01	9.253981e+02
2.180000e-06	3.700562e-06	1.397886e-08	2.662314e+01	9.144807e+02
2.190000e-06	3.589154e-06	1.381994e-08	2.582163e+01	9.030560e+02
2.200000e-06	3.476308e-06	1.363929e-08	2.500978e+01	8.910853e+02
2.210000e-06	3.362173e-06	1.343387e-08	2.418866e+01	8.785373e+02
2.220000e-06	3.246621e-06	1.322501e-08	2.335733e+01	8.653881e+02
2.230000e-06	3.129610e-06	1.302422e-08	2.251551e+01	8.516192e+02
2.240000e-06	3.011355e-06	1.281774e-08	2.166474e+01	8.372124e+02
2.250000e-06	2.891907e-06	1.259025e-08	2.080539e+01	8.221447e+02
2.260000e-06	2.771276e-06	1.234657e-08	1.993753e+01	8.063837e+02
2.270000e-06	2.649650e-06	1.208708e-08	1.906252e+01	7.898848e+02
2.280000e-06	2.527158e-06	1.182026e-08	1.818126e+01	7.725919e+02
2.290000e-06	2.403802e-06	1.154769e-08	1.729380e+01	7.544398e+02
2.300000e-06	2.279571e-06	1.126750e-08	1.640004e+01	7.353588e+02
2.310000e-06	2.154486e-06	1.096759e-08	1.550013e+01	7.152790e+02
2.320000e-06	2.028682e-06	1.064351e-08	1.459505e+01	6.941336e+02
2.330000e-06	1.902209e-06	1.030073e-08	1.368516e+01	6.718593e+02
2.340000e-06	1.774988e-06	9.943260e-09	1.276988e+01	6.483951e+02
2.350000e-06	1.647080e-06	9.570639e-09	1.184967e+01	6.236798e+02
2.360000e-06	1.518646e-06	9.177233e-09	1.092567e+01	5.976502e+02
2.370000e-06	1.389744e-06	8.757348e-09	9.998306e+00	5.702416e+02
2.380000e-06	1.260409e-06	8.311123e-09	9.067827e+00	5.413934e+02
2.390000e-06	1.130723e-06	7.847612e-09	8.134818e+00	5.110592e+02
2.400000e-06	1.000696e-06	7.365312e-09	7.199359e+00	4.792203e+02
2.410000e-06	8.703902e-07	6.859084e-09	6.261893e+00	4.459014e+02
2.420000e-06	7.398493e-07	6.327650e-09	5.322736e+00	4.111830e+02
2.430000e-06	6.090895e-07	5.774419e-09	4.382004e+00	3.752080e+02
2.440000e-06	4.781402e-07	5.203950e-09	3.439908e+00	3.381782e+02
2.450000e-06	3.470301e-07	4.621711e-09	2.496656e+00	3.003405e+02
2.460000e-06	2.158232e-07	4.036094e-09	1.552708e+00	2.619615e+02
2.470000e-06	8.450179e-08	3.446951e-09	6.079356e-01	2.232956e+02
2.480000e-06	-4.690324e-08	2.853408e-09	-3.374383e-01	1.845514e+02
2.490000e-06	-1.782782e-07	2.259189e-09	-1.282596e+00	1.458616e+02
2.500000e-06	-3.095923e-07	1.667419e-09	-2.227316e+00	1.072642e+02
2.510000e-06	-4.408228e-07	1.078542e-09	-3.171434e+00	6.869828e+01
2.520000e-06	-5.719593e-07	4.860444e-10	-4.114876e+00	3.001703e+01
2.530000e-06	-7.029601e-07	-1.148456e-10	-5.057341e+00	-8.983453e+00
2.540000e-06	-8.337594e-07	-7.246477e-10	-5.998358e+00	-4.852376e+01
2.550000e-06	-9.643294e-07	-1.344324e-09	-6.937724e+00	-8.879566e+01
2.560000e-06	-1.094612e-06	-1.973189e-09	-7.875024e+00	-1.299193e+02
2.570000e-06	-1.224525e-06	-2.611832e-09	-8.809662e+00	-1.719103e+02
2.580000e-06	-1.353995e-06	-3.262136e-09	-9.741114e+00	-2.146620e+02
2.590000e-06	-1.483000e-06	-3.925583e-09	-1.066922e+01	-2.579458e+02
2.600000e-06	-1.611531e-06	-4.594691e-09	-1.159392e+01	-3.014294e+02
2.610000e-06	-1.739578e-06	-5.259070e-09	-1.251513e+01	-3.447091e+02
2.620000e-06	-1.866990e-06	-5.911770e-09	-1.343179e+01	-3.873498e+02
2.630000e-06	-1.993612e-06	-6.546320e-09	-1.434274e+01	-4.289286e+02
2.640000e-06	-2.119377e-06	-7.160476e-09	-1.524755e+01	-4.690722e+02
2.650000e-06	-2.244264e-06	-7.750109e-09	-1.614603e+01	-5.074855e+02
2.660000e-06	-2.368272e-06	-8.312091e-09	-1.703818e+01	-5.439678e+02
2.670000e-06	-2.491359e-06	-8.842096e-09	-1.792371e+01	-5.784155e+02
2.680000e-06	-2.613516e-06	-9.335593e-09	-1.880255e+01	-6.108138e+02
2.690000e-06	-2.734678e-06	-9.798190e-09	-1.967424e+01	-6.412194e+02
2.700000e-06	-2.854863e-06	-1.023303e-08	-2.053889e+01	-6.697391e+02
2.710000e-06	-2.974013e-06	-1.064109e-08	-2.139609e+01	-6.965081e+02
2.720000e-06	-3.091949e-06	-1.102550e-08	-2.224456e+01	-7.216703e+02
2.730000e-06	-3.208637e-06	-1.138836e-08	-2.308406e+01	-7.453637e+02
2.740000e-06	-3.324009e-06	-1.173092e-08	-2.391409e+01	-7.677114e+02
2.750000e-06	-3.437987e-06	-1.205437e-08	-2.473409e+01	-7.888175e+02
2.760000e-06	-3.550558e-06	-1.236015e-08	-2.554396e+01	-8.087681e+02
2.770000e-06	-3.661725e-06	-1.264771e-08	-2.634374e+01	-8.276340e+02
2.780000e-06	-3.771582e-06	-1.291764e-08	-2.713409e+01	-8.454760e+02
2.790000e-06	-3.880233e-06	-1.317294e-08	-2.791576e+01	-8.623494e+02
2.800000e-06	-3.987696e-06	-1.341508e-08	-2.868889e+01	-8.783082e+02
2.810000e-06	-4.093871e-06	-1.364577e-08	-2.945274e+01	-8.934077e+02
2.820000e-06	-4.198621e-06	-1.386726e-08	-3.020636e+01	-9.077051e+02
2.830000e-06	-4.301754e-06	-1.408034e-08	-3.094833e+01	-9.212588e+02
2.840000e-06	-4.403172e-06	-1.428298e-08	-3.167797e+01	-9.341267e+02
2.850000e-06	-4.503034e-06	-1.447135e-08	-3.239641e+01	-9.463632e+02
2.860000e-06	-4.601400e-06	-1.464707e-08	-3.310409e+01	-9.580161e+02
2.870000e-06	-4.698225e-06	-1.481355e-08	-3.380068e+01	-9.691245e+02
2.880000e-06	-4.793423e-06	-1.497318e-08	-3.448557e+01	-9.797166e+02
2.890000e-06	-4.886808e-06	-1.512496e-08	-3.515741e+01	-9.898104e+02
2.900000e-06	-4.978446e-06	-1.526992e-08	-3.581669e+01	-9.994150e+02
2.910000e-06	-5.068408e-06	-1.540912e-08	-3.646391e+01	-1.008533e+03
2.920000e-06	-5.156524e-06	-1.554139e-08	-3.709785e+01	-1.017166e+03
2.930000e-06	-5.242571e-06	-1.566693e-08	-3.771689e+01	-1.025318e+03
2.940000e-06	-5.326650e-06	-1.578643e-08	-3.832179e+01	-1.032998e+03
