# Temperatura_=_90.53
# Concentracion g/m^3_=_28200.0
# C_Vs_to_Am_M_A/Vsm_=_65563218390.804596
# pendiente_HvsI_1/m_=_3716.3
# ordenada_HvsI_A/m_=_1297.0
# frecuencia_Hz_=_302286.3089120806

Tiempo_(s)	Campo_(V.s)	Magnetizacion_(V.s)	Campo_(kA/m)	Magnetizacion_(A/m)
0.000000e+00	-6.951504e-06	-2.938499e-08	-4.951739e+01	-1.924674e+03
1.000000e-08	-6.948199e-06	-2.937950e-08	-4.949385e+01	-1.924074e+03
2.000000e-08	-6.942626e-06	-2.936569e-08	-4.945415e+01	-1.923242e+03
3.000000e-08	-6.934925e-06	-2.935072e-08	-4.939930e+01	-1.922191e+03
4.000000e-08	-6.924878e-06	-2.933172e-08	-4.932773e+01	-1.920935e+03
5.000000e-08	-6.912247e-06	-2.930951e-08	-4.923775e+01	-1.919486e+03
6.000000e-08	-6.896924e-06	-2.928357e-08	-4.912860e+01	-1.917855e+03
7.000000e-08	-6.879222e-06	-2.925271e-08	-4.900251e+01	-1.916049e+03
8.000000e-08	-6.859522e-06	-2.923809e-08	-4.886218e+01	-1.914075e+03
9.000000e-08	-6.837530e-06	-2.925512e-08	-4.870552e+01	-1.911939e+03
1.000000e-07	-6.812785e-06	-2.920434e-08	-4.852926e+01	-1.909654e+03
1.100000e-07	-6.785272e-06	-2.912166e-08	-4.833328e+01	-1.907236e+03
1.200000e-07	-6.755347e-06	-2.908021e-08	-4.812012e+01	-1.904700e+03
1.300000e-07	-6.723182e-06	-2.903594e-08	-4.789100e+01	-1.902057e+03
1.400000e-07	-6.688849e-06	-2.893257e-08	-4.764643e+01	-1.899307e+03
1.500000e-07	-6.652700e-06	-2.889944e-08	-4.738893e+01	-1.896430e+03
1.600000e-07	-6.614700e-06	-2.893496e-08	-4.711825e+01	-1.893392e+03
1.700000e-07	-6.574547e-06	-2.877629e-08	-4.683223e+01	-1.890139e+03
1.800000e-07	-6.532091e-06	-2.872508e-08	-4.652981e+01	-1.886611e+03
1.900000e-07	-6.487126e-06	-2.870559e-08	-4.620950e+01	-1.882750e+03
2.000000e-07	-6.439665e-06	-2.858741e-08	-4.587143e+01	-1.878510e+03
2.100000e-07	-6.389719e-06	-2.856401e-08	-4.551565e+01	-1.873869e+03
2.200000e-07	-6.337101e-06	-2.849355e-08	-4.514084e+01	-1.868830e+03
2.300000e-07	-6.281976e-06	-2.841375e-08	-4.474817e+01	-1.863424e+03
2.400000e-07	-6.224546e-06	-2.831247e-08	-4.433908e+01	-1.857693e+03
2.500000e-07	-6.164736e-06	-2.821227e-08	-4.391304e+01	-1.851688e+03
2.600000e-07	-6.102572e-06	-2.812557e-08	-4.347023e+01	-1.845446e+03
2.700000e-07	-6.038123e-06	-2.800410e-08	-4.301114e+01	-1.838989e+03
2.800000e-07	-5.971459e-06	-2.791709e-08	-4.253628e+01	-1.832311e+03
2.900000e-07	-5.902590e-06	-2.781089e-08	-4.204570e+01	-1.825384e+03
3.000000e-07	-5.831495e-06	-2.768780e-08	-4.153927e+01	-1.818167e+03
3.100000e-07	-5.758165e-06	-2.758104e-08	-4.101692e+01	-1.810614e+03
3.200000e-07	-5.682493e-06	-2.745729e-08	-4.047789e+01	-1.802687e+03
3.300000e-07	-5.604426e-06	-2.733642e-08	-3.992180e+01	-1.794366e+03
3.400000e-07	-5.524115e-06	-2.719453e-08	-3.934973e+01	-1.785650e+03
3.500000e-07	-5.441835e-06	-2.706648e-08	-3.876362e+01	-1.776554e+03
3.600000e-07	-5.357758e-06	-2.692665e-08	-3.816472e+01	-1.767102e+03
3.700000e-07	-5.271920e-06	-2.677296e-08	-3.755327e+01	-1.757312e+03
3.800000e-07	-5.184317e-06	-2.662925e-08	-3.692926e+01	-1.747187e+03
3.900000e-07	-5.094868e-06	-2.646402e-08	-3.629209e+01	-1.736712e+03
4.000000e-07	-5.003608e-06	-2.629662e-08	-3.564202e+01	-1.725852e+03
4.100000e-07	-4.910692e-06	-2.611526e-08	-3.498015e+01	-1.714559e+03
4.200000e-07	-4.816134e-06	-2.593565e-08	-3.430659e+01	-1.702781e+03
4.300000e-07	-4.719821e-06	-2.574596e-08	-3.362053e+01	-1.690478e+03
4.400000e-07	-4.621738e-06	-2.554711e-08	-3.292186e+01	-1.677627e+03
4.500000e-07	-4.521957e-06	-2.534649e-08	-3.221109e+01	-1.664225e+03
4.600000e-07	-4.420565e-06	-2.513679e-08	-3.148885e+01	-1.650284e+03
4.700000e-07	-4.317619e-06	-2.492038e-08	-3.075553e+01	-1.635823e+03
4.800000e-07	-4.213121e-06	-2.469106e-08	-3.001117e+01	-1.620854e+03
4.900000e-07	-4.107072e-06	-2.445762e-08	-2.925575e+01	-1.605370e+03
5.000000e-07	-3.999511e-06	-2.420934e-08	-2.848957e+01	-1.589339e+03
5.100000e-07	-3.890515e-06	-2.395083e-08	-2.771317e+01	-1.572703e+03
5.200000e-07	-3.780170e-06	-2.368106e-08	-2.692715e+01	-1.555388e+03
5.300000e-07	-3.668443e-06	-2.340142e-08	-2.613129e+01	-1.537314e+03
5.400000e-07	-3.555203e-06	-2.311232e-08	-2.532465e+01	-1.518411e+03
5.500000e-07	-3.440455e-06	-2.280981e-08	-2.450727e+01	-1.498627e+03
5.600000e-07	-3.324246e-06	-2.249546e-08	-2.367948e+01	-1.477934e+03
5.700000e-07	-3.206722e-06	-2.216661e-08	-2.284232e+01	-1.456319e+03
5.800000e-07	-3.088084e-06	-2.182667e-08	-2.199724e+01	-1.433774e+03
5.900000e-07	-2.968270e-06	-2.146891e-08	-2.114377e+01	-1.410280e+03
6.000000e-07	-2.847250e-06	-2.109561e-08	-2.028171e+01	-1.385790e+03
6.100000e-07	-2.725124e-06	-2.070502e-08	-1.941178e+01	-1.360217e+03
6.200000e-07	-2.602019e-06	-2.029341e-08	-1.853486e+01	-1.333441e+03
6.300000e-07	-2.478044e-06	-1.985754e-08	-1.765176e+01	-1.305313e+03
6.400000e-07	-2.353150e-06	-1.939844e-08	-1.676211e+01	-1.275672e+03
6.500000e-07	-2.227416e-06	-1.891807e-08	-1.586647e+01	-1.244360e+03
6.600000e-07	-2.101031e-06	-1.841252e-08	-1.496620e+01	-1.211244e+03
6.700000e-07	-1.973959e-06	-1.788157e-08	-1.406103e+01	-1.176209e+03
6.800000e-07	-1.846125e-06	-1.732020e-08	-1.315044e+01	-1.139158e+03
6.900000e-07	-1.717555e-06	-1.672687e-08	-1.223460e+01	-1.099995e+03
7.000000e-07	-1.588343e-06	-1.609707e-08	-1.131419e+01	-1.058602e+03
7.100000e-07	-1.458588e-06	-1.542894e-08	-1.038990e+01	-1.014827e+03
7.200000e-07	-1.328384e-06	-1.471867e-08	-9.462430e+00	-9.684746e+02
7.300000e-07	-1.197761e-06	-1.396320e-08	-8.531967e+00	-9.193255e+02
7.400000e-07	-1.066741e-06	-1.316072e-08	-7.598674e+00	-8.671651e+02
7.500000e-07	-9.353964e-07	-1.231141e-08	-6.663075e+00	-8.118317e+02
7.600000e-07	-8.037297e-07	-1.141915e-08	-5.725178e+00	-7.532666e+02
7.700000e-07	-6.718080e-07	-1.048031e-08	-4.785465e+00	-6.915559e+02
7.800000e-07	-5.396932e-07	-9.499481e-09	-3.844377e+00	-6.269510e+02
7.900000e-07	-4.074005e-07	-8.482995e-09	-2.902021e+00	-5.598576e+02
8.000000e-07	-2.749382e-07	-7.435544e-09	-1.958457e+00	-4.907915e+02
8.100000e-07	-1.423571e-07	-6.361906e-09	-1.014047e+00	-4.203049e+02
8.200000e-07	-9.689114e-09	-5.268847e-09	-6.901811e-02	-3.488995e+02
8.300000e-07	1.230407e-07	-4.165886e-09	8.764514e-01	-2.769402e+02
8.400000e-07	2.557900e-07	-3.057041e-09	1.822059e+00	-2.045936e+02
8.500000e-07	3.885002e-07	-1.945486e-09	2.767389e+00	-1.318040e+02
8.600000e-07	5.211122e-07	-8.298751e-10	3.712019e+00	-5.831769e+01
8.700000e-07	6.535633e-07	2.995687e-10	4.655504e+00	1.624627e+01
8.800000e-07	7.857989e-07	1.452285e-09	5.597453e+00	9.229102e+01
8.900000e-07	9.177313e-07	2.633392e-09	6.537242e+00	1.701217e+02
9.000000e-07	1.049306e-06	3.844203e-09	7.474480e+00	2.498346e+02
9.100000e-07	1.180495e-06	5.082987e-09	8.408980e+00	3.312391e+02
9.200000e-07	1.311249e-06	6.344516e-09	9.340373e+00	4.138281e+02
9.300000e-07	1.441583e-06	7.615501e-09	1.026877e+01	4.968058e+02
9.400000e-07	1.571449e-06	8.877869e-09	1.119385e+01	5.791662e+02
9.500000e-07	1.700767e-06	1.010942e-08	1.211501e+01	6.598095e+02
9.600000e-07	1.829374e-06	1.129017e-08	1.303111e+01	7.376731e+02
9.700000e-07	1.957156e-06	1.240790e-08	1.394133e+01	8.118531e+02
9.800000e-07	2.084186e-06	1.345673e-08	1.484621e+01	8.816951e+02
9.900000e-07	2.210526e-06	1.443773e-08	1.574616e+01	9.468413e+02
1.000000e-06	2.336129e-06	1.535021e-08	1.664086e+01	1.007227e+03
1.010000e-06	2.460958e-06	1.619624e-08	1.753005e+01	1.063036e+03
1.020000e-06	2.584892e-06	1.698285e-08	1.841287e+01	1.114625e+03
1.030000e-06	2.707841e-06	1.771317e-08	1.928866e+01	1.162435e+03
1.040000e-06	2.829787e-06	1.839144e-08	2.015732e+01	1.206916e+03
1.050000e-06	2.950526e-06	1.902355e-08	2.101737e+01	1.248463e+03
1.060000e-06	3.070061e-06	1.961271e-08	2.186885e+01	1.287389e+03
1.070000e-06	3.188546e-06	2.016261e-08	2.271285e+01	1.323920e+03
1.080000e-06	3.305928e-06	2.067798e-08	2.354899e+01	1.358212e+03
1.090000e-06	3.422086e-06	2.116214e-08	2.437642e+01	1.390388e+03
1.100000e-06	3.536891e-06	2.161827e-08	2.519420e+01	1.420560e+03
1.110000e-06	3.650263e-06	2.204939e-08	2.600178e+01	1.448860e+03
1.120000e-06	3.762204e-06	2.245739e-08	2.679917e+01	1.475440e+03
1.130000e-06	3.872807e-06	2.284176e-08	2.758703e+01	1.500473e+03
1.140000e-06	3.982179e-06	2.320294e-08	2.836611e+01	1.524134e+03
1.150000e-06	4.090289e-06	2.354588e-08	2.913621e+01	1.546581e+03
1.160000e-06	4.196982e-06	2.387306e-08	2.989621e+01	1.567942e+03
1.170000e-06	4.302032e-06	2.418323e-08	3.064451e+01	1.588303e+03
1.180000e-06	4.405451e-06	2.447540e-08	3.138119e+01	1.607715e+03
1.190000e-06	4.507377e-06	2.475190e-08	3.210723e+01	1.626199e+03
1.200000e-06	4.607749e-06	2.501531e-08	3.282221e+01	1.643767e+03
1.210000e-06	4.706447e-06	2.526641e-08	3.352526e+01	1.660437e+03
1.220000e-06	4.803356e-06	2.550575e-08	3.421557e+01	1.676241e+03
1.230000e-06	4.898435e-06	2.573516e-08	3.489284e+01	1.691230e+03
1.240000e-06	4.991788e-06	2.595626e-08	3.555782e+01	1.705471e+03
1.250000e-06	5.083464e-06	2.616571e-08	3.621085e+01	1.719038e+03
1.260000e-06	5.173238e-06	2.636296e-08	3.685034e+01	1.731998e+03
1.270000e-06	5.261072e-06	2.654935e-08	3.747600e+01	1.744403e+03
1.280000e-06	5.347084e-06	2.672488e-08	3.808869e+01	1.756287e+03
1.290000e-06	5.431283e-06	2.689307e-08	3.868846e+01	1.767661e+03
1.300000e-06	5.513548e-06	2.705554e-08	3.927445e+01	1.778526e+03
1.310000e-06	5.593745e-06	2.721271e-08	3.984572e+01	1.788877e+03
1.320000e-06	5.671854e-06	2.736581e-08	4.040211e+01	1.798714e+03
1.330000e-06	5.747826e-06	2.751406e-08	4.094328e+01	1.808045e+03
1.340000e-06	5.821529e-06	2.765553e-08	4.146828e+01	1.816891e+03
1.350000e-06	5.892987e-06	2.778867e-08	4.197730e+01	1.825278e+03
1.360000e-06	5.962384e-06	2.791478e-08	4.247163e+01	1.833238e+03
1.370000e-06	6.029698e-06	2.803375e-08	4.295112e+01	1.840794e+03
1.380000e-06	6.094807e-06	2.814239e-08	4.341492e+01	1.847964e+03
1.390000e-06	6.157758e-06	2.824157e-08	4.386333e+01	1.854752e+03
1.400000e-06	6.218749e-06	2.833605e-08	4.429779e+01	1.861159e+03
1.410000e-06	6.277594e-06	2.842708e-08	4.471695e+01	1.867183e+03
1.420000e-06	6.334109e-06	2.851439e-08	4.511952e+01	1.872830e+03
1.430000e-06	6.388374e-06	2.859863e-08	4.550607e+01	1.878114e+03
1.440000e-06	6.440099e-06	2.867853e-08	4.587452e+01	1.883065e+03
1.450000e-06	6.489108e-06	2.875257e-08	4.622362e+01	1.887718e+03
1.460000e-06	6.535658e-06	2.882009e-08	4.655521e+01	1.892114e+03
1.470000e-06	6.580067e-06	2.888276e-08	4.687155e+01	1.896285e+03
1.480000e-06	6.622209e-06	2.894247e-08	4.717174e+01	1.900250e+03
1.490000e-06	6.661866e-06	2.900007e-08	4.745423e+01	1.904008e+03
1.500000e-06	6.699234e-06	2.905420e-08	4.772041e+01	1.907542e+03
1.510000e-06	6.734305e-06	2.910367e-08	4.797023e+01	1.910819e+03
1.520000e-06	6.766937e-06	2.915059e-08	4.820267e+01	1.913802e+03
1.530000e-06	6.797155e-06	2.919324e-08	4.841793e+01	1.916462e+03
1.540000e-06	6.825007e-06	2.922962e-08	4.861632e+01	1.918781e+03
1.550000e-06	6.850312e-06	2.925976e-08	4.879658e+01	1.920762e+03
1.560000e-06	6.873051e-06	2.928412e-08	4.895855e+01	1.922424e+03
1.570000e-06	6.893442e-06	2.930583e-08	4.910380e+01	1.923802e+03
1.580000e-06	6.911427e-06	2.932414e-08	4.923191e+01	1.924934e+03
1.590000e-06	6.926845e-06	2.934014e-08	4.934174e+01	1.925855e+03
1.600000e-06	6.939625e-06	2.935408e-08	4.943277e+01	1.926589e+03
1.610000e-06	6.949619e-06	2.936385e-08	4.950396e+01	1.927144e+03
1.620000e-06	6.956941e-06	2.937049e-08	4.955612e+01	1.927517e+03
1.630000e-06	6.961874e-06	2.937284e-08	4.959126e+01	1.927691e+03
1.640000e-06	6.964350e-06	2.937299e-08	4.960890e+01	1.927651e+03
1.650000e-06	6.964316e-06	2.937135e-08	4.960866e+01	1.927380e+03
1.660000e-06	6.961951e-06	2.935994e-08	4.959181e+01	1.926873e+03
1.670000e-06	6.957347e-06	2.934851e-08	4.955902e+01	1.926130e+03
1.680000e-06	6.950360e-06	2.933680e-08	4.950925e+01	1.925163e+03
1.690000e-06	6.941038e-06	2.932152e-08	4.944284e+01	1.923985e+03
1.700000e-06	6.929432e-06	2.930277e-08	4.936017e+01	1.922610e+03
1.710000e-06	6.915396e-06	2.928441e-08	4.926019e+01	1.921050e+03
1.720000e-06	6.899070e-06	2.927006e-08	4.914389e+01	1.919311e+03
1.730000e-06	6.880712e-06	2.920837e-08	4.901312e+01	1.917402e+03
1.740000e-06	6.860030e-06	2.912121e-08	4.886580e+01	1.915327e+03
1.750000e-06	6.836270e-06	2.911548e-08	4.869655e+01	1.913099e+03
1.760000e-06	6.809227e-06	2.910793e-08	4.850392e+01	1.910731e+03
1.770000e-06	6.779432e-06	2.905017e-08	4.829168e+01	1.908239e+03
1.780000e-06	6.747467e-06	2.906557e-08	4.806399e+01	1.905637e+03
1.790000e-06	6.713844e-06	2.906426e-08	4.782448e+01	1.902929e+03
1.800000e-06	6.678812e-06	2.893304e-08	4.757494e+01	1.900105e+03
1.810000e-06	6.641742e-06	2.898192e-08	4.731088e+01	1.897135e+03
1.820000e-06	6.602117e-06	2.895777e-08	4.702862e+01	1.893973e+03
1.830000e-06	6.560281e-06	2.884823e-08	4.673061e+01	1.890560e+03
1.840000e-06	6.516191e-06	2.886596e-08	4.641655e+01	1.886836e+03
1.850000e-06	6.469660e-06	2.871280e-08	4.608509e+01	1.882748e+03
1.860000e-06	6.420728e-06	2.865445e-08	4.573653e+01	1.878265e+03
1.870000e-06	6.369319e-06	2.857862e-08	4.537033e+01	1.873380e+03
1.880000e-06	6.315412e-06	2.846413e-08	4.498634e+01	1.868113e+03
1.890000e-06	6.258964e-06	2.846047e-08	4.458425e+01	1.862503e+03
1.900000e-06	6.200155e-06	2.832650e-08	4.416533e+01	1.856600e+03
1.910000e-06	6.139064e-06	2.826782e-08	4.373017e+01	1.850447e+03
1.920000e-06	6.075473e-06	2.817146e-08	4.327719e+01	1.844073e+03
1.930000e-06	6.009661e-06	2.802981e-08	4.280840e+01	1.837484e+03
1.940000e-06	5.941752e-06	2.797524e-08	4.232466e+01	1.830659e+03
1.950000e-06	5.871503e-06	2.783080e-08	4.182426e+01	1.823561e+03
1.960000e-06	5.798912e-06	2.774220e-08	4.130718e+01	1.816144e+03
1.970000e-06	5.724044e-06	2.760591e-08	4.077387e+01	1.808367e+03
1.980000e-06	5.646881e-06	2.748146e-08	4.022422e+01	1.800201e+03
1.990000e-06	5.567438e-06	2.736367e-08	3.965832e+01	1.791639e+03
2.000000e-06	5.486044e-06	2.720804e-08	3.907854e+01	1.782689e+03
2.010000e-06	5.402849e-06	2.709547e-08	3.848591e+01	1.773374e+03
2.020000e-06	5.317710e-06	2.692667e-08	3.787945e+01	1.763715e+03
2.030000e-06	5.230536e-06	2.678237e-08	3.725849e+01	1.753721e+03
2.040000e-06	5.141453e-06	2.661517e-08	3.662392e+01	1.743387e+03
2.050000e-06	5.050716e-06	2.644951e-08	3.597758e+01	1.732683e+03
2.060000e-06	4.958268e-06	2.628354e-08	3.531905e+01	1.721565e+03
2.070000e-06	4.864012e-06	2.610098e-08	3.464764e+01	1.709983e+03
2.080000e-06	4.768006e-06	2.592859e-08	3.396376e+01	1.697890e+03
2.090000e-06	4.670376e-06	2.573278e-08	3.326832e+01	1.685255e+03
2.100000e-06	4.571190e-06	2.554279e-08	3.256179e+01	1.672068e+03
2.110000e-06	4.470387e-06	2.533262e-08	3.184374e+01	1.658336e+03
2.120000e-06	4.367936e-06	2.511815e-08	3.111395e+01	1.644077e+03
2.130000e-06	4.263871e-06	2.488643e-08	3.037268e+01	1.629307e+03
2.140000e-06	4.158344e-06	2.464865e-08	2.962098e+01	1.614027e+03
2.150000e-06	4.051439e-06	2.440707e-08	2.885947e+01	1.598216e+03
2.160000e-06	3.943102e-06	2.415888e-08	2.808775e+01	1.581825e+03
2.170000e-06	3.833240e-06	2.390615e-08	2.730518e+01	1.564786e+03
2.180000e-06	3.721916e-06	2.363758e-08	2.651219e+01	1.547019e+03
2.190000e-06	3.609165e-06	2.335700e-08	2.570903e+01	1.528448e+03
2.200000e-06	3.495002e-06	2.305928e-08	2.489582e+01	1.509015e+03
2.210000e-06	3.379392e-06	2.275281e-08	2.407230e+01	1.488680e+03
2.220000e-06	3.262282e-06	2.242923e-08	2.323810e+01	1.467428e+03
2.230000e-06	3.143798e-06	2.209562e-08	2.239410e+01	1.445249e+03
2.240000e-06	3.024105e-06	2.174203e-08	2.154150e+01	1.422132e+03
2.250000e-06	2.903246e-06	2.137027e-08	2.068058e+01	1.398040e+03
2.260000e-06	2.781339e-06	2.098328e-08	1.981221e+01	1.372904e+03
2.270000e-06	2.658508e-06	2.058346e-08	1.893726e+01	1.346617e+03
2.280000e-06	2.534743e-06	2.016662e-08	1.805564e+01	1.319039e+03
2.290000e-06	2.410058e-06	1.972569e-08	1.716748e+01	1.290011e+03
2.300000e-06	2.284440e-06	1.926095e-08	1.627266e+01	1.259372e+03
2.310000e-06	2.157992e-06	1.876774e-08	1.537194e+01	1.226979e+03
2.320000e-06	2.030814e-06	1.824581e-08	1.446602e+01	1.192709e+03
2.330000e-06	1.902988e-06	1.769377e-08	1.355548e+01	1.156461e+03
2.340000e-06	1.774487e-06	1.711347e-08	1.264014e+01	1.118140e+03
2.350000e-06	1.645314e-06	1.649883e-08	1.172000e+01	1.077639e+03
2.360000e-06	1.515601e-06	1.584462e-08	1.079603e+01	1.034820e+03
2.370000e-06	1.385520e-06	1.514949e-08	9.869425e+00	9.895048e+02
2.380000e-06	1.255156e-06	1.441358e-08	8.940804e+00	9.414807e+02
2.390000e-06	1.124443e-06	1.363534e-08	8.009705e+00	8.905262e+02
2.400000e-06	9.933322e-07	1.281045e-08	7.075767e+00	8.364527e+02
2.410000e-06	8.618435e-07	1.193944e-08	6.139138e+00	7.791551e+02
2.420000e-06	7.300435e-07	1.102111e-08	5.200292e+00	7.186589e+02
2.430000e-06	5.979463e-07	1.005445e-08	4.259329e+00	6.551501e+02
2.440000e-06	4.655729e-07	9.044425e-09	3.316399e+00	5.889771e+02
2.450000e-06	3.330260e-07	8.001287e-09	2.372232e+00	5.206197e+02
2.460000e-06	2.003256e-07	6.932689e-09	1.426972e+00	4.506260e+02
2.470000e-06	6.750784e-08	5.845420e-09	4.808761e-01	3.795283e+02
2.480000e-06	-6.529788e-08	4.747999e-09	-4.651340e-01	3.077542e+02
2.490000e-06	-1.980769e-07	3.642211e-09	-1.410954e+00	2.355536e+02
2.500000e-06	-3.308368e-07	2.530413e-09	-2.356637e+00	1.629579e+02
2.510000e-06	-4.635080e-07	1.411645e-09	-3.301690e+00	8.978525e+01
2.520000e-06	-5.960486e-07	2.800274e-10	-4.245811e+00	1.569365e+01
2.530000e-06	-7.283345e-07	-8.709517e-10	-5.188118e+00	-5.972537e+01
2.540000e-06	-8.602783e-07	-2.045582e-09	-6.127989e+00	-1.368297e+02
2.550000e-06	-9.919013e-07	-3.248482e-09	-7.065574e+00	-2.158093e+02
2.560000e-06	-1.123171e-06	-4.480409e-09	-8.000642e+00	-2.965927e+02
2.570000e-06	-1.254067e-06	-5.736213e-09	-8.933046e+00	-3.787970e+02
2.580000e-06	-1.384606e-06	-7.004881e-09	-9.862915e+00	-4.617331e+02
2.590000e-06	-1.514740e-06	-8.272734e-09	-1.078989e+01	-5.444653e+02
2.600000e-06	-1.644371e-06	-9.523905e-09	-1.171329e+01	-6.259155e+02
2.610000e-06	-1.773450e-06	-1.073875e-08	-1.263275e+01	-7.049907e+02
2.620000e-06	-1.901891e-06	-1.189940e-08	-1.354767e+01	-7.807116e+02
2.630000e-06	-2.029561e-06	-1.299458e-08	-1.445710e+01	-8.523179e+02
2.640000e-06	-2.156439e-06	-1.401976e-08	-1.536088e+01	-9.193327e+02
2.650000e-06	-2.282582e-06	-1.497083e-08	-1.625944e+01	-9.815796e+02
2.660000e-06	-2.407900e-06	-1.585222e-08	-1.715210e+01	-1.039152e+03
2.670000e-06	-2.532172e-06	-1.667003e-08	-1.803733e+01	-1.092349e+03
2.680000e-06	-2.655358e-06	-1.742769e-08	-1.891481e+01	-1.141590e+03
2.690000e-06	-2.777526e-06	-1.813225e-08	-1.978505e+01	-1.187328e+03
2.700000e-06	-2.898730e-06	-1.879021e-08	-2.064842e+01	-1.229986e+03
2.710000e-06	-3.018924e-06	-1.940648e-08	-2.150459e+01	-1.269911e+03
2.720000e-06	-3.138015e-06	-1.998171e-08	-2.235291e+01	-1.307361e+03
2.730000e-06	-3.255892e-06	-2.051735e-08	-2.319258e+01	-1.342518e+03
2.740000e-06	-3.372420e-06	-2.101873e-08	-2.402263e+01	-1.375512e+03
2.750000e-06	-3.487587e-06	-2.148999e-08	-2.484300e+01	-1.406458e+03
2.760000e-06	-3.601355e-06	-2.193159e-08	-2.565340e+01	-1.435476e+03
2.770000e-06	-3.713669e-06	-2.234467e-08	-2.645344e+01	-1.462713e+03
2.780000e-06	-3.824434e-06	-2.273688e-08	-2.724245e+01	-1.488333e+03
2.790000e-06	-3.933794e-06	-2.311175e-08	-2.802145e+01	-1.512513e+03
2.800000e-06	-4.041949e-06	-2.346795e-08	-2.879187e+01	-1.535421e+03
2.810000e-06	-4.148842e-06	-2.380458e-08	-2.955330e+01	-1.557196e+03
2.820000e-06	-4.254360e-06	-2.412147e-08	-3.030492e+01	-1.577943e+03
2.830000e-06	-4.358333e-06	-2.442192e-08	-3.104555e+01	-1.597724e+03
2.840000e-06	-4.460652e-06	-2.470799e-08	-3.177440e+01	-1.616571e+03
2.850000e-06	-4.561264e-06	-2.497955e-08	-3.249108e+01	-1.634498e+03
2.860000e-06	-4.660276e-06	-2.523537e-08	-3.319637e+01	-1.651519e+03
2.870000e-06	-4.757764e-06	-2.547830e-08	-3.389080e+01	-1.667659e+03
2.880000e-06	-4.853617e-06	-2.571282e-08	-3.457359e+01	-1.682961e+03
2.890000e-06	-4.947646e-06	-2.593839e-08	-3.524338e+01	-1.697488e+03
2.900000e-06	-5.039843e-06	-2.615579e-08	-3.590013e+01	-1.711312e+03
2.910000e-06	-5.130307e-06	-2.636604e-08	-3.654453e+01	-1.724503e+03
2.920000e-06	-5.218955e-06	-2.656575e-08	-3.717599e+01	-1.737122e+03
2.930000e-06	-5.305587e-06	-2.675165e-08	-3.779309e+01	-1.749208e+03
2.940000e-06	-5.390185e-06	-2.692470e-08	-3.839571e+01	-1.760782e+03
