# Temperatura_=_87.23
# Concentracion g/m^3_=_28200.0
# C_Vs_to_Am_M_A/Vsm_=_65563218390.804596
# pendiente_HvsI_1/m_=_3716.3
# ordenada_HvsI_A/m_=_1297.0
# frecuencia_Hz_=_302284.99988658127

Tiempo_(s)	Campo_(V.s)	Magnetizacion_(V.s)	Campo_(kA/m)	Magnetizacion_(A/m)
0.000000e+00	-6.924355e-06	-2.840710e-08	-4.951945e+01	-1.859706e+03
1.000000e-08	-6.921218e-06	-2.840293e-08	-4.949701e+01	-1.859151e+03
2.000000e-08	-6.915763e-06	-2.838759e-08	-4.945800e+01	-1.858384e+03
3.000000e-08	-6.908180e-06	-2.837370e-08	-4.940377e+01	-1.857417e+03
4.000000e-08	-6.898212e-06	-2.835692e-08	-4.933249e+01	-1.856257e+03
5.000000e-08	-6.885684e-06	-2.833436e-08	-4.924289e+01	-1.854908e+03
6.000000e-08	-6.870604e-06	-2.830383e-08	-4.913505e+01	-1.853367e+03
7.000000e-08	-6.853135e-06	-2.827068e-08	-4.901012e+01	-1.851629e+03
8.000000e-08	-6.833655e-06	-2.824654e-08	-4.887081e+01	-1.849695e+03
9.000000e-08	-6.811961e-06	-2.829993e-08	-4.871567e+01	-1.847574e+03
1.000000e-07	-6.787583e-06	-2.825205e-08	-4.854132e+01	-1.845290e+03
1.100000e-07	-6.760356e-06	-2.814777e-08	-4.834661e+01	-1.842875e+03
1.200000e-07	-6.730620e-06	-2.810826e-08	-4.813396e+01	-1.840370e+03
1.300000e-07	-6.698683e-06	-2.807329e-08	-4.790556e+01	-1.837808e+03
1.400000e-07	-6.664595e-06	-2.795195e-08	-4.766178e+01	-1.835206e+03
1.500000e-07	-6.628718e-06	-2.790697e-08	-4.740521e+01	-1.832555e+03
1.600000e-07	-6.591055e-06	-2.802804e-08	-4.713586e+01	-1.829813e+03
1.700000e-07	-6.551193e-06	-2.781647e-08	-4.685078e+01	-1.826911e+03
1.800000e-07	-6.508980e-06	-2.778385e-08	-4.654890e+01	-1.823763e+03
1.900000e-07	-6.464292e-06	-2.780198e-08	-4.622931e+01	-1.820280e+03
2.000000e-07	-6.417251e-06	-2.762080e-08	-4.589290e+01	-1.816387e+03
2.100000e-07	-6.367747e-06	-2.763647e-08	-4.553888e+01	-1.812041e+03
2.200000e-07	-6.315467e-06	-2.753458e-08	-4.516499e+01	-1.807236e+03
2.300000e-07	-6.260716e-06	-2.743890e-08	-4.477344e+01	-1.802004e+03
2.400000e-07	-6.203626e-06	-2.738372e-08	-4.436516e+01	-1.796406e+03
2.500000e-07	-6.144095e-06	-2.728358e-08	-4.393943e+01	-1.790514e+03
2.600000e-07	-6.082306e-06	-2.720996e-08	-4.349754e+01	-1.784395e+03
2.700000e-07	-6.018270e-06	-2.709150e-08	-4.303959e+01	-1.778089e+03
2.800000e-07	-5.952004e-06	-2.700260e-08	-4.256569e+01	-1.771608e+03
2.900000e-07	-5.883511e-06	-2.688959e-08	-4.207586e+01	-1.764927e+03
3.000000e-07	-5.812777e-06	-2.676780e-08	-4.157001e+01	-1.757996e+03
3.100000e-07	-5.739907e-06	-2.669370e-08	-4.104888e+01	-1.750756e+03
3.200000e-07	-5.664785e-06	-2.656390e-08	-4.051165e+01	-1.743151e+03
3.300000e-07	-5.587235e-06	-2.645809e-08	-3.995705e+01	-1.735146e+03
3.400000e-07	-5.507393e-06	-2.629503e-08	-3.938606e+01	-1.726731e+03
3.500000e-07	-5.425570e-06	-2.615919e-08	-3.880091e+01	-1.717921e+03
3.600000e-07	-5.341918e-06	-2.603865e-08	-3.820267e+01	-1.708746e+03
3.700000e-07	-5.256489e-06	-2.588492e-08	-3.759172e+01	-1.699238e+03
3.800000e-07	-5.169348e-06	-2.575557e-08	-3.696854e+01	-1.689419e+03
3.900000e-07	-5.080417e-06	-2.558965e-08	-3.633255e+01	-1.679285e+03
4.000000e-07	-4.989600e-06	-2.542733e-08	-3.568307e+01	-1.668808e+03
4.100000e-07	-4.897010e-06	-2.524374e-08	-3.502091e+01	-1.657938e+03
4.200000e-07	-4.802821e-06	-2.508238e-08	-3.434733e+01	-1.646616e+03
4.300000e-07	-4.706974e-06	-2.490403e-08	-3.366187e+01	-1.634787e+03
4.400000e-07	-4.609408e-06	-2.470998e-08	-3.296413e+01	-1.622413e+03
4.500000e-07	-4.510135e-06	-2.451836e-08	-3.225418e+01	-1.609478e+03
4.600000e-07	-4.409164e-06	-2.431143e-08	-3.153209e+01	-1.595990e+03
4.700000e-07	-4.306687e-06	-2.410187e-08	-3.079923e+01	-1.581971e+03
4.800000e-07	-4.202758e-06	-2.387782e-08	-3.005598e+01	-1.567443e+03
4.900000e-07	-4.097328e-06	-2.365713e-08	-2.930200e+01	-1.552413e+03
5.000000e-07	-3.990338e-06	-2.341231e-08	-2.853686e+01	-1.536866e+03
5.100000e-07	-3.881829e-06	-2.315930e-08	-2.776086e+01	-1.520757e+03
5.200000e-07	-3.772009e-06	-2.289897e-08	-2.697548e+01	-1.504017e+03
5.300000e-07	-3.660834e-06	-2.263206e-08	-2.618041e+01	-1.486564e+03
5.400000e-07	-3.548177e-06	-2.235250e-08	-2.537475e+01	-1.468322e+03
5.500000e-07	-3.434088e-06	-2.205847e-08	-2.455885e+01	-1.449226e+03
5.600000e-07	-3.318556e-06	-2.175625e-08	-2.373262e+01	-1.429237e+03
5.700000e-07	-3.201585e-06	-2.143713e-08	-2.289610e+01	-1.408337e+03
5.800000e-07	-3.083384e-06	-2.110654e-08	-2.205078e+01	-1.386519e+03
5.900000e-07	-2.964087e-06	-2.075686e-08	-2.119764e+01	-1.363773e+03
6.000000e-07	-2.843663e-06	-2.039621e-08	-2.033642e+01	-1.340066e+03
6.100000e-07	-2.722197e-06	-2.001591e-08	-1.946776e+01	-1.315334e+03
6.200000e-07	-2.599742e-06	-1.961878e-08	-1.859203e+01	-1.289474e+03
6.300000e-07	-2.476242e-06	-1.919989e-08	-1.770882e+01	-1.262348e+03
6.400000e-07	-2.351755e-06	-1.875856e-08	-1.681855e+01	-1.233801e+03
6.500000e-07	-2.226479e-06	-1.829525e-08	-1.592264e+01	-1.203673e+03
6.600000e-07	-2.100510e-06	-1.780788e-08	-1.502177e+01	-1.171818e+03
6.700000e-07	-1.973862e-06	-1.729621e-08	-1.411605e+01	-1.138111e+03
6.800000e-07	-1.846554e-06	-1.675513e-08	-1.320561e+01	-1.102445e+03
6.900000e-07	-1.718541e-06	-1.618712e-08	-1.229013e+01	-1.064720e+03
7.000000e-07	-1.589838e-06	-1.557982e-08	-1.136971e+01	-1.024826e+03
7.100000e-07	-1.460588e-06	-1.493373e-08	-1.044538e+01	-9.826245e+02
7.200000e-07	-1.330931e-06	-1.424463e-08	-9.518138e+00	-9.379465e+02
7.300000e-07	-1.200880e-06	-1.351581e-08	-8.588078e+00	-8.905967e+02
7.400000e-07	-1.070458e-06	-1.274507e-08	-7.655371e+00	-8.403830e+02
7.500000e-07	-9.397005e-07	-1.192844e-08	-6.720258e+00	-7.871566e+02
7.600000e-07	-8.086074e-07	-1.107102e-08	-5.782747e+00	-7.308590e+02
7.700000e-07	-6.772270e-07	-1.016864e-08	-4.843181e+00	-6.715633e+02
7.800000e-07	-5.456434e-07	-9.227499e-09	-3.902163e+00	-6.094968e+02
7.900000e-07	-4.138688e-07	-8.250111e-09	-2.959778e+00	-5.450355e+02
8.000000e-07	-2.818701e-07	-7.242190e-09	-2.015791e+00	-4.786659e+02
8.100000e-07	-1.496715e-07	-6.209120e-09	-1.070374e+00	-4.109192e+02
8.200000e-07	-1.741175e-08	-5.159857e-09	-1.245199e-01	-3.422879e+02
8.300000e-07	1.148724e-07	-4.102412e-09	8.215086e-01	-2.731424e+02
8.400000e-07	2.471382e-07	-3.040595e-09	1.767406e+00	-2.036674e+02
8.500000e-07	3.793290e-07	-1.976886e-09	2.712767e+00	-1.338330e+02
8.600000e-07	5.114192e-07	-9.075010e-10	3.657409e+00	-6.341125e+01
8.700000e-07	6.432675e-07	1.744314e-10	4.600320e+00	7.961612e+00
8.800000e-07	7.748944e-07	1.277360e-09	5.541649e+00	8.068704e+01
8.900000e-07	9.062668e-07	2.405061e-09	6.481157e+00	1.550890e+02
9.000000e-07	1.037291e-06	3.561811e-09	7.418175e+00	2.313042e+02
9.100000e-07	1.167935e-06	4.747154e-09	8.352473e+00	3.092008e+02
9.200000e-07	1.298175e-06	5.956322e-09	9.283881e+00	3.883430e+02
9.300000e-07	1.428014e-06	7.174842e-09	1.021243e+01	4.680093e+02
9.400000e-07	1.557377e-06	8.387382e-09	1.113757e+01	5.472624e+02
9.500000e-07	1.686190e-06	9.575484e-09	1.205877e+01	6.250568e+02
9.600000e-07	1.814340e-06	1.071793e-08	1.297523e+01	7.003641e+02
9.700000e-07	1.941721e-06	1.180198e-08	1.388620e+01	7.722919e+02
9.800000e-07	2.068307e-06	1.282189e-08	1.479147e+01	8.401762e+02
9.900000e-07	2.194177e-06	1.377923e-08	1.569164e+01	9.036317e+02
1.000000e-06	2.319415e-06	1.467032e-08	1.658727e+01	9.625554e+02
1.010000e-06	2.443883e-06	1.550036e-08	1.747740e+01	1.017087e+03
1.020000e-06	2.567394e-06	1.627057e-08	1.836069e+01	1.067543e+03
1.030000e-06	2.689893e-06	1.698299e-08	1.923674e+01	1.114328e+03
1.040000e-06	2.811389e-06	1.764583e-08	2.010562e+01	1.157868e+03
1.050000e-06	2.931767e-06	1.826455e-08	2.096650e+01	1.198540e+03
1.060000e-06	3.050941e-06	1.884278e-08	2.181877e+01	1.236649e+03
1.070000e-06	3.169065e-06	1.938159e-08	2.266353e+01	1.272417e+03
1.080000e-06	3.286110e-06	1.988568e-08	2.350058e+01	1.306002e+03
1.090000e-06	3.401879e-06	2.035934e-08	2.432850e+01	1.337523e+03
1.100000e-06	3.516290e-06	2.080786e-08	2.514671e+01	1.367093e+03
1.110000e-06	3.629311e-06	2.123092e-08	2.595497e+01	1.394834e+03
1.120000e-06	3.740878e-06	2.163015e-08	2.675285e+01	1.420894e+03
1.130000e-06	3.851097e-06	2.200718e-08	2.754107e+01	1.445435e+03
1.140000e-06	3.960140e-06	2.236357e-08	2.832089e+01	1.468622e+03
1.150000e-06	4.067906e-06	2.269932e-08	2.909158e+01	1.490607e+03
1.160000e-06	4.174249e-06	2.301686e-08	2.985209e+01	1.511511e+03
1.170000e-06	4.279022e-06	2.331805e-08	3.060138e+01	1.531422e+03
1.180000e-06	4.382159e-06	2.360333e-08	3.133896e+01	1.550389e+03
1.190000e-06	4.483772e-06	2.387393e-08	3.206565e+01	1.568439e+03
1.200000e-06	4.583902e-06	2.413133e-08	3.278173e+01	1.585589e+03
1.210000e-06	4.682346e-06	2.437669e-08	3.348575e+01	1.601861e+03
1.220000e-06	4.778897e-06	2.461128e-08	3.417623e+01	1.617290e+03
1.230000e-06	4.873661e-06	2.483532e-08	3.485393e+01	1.631930e+03
1.240000e-06	4.966807e-06	2.504973e-08	3.552007e+01	1.645849e+03
1.250000e-06	5.058299e-06	2.525472e-08	3.617437e+01	1.659118e+03
1.260000e-06	5.147927e-06	2.544807e-08	3.681534e+01	1.671801e+03
1.270000e-06	5.235569e-06	2.563008e-08	3.744211e+01	1.683948e+03
1.280000e-06	5.321323e-06	2.580290e-08	3.805538e+01	1.695587e+03
1.290000e-06	5.405295e-06	2.597019e-08	3.865591e+01	1.706725e+03
1.300000e-06	5.487359e-06	2.613162e-08	3.924279e+01	1.717360e+03
1.310000e-06	5.567349e-06	2.628561e-08	3.981483e+01	1.727483e+03
1.320000e-06	5.645311e-06	2.643316e-08	4.037238e+01	1.737090e+03
1.330000e-06	5.721185e-06	2.657596e-08	4.091499e+01	1.746189e+03
1.340000e-06	5.794748e-06	2.671177e-08	4.144108e+01	1.754799e+03
1.350000e-06	5.866081e-06	2.683953e-08	4.195121e+01	1.762949e+03
1.360000e-06	5.935383e-06	2.696094e-08	4.244683e+01	1.770670e+03
1.370000e-06	6.002613e-06	2.707506e-08	4.292762e+01	1.777991e+03
1.380000e-06	6.067614e-06	2.717861e-08	4.339247e+01	1.784933e+03
1.390000e-06	6.130466e-06	2.727489e-08	4.384196e+01	1.791509e+03
1.400000e-06	6.191330e-06	2.736755e-08	4.427723e+01	1.797723e+03
1.410000e-06	6.250013e-06	2.745568e-08	4.469690e+01	1.803580e+03
1.420000e-06	6.306384e-06	2.753931e-08	4.510004e+01	1.809087e+03
1.430000e-06	6.360494e-06	2.762041e-08	4.548700e+01	1.814260e+03
1.440000e-06	6.412042e-06	2.769885e-08	4.585565e+01	1.819123e+03
1.450000e-06	6.460874e-06	2.777187e-08	4.620487e+01	1.823705e+03
1.460000e-06	6.507362e-06	2.783833e-08	4.653733e+01	1.828038e+03
1.470000e-06	6.551795e-06	2.790016e-08	4.685509e+01	1.832142e+03
1.480000e-06	6.593905e-06	2.795846e-08	4.715624e+01	1.836029e+03
1.490000e-06	6.633481e-06	2.801275e-08	4.743927e+01	1.839691e+03
1.500000e-06	6.670809e-06	2.806397e-08	4.770622e+01	1.843108e+03
1.510000e-06	6.705888e-06	2.811181e-08	4.795708e+01	1.846252e+03
1.520000e-06	6.738438e-06	2.815612e-08	4.818986e+01	1.849094e+03
1.530000e-06	6.768535e-06	2.819611e-08	4.840511e+01	1.851614e+03
1.540000e-06	6.796404e-06	2.822925e-08	4.860441e+01	1.853807e+03
1.550000e-06	6.821766e-06	2.825627e-08	4.878579e+01	1.855685e+03
1.560000e-06	6.844510e-06	2.828105e-08	4.894844e+01	1.857275e+03
1.570000e-06	6.864966e-06	2.830251e-08	4.909473e+01	1.858612e+03
1.580000e-06	6.883000e-06	2.831948e-08	4.922370e+01	1.859731e+03
1.590000e-06	6.898404e-06	2.833226e-08	4.933386e+01	1.860660e+03
1.600000e-06	6.911315e-06	2.834271e-08	4.942619e+01	1.861414e+03
1.610000e-06	6.921529e-06	2.835234e-08	4.949924e+01	1.861993e+03
1.620000e-06	6.929020e-06	2.836031e-08	4.955281e+01	1.862387e+03
1.630000e-06	6.934157e-06	2.836628e-08	4.958955e+01	1.862580e+03
1.640000e-06	6.936804e-06	2.836849e-08	4.960848e+01	1.862558e+03
1.650000e-06	6.936863e-06	2.836854e-08	4.960890e+01	1.862312e+03
1.660000e-06	6.934635e-06	2.835389e-08	4.959297e+01	1.861842e+03
1.670000e-06	6.930189e-06	2.834298e-08	4.956117e+01	1.861157e+03
1.680000e-06	6.923350e-06	2.833221e-08	4.951226e+01	1.860267e+03
1.690000e-06	6.914216e-06	2.831638e-08	4.944694e+01	1.859182e+03
1.700000e-06	6.902860e-06	2.829993e-08	4.936573e+01	1.857907e+03
1.710000e-06	6.889079e-06	2.828448e-08	4.926718e+01	1.856441e+03
1.720000e-06	6.872962e-06	2.827741e-08	4.915191e+01	1.854780e+03
1.730000e-06	6.854801e-06	2.822553e-08	4.902203e+01	1.852922e+03
1.740000e-06	6.834369e-06	2.810070e-08	4.887591e+01	1.850872e+03
1.750000e-06	6.810883e-06	2.811120e-08	4.870796e+01	1.848648e+03
1.760000e-06	6.784151e-06	2.812154e-08	4.851678e+01	1.846280e+03
1.770000e-06	6.754618e-06	2.804878e-08	4.830557e+01	1.843805e+03
1.780000e-06	6.722861e-06	2.808335e-08	4.807846e+01	1.841262e+03
1.790000e-06	6.689470e-06	2.811860e-08	4.783967e+01	1.838675e+03
1.800000e-06	6.654692e-06	2.789306e-08	4.759095e+01	1.836045e+03
1.810000e-06	6.617854e-06	2.794890e-08	4.732751e+01	1.833345e+03
1.820000e-06	6.578423e-06	2.796380e-08	4.704552e+01	1.830516e+03
1.830000e-06	6.536842e-06	2.781805e-08	4.674815e+01	1.827475e+03
1.840000e-06	6.493049e-06	2.796187e-08	4.643497e+01	1.824133e+03
1.850000e-06	6.446892e-06	2.775692e-08	4.610488e+01	1.820408e+03
1.860000e-06	6.398415e-06	2.771628e-08	4.575820e+01	1.816242e+03
1.870000e-06	6.347434e-06	2.771615e-08	4.539360e+01	1.811615e+03
1.880000e-06	6.293968e-06	2.751580e-08	4.501124e+01	1.806544e+03
1.890000e-06	6.237890e-06	2.754978e-08	4.461020e+01	1.801081e+03
1.900000e-06	6.179420e-06	2.737391e-08	4.419205e+01	1.795296e+03
1.910000e-06	6.118723e-06	2.730928e-08	4.375798e+01	1.789259e+03
1.920000e-06	6.055552e-06	2.726621e-08	4.330621e+01	1.783023e+03
1.930000e-06	5.990204e-06	2.709856e-08	4.283888e+01	1.776611e+03
1.940000e-06	5.922714e-06	2.709699e-08	4.235622e+01	1.770013e+03
1.950000e-06	5.852881e-06	2.689519e-08	4.185681e+01	1.763186e+03
1.960000e-06	5.780680e-06	2.681968e-08	4.134047e+01	1.756075e+03
1.970000e-06	5.706273e-06	2.668588e-08	4.080835e+01	1.748618e+03
1.980000e-06	5.629671e-06	2.655737e-08	4.026053e+01	1.740773e+03
1.990000e-06	5.550698e-06	2.649624e-08	3.969576e+01	1.732518e+03
2.000000e-06	5.469734e-06	2.631197e-08	3.911674e+01	1.723859e+03
2.010000e-06	5.386974e-06	2.621836e-08	3.852488e+01	1.714823e+03
2.020000e-06	5.302300e-06	2.602342e-08	3.791934e+01	1.705442e+03
2.030000e-06	5.215567e-06	2.589273e-08	3.729907e+01	1.695744e+03
2.040000e-06	5.126855e-06	2.575355e-08	3.666465e+01	1.685735e+03
2.050000e-06	5.036535e-06	2.559929e-08	3.601873e+01	1.675397e+03
2.060000e-06	4.944579e-06	2.544870e-08	3.536111e+01	1.664688e+03
2.070000e-06	4.850930e-06	2.524736e-08	3.469137e+01	1.653550e+03
2.080000e-06	4.755503e-06	2.508540e-08	3.400893e+01	1.641926e+03
2.090000e-06	4.658315e-06	2.487536e-08	3.331389e+01	1.629769e+03
2.100000e-06	4.559613e-06	2.469693e-08	3.260803e+01	1.617054e+03
2.110000e-06	4.459339e-06	2.449897e-08	3.189092e+01	1.603781e+03
2.120000e-06	4.357467e-06	2.429726e-08	3.116238e+01	1.589967e+03
2.130000e-06	4.253977e-06	2.407320e-08	3.042227e+01	1.575636e+03
2.140000e-06	4.148912e-06	2.384094e-08	2.967090e+01	1.560803e+03
2.150000e-06	4.042426e-06	2.361457e-08	2.890937e+01	1.545463e+03
2.160000e-06	3.934506e-06	2.337025e-08	2.813758e+01	1.529581e+03
2.170000e-06	3.825139e-06	2.312615e-08	2.735544e+01	1.513097e+03
2.180000e-06	3.714341e-06	2.285974e-08	2.656307e+01	1.495934e+03
2.190000e-06	3.602070e-06	2.259123e-08	2.576016e+01	1.478010e+03
2.200000e-06	3.488420e-06	2.229931e-08	2.494740e+01	1.459255e+03
2.210000e-06	3.373372e-06	2.200401e-08	2.412463e+01	1.439620e+03
2.220000e-06	3.256828e-06	2.168941e-08	2.329117e+01	1.419078e+03
2.230000e-06	3.138975e-06	2.136939e-08	2.244835e+01	1.397621e+03
2.240000e-06	3.019900e-06	2.103005e-08	2.159678e+01	1.375241e+03
2.250000e-06	2.899570e-06	2.067790e-08	2.073624e+01	1.351917e+03
2.260000e-06	2.778199e-06	2.030856e-08	1.986826e+01	1.327598e+03
2.270000e-06	2.655895e-06	1.991765e-08	1.899361e+01	1.302196e+03
2.280000e-06	2.532648e-06	1.950947e-08	1.811221e+01	1.275584e+03
2.290000e-06	2.408488e-06	1.907916e-08	1.722427e+01	1.247614e+03
2.300000e-06	2.283401e-06	1.863454e-08	1.632972e+01	1.218125e+03
2.310000e-06	2.157558e-06	1.816206e-08	1.542975e+01	1.186964e+03
2.320000e-06	2.031053e-06	1.766444e-08	1.452505e+01	1.153998e+03
2.330000e-06	1.903796e-06	1.713179e-08	1.361497e+01	1.119113e+03
2.340000e-06	1.775774e-06	1.656959e-08	1.269943e+01	1.082209e+03
2.350000e-06	1.647102e-06	1.597543e-08	1.177924e+01	1.043181e+03
2.360000e-06	1.517896e-06	1.534858e-08	1.085522e+01	1.001904e+03
2.370000e-06	1.388296e-06	1.468395e-08	9.928383e+00	9.582208e+02
2.380000e-06	1.258381e-06	1.397573e-08	8.999299e+00	9.119440e+02
2.390000e-06	1.128106e-06	1.322489e-08	8.067640e+00	8.628762e+02
2.400000e-06	9.973874e-07	1.242742e-08	7.132805e+00	8.108459e+02
2.410000e-06	8.662770e-07	1.158812e-08	6.195170e+00	7.557536e+02
2.420000e-06	7.349563e-07	1.070717e-08	5.256032e+00	6.976169e+02
2.430000e-06	6.034106e-07	9.782452e-09	4.315284e+00	6.366014e+02
2.440000e-06	4.715958e-07	8.814300e-09	3.372613e+00	5.730274e+02
2.450000e-06	3.396104e-07	7.809897e-09	2.428720e+00	5.073444e+02
2.460000e-06	2.074764e-07	6.782172e-09	1.483765e+00	4.400754e+02
2.470000e-06	7.523735e-08	5.735308e-09	5.380591e-01	3.717385e+02
2.480000e-06	-5.706984e-08	4.678947e-09	-4.081343e-01	3.027611e+02
2.490000e-06	-1.893791e-07	3.617240e-09	-1.354343e+00	2.334067e+02
2.500000e-06	-3.216077e-07	2.548249e-09	-2.299974e+00	1.637302e+02
2.510000e-06	-4.537665e-07	1.472941e-09	-3.245107e+00	9.357643e+01
2.520000e-06	-5.857501e-07	3.879616e-10	-4.188985e+00	2.262500e+01
2.530000e-06	-7.174860e-07	-7.116236e-10	-5.131093e+00	-4.952398e+01
2.540000e-06	-8.489778e-07	-1.834263e-09	-6.071456e+00	-1.232389e+02
2.550000e-06	-9.801998e-07	-2.984192e-09	-7.009888e+00	-1.987417e+02
2.560000e-06	-1.111060e-06	-4.162189e-09	-7.945734e+00	-2.760132e+02
2.570000e-06	-1.241492e-06	-5.365241e-09	-8.878519e+00	-3.547378e+02
2.580000e-06	-1.371509e-06	-6.582526e-09	-9.808328e+00	-4.343006e+02
2.590000e-06	-1.501151e-06	-7.802833e-09	-1.073547e+01	-5.138378e+02
2.600000e-06	-1.630382e-06	-9.009853e-09	-1.165966e+01	-5.923322e+02
2.610000e-06	-1.758993e-06	-1.018388e-08	-1.257942e+01	-6.687334e+02
2.620000e-06	-1.886920e-06	-1.130753e-08	-1.349429e+01	-7.420828e+02
2.630000e-06	-2.014088e-06	-1.236880e-08	-1.440373e+01	-8.116180e+02
2.640000e-06	-2.140514e-06	-1.336471e-08	-1.530786e+01	-8.768414e+02
2.650000e-06	-2.266222e-06	-1.429287e-08	-1.620686e+01	-9.375413e+02
2.660000e-06	-2.391033e-06	-1.515494e-08	-1.709945e+01	-9.937695e+02
2.670000e-06	-2.514889e-06	-1.595388e-08	-1.798520e+01	-1.045781e+03
2.680000e-06	-2.637719e-06	-1.669317e-08	-1.886362e+01	-1.093958e+03
2.690000e-06	-2.759540e-06	-1.738062e-08	-1.973482e+01	-1.138725e+03
2.700000e-06	-2.880414e-06	-1.802324e-08	-2.059925e+01	-1.180483e+03
2.710000e-06	-3.000188e-06	-1.862733e-08	-2.145581e+01	-1.219568e+03
2.720000e-06	-3.118809e-06	-1.919302e-08	-2.230413e+01	-1.256234e+03
2.730000e-06	-3.236292e-06	-1.971940e-08	-2.314430e+01	-1.290662e+03
2.740000e-06	-3.352473e-06	-2.020942e-08	-2.397517e+01	-1.322981e+03
2.750000e-06	-3.467175e-06	-2.066824e-08	-2.479547e+01	-1.353304e+03
2.760000e-06	-3.580458e-06	-2.109995e-08	-2.560560e+01	-1.381748e+03
2.770000e-06	-3.692398e-06	-2.150806e-08	-2.640614e+01	-1.408451e+03
2.780000e-06	-3.802866e-06	-2.189645e-08	-2.719615e+01	-1.433569e+03
2.790000e-06	-3.911993e-06	-2.226450e-08	-2.797658e+01	-1.457268e+03
2.800000e-06	-4.019921e-06	-2.261054e-08	-2.874842e+01	-1.479710e+03
2.810000e-06	-4.126566e-06	-2.293612e-08	-2.951109e+01	-1.501027e+03
2.820000e-06	-4.231822e-06	-2.324484e-08	-3.026383e+01	-1.521321e+03
2.830000e-06	-4.335493e-06	-2.353943e-08	-3.100523e+01	-1.540655e+03
2.840000e-06	-4.437464e-06	-2.382070e-08	-3.173447e+01	-1.559063e+03
2.850000e-06	-4.537780e-06	-2.408899e-08	-3.245188e+01	-1.576566e+03
2.860000e-06	-4.636574e-06	-2.434293e-08	-3.315841e+01	-1.593180e+03
2.870000e-06	-4.733876e-06	-2.458153e-08	-3.385426e+01	-1.608935e+03
2.880000e-06	-4.829482e-06	-2.480939e-08	-3.453799e+01	-1.623878e+03
2.890000e-06	-4.923209e-06	-2.502852e-08	-3.520828e+01	-1.638072e+03
2.900000e-06	-5.015129e-06	-2.523863e-08	-3.586564e+01	-1.651588e+03
2.910000e-06	-5.105308e-06	-2.544086e-08	-3.651056e+01	-1.664495e+03
2.920000e-06	-5.193704e-06	-2.563483e-08	-3.714272e+01	-1.676849e+03
2.930000e-06	-5.280174e-06	-2.581778e-08	-3.776111e+01	-1.688686e+03
2.940000e-06	-5.364649e-06	-2.598760e-08	-3.836523e+01	-1.700021e+03
