# Temperatura_=_46.44
# Concentracion g/m^3_=_28200.0
# C_Vs_to_Am_M_A/Vsm_=_65563218390.804596
# pendiente_HvsI_1/m_=_3716.3
# ordenada_HvsI_A/m_=_1297.0
# frecuencia_Hz_=_302284.395609931

Tiempo_(s)	Campo_(V.s)	Magnetizacion_(V.s)	Campo_(kA/m)	Magnetizacion_(A/m)
0.000000e+00	-6.913386e-06	-2.295626e-08	-4.952130e+01	-1.502232e+03
1.000000e-08	-6.910485e-06	-2.295191e-08	-4.950052e+01	-1.501860e+03
2.000000e-08	-6.905275e-06	-2.294321e-08	-4.946320e+01	-1.501326e+03
3.000000e-08	-6.897922e-06	-2.293097e-08	-4.941053e+01	-1.500630e+03
4.000000e-08	-6.888248e-06	-2.291708e-08	-4.934124e+01	-1.499772e+03
5.000000e-08	-6.876010e-06	-2.290274e-08	-4.925358e+01	-1.498755e+03
6.000000e-08	-6.861152e-06	-2.288764e-08	-4.914715e+01	-1.497588e+03
7.000000e-08	-6.843935e-06	-2.286989e-08	-4.902382e+01	-1.496281e+03
8.000000e-08	-6.824711e-06	-2.285885e-08	-4.888612e+01	-1.494852e+03
9.000000e-08	-6.803267e-06	-2.284556e-08	-4.873251e+01	-1.493321e+03
1.000000e-07	-6.779097e-06	-2.281684e-08	-4.855938e+01	-1.491713e+03
1.100000e-07	-6.752109e-06	-2.278047e-08	-4.836606e+01	-1.490049e+03
1.200000e-07	-6.722659e-06	-2.274414e-08	-4.815511e+01	-1.488344e+03
1.300000e-07	-6.691033e-06	-2.270109e-08	-4.792856e+01	-1.486604e+03
1.400000e-07	-6.657243e-06	-2.265297e-08	-4.768652e+01	-1.484818e+03
1.500000e-07	-6.621583e-06	-2.263196e-08	-4.743109e+01	-1.482960e+03
1.600000e-07	-6.584145e-06	-2.260633e-08	-4.716291e+01	-1.480987e+03
1.700000e-07	-6.544528e-06	-2.255845e-08	-4.687913e+01	-1.478849e+03
1.800000e-07	-6.502611e-06	-2.252071e-08	-4.657888e+01	-1.476492e+03
1.900000e-07	-6.458278e-06	-2.248082e-08	-4.626132e+01	-1.473867e+03
2.000000e-07	-6.411523e-06	-2.243674e-08	-4.592641e+01	-1.470943e+03
2.100000e-07	-6.362326e-06	-2.237074e-08	-4.557400e+01	-1.467705e+03
2.200000e-07	-6.310411e-06	-2.230022e-08	-4.520213e+01	-1.464161e+03
2.300000e-07	-6.255923e-06	-2.225240e-08	-4.481183e+01	-1.460339e+03
2.400000e-07	-6.199148e-06	-2.219552e-08	-4.440514e+01	-1.456276e+03
2.500000e-07	-6.140025e-06	-2.213729e-08	-4.398164e+01	-1.452010e+03
2.600000e-07	-6.078560e-06	-2.208216e-08	-4.354136e+01	-1.447573e+03
2.700000e-07	-6.014833e-06	-2.200885e-08	-4.308487e+01	-1.442978e+03
2.800000e-07	-5.948828e-06	-2.191856e-08	-4.261207e+01	-1.438221e+03
2.900000e-07	-5.880591e-06	-2.183633e-08	-4.212329e+01	-1.433281e+03
3.000000e-07	-5.810158e-06	-2.176442e-08	-4.161876e+01	-1.428122e+03
3.100000e-07	-5.737562e-06	-2.168282e-08	-4.109875e+01	-1.422708e+03
3.200000e-07	-5.662714e-06	-2.159903e-08	-4.056261e+01	-1.417006e+03
3.300000e-07	-5.585484e-06	-2.150472e-08	-4.000941e+01	-1.410998e+03
3.400000e-07	-5.505940e-06	-2.140084e-08	-3.943962e+01	-1.404678e+03
3.500000e-07	-5.424356e-06	-2.130147e-08	-3.885522e+01	-1.398057e+03
3.600000e-07	-5.341014e-06	-2.120026e-08	-3.825824e+01	-1.391152e+03
3.700000e-07	-5.255945e-06	-2.109566e-08	-3.764888e+01	-1.383979e+03
3.800000e-07	-5.169073e-06	-2.098304e-08	-3.702661e+01	-1.376548e+03
3.900000e-07	-5.080406e-06	-2.085940e-08	-3.639147e+01	-1.368851e+03
4.000000e-07	-4.989916e-06	-2.072901e-08	-3.574329e+01	-1.360866e+03
4.100000e-07	-4.897643e-06	-2.060042e-08	-3.508232e+01	-1.352559e+03
4.200000e-07	-4.803713e-06	-2.046929e-08	-3.440950e+01	-1.343888e+03
4.300000e-07	-4.708148e-06	-2.033123e-08	-3.372496e+01	-1.334814e+03
4.400000e-07	-4.610903e-06	-2.018723e-08	-3.302838e+01	-1.325308e+03
4.500000e-07	-4.511926e-06	-2.003749e-08	-3.231939e+01	-1.315352e+03
4.600000e-07	-4.411266e-06	-1.988043e-08	-3.159836e+01	-1.304944e+03
4.700000e-07	-4.309072e-06	-1.971468e-08	-3.086633e+01	-1.294091e+03
4.800000e-07	-4.205383e-06	-1.954073e-08	-3.012360e+01	-1.282799e+03
4.900000e-07	-4.100242e-06	-1.935915e-08	-2.937046e+01	-1.271069e+03
5.000000e-07	-3.993596e-06	-1.916865e-08	-2.860655e+01	-1.258886e+03
5.100000e-07	-3.885388e-06	-1.896869e-08	-2.783144e+01	-1.246218e+03
5.200000e-07	-3.775792e-06	-1.876478e-08	-2.704639e+01	-1.233016e+03
5.300000e-07	-3.664842e-06	-1.855433e-08	-2.625164e+01	-1.219224e+03
5.400000e-07	-3.552430e-06	-1.833203e-08	-2.544643e+01	-1.204780e+03
5.500000e-07	-3.438630e-06	-1.809801e-08	-2.463126e+01	-1.189634e+03
5.600000e-07	-3.323423e-06	-1.785514e-08	-2.380602e+01	-1.173742e+03
5.700000e-07	-3.206780e-06	-1.760089e-08	-2.297050e+01	-1.157076e+03
5.800000e-07	-3.088860e-06	-1.733224e-08	-2.212583e+01	-1.139616e+03
5.900000e-07	-2.969821e-06	-1.705044e-08	-2.127314e+01	-1.121340e+03
6.000000e-07	-2.849685e-06	-1.675643e-08	-2.041259e+01	-1.102218e+03
6.100000e-07	-2.728498e-06	-1.644954e-08	-1.954452e+01	-1.082201e+03
6.200000e-07	-2.606330e-06	-1.612880e-08	-1.866942e+01	-1.061217e+03
6.300000e-07	-2.483124e-06	-1.579258e-08	-1.778687e+01	-1.039170e+03
6.400000e-07	-2.358900e-06	-1.543582e-08	-1.689705e+01	-1.015948e+03
6.500000e-07	-2.233861e-06	-1.505664e-08	-1.600138e+01	-9.914308e+02
6.600000e-07	-2.108207e-06	-1.465650e-08	-1.510130e+01	-9.654976e+02
6.700000e-07	-1.981883e-06	-1.423729e-08	-1.419644e+01	-9.380338e+02
6.800000e-07	-1.854853e-06	-1.379665e-08	-1.328650e+01	-9.089335e+02
6.900000e-07	-1.727183e-06	-1.332990e-08	-1.237199e+01	-8.780956e+02
7.000000e-07	-1.598848e-06	-1.283362e-08	-1.145271e+01	-8.454182e+02
7.100000e-07	-1.469907e-06	-1.230382e-08	-1.052910e+01	-8.107929e+02
7.200000e-07	-1.340511e-06	-1.174134e-08	-9.602218e+00	-7.741037e+02
7.300000e-07	-1.210738e-06	-1.114600e-08	-8.672644e+00	-7.352339e+02
7.400000e-07	-1.080582e-06	-1.051558e-08	-7.740324e+00	-6.940821e+02
7.500000e-07	-9.500951e-07	-9.850867e-09	-6.805630e+00	-6.505863e+02
7.600000e-07	-8.192974e-07	-9.153056e-09	-5.868713e+00	-6.047521e+02
7.700000e-07	-6.881631e-07	-8.420679e-09	-4.929384e+00	-5.566765e+02
7.800000e-07	-5.567551e-07	-7.656262e-09	-3.988095e+00	-5.065626e+02
7.900000e-07	-4.251348e-07	-6.868155e-09	-3.045285e+00	-4.547161e+02
8.000000e-07	-2.933817e-07	-6.060154e-09	-2.101524e+00	-4.015225e+02
8.100000e-07	-1.615069e-07	-5.237228e-09	-1.156891e+00	-3.474042e+02
8.200000e-07	-2.951221e-08	-4.404660e-09	-2.113991e-01	-2.927647e+02
8.300000e-07	1.025940e-07	-3.567265e-09	7.348918e-01	-2.379297e+02
8.400000e-07	2.347177e-07	-2.730634e-09	1.681307e+00	-1.830963e+02
8.500000e-07	3.667575e-07	-1.897645e-09	2.627122e+00	-1.283015e+02
8.600000e-07	4.987040e-07	-1.065428e-09	3.572269e+00	-7.342078e+01
8.700000e-07	6.304712e-07	-2.278380e-10	4.516131e+00	-1.819624e+01
8.800000e-07	7.619811e-07	6.197064e-10	5.458150e+00	3.770547e+01
8.900000e-07	8.932466e-07	1.483275e-09	6.398418e+00	9.461700e+01
9.000000e-07	1.024234e-06	2.366031e-09	7.336692e+00	1.527883e+02
9.100000e-07	1.154838e-06	3.271033e-09	8.272224e+00	2.123146e+02
9.200000e-07	1.284990e-06	4.198960e-09	9.204516e+00	2.730878e+02
9.300000e-07	1.414658e-06	5.142686e-09	1.013334e+01	3.347806e+02
9.400000e-07	1.543800e-06	6.092143e-09	1.105840e+01	3.968669e+02
9.500000e-07	1.672355e-06	7.034504e-09	1.197926e+01	4.586746e+02
9.600000e-07	1.800314e-06	7.957280e-09	1.289584e+01	5.194601e+02
9.700000e-07	1.927623e-06	8.850059e-09	1.380776e+01	5.784925e+02
9.800000e-07	2.054152e-06	9.705701e-09	1.471411e+01	6.351316e+02
9.900000e-07	2.179874e-06	1.052027e-08	1.561467e+01	6.888872e+02
1.000000e-06	2.304893e-06	1.128667e-08	1.651019e+01	7.394523e+02
1.010000e-06	2.429208e-06	1.200153e-08	1.740067e+01	7.867066e+02
1.020000e-06	2.552657e-06	1.266988e-08	1.828495e+01	8.306939e+02
1.030000e-06	2.675014e-06	1.329117e-08	1.916140e+01	8.715815e+02
1.040000e-06	2.796240e-06	1.386847e-08	2.002976e+01	9.096107e+02
1.050000e-06	2.916444e-06	1.440705e-08	2.089079e+01	9.450496e+02
1.060000e-06	3.035593e-06	1.490773e-08	2.174427e+01	9.781554e+02
1.070000e-06	3.153680e-06	1.537506e-08	2.259014e+01	1.009151e+03
1.080000e-06	3.270720e-06	1.581423e-08	2.342851e+01	1.038218e+03
1.090000e-06	3.386485e-06	1.622923e-08	2.425774e+01	1.065500e+03
1.100000e-06	3.500738e-06	1.661886e-08	2.507615e+01	1.091116e+03
1.110000e-06	3.613538e-06	1.698516e-08	2.588415e+01	1.115172e+03
1.120000e-06	3.725019e-06	1.733089e-08	2.668270e+01	1.137773e+03
1.130000e-06	3.835253e-06	1.765673e-08	2.747232e+01	1.159029e+03
1.140000e-06	3.944280e-06	1.796311e-08	2.825329e+01	1.179055e+03
1.150000e-06	4.052061e-06	1.824950e-08	2.902533e+01	1.197960e+03
1.160000e-06	4.158353e-06	1.851878e-08	2.978671e+01	1.215847e+03
1.170000e-06	4.262996e-06	1.877415e-08	3.053629e+01	1.232802e+03
1.180000e-06	4.366063e-06	1.901717e-08	3.127457e+01	1.248896e+03
1.190000e-06	4.467624e-06	1.924856e-08	3.200205e+01	1.264178e+03
1.200000e-06	4.567763e-06	1.946863e-08	3.271936e+01	1.278689e+03
1.210000e-06	4.666206e-06	1.967753e-08	3.342452e+01	1.292460e+03
1.220000e-06	4.762754e-06	1.987323e-08	3.411610e+01	1.305524e+03
1.230000e-06	4.857529e-06	2.005816e-08	3.479499e+01	1.317918e+03
1.240000e-06	4.950642e-06	2.023672e-08	3.546196e+01	1.329683e+03
1.250000e-06	5.042121e-06	2.040839e-08	3.611724e+01	1.340861e+03
1.260000e-06	5.131731e-06	2.057269e-08	3.675913e+01	1.351494e+03
1.270000e-06	5.219362e-06	2.072856e-08	3.738683e+01	1.361614e+03
1.280000e-06	5.305103e-06	2.087537e-08	3.800100e+01	1.371247e+03
1.290000e-06	5.389086e-06	2.101390e-08	3.860258e+01	1.380404e+03
1.300000e-06	5.471170e-06	2.114554e-08	3.919056e+01	1.389090e+03
1.310000e-06	5.551165e-06	2.127141e-08	3.976357e+01	1.397306e+03
1.320000e-06	5.629122e-06	2.139078e-08	4.032199e+01	1.405055e+03
1.330000e-06	5.704972e-06	2.150443e-08	4.086531e+01	1.412345e+03
1.340000e-06	5.778616e-06	2.161021e-08	4.139283e+01	1.419197e+03
1.350000e-06	5.850114e-06	2.170783e-08	4.190497e+01	1.425640e+03
1.360000e-06	5.919532e-06	2.180061e-08	4.240223e+01	1.431712e+03
1.370000e-06	5.986848e-06	2.188729e-08	4.288442e+01	1.437453e+03
1.380000e-06	6.051973e-06	2.196828e-08	4.335091e+01	1.442900e+03
1.390000e-06	6.114874e-06	2.204553e-08	4.380148e+01	1.448086e+03
1.400000e-06	6.175750e-06	2.212002e-08	4.423754e+01	1.453030e+03
1.410000e-06	6.234529e-06	2.219089e-08	4.465858e+01	1.457743e+03
1.420000e-06	6.291023e-06	2.225797e-08	4.506325e+01	1.462226e+03
1.430000e-06	6.345249e-06	2.232294e-08	4.545168e+01	1.466474e+03
1.440000e-06	6.396953e-06	2.238485e-08	4.582204e+01	1.470482e+03
1.450000e-06	6.445983e-06	2.244294e-08	4.617325e+01	1.474244e+03
1.460000e-06	6.492597e-06	2.249725e-08	4.650715e+01	1.477760e+03
1.470000e-06	6.537049e-06	2.254679e-08	4.682556e+01	1.481029e+03
1.480000e-06	6.579222e-06	2.259164e-08	4.712765e+01	1.484058e+03
1.490000e-06	6.619001e-06	2.263342e-08	4.741260e+01	1.486852e+03
1.500000e-06	6.656516e-06	2.267196e-08	4.768132e+01	1.489416e+03
1.510000e-06	6.691699e-06	2.270749e-08	4.793334e+01	1.491756e+03
1.520000e-06	6.724357e-06	2.274130e-08	4.816727e+01	1.493875e+03
1.530000e-06	6.754593e-06	2.277186e-08	4.838385e+01	1.495776e+03
1.540000e-06	6.782602e-06	2.279725e-08	4.858449e+01	1.497464e+03
1.550000e-06	6.808166e-06	2.281828e-08	4.876760e+01	1.498943e+03
1.560000e-06	6.831130e-06	2.283672e-08	4.893210e+01	1.500224e+03
1.570000e-06	6.851754e-06	2.285288e-08	4.907982e+01	1.501316e+03
1.580000e-06	6.870076e-06	2.286607e-08	4.921107e+01	1.502230e+03
1.590000e-06	6.885856e-06	2.287732e-08	4.932410e+01	1.502980e+03
1.600000e-06	6.899006e-06	2.288745e-08	4.941830e+01	1.503573e+03
1.610000e-06	6.909425e-06	2.289707e-08	4.949293e+01	1.504015e+03
1.620000e-06	6.917158e-06	2.290488e-08	4.954832e+01	1.504311e+03
1.630000e-06	6.922452e-06	2.290993e-08	4.958624e+01	1.504460e+03
1.640000e-06	6.925277e-06	2.291240e-08	4.960648e+01	1.504460e+03
1.650000e-06	6.925615e-06	2.290980e-08	4.960890e+01	1.504306e+03
1.660000e-06	6.923630e-06	2.290352e-08	4.959468e+01	1.503996e+03
1.670000e-06	6.919446e-06	2.289450e-08	4.956471e+01	1.503526e+03
1.680000e-06	6.912896e-06	2.288487e-08	4.951779e+01	1.502893e+03
1.690000e-06	6.903979e-06	2.287415e-08	4.945392e+01	1.502098e+03
1.700000e-06	6.892826e-06	2.286075e-08	4.937403e+01	1.501143e+03
1.710000e-06	6.879269e-06	2.284690e-08	4.927692e+01	1.500033e+03
1.720000e-06	6.863350e-06	2.282971e-08	4.916289e+01	1.498779e+03
1.730000e-06	6.845328e-06	2.279463e-08	4.903380e+01	1.497395e+03
1.740000e-06	6.825116e-06	2.276012e-08	4.888902e+01	1.495901e+03
1.750000e-06	6.801995e-06	2.273862e-08	4.872340e+01	1.494321e+03
1.760000e-06	6.775574e-06	2.272471e-08	4.853414e+01	1.492676e+03
1.770000e-06	6.746366e-06	2.270655e-08	4.832492e+01	1.490986e+03
1.780000e-06	6.714938e-06	2.269453e-08	4.809980e+01	1.489259e+03
1.790000e-06	6.681772e-06	2.267371e-08	4.786223e+01	1.487493e+03
1.800000e-06	6.647181e-06	2.265525e-08	4.761445e+01	1.485667e+03
1.810000e-06	6.610580e-06	2.263490e-08	4.735227e+01	1.483745e+03
1.820000e-06	6.571411e-06	2.260202e-08	4.707170e+01	1.481678e+03
1.830000e-06	6.530034e-06	2.257990e-08	4.677531e+01	1.479413e+03
1.840000e-06	6.486476e-06	2.253171e-08	4.646330e+01	1.476898e+03
1.850000e-06	6.440559e-06	2.249654e-08	4.613440e+01	1.474094e+03
1.860000e-06	6.392334e-06	2.246228e-08	4.578896e+01	1.470979e+03
1.870000e-06	6.341644e-06	2.239736e-08	4.542586e+01	1.467553e+03
1.880000e-06	6.288482e-06	2.233901e-08	4.504505e+01	1.463836e+03
1.890000e-06	6.232744e-06	2.226862e-08	4.464579e+01	1.459862e+03
1.900000e-06	6.174553e-06	2.219631e-08	4.422897e+01	1.455672e+03
1.910000e-06	6.114130e-06	2.214377e-08	4.379615e+01	1.451298e+03
1.920000e-06	6.051307e-06	2.208717e-08	4.334615e+01	1.446765e+03
1.930000e-06	5.986298e-06	2.201604e-08	4.288048e+01	1.442073e+03
1.940000e-06	5.919190e-06	2.193987e-08	4.239977e+01	1.437208e+03
1.950000e-06	5.849768e-06	2.186740e-08	4.190250e+01	1.432140e+03
1.960000e-06	5.777959e-06	2.177099e-08	4.138812e+01	1.426830e+03
1.970000e-06	5.703837e-06	2.168024e-08	4.085718e+01	1.421244e+03
1.980000e-06	5.627479e-06	2.160000e-08	4.031022e+01	1.415357e+03
1.990000e-06	5.548817e-06	2.150480e-08	3.974675e+01	1.409159e+03
2.000000e-06	5.468110e-06	2.140722e-08	3.916864e+01	1.402654e+03
2.010000e-06	5.385621e-06	2.129859e-08	3.857776e+01	1.395858e+03
2.020000e-06	5.301257e-06	2.119793e-08	3.797346e+01	1.388788e+03
2.030000e-06	5.214923e-06	2.109405e-08	3.735504e+01	1.381458e+03
2.040000e-06	5.126584e-06	2.098072e-08	3.672226e+01	1.373867e+03
2.050000e-06	5.036498e-06	2.085826e-08	3.607696e+01	1.365998e+03
2.060000e-06	4.944828e-06	2.072834e-08	3.542032e+01	1.357822e+03
2.070000e-06	4.851444e-06	2.059681e-08	3.475140e+01	1.349299e+03
2.080000e-06	4.756288e-06	2.045437e-08	3.406979e+01	1.340388e+03
2.090000e-06	4.659404e-06	2.031542e-08	3.337580e+01	1.331053e+03
2.100000e-06	4.560974e-06	2.017226e-08	3.267073e+01	1.321275e+03
2.110000e-06	4.461008e-06	2.002224e-08	3.195466e+01	1.311044e+03
2.120000e-06	4.359404e-06	1.985851e-08	3.122686e+01	1.300364e+03
2.130000e-06	4.256144e-06	1.968720e-08	3.048721e+01	1.289244e+03
2.140000e-06	4.151358e-06	1.951322e-08	2.973661e+01	1.277687e+03
2.150000e-06	4.045128e-06	1.933211e-08	2.897568e+01	1.265684e+03
2.160000e-06	3.937517e-06	1.914490e-08	2.820484e+01	1.253211e+03
2.170000e-06	3.828563e-06	1.894759e-08	2.742440e+01	1.240225e+03
2.180000e-06	3.718223e-06	1.874478e-08	2.663402e+01	1.226672e+03
2.190000e-06	3.606342e-06	1.852910e-08	2.583260e+01	1.212491e+03
2.200000e-06	3.492968e-06	1.830396e-08	2.502049e+01	1.197626e+03
2.210000e-06	3.378208e-06	1.806857e-08	2.419846e+01	1.182030e+03
2.220000e-06	3.261979e-06	1.782207e-08	2.336590e+01	1.165671e+03
2.230000e-06	3.144416e-06	1.756488e-08	2.252378e+01	1.148525e+03
2.240000e-06	3.025656e-06	1.729488e-08	2.167309e+01	1.130572e+03
2.250000e-06	2.905693e-06	1.700964e-08	2.081378e+01	1.111787e+03
2.260000e-06	2.784616e-06	1.670877e-08	1.994650e+01	1.092129e+03
2.270000e-06	2.662627e-06	1.639404e-08	1.907267e+01	1.071534e+03
2.280000e-06	2.539751e-06	1.606360e-08	1.819250e+01	1.049917e+03
2.290000e-06	2.415892e-06	1.571720e-08	1.730529e+01	1.027170e+03
2.300000e-06	2.291096e-06	1.535302e-08	1.641136e+01	1.003177e+03
2.310000e-06	2.165517e-06	1.497043e-08	1.551183e+01	9.778135e+02
2.320000e-06	2.039223e-06	1.456353e-08	1.460717e+01	9.509638e+02
2.330000e-06	1.912212e-06	1.413137e-08	1.369738e+01	9.225183e+02
2.340000e-06	1.784458e-06	1.367501e-08	1.278226e+01	8.923747e+02
2.350000e-06	1.655984e-06	1.318960e-08	1.186198e+01	8.604321e+02
2.360000e-06	1.526970e-06	1.267142e-08	1.093784e+01	8.265852e+02
2.370000e-06	1.397570e-06	1.211933e-08	1.001094e+01	7.907207e+02
2.380000e-06	1.267801e-06	1.153454e-08	9.081391e+00	7.527207e+02
2.390000e-06	1.137682e-06	1.091980e-08	8.149335e+00	7.124753e+02
2.400000e-06	1.007258e-06	1.027332e-08	7.215093e+00	6.699037e+02
2.410000e-06	8.765168e-07	9.592741e-09	6.278581e+00	6.249818e+02
2.420000e-06	7.454997e-07	8.877581e-09	5.340092e+00	5.777683e+02
2.430000e-06	6.142435e-07	8.126463e-09	4.399890e+00	5.284237e+02
2.440000e-06	4.826777e-07	7.342228e-09	3.457471e+00	4.772153e+02
2.450000e-06	3.509329e-07	6.533795e-09	2.513769e+00	4.245012e+02
2.460000e-06	2.191136e-07	5.709260e-09	1.569534e+00	3.706953e+02
2.470000e-06	8.716923e-08	4.874459e-09	6.244023e-01	3.162158e+02
2.480000e-06	-4.491935e-08	4.035797e-09	-3.217620e-01	2.614258e+02
2.490000e-06	-1.770219e-07	3.196680e-09	-1.268026e+00	2.065778e+02
2.500000e-06	-3.090060e-07	2.357663e-09	-2.213442e+00	1.517738e+02
2.510000e-06	-4.408915e-07	1.519552e-09	-3.158152e+00	9.695090e+01
2.520000e-06	-5.726501e-07	6.784144e-10	-4.101952e+00	4.189824e+01
2.530000e-06	-7.042604e-07	-1.724418e-10	-5.044691e+00	-1.369619e+01
2.540000e-06	-8.356243e-07	-1.037105e-09	-5.985664e+00	-7.017513e+01
2.550000e-06	-9.666852e-07	-1.919150e-09	-6.924467e+00	-1.278305e+02
2.560000e-06	-1.097408e-06	-2.821220e-09	-7.860845e+00	-1.868257e+02
2.570000e-06	-1.227713e-06	-3.743967e-09	-8.794236e+00	-2.471363e+02
2.580000e-06	-1.357653e-06	-4.681624e-09	-9.725009e+00	-3.085207e+02
2.590000e-06	-1.487206e-06	-5.626665e-09	-1.065301e+01	-3.705263e+02
2.600000e-06	-1.616269e-06	-6.572767e-09	-1.157750e+01	-4.325303e+02
2.610000e-06	-1.744811e-06	-7.510250e-09	-1.249826e+01	-4.938074e+02
2.620000e-06	-1.872762e-06	-8.426508e-09	-1.341479e+01	-5.536118e+02
2.630000e-06	-1.999920e-06	-9.309700e-09	-1.432563e+01	-6.112592e+02
2.640000e-06	-2.126218e-06	-1.015334e-08	-1.523032e+01	-6.661951e+02
2.650000e-06	-2.251685e-06	-1.094929e-08	-1.612905e+01	-7.180383e+02
2.660000e-06	-2.376297e-06	-1.169299e-08	-1.702166e+01	-7.665967e+02
2.670000e-06	-2.499970e-06	-1.238467e-08	-1.790754e+01	-8.118535e+02
2.680000e-06	-2.622572e-06	-1.302734e-08	-1.878575e+01	-8.539334e+02
2.690000e-06	-2.744215e-06	-1.362771e-08	-1.965710e+01	-8.930544e+02
2.700000e-06	-2.864975e-06	-1.419073e-08	-2.052211e+01	-9.294793e+02
2.710000e-06	-2.984706e-06	-1.471653e-08	-2.137976e+01	-9.634731e+02
2.720000e-06	-3.103227e-06	-1.520330e-08	-2.222874e+01	-9.952741e+02
2.730000e-06	-3.220471e-06	-1.565670e-08	-2.306857e+01	-1.025080e+03
2.740000e-06	-3.336428e-06	-1.608254e-08	-2.389918e+01	-1.053048e+03
2.750000e-06	-3.451060e-06	-1.648388e-08	-2.472030e+01	-1.079306e+03
2.760000e-06	-3.564226e-06	-1.686281e-08	-2.553092e+01	-1.103962e+03
2.770000e-06	-3.675944e-06	-1.721800e-08	-2.633117e+01	-1.127123e+03
2.780000e-06	-3.786339e-06	-1.754918e-08	-2.712194e+01	-1.148894e+03
2.790000e-06	-3.895411e-06	-1.786069e-08	-2.790324e+01	-1.169390e+03
2.800000e-06	-4.003259e-06	-1.815630e-08	-2.867576e+01	-1.188723e+03
2.810000e-06	-4.109835e-06	-1.843801e-08	-2.943918e+01	-1.206998e+03
2.820000e-06	-4.215013e-06	-1.870463e-08	-3.019258e+01	-1.224311e+03
2.830000e-06	-4.318612e-06	-1.895652e-08	-3.093467e+01	-1.240737e+03
2.840000e-06	-4.420496e-06	-1.919541e-08	-3.166448e+01	-1.256333e+03
2.850000e-06	-4.520834e-06	-1.942309e-08	-3.238321e+01	-1.271143e+03
2.860000e-06	-4.619661e-06	-1.963939e-08	-3.309112e+01	-1.285201e+03
2.870000e-06	-4.716960e-06	-1.984431e-08	-3.378808e+01	-1.298539e+03
2.880000e-06	-4.812576e-06	-2.004007e-08	-3.447298e+01	-1.311192e+03
2.890000e-06	-4.906355e-06	-2.022420e-08	-3.514473e+01	-1.323199e+03
2.900000e-06	-4.998414e-06	-2.039819e-08	-3.580416e+01	-1.334603e+03
2.910000e-06	-5.088707e-06	-2.056439e-08	-3.645094e+01	-1.345446e+03
2.920000e-06	-5.177214e-06	-2.072250e-08	-3.708492e+01	-1.355764e+03
2.930000e-06	-5.263750e-06	-2.087171e-08	-3.770479e+01	-1.365587e+03
2.940000e-06	-5.348243e-06	-2.101303e-08	-3.831002e+01	-1.374930e+03
