# Temperatura_=_27.39
# Concentracion g/m^3_=_28200.0
# C_Vs_to_Am_M_A/Vsm_=_65563218390.804596
# pendiente_HvsI_1/m_=_3716.3
# ordenada_HvsI_A/m_=_1297.0
# frecuencia_Hz_=_302272.5187524193

Tiempo_(s)	Campo_(V.s)	Magnetizacion_(V.s)	Campo_(kA/m)	Magnetizacion_(A/m)
0.000000e+00	-6.877906e-06	-1.744435e-08	-4.952570e+01	-1.141524e+03
1.000000e-08	-6.875468e-06	-1.744214e-08	-4.950815e+01	-1.141279e+03
2.000000e-08	-6.870693e-06	-1.743646e-08	-4.947376e+01	-1.140918e+03
3.000000e-08	-6.863770e-06	-1.742634e-08	-4.942392e+01	-1.140427e+03
4.000000e-08	-6.854501e-06	-1.741740e-08	-4.935717e+01	-1.139793e+03
5.000000e-08	-6.842750e-06	-1.740325e-08	-4.927255e+01	-1.139005e+03
6.000000e-08	-6.828472e-06	-1.738833e-08	-4.916974e+01	-1.138063e+03
7.000000e-08	-6.811730e-06	-1.737146e-08	-4.904919e+01	-1.136977e+03
8.000000e-08	-6.792920e-06	-1.735050e-08	-4.891374e+01	-1.135770e+03
9.000000e-08	-6.772026e-06	-1.735057e-08	-4.876329e+01	-1.134473e+03
1.000000e-07	-6.748560e-06	-1.737775e-08	-4.859432e+01	-1.133122e+03
1.100000e-07	-6.722263e-06	-1.732983e-08	-4.840496e+01	-1.131748e+03
1.200000e-07	-6.693405e-06	-1.726881e-08	-4.819716e+01	-1.130375e+03
1.300000e-07	-6.662320e-06	-1.724410e-08	-4.797333e+01	-1.129007e+03
1.400000e-07	-6.629050e-06	-1.719724e-08	-4.773377e+01	-1.127630e+03
1.500000e-07	-6.593870e-06	-1.711925e-08	-4.748045e+01	-1.126209e+03
1.600000e-07	-6.556950e-06	-1.716177e-08	-4.721459e+01	-1.124696e+03
1.700000e-07	-6.517951e-06	-1.719794e-08	-4.693377e+01	-1.123034e+03
1.800000e-07	-6.476702e-06	-1.705463e-08	-4.663675e+01	-1.121170e+03
1.900000e-07	-6.433058e-06	-1.708566e-08	-4.632249e+01	-1.119060e+03
2.000000e-07	-6.386970e-06	-1.703330e-08	-4.599062e+01	-1.116679e+03
2.100000e-07	-6.338543e-06	-1.690273e-08	-4.564191e+01	-1.114021e+03
2.200000e-07	-6.287452e-06	-1.691566e-08	-4.527402e+01	-1.111101e+03
2.300000e-07	-6.233726e-06	-1.687700e-08	-4.488716e+01	-1.107947e+03
2.400000e-07	-6.177683e-06	-1.684212e-08	-4.448361e+01	-1.104593e+03
2.500000e-07	-6.119239e-06	-1.676809e-08	-4.406277e+01	-1.101075e+03
2.600000e-07	-6.058501e-06	-1.673080e-08	-4.362542e+01	-1.097415e+03
2.700000e-07	-5.995593e-06	-1.668372e-08	-4.317244e+01	-1.093625e+03
2.800000e-07	-5.930443e-06	-1.657721e-08	-4.270331e+01	-1.089698e+03
2.900000e-07	-5.863036e-06	-1.653671e-08	-4.221793e+01	-1.085619e+03
3.000000e-07	-5.793431e-06	-1.648220e-08	-4.171673e+01	-1.081362e+03
3.100000e-07	-5.721685e-06	-1.640378e-08	-4.120011e+01	-1.076901e+03
3.200000e-07	-5.647684e-06	-1.632299e-08	-4.066725e+01	-1.072216e+03
3.300000e-07	-5.571353e-06	-1.625209e-08	-4.011761e+01	-1.067294e+03
3.400000e-07	-5.492716e-06	-1.618953e-08	-3.955137e+01	-1.062132e+03
3.500000e-07	-5.411918e-06	-1.608363e-08	-3.896957e+01	-1.056734e+03
3.600000e-07	-5.329258e-06	-1.600765e-08	-3.837436e+01	-1.051109e+03
3.700000e-07	-5.244910e-06	-1.592792e-08	-3.776699e+01	-1.045261e+03
3.800000e-07	-5.158850e-06	-1.582576e-08	-3.714730e+01	-1.039193e+03
3.900000e-07	-5.071024e-06	-1.572846e-08	-3.651490e+01	-1.032896e+03
4.000000e-07	-4.981352e-06	-1.562806e-08	-3.586919e+01	-1.026355e+03
4.100000e-07	-4.889831e-06	-1.552727e-08	-3.521018e+01	-1.019547e+03
4.200000e-07	-4.796649e-06	-1.540355e-08	-3.453920e+01	-1.012450e+03
4.300000e-07	-4.701931e-06	-1.529972e-08	-3.385717e+01	-1.005040e+03
4.400000e-07	-4.605630e-06	-1.519029e-08	-3.316373e+01	-9.973009e+02
4.500000e-07	-4.507522e-06	-1.506157e-08	-3.245729e+01	-9.892226e+02
4.600000e-07	-4.407666e-06	-1.493406e-08	-3.173825e+01	-9.807999e+02
4.700000e-07	-4.306301e-06	-1.480099e-08	-3.100836e+01	-9.720304e+02
4.800000e-07	-4.203435e-06	-1.465957e-08	-3.026765e+01	-9.629104e+02
4.900000e-07	-4.099105e-06	-1.450745e-08	-2.951640e+01	-9.534305e+02
5.000000e-07	-3.993245e-06	-1.436124e-08	-2.875414e+01	-9.435737e+02
5.100000e-07	-3.885807e-06	-1.420436e-08	-2.798051e+01	-9.333143e+02
5.200000e-07	-3.776997e-06	-1.403788e-08	-2.719700e+01	-9.226196e+02
5.300000e-07	-3.666928e-06	-1.386482e-08	-2.640443e+01	-9.114532e+02
5.400000e-07	-3.555475e-06	-1.368718e-08	-2.560189e+01	-8.997786e+02
5.500000e-07	-3.442634e-06	-1.350375e-08	-2.478936e+01	-8.875628e+02
5.600000e-07	-3.328391e-06	-1.330875e-08	-2.396673e+01	-8.747775e+02
5.700000e-07	-3.212609e-06	-1.310448e-08	-2.313301e+01	-8.613989e+02
5.800000e-07	-3.095481e-06	-1.288494e-08	-2.228961e+01	-8.474053e+02
5.900000e-07	-2.977266e-06	-1.265586e-08	-2.143839e+01	-8.327728e+02
6.000000e-07	-2.857976e-06	-1.241872e-08	-2.057941e+01	-8.174719e+02
6.100000e-07	-2.737689e-06	-1.217588e-08	-1.971326e+01	-8.014637e+02
6.200000e-07	-2.616469e-06	-1.192050e-08	-1.884040e+01	-7.846995e+02
6.300000e-07	-2.494179e-06	-1.165302e-08	-1.795982e+01	-7.671209e+02
6.400000e-07	-2.370774e-06	-1.137168e-08	-1.707122e+01	-7.486632e+02
6.500000e-07	-2.246490e-06	-1.107133e-08	-1.617629e+01	-7.292582e+02
6.600000e-07	-2.121519e-06	-1.075721e-08	-1.527641e+01	-7.088380e+02
6.700000e-07	-1.995920e-06	-1.042849e-08	-1.437201e+01	-6.873365e+02
6.800000e-07	-1.869703e-06	-1.008390e-08	-1.346316e+01	-6.646901e+02
6.900000e-07	-1.742782e-06	-9.718682e-09	-1.254924e+01	-6.408363e+02
7.000000e-07	-1.615139e-06	-9.335325e-09	-1.163012e+01	-6.157128e+02
7.100000e-07	-1.486930e-06	-8.932681e-09	-1.070693e+01	-5.892574e+02
7.200000e-07	-1.358315e-06	-8.508948e-09	-9.780809e+00	-5.614113e+02
7.300000e-07	-1.229350e-06	-8.063077e-09	-8.852171e+00	-5.321257e+02
7.400000e-07	-1.099994e-06	-7.593432e-09	-7.920724e+00	-5.013721e+02
7.500000e-07	-9.702745e-07	-7.100541e-09	-6.986651e+00	-4.691556e+02
7.600000e-07	-8.402731e-07	-6.585759e-09	-6.050550e+00	-4.355273e+02
7.700000e-07	-7.098968e-07	-6.055333e-09	-5.111750e+00	-4.005934e+02
7.800000e-07	-5.792227e-07	-5.508185e-09	-4.170806e+00	-3.645178e+02
7.900000e-07	-4.483700e-07	-4.948038e-09	-3.228576e+00	-3.275160e+02
8.000000e-07	-3.173185e-07	-4.377756e-09	-2.284914e+00	-2.898379e+02
8.100000e-07	-1.861173e-07	-3.800240e-09	-1.340174e+00	-2.517434e+02
8.200000e-07	-5.478312e-08	-3.217653e-09	-3.944765e-01	-2.134717e+02
8.300000e-07	7.660872e-08	-2.634333e-09	5.516360e-01	-1.752105e+02
8.400000e-07	2.079833e-07	-2.055849e-09	1.497624e+00	-1.370706e+02
8.500000e-07	3.392954e-07	-1.479230e-09	2.443163e+00	-9.906983e+01
8.600000e-07	4.704544e-07	-9.038708e-10	3.387598e+00	-6.113222e+01
8.700000e-07	6.014837e-07	-3.281449e-10	4.331101e+00	-2.310215e+01
8.800000e-07	7.323937e-07	2.499288e-10	5.273743e+00	1.522745e+01
8.900000e-07	8.630712e-07	8.374465e-10	6.214712e+00	5.407660e+01
9.000000e-07	9.933812e-07	1.437866e-09	7.153035e+00	9.363575e+01
9.100000e-07	1.123296e-06	2.052054e-09	8.088511e+00	1.340259e+02
9.200000e-07	1.252823e-06	2.682162e-09	9.021195e+00	1.752678e+02
9.300000e-07	1.381874e-06	3.323975e-09	9.950453e+00	2.172657e+02
9.400000e-07	1.510435e-06	3.972969e-09	1.087618e+01	2.598074e+02
9.500000e-07	1.638492e-06	4.623015e-09	1.179828e+01	3.025804e+02
9.600000e-07	1.765941e-06	5.269366e-09	1.271600e+01	3.452018e+02
9.700000e-07	1.892677e-06	5.908067e-09	1.362859e+01	3.872563e+02
9.800000e-07	2.018667e-06	6.532734e-09	1.453581e+01	4.283364e+02
9.900000e-07	2.143968e-06	7.136065e-09	1.543806e+01	4.680786e+02
1.000000e-06	2.268593e-06	7.716347e-09	1.633544e+01	5.061916e+02
1.010000e-06	2.392430e-06	8.268812e-09	1.722716e+01	5.424724e+02
1.020000e-06	2.515311e-06	8.791947e-09	1.811198e+01	5.768104e+02
1.030000e-06	2.637268e-06	9.284299e-09	1.899016e+01	6.091801e+02
1.040000e-06	2.758248e-06	9.744953e-09	1.986130e+01	6.396257e+02
1.050000e-06	2.878077e-06	1.017689e-08	2.072416e+01	6.682406e+02
1.060000e-06	2.996819e-06	1.058339e-08	2.157918e+01	6.951468e+02
1.070000e-06	3.114526e-06	1.096873e-08	2.242675e+01	7.204757e+02
1.080000e-06	3.231131e-06	1.133345e-08	2.326639e+01	7.443543e+02
1.090000e-06	3.346448e-06	1.167860e-08	2.409675e+01	7.668964e+02
1.100000e-06	3.460307e-06	1.200502e-08	2.491662e+01	7.881991e+02
1.110000e-06	3.572757e-06	1.231555e-08	2.572633e+01	8.083438e+02
1.120000e-06	3.683889e-06	1.260651e-08	2.652656e+01	8.273994e+02
1.130000e-06	3.793762e-06	1.287696e-08	2.731772e+01	8.454274e+02
1.140000e-06	3.902444e-06	1.313178e-08	2.810030e+01	8.624855e+02
1.150000e-06	4.009846e-06	1.337423e-08	2.887367e+01	8.786306e+02
1.160000e-06	4.115844e-06	1.360632e-08	2.963694e+01	8.939205e+02
1.170000e-06	4.220318e-06	1.382930e-08	3.038922e+01	9.084133e+02
1.180000e-06	4.323195e-06	1.404043e-08	3.113001e+01	9.221659e+02
1.190000e-06	4.424556e-06	1.423999e-08	3.185988e+01	9.352322e+02
1.200000e-06	4.524412e-06	1.442937e-08	3.257891e+01	9.476608e+02
1.210000e-06	4.622658e-06	1.460733e-08	3.328635e+01	9.594937e+02
1.220000e-06	4.719085e-06	1.477463e-08	3.398069e+01	9.707650e+02
1.230000e-06	4.813740e-06	1.493443e-08	3.466227e+01	9.815017e+02
1.240000e-06	4.906781e-06	1.508970e-08	3.533223e+01	9.917235e+02
1.250000e-06	4.998133e-06	1.523939e-08	3.599003e+01	1.001445e+03
1.260000e-06	5.087651e-06	1.538299e-08	3.663462e+01	1.010678e+03
1.270000e-06	5.175190e-06	1.551903e-08	3.726496e+01	1.019432e+03
1.280000e-06	5.260858e-06	1.564690e-08	3.788183e+01	1.027717e+03
1.290000e-06	5.344799e-06	1.576598e-08	3.848627e+01	1.035546e+03
1.300000e-06	5.426895e-06	1.587720e-08	3.907741e+01	1.042936e+03
1.310000e-06	5.506953e-06	1.598273e-08	3.965389e+01	1.049905e+03
1.320000e-06	5.584964e-06	1.608302e-08	4.021562e+01	1.056480e+03
1.330000e-06	5.660886e-06	1.617799e-08	4.076231e+01	1.062687e+03
1.340000e-06	5.734528e-06	1.626750e-08	4.129258e+01	1.068556e+03
1.350000e-06	5.805962e-06	1.635183e-08	4.180696e+01	1.074117e+03
1.360000e-06	5.875380e-06	1.643316e-08	4.230682e+01	1.079400e+03
1.370000e-06	5.942786e-06	1.651166e-08	4.279219e+01	1.084431e+03
1.380000e-06	6.007983e-06	1.658503e-08	4.326165e+01	1.089229e+03
1.390000e-06	6.070944e-06	1.665345e-08	4.371502e+01	1.093811e+03
1.400000e-06	6.131842e-06	1.671779e-08	4.415352e+01	1.098186e+03
1.410000e-06	6.190679e-06	1.677860e-08	4.457719e+01	1.102354e+03
1.420000e-06	6.247296e-06	1.683630e-08	4.498487e+01	1.106315e+03
1.430000e-06	6.301663e-06	1.689201e-08	4.537635e+01	1.110061e+03
1.440000e-06	6.353657e-06	1.694693e-08	4.575074e+01	1.113583e+03
1.450000e-06	6.402957e-06	1.699959e-08	4.610574e+01	1.116875e+03
1.460000e-06	6.449766e-06	1.704547e-08	4.644279e+01	1.119930e+03
1.470000e-06	6.494432e-06	1.708679e-08	4.676442e+01	1.122748e+03
1.480000e-06	6.536818e-06	1.712606e-08	4.706963e+01	1.125333e+03
1.490000e-06	6.576757e-06	1.716146e-08	4.735722e+01	1.127692e+03
1.500000e-06	6.614417e-06	1.719320e-08	4.762840e+01	1.129839e+03
1.510000e-06	6.649876e-06	1.722179e-08	4.788373e+01	1.131788e+03
1.520000e-06	6.682933e-06	1.724898e-08	4.812176e+01	1.133553e+03
1.530000e-06	6.713609e-06	1.727394e-08	4.834265e+01	1.135148e+03
1.540000e-06	6.742039e-06	1.729397e-08	4.854736e+01	1.136582e+03
1.550000e-06	6.767989e-06	1.731031e-08	4.873423e+01	1.137861e+03
1.560000e-06	6.791338e-06	1.732634e-08	4.890235e+01	1.138986e+03
1.570000e-06	6.812306e-06	1.734255e-08	4.905334e+01	1.139957e+03
1.580000e-06	6.830978e-06	1.735647e-08	4.918779e+01	1.140773e+03
1.590000e-06	6.847114e-06	1.736687e-08	4.930398e+01	1.141436e+03
1.600000e-06	6.860630e-06	1.737593e-08	4.940130e+01	1.141948e+03
1.610000e-06	6.871475e-06	1.738301e-08	4.947940e+01	1.142319e+03
1.620000e-06	6.879631e-06	1.738684e-08	4.953812e+01	1.142557e+03
1.630000e-06	6.885298e-06	1.738793e-08	4.957893e+01	1.142677e+03
1.640000e-06	6.888595e-06	1.738949e-08	4.960267e+01	1.142686e+03
1.650000e-06	6.889460e-06	1.739217e-08	4.960890e+01	1.142592e+03
1.660000e-06	6.887895e-06	1.739266e-08	4.959763e+01	1.142394e+03
1.670000e-06	6.884164e-06	1.738423e-08	4.957077e+01	1.142084e+03
1.680000e-06	6.878105e-06	1.737773e-08	4.952713e+01	1.141650e+03
1.690000e-06	6.869635e-06	1.736963e-08	4.946614e+01	1.141079e+03
1.700000e-06	6.858987e-06	1.735856e-08	4.938947e+01	1.140357e+03
1.710000e-06	6.846021e-06	1.734855e-08	4.929611e+01	1.139481e+03
1.720000e-06	6.830617e-06	1.733973e-08	4.918519e+01	1.138454e+03
1.730000e-06	6.813049e-06	1.733326e-08	4.905868e+01	1.137295e+03
1.740000e-06	6.793449e-06	1.727127e-08	4.891755e+01	1.136032e+03
1.750000e-06	6.771087e-06	1.720799e-08	4.875653e+01	1.134700e+03
1.760000e-06	6.745431e-06	1.723497e-08	4.857179e+01	1.133333e+03
1.770000e-06	6.716942e-06	1.723183e-08	4.836665e+01	1.131958e+03
1.780000e-06	6.686149e-06	1.719352e-08	4.814491e+01	1.130588e+03
1.790000e-06	6.653497e-06	1.725796e-08	4.790980e+01	1.129218e+03
1.800000e-06	6.619428e-06	1.723594e-08	4.766448e+01	1.127821e+03
1.810000e-06	6.583575e-06	1.710040e-08	4.740631e+01	1.126353e+03
1.820000e-06	6.545123e-06	1.718284e-08	4.712943e+01	1.124762e+03
1.830000e-06	6.504362e-06	1.710720e-08	4.683593e+01	1.122991e+03
1.840000e-06	6.461523e-06	1.707005e-08	4.652745e+01	1.120991e+03
1.850000e-06	6.416308e-06	1.717436e-08	4.620187e+01	1.118728e+03
1.860000e-06	6.368830e-06	1.703807e-08	4.586000e+01	1.116187e+03
1.870000e-06	6.318949e-06	1.703755e-08	4.550082e+01	1.113377e+03
1.880000e-06	6.266671e-06	1.693894e-08	4.512439e+01	1.110318e+03
1.890000e-06	6.211841e-06	1.686160e-08	4.472957e+01	1.107046e+03
1.900000e-06	6.154365e-06	1.687343e-08	4.431570e+01	1.103594e+03
1.910000e-06	6.094701e-06	1.674724e-08	4.388608e+01	1.099993e+03
1.920000e-06	6.032666e-06	1.679137e-08	4.343938e+01	1.096258e+03
1.930000e-06	5.968325e-06	1.669711e-08	4.297608e+01	1.092391e+03
1.940000e-06	5.901882e-06	1.659569e-08	4.249765e+01	1.088380e+03
1.950000e-06	5.833163e-06	1.658329e-08	4.200282e+01	1.084202e+03
1.960000e-06	5.762116e-06	1.646369e-08	4.149124e+01	1.079831e+03
1.970000e-06	5.688761e-06	1.644072e-08	4.096303e+01	1.075244e+03
1.980000e-06	5.613352e-06	1.632316e-08	4.042003e+01	1.070425e+03
1.990000e-06	5.535663e-06	1.627741e-08	3.986062e+01	1.065365e+03
2.000000e-06	5.455752e-06	1.620335e-08	3.928520e+01	1.060068e+03
2.010000e-06	5.374047e-06	1.608961e-08	3.869687e+01	1.054539e+03
2.020000e-06	5.290524e-06	1.604172e-08	3.809545e+01	1.048786e+03
2.030000e-06	5.205083e-06	1.591953e-08	3.748021e+01	1.042813e+03
2.040000e-06	5.117580e-06	1.584591e-08	3.685013e+01	1.036615e+03
2.050000e-06	5.028225e-06	1.572550e-08	3.620671e+01	1.030181e+03
2.060000e-06	4.937297e-06	1.564471e-08	3.555197e+01	1.023490e+03
2.070000e-06	4.844806e-06	1.553906e-08	3.488597e+01	1.016520e+03
2.080000e-06	4.750533e-06	1.541337e-08	3.420714e+01	1.009246e+03
2.090000e-06	4.654425e-06	1.530876e-08	3.351510e+01	1.001649e+03
2.100000e-06	4.556769e-06	1.517089e-08	3.281190e+01	9.937173e+02
2.110000e-06	4.457629e-06	1.505703e-08	3.209802e+01	9.854424e+02
2.120000e-06	4.356931e-06	1.492216e-08	3.137293e+01	9.768217e+02
2.130000e-06	4.254567e-06	1.480043e-08	3.063583e+01	9.678525e+02
2.140000e-06	4.150583e-06	1.465208e-08	2.988708e+01	9.585283e+02
2.150000e-06	4.045136e-06	1.450285e-08	2.912779e+01	9.488356e+02
2.160000e-06	3.938308e-06	1.434906e-08	2.835855e+01	9.387523e+02
2.170000e-06	3.830067e-06	1.418770e-08	2.757914e+01	9.282484e+02
2.180000e-06	3.720514e-06	1.402471e-08	2.679029e+01	9.172885e+02
2.190000e-06	3.609564e-06	1.385071e-08	2.599137e+01	9.058359e+02
2.200000e-06	3.497120e-06	1.367209e-08	2.518169e+01	8.938557e+02
2.210000e-06	3.383314e-06	1.347416e-08	2.436221e+01	8.813174e+02
2.220000e-06	3.268113e-06	1.327423e-08	2.353268e+01	8.681957e+02
2.230000e-06	3.151564e-06	1.306829e-08	2.269345e+01	8.544682e+02
2.240000e-06	3.033777e-06	1.286220e-08	2.184530e+01	8.401126e+02
2.250000e-06	2.914678e-06	1.263547e-08	2.098771e+01	8.251022e+02
2.260000e-06	2.794355e-06	1.239662e-08	2.012130e+01	8.094024e+02
2.270000e-06	2.673012e-06	1.214167e-08	1.924754e+01	7.929687e+02
2.280000e-06	2.550766e-06	1.187607e-08	1.836728e+01	7.757466e+02
2.290000e-06	2.427724e-06	1.160176e-08	1.748130e+01	7.576738e+02
2.300000e-06	2.303793e-06	1.131655e-08	1.658891e+01	7.386830e+02
2.310000e-06	2.179034e-06	1.101743e-08	1.569056e+01	7.187060e+02
2.320000e-06	2.053649e-06	1.069717e-08	1.478770e+01	6.976758e+02
2.330000e-06	1.927642e-06	1.035867e-08	1.388036e+01	6.755276e+02
2.340000e-06	1.800804e-06	1.000010e-08	1.296704e+01	6.521988e+02
2.350000e-06	1.673141e-06	9.627524e-09	1.204777e+01	6.276269e+02
2.360000e-06	1.544891e-06	9.235613e-09	1.112429e+01	6.017497e+02
2.370000e-06	1.416135e-06	8.821321e-09	1.019716e+01	5.745063e+02
2.380000e-06	1.286987e-06	8.380953e-09	9.267204e+00	5.458424e+02
2.390000e-06	1.157539e-06	7.919179e-09	8.335085e+00	5.157195e+02
2.400000e-06	1.027729e-06	7.437682e-09	7.400360e+00	4.841265e+02
2.410000e-06	8.975837e-07	6.933798e-09	6.463226e+00	4.510935e+02
2.420000e-06	7.671781e-07	6.409835e-09	5.524215e+00	4.167022e+02
2.430000e-06	6.365626e-07	5.865737e-09	4.583693e+00	3.810922e+02
2.440000e-06	5.057581e-07	5.304297e-09	3.641810e+00	3.444582e+02
2.450000e-06	3.747731e-07	4.730009e-09	2.698627e+00	3.070379e+02
2.460000e-06	2.436381e-07	4.148427e-09	1.754363e+00	2.690904e+02
2.470000e-06	1.123718e-07	3.562561e-09	8.091549e-01	2.308679e+02
2.480000e-06	-1.896806e-08	2.973787e-09	-1.365832e-01	1.925836e+02
2.490000e-06	-1.502697e-07	2.387473e-09	-1.082046e+00	1.543838e+02
2.500000e-06	-2.815002e-07	1.804842e-09	-2.026997e+00	1.163272e+02
2.510000e-06	-4.126889e-07	1.224802e-09	-2.971647e+00	7.837733e+01
2.520000e-06	-5.438029e-07	6.433580e-10	-3.915758e+00	4.040991e+01
2.530000e-06	-6.747974e-07	5.684578e-11	-4.859010e+00	2.235699e+00
2.540000e-06	-8.055957e-07	-5.373431e-10	-5.800848e+00	-3.636489e+01
2.550000e-06	-9.361026e-07	-1.142100e-09	-6.740589e+00	-7.560019e+01
2.560000e-06	-1.066304e-06	-1.755924e-09	-7.678132e+00	-1.156254e+02
2.570000e-06	-1.196121e-06	-2.379336e-09	-8.612902e+00	-1.565071e+02
2.580000e-06	-1.325524e-06	-3.013682e-09	-9.544695e+00	-1.982005e+02
2.590000e-06	-1.454583e-06	-3.659411e-09	-1.047401e+01	-2.405423e+02
2.600000e-06	-1.583224e-06	-4.312770e-09	-1.140031e+01	-2.832598e+02
2.610000e-06	-1.711335e-06	-4.967123e-09	-1.232280e+01	-3.259962e+02
2.620000e-06	-1.838743e-06	-5.614866e-09	-1.324023e+01	-3.683451e+02
2.630000e-06	-1.965336e-06	-6.249227e-09	-1.415178e+01	-4.098908e+02
2.640000e-06	-2.091167e-06	-6.866728e-09	-1.505786e+01	-4.502469e+02
2.650000e-06	-2.216140e-06	-7.463790e-09	-1.595774e+01	-4.890884e+02
2.660000e-06	-2.340192e-06	-8.034156e-09	-1.685101e+01	-5.261735e+02
2.670000e-06	-2.463314e-06	-8.573271e-09	-1.773757e+01	-5.613520e+02
2.680000e-06	-2.585524e-06	-9.080336e-09	-1.861757e+01	-5.945636e+02
2.690000e-06	-2.706840e-06	-9.556012e-09	-1.949113e+01	-6.258249e+02
2.700000e-06	-2.827177e-06	-1.000574e-08	-2.035763e+01	-6.552108e+02
2.710000e-06	-2.946472e-06	-1.042941e-08	-2.121665e+01	-6.828335e+02
2.720000e-06	-3.064599e-06	-1.082707e-08	-2.206724e+01	-7.088224e+02
2.730000e-06	-3.181488e-06	-1.120337e-08	-2.290892e+01	-7.333079e+02
2.740000e-06	-3.297068e-06	-1.155779e-08	-2.374118e+01	-7.564100e+02
2.750000e-06	-3.411268e-06	-1.189031e-08	-2.456350e+01	-7.782332e+02
2.760000e-06	-3.524061e-06	-1.220345e-08	-2.537569e+01	-7.988652e+02
2.770000e-06	-3.635443e-06	-1.250200e-08	-2.617772e+01	-8.183798e+02
2.780000e-06	-3.745475e-06	-1.278497e-08	-2.697002e+01	-8.368412e+02
2.790000e-06	-3.854297e-06	-1.305194e-08	-2.775361e+01	-8.543081e+02
2.800000e-06	-3.961965e-06	-1.330371e-08	-2.852890e+01	-8.708375e+02
2.810000e-06	-4.068326e-06	-1.354159e-08	-2.929477e+01	-8.864870e+02
2.820000e-06	-4.173278e-06	-1.376856e-08	-3.005050e+01	-9.013144e+02
2.830000e-06	-4.276670e-06	-1.398553e-08	-3.079500e+01	-9.153776e+02
2.840000e-06	-4.378416e-06	-1.419337e-08	-3.152764e+01	-9.287318e+02
2.850000e-06	-4.478598e-06	-1.439162e-08	-3.224902e+01	-9.414283e+02
2.860000e-06	-4.577254e-06	-1.457891e-08	-3.295941e+01	-9.535120e+02
2.870000e-06	-4.674329e-06	-1.475378e-08	-3.365842e+01	-9.650204e+02
2.880000e-06	-4.769749e-06	-1.491975e-08	-3.434551e+01	-9.759835e+02
2.890000e-06	-4.863380e-06	-1.507724e-08	-3.501971e+01	-9.864241e+02
2.900000e-06	-4.955242e-06	-1.522665e-08	-3.568118e+01	-9.963587e+02
2.910000e-06	-5.045468e-06	-1.536992e-08	-3.633088e+01	-1.005800e+03
2.920000e-06	-5.133856e-06	-1.550691e-08	-3.696733e+01	-1.014758e+03
2.930000e-06	-5.220205e-06	-1.563801e-08	-3.758911e+01	-1.023243e+03
2.940000e-06	-5.304601e-06	-1.576274e-08	-3.819681e+01	-1.031266e+03
