# Temperatura_=_27.24
# Concentracion g/m^3_=_28200.0
# C_Vs_to_Am_M_A/Vsm_=_65563218390.804596
# pendiente_HvsI_1/m_=_3716.3
# ordenada_HvsI_A/m_=_1297.0
# frecuencia_Hz_=_302269.17274762894

Tiempo_(s)	Campo_(V.s)	Magnetizacion_(V.s)	Campo_(kA/m)	Magnetizacion_(A/m)
0.000000e+00	-6.861275e-06	-1.748673e-08	-4.952429e+01	-1.144339e+03
1.000000e-08	-6.858251e-06	-1.748289e-08	-4.950247e+01	-1.144043e+03
2.000000e-08	-6.852948e-06	-1.747532e-08	-4.946419e+01	-1.143613e+03
3.000000e-08	-6.845533e-06	-1.746779e-08	-4.941067e+01	-1.143043e+03
4.000000e-08	-6.835790e-06	-1.745876e-08	-4.934034e+01	-1.142328e+03
5.000000e-08	-6.823528e-06	-1.744565e-08	-4.925183e+01	-1.141471e+03
6.000000e-08	-6.808670e-06	-1.743024e-08	-4.914459e+01	-1.140478e+03
7.000000e-08	-6.791428e-06	-1.741051e-08	-4.902014e+01	-1.139364e+03
8.000000e-08	-6.772254e-06	-1.738635e-08	-4.888174e+01	-1.138145e+03
9.000000e-08	-6.750962e-06	-1.740297e-08	-4.872806e+01	-1.136841e+03
1.000000e-07	-6.726926e-06	-1.739687e-08	-4.855457e+01	-1.135472e+03
1.100000e-07	-6.700017e-06	-1.734311e-08	-4.836034e+01	-1.134050e+03
1.200000e-07	-6.670672e-06	-1.730398e-08	-4.814853e+01	-1.132583e+03
1.300000e-07	-6.639214e-06	-1.727895e-08	-4.792147e+01	-1.131067e+03
1.400000e-07	-6.605607e-06	-1.721740e-08	-4.767889e+01	-1.129489e+03
1.500000e-07	-6.570123e-06	-1.717236e-08	-4.742277e+01	-1.127828e+03
1.600000e-07	-6.532873e-06	-1.722956e-08	-4.715390e+01	-1.126054e+03
1.700000e-07	-6.493484e-06	-1.714460e-08	-4.686960e+01	-1.124137e+03
1.800000e-07	-6.451835e-06	-1.708015e-08	-4.656898e+01	-1.122044e+03
1.900000e-07	-6.407760e-06	-1.710064e-08	-4.625084e+01	-1.119750e+03
2.000000e-07	-6.361282e-06	-1.700987e-08	-4.591537e+01	-1.117237e+03
2.100000e-07	-6.312430e-06	-1.698478e-08	-4.556276e+01	-1.114494e+03
2.200000e-07	-6.260901e-06	-1.695669e-08	-4.519083e+01	-1.111522e+03
2.300000e-07	-6.206834e-06	-1.689618e-08	-4.480057e+01	-1.108330e+03
2.400000e-07	-6.150391e-06	-1.685346e-08	-4.439317e+01	-1.104931e+03
2.500000e-07	-6.091558e-06	-1.677945e-08	-4.396852e+01	-1.101339e+03
2.600000e-07	-6.030523e-06	-1.673685e-08	-4.352797e+01	-1.097570e+03
2.700000e-07	-5.967306e-06	-1.667217e-08	-4.307168e+01	-1.093636e+03
2.800000e-07	-5.901815e-06	-1.659338e-08	-4.259896e+01	-1.089540e+03
2.900000e-07	-5.834042e-06	-1.652933e-08	-4.210978e+01	-1.085285e+03
3.000000e-07	-5.764070e-06	-1.645157e-08	-4.160473e+01	-1.080863e+03
3.100000e-07	-5.691955e-06	-1.639684e-08	-4.108420e+01	-1.076266e+03
3.200000e-07	-5.617562e-06	-1.632597e-08	-4.054725e+01	-1.071482e+03
3.300000e-07	-5.540820e-06	-1.626106e-08	-3.999333e+01	-1.066497e+03
3.400000e-07	-5.461813e-06	-1.616808e-08	-3.942306e+01	-1.061299e+03
3.500000e-07	-5.380696e-06	-1.607636e-08	-3.883756e+01	-1.055874e+03
3.600000e-07	-5.297778e-06	-1.600063e-08	-3.823906e+01	-1.050210e+03
3.700000e-07	-5.213196e-06	-1.590475e-08	-3.762855e+01	-1.044296e+03
3.800000e-07	-5.126921e-06	-1.582090e-08	-3.700582e+01	-1.038121e+03
3.900000e-07	-5.038833e-06	-1.572277e-08	-3.637001e+01	-1.031675e+03
4.000000e-07	-4.948906e-06	-1.561470e-08	-3.572092e+01	-1.024949e+03
4.100000e-07	-4.857240e-06	-1.549592e-08	-3.505928e+01	-1.017935e+03
4.200000e-07	-4.763985e-06	-1.538427e-08	-3.438617e+01	-1.010625e+03
4.300000e-07	-4.669185e-06	-1.527157e-08	-3.370191e+01	-1.003015e+03
4.400000e-07	-4.572631e-06	-1.514928e-08	-3.300499e+01	-9.950991e+02
4.500000e-07	-4.474326e-06	-1.502389e-08	-3.229543e+01	-9.868711e+02
4.600000e-07	-4.374370e-06	-1.489296e-08	-3.157395e+01	-9.783232e+02
4.700000e-07	-4.272865e-06	-1.475739e-08	-3.084129e+01	-9.694434e+02
4.800000e-07	-4.169884e-06	-1.461459e-08	-3.009798e+01	-9.602153e+02
4.900000e-07	-4.065385e-06	-1.447172e-08	-2.934372e+01	-9.506169e+02
5.000000e-07	-3.959385e-06	-1.431791e-08	-2.857862e+01	-9.406219e+02
5.100000e-07	-3.851906e-06	-1.415456e-08	-2.780284e+01	-9.302006e+02
5.200000e-07	-3.743053e-06	-1.398470e-08	-2.701715e+01	-9.193223e+02
5.300000e-07	-3.632971e-06	-1.381056e-08	-2.622258e+01	-9.079568e+02
5.400000e-07	-3.521623e-06	-1.362698e-08	-2.541887e+01	-8.960764e+02
5.500000e-07	-3.408800e-06	-1.343505e-08	-2.460452e+01	-8.836560e+02
5.600000e-07	-3.294461e-06	-1.323812e-08	-2.377923e+01	-8.706725e+02
5.700000e-07	-3.178687e-06	-1.303095e-08	-2.294358e+01	-8.571029e+02
5.800000e-07	-3.061590e-06	-1.281360e-08	-2.209838e+01	-8.429216e+02
5.900000e-07	-2.943388e-06	-1.258614e-08	-2.124521e+01	-8.280981e+02
6.000000e-07	-2.824188e-06	-1.235104e-08	-2.038483e+01	-8.125947e+02
6.100000e-07	-2.703940e-06	-1.210178e-08	-1.951688e+01	-7.963661e+02
6.200000e-07	-2.582653e-06	-1.183926e-08	-1.864144e+01	-7.793596e+02
6.300000e-07	-2.460377e-06	-1.156421e-08	-1.775886e+01	-7.615172e+02
6.400000e-07	-2.337123e-06	-1.127659e-08	-1.686922e+01	-7.427778e+02
6.500000e-07	-2.212972e-06	-1.097449e-08	-1.597311e+01	-7.230794e+02
6.600000e-07	-2.088092e-06	-1.065735e-08	-1.507173e+01	-7.023605e+02
6.700000e-07	-1.962616e-06	-1.032453e-08	-1.416605e+01	-6.805602e+02
6.800000e-07	-1.836493e-06	-9.972478e-09	-1.325570e+01	-6.576177e+02
6.900000e-07	-1.709705e-06	-9.602206e-09	-1.234055e+01	-6.334705e+02
7.000000e-07	-1.582291e-06	-9.213254e-09	-1.142089e+01	-6.080546e+02
7.100000e-07	-1.454331e-06	-8.807645e-09	-1.049727e+01	-5.813066e+02
7.200000e-07	-1.325839e-06	-8.379288e-09	-9.569829e+00	-5.531679e+02
7.300000e-07	-1.196895e-06	-7.927267e-09	-8.639122e+00	-5.235942e+02
7.400000e-07	-1.067678e-06	-7.452531e-09	-7.706442e+00	-4.925660e+02
7.500000e-07	-9.381627e-07	-6.956624e-09	-6.771605e+00	-4.601019e+02
7.600000e-07	-8.082970e-07	-6.442628e-09	-5.834242e+00	-4.262689e+02
7.700000e-07	-6.781394e-07	-5.910393e-09	-4.894771e+00	-3.911896e+02
7.800000e-07	-5.477490e-07	-5.362996e-09	-3.953621e+00	-3.550414e+02
7.900000e-07	-4.171783e-07	-4.803340e-09	-3.011169e+00	-3.180476e+02
8.000000e-07	-2.864661e-07	-4.233651e-09	-2.067696e+00	-2.804595e+02
8.100000e-07	-1.556387e-07	-3.656742e-09	-1.123391e+00	-2.425304e+02
8.200000e-07	-2.467157e-08	-3.077139e-09	-1.780780e-01	-2.044867e+02
8.300000e-07	1.063593e-07	-2.496900e-09	7.676957e-01	-1.664994e+02
8.400000e-07	2.373730e-07	-1.920402e-09	1.713345e+00	-1.286605e+02
8.500000e-07	3.682969e-07	-1.348442e-09	2.658346e+00	-9.097177e+01
8.600000e-07	4.990528e-07	-7.792681e-10	3.602135e+00	-5.334502e+01
8.700000e-07	6.297056e-07	-2.104074e-10	4.545179e+00	-1.561829e+01
8.800000e-07	7.601981e-07	3.630641e-10	5.487067e+00	2.241573e+01
8.900000e-07	8.903749e-07	9.448103e-10	6.426675e+00	6.097221e+01
9.000000e-07	1.020207e-06	1.540441e-09	7.363792e+00	1.002335e+02
9.100000e-07	1.149698e-06	2.151654e-09	8.298457e+00	1.403116e+02
9.200000e-07	1.278829e-06	2.778127e-09	9.230512e+00	1.812200e+02
9.300000e-07	1.407499e-06	3.414515e-09	1.015925e+01	2.228589e+02
9.400000e-07	1.535600e-06	4.056898e-09	1.108387e+01	2.650166e+02
9.500000e-07	1.663142e-06	4.701025e-09	1.200446e+01	3.073859e+02
9.600000e-07	1.790059e-06	5.341144e-09	1.292054e+01	3.495936e+02
9.700000e-07	1.916298e-06	5.972513e-09	1.383173e+01	3.912364e+02
9.800000e-07	2.041857e-06	6.589138e-09	1.473800e+01	4.319202e+02
9.900000e-07	2.166735e-06	7.188327e-09	1.563937e+01	4.712940e+02
1.000000e-06	2.290924e-06	7.763212e-09	1.653576e+01	5.090767e+02
1.010000e-06	2.414311e-06	8.310848e-09	1.742636e+01	5.450719e+02
1.020000e-06	2.536740e-06	8.830339e-09	1.831005e+01	5.791717e+02
1.030000e-06	2.658190e-06	9.320743e-09	1.918667e+01	6.113489e+02
1.040000e-06	2.778615e-06	9.780578e-09	2.005588e+01	6.416428e+02
1.050000e-06	2.897838e-06	1.021212e-08	2.091643e+01	6.701396e+02
1.060000e-06	3.016000e-06	1.061677e-08	2.176931e+01	6.969527e+02
1.070000e-06	3.133178e-06	1.099916e-08	2.261510e+01	7.222054e+02
1.080000e-06	3.249194e-06	1.136208e-08	2.345250e+01	7.460180e+02
1.090000e-06	3.363865e-06	1.170527e-08	2.428018e+01	7.684995e+02
1.100000e-06	3.477126e-06	1.203065e-08	2.509770e+01	7.897451e+02
1.110000e-06	3.588998e-06	1.233996e-08	2.590518e+01	8.098363e+02
1.120000e-06	3.699552e-06	1.263073e-08	2.670315e+01	8.288440e+02
1.130000e-06	3.808968e-06	1.290182e-08	2.749292e+01	8.468324e+02
1.140000e-06	3.917245e-06	1.315727e-08	2.827445e+01	8.638616e+02
1.150000e-06	4.024116e-06	1.339957e-08	2.904584e+01	8.799901e+02
1.160000e-06	4.129488e-06	1.363282e-08	2.980641e+01	8.952756e+02
1.170000e-06	4.233307e-06	1.385404e-08	3.055577e+01	9.097747e+02
1.180000e-06	4.335557e-06	1.406181e-08	3.129380e+01	9.235418e+02
1.190000e-06	4.436357e-06	1.425958e-08	3.202137e+01	9.366280e+02
1.200000e-06	4.535574e-06	1.444858e-08	3.273751e+01	9.490796e+02
1.210000e-06	4.633061e-06	1.462650e-08	3.344117e+01	9.609374e+02
1.220000e-06	4.728756e-06	1.479491e-08	3.413189e+01	9.722359e+02
1.230000e-06	4.822759e-06	1.495731e-08	3.481040e+01	9.830034e+02
1.240000e-06	4.915230e-06	1.511503e-08	3.547785e+01	9.932620e+02
1.250000e-06	5.006076e-06	1.526561e-08	3.613357e+01	1.003028e+03
1.260000e-06	5.095001e-06	1.540868e-08	3.677543e+01	1.012314e+03
1.270000e-06	5.181942e-06	1.554509e-08	3.740296e+01	1.021128e+03
1.280000e-06	5.267078e-06	1.567395e-08	3.801747e+01	1.029479e+03
1.290000e-06	5.350448e-06	1.579333e-08	3.861923e+01	1.037374e+03
1.300000e-06	5.431828e-06	1.590468e-08	3.920662e+01	1.044824e+03
1.310000e-06	5.511161e-06	1.600990e-08	3.977924e+01	1.051846e+03
1.320000e-06	5.588558e-06	1.611011e-08	4.033790e+01	1.058462e+03
1.330000e-06	5.663840e-06	1.620633e-08	4.088128e+01	1.064698e+03
1.340000e-06	5.736836e-06	1.629705e-08	4.140815e+01	1.070587e+03
1.350000e-06	5.807670e-06	1.638350e-08	4.191943e+01	1.076164e+03
1.360000e-06	5.876472e-06	1.646639e-08	4.241604e+01	1.081464e+03
1.370000e-06	5.943187e-06	1.654352e-08	4.289758e+01	1.086516e+03
1.380000e-06	6.007688e-06	1.661448e-08	4.336315e+01	1.091345e+03
1.390000e-06	6.070056e-06	1.668208e-08	4.381332e+01	1.095969e+03
1.400000e-06	6.130430e-06	1.674735e-08	4.424909e+01	1.100393e+03
1.410000e-06	6.188626e-06	1.681024e-08	4.466915e+01	1.104618e+03
1.420000e-06	6.244549e-06	1.687071e-08	4.507280e+01	1.108637e+03
1.430000e-06	6.298240e-06	1.692900e-08	4.546034e+01	1.112440e+03
1.440000e-06	6.349491e-06	1.698487e-08	4.583026e+01	1.116017e+03
1.450000e-06	6.398109e-06	1.703656e-08	4.618119e+01	1.119360e+03
1.460000e-06	6.444315e-06	1.708310e-08	4.651470e+01	1.122466e+03
1.470000e-06	6.488402e-06	1.712641e-08	4.683292e+01	1.125337e+03
1.480000e-06	6.530165e-06	1.716670e-08	4.713436e+01	1.127979e+03
1.490000e-06	6.569456e-06	1.720266e-08	4.741796e+01	1.130401e+03
1.500000e-06	6.606546e-06	1.723407e-08	4.768567e+01	1.132615e+03
1.510000e-06	6.641476e-06	1.726202e-08	4.793779e+01	1.134630e+03
1.520000e-06	6.673962e-06	1.729012e-08	4.817228e+01	1.136456e+03
1.530000e-06	6.704000e-06	1.731729e-08	4.838909e+01	1.138099e+03
1.540000e-06	6.731814e-06	1.733990e-08	4.858985e+01	1.139563e+03
1.550000e-06	6.757176e-06	1.735805e-08	4.877291e+01	1.140852e+03
1.560000e-06	6.779964e-06	1.737363e-08	4.893739e+01	1.141969e+03
1.570000e-06	6.800455e-06	1.738738e-08	4.908529e+01	1.142918e+03
1.580000e-06	6.818586e-06	1.739887e-08	4.921617e+01	1.143706e+03
1.590000e-06	6.834121e-06	1.740850e-08	4.932829e+01	1.144342e+03
1.600000e-06	6.847056e-06	1.741702e-08	4.942166e+01	1.144834e+03
1.610000e-06	6.857245e-06	1.742510e-08	4.949520e+01	1.145193e+03
1.620000e-06	6.864765e-06	1.743039e-08	4.954948e+01	1.145428e+03
1.630000e-06	6.869939e-06	1.743315e-08	4.958683e+01	1.145544e+03
1.640000e-06	6.872720e-06	1.743442e-08	4.960690e+01	1.145545e+03
1.650000e-06	6.872997e-06	1.743520e-08	4.960890e+01	1.145427e+03
1.660000e-06	6.870923e-06	1.743030e-08	4.959393e+01	1.145187e+03
1.670000e-06	6.866677e-06	1.742245e-08	4.956328e+01	1.144815e+03
1.680000e-06	6.860103e-06	1.741516e-08	4.951583e+01	1.144305e+03
1.690000e-06	6.851184e-06	1.740708e-08	4.945146e+01	1.143652e+03
1.700000e-06	6.840077e-06	1.739747e-08	4.937128e+01	1.142856e+03
1.710000e-06	6.826590e-06	1.738717e-08	4.927393e+01	1.141919e+03
1.720000e-06	6.810696e-06	1.738031e-08	4.915922e+01	1.140855e+03
1.730000e-06	6.792751e-06	1.736116e-08	4.902969e+01	1.139678e+03
1.740000e-06	6.772657e-06	1.728619e-08	4.888465e+01	1.138409e+03
1.750000e-06	6.749601e-06	1.726426e-08	4.871823e+01	1.137065e+03
1.760000e-06	6.723265e-06	1.727705e-08	4.852814e+01	1.135665e+03
1.770000e-06	6.694205e-06	1.725278e-08	4.831839e+01	1.134217e+03
1.780000e-06	6.662918e-06	1.725282e-08	4.809256e+01	1.132722e+03
1.790000e-06	6.629917e-06	1.728382e-08	4.785436e+01	1.131173e+03
1.800000e-06	6.595565e-06	1.719248e-08	4.760641e+01	1.129551e+03
1.810000e-06	6.559212e-06	1.717728e-08	4.734402e+01	1.127829e+03
1.820000e-06	6.520293e-06	1.720695e-08	4.706310e+01	1.125977e+03
1.830000e-06	6.479202e-06	1.710525e-08	4.676651e+01	1.123962e+03
1.840000e-06	6.435956e-06	1.715545e-08	4.645436e+01	1.121757e+03
1.850000e-06	6.390359e-06	1.709923e-08	4.612525e+01	1.119339e+03
1.860000e-06	6.342395e-06	1.701334e-08	4.577905e+01	1.116695e+03
1.870000e-06	6.291998e-06	1.701820e-08	4.541529e+01	1.113821e+03
1.880000e-06	6.239287e-06	1.690740e-08	4.503482e+01	1.110722e+03
1.890000e-06	6.184018e-06	1.691181e-08	4.463589e+01	1.107409e+03
1.900000e-06	6.126194e-06	1.685030e-08	4.421852e+01	1.103898e+03
1.910000e-06	6.066121e-06	1.676660e-08	4.378492e+01	1.100203e+03
1.920000e-06	6.003701e-06	1.676795e-08	4.333437e+01	1.096339e+03
1.930000e-06	5.939051e-06	1.665993e-08	4.286773e+01	1.092312e+03
1.940000e-06	5.872307e-06	1.663561e-08	4.238598e+01	1.088125e+03
1.950000e-06	5.803287e-06	1.655428e-08	4.188780e+01	1.083775e+03
1.960000e-06	5.731920e-06	1.647141e-08	4.137267e+01	1.079255e+03
1.970000e-06	5.658346e-06	1.641178e-08	4.084162e+01	1.074552e+03
1.980000e-06	5.582645e-06	1.631116e-08	4.029521e+01	1.069655e+03
1.990000e-06	5.504632e-06	1.627285e-08	3.973212e+01	1.064550e+03
2.000000e-06	5.424473e-06	1.617075e-08	3.915354e+01	1.059223e+03
2.010000e-06	5.342501e-06	1.609827e-08	3.856187e+01	1.053663e+03
2.020000e-06	5.258734e-06	1.600334e-08	3.795724e+01	1.047857e+03
2.030000e-06	5.173063e-06	1.589601e-08	3.733887e+01	1.041795e+03
2.040000e-06	5.085378e-06	1.581647e-08	3.670597e+01	1.035467e+03
2.050000e-06	4.995890e-06	1.570881e-08	3.606005e+01	1.028862e+03
2.060000e-06	4.904838e-06	1.561866e-08	3.540284e+01	1.021971e+03
2.070000e-06	4.812151e-06	1.549767e-08	3.473383e+01	1.014789e+03
2.080000e-06	4.717680e-06	1.538979e-08	3.405195e+01	1.007308e+03
2.090000e-06	4.621436e-06	1.527030e-08	3.335726e+01	9.995237e+02
2.100000e-06	4.523590e-06	1.514909e-08	3.265101e+01	9.914301e+02
2.110000e-06	4.424355e-06	1.502829e-08	3.193474e+01	9.830203e+02
2.120000e-06	4.323606e-06	1.489302e-08	3.120754e+01	9.742844e+02
2.130000e-06	4.221172e-06	1.475278e-08	3.046818e+01	9.652077e+02
2.140000e-06	4.117101e-06	1.460106e-08	2.971700e+01	9.557709e+02
2.150000e-06	4.011485e-06	1.445649e-08	2.895467e+01	9.459492e+02
2.160000e-06	3.904542e-06	1.430107e-08	2.818276e+01	9.357142e+02
2.170000e-06	3.796271e-06	1.414438e-08	2.740127e+01	9.250354e+02
2.180000e-06	3.686637e-06	1.397690e-08	2.660994e+01	9.138821e+02
2.190000e-06	3.575640e-06	1.380296e-08	2.580877e+01	9.022254e+02
2.200000e-06	3.463191e-06	1.361547e-08	2.499711e+01	8.900392e+02
2.210000e-06	3.349367e-06	1.342107e-08	2.417554e+01	8.772997e+02
2.220000e-06	3.234250e-06	1.321939e-08	2.334463e+01	8.639840e+02
2.230000e-06	3.117808e-06	1.300891e-08	2.250416e+01	8.500681e+02
2.240000e-06	3.000051e-06	1.278808e-08	2.165419e+01	8.355238e+02
2.250000e-06	2.881055e-06	1.255544e-08	2.079529e+01	8.203168e+02
2.260000e-06	2.760855e-06	1.231480e-08	1.992769e+01	8.044049e+02
2.270000e-06	2.639595e-06	1.206043e-08	1.905244e+01	7.877385e+02
2.280000e-06	2.517444e-06	1.179624e-08	1.817076e+01	7.702615e+02
2.290000e-06	2.394463e-06	1.151731e-08	1.728310e+01	7.519140e+02
2.300000e-06	2.270684e-06	1.122692e-08	1.638967e+01	7.326340e+02
2.310000e-06	2.146125e-06	1.092069e-08	1.549061e+01	7.123597e+02
2.320000e-06	2.020811e-06	1.059847e-08	1.458610e+01	6.910302e+02
2.330000e-06	1.894740e-06	1.025633e-08	1.367612e+01	6.685846e+02
2.340000e-06	1.767956e-06	9.894543e-09	1.276101e+01	6.449612e+02
2.350000e-06	1.640538e-06	9.514799e-09	1.184131e+01	6.200968e+02
2.360000e-06	1.512532e-06	9.115802e-09	1.091737e+01	5.939272e+02
2.370000e-06	1.383993e-06	8.697983e-09	9.989582e+00	5.663908e+02
2.380000e-06	1.255014e-06	8.257589e-09	9.058618e+00	5.374361e+02
2.390000e-06	1.125689e-06	7.796191e-09	8.125158e+00	5.070313e+02
2.400000e-06	9.960575e-07	7.309025e-09	7.189487e+00	4.751773e+02
2.410000e-06	8.661555e-07	6.797643e-09	6.251861e+00	4.419192e+02
2.420000e-06	7.360110e-07	6.267695e-09	5.312485e+00	4.073552e+02
2.430000e-06	6.056280e-07	5.719757e-09	4.371388e+00	3.716399e+02
2.440000e-06	4.750542e-07	5.157555e-09	3.428914e+00	3.349787e+02
2.450000e-06	3.443207e-07	4.586132e-09	2.485287e+00	2.976136e+02
2.460000e-06	2.134397e-07	4.008551e-09	1.540595e+00	2.598005e+02
2.470000e-06	8.243734e-08	3.426246e-09	5.950280e-01	2.217811e+02
2.480000e-06	-4.863619e-08	2.844326e-09	-3.510532e-01	1.837531e+02
2.490000e-06	-1.796965e-07	2.265156e-09	-1.297039e+00	1.458448e+02
2.500000e-06	-3.106673e-07	1.687187e-09	-2.242379e+00	1.080974e+02
2.510000e-06	-4.415085e-07	1.109424e-09	-3.186783e+00	7.045995e+01
2.520000e-06	-5.722728e-07	5.300378e-10	-4.130633e+00	3.279944e+01
2.530000e-06	-7.029418e-07	-5.417404e-11	-5.073794e+00	-5.076221e+00
2.540000e-06	-8.333705e-07	-6.438648e-10	-6.015220e+00	-4.338377e+01
2.550000e-06	-9.635260e-07	-1.241195e-09	-6.954676e+00	-8.232455e+01
2.560000e-06	-1.093355e-06	-1.848299e-09	-7.891772e+00	-1.220449e+02
2.570000e-06	-1.222799e-06	-2.467064e-09	-8.826093e+00	-1.626030e+02
2.580000e-06	-1.351869e-06	-3.097470e-09	-9.757713e+00	-2.039486e+02
2.590000e-06	-1.480547e-06	-3.737131e-09	-1.068650e+01	-2.459167e+02
2.600000e-06	-1.608776e-06	-4.384336e-09	-1.161205e+01	-2.882381e+02
2.610000e-06	-1.736354e-06	-5.032253e-09	-1.253290e+01	-3.305637e+02
2.620000e-06	-1.863124e-06	-5.674666e-09	-1.344792e+01	-3.724985e+02
2.630000e-06	-1.989160e-06	-6.305412e-09	-1.435765e+01	-4.136397e+02
2.640000e-06	-2.114486e-06	-6.917383e-09	-1.526224e+01	-4.536140e+02
2.650000e-06	-2.238956e-06	-7.507474e-09	-1.616066e+01	-4.921080e+02
2.660000e-06	-2.362508e-06	-8.070849e-09	-1.705245e+01	-5.288877e+02
2.670000e-06	-2.485133e-06	-8.604599e-09	-1.793755e+01	-5.638077e+02
2.680000e-06	-2.606810e-06	-9.108537e-09	-1.881581e+01	-5.968076e+02
2.690000e-06	-2.727631e-06	-9.583570e-09	-1.968788e+01	-6.279006e+02
2.700000e-06	-2.847476e-06	-1.003217e-08	-2.055292e+01	-6.571550e+02
2.710000e-06	-2.966172e-06	-1.045431e-08	-2.140966e+01	-6.846749e+02
2.720000e-06	-3.083684e-06	-1.085085e-08	-2.225786e+01	-7.105814e+02
2.730000e-06	-3.199899e-06	-1.122561e-08	-2.309669e+01	-7.349972e+02
2.740000e-06	-3.314807e-06	-1.157974e-08	-2.392609e+01	-7.580369e+02
2.750000e-06	-3.428373e-06	-1.191186e-08	-2.474580e+01	-7.798015e+02
2.760000e-06	-3.540496e-06	-1.222367e-08	-2.555510e+01	-8.003784e+02
2.770000e-06	-3.651176e-06	-1.251926e-08	-2.635398e+01	-8.198425e+02
2.780000e-06	-3.760622e-06	-1.280058e-08	-2.714395e+01	-8.382604e+02
2.790000e-06	-3.868982e-06	-1.306782e-08	-2.792609e+01	-8.556935e+02
2.800000e-06	-3.976149e-06	-1.332113e-08	-2.869961e+01	-8.722011e+02
2.810000e-06	-4.081993e-06	-1.356154e-08	-2.946359e+01	-8.878410e+02
2.820000e-06	-4.186352e-06	-1.378949e-08	-3.021685e+01	-9.026704e+02
2.830000e-06	-4.289091e-06	-1.400638e-08	-3.095841e+01	-9.167450e+02
2.840000e-06	-4.390184e-06	-1.421335e-08	-3.168810e+01	-9.301172e+02
2.850000e-06	-4.489724e-06	-1.441177e-08	-3.240657e+01	-9.428356e+02
2.860000e-06	-4.587785e-06	-1.460038e-08	-3.311437e+01	-9.549434e+02
2.870000e-06	-4.684322e-06	-1.477662e-08	-3.381117e+01	-9.664779e+02
2.880000e-06	-4.779177e-06	-1.494326e-08	-3.449583e+01	-9.774701e+02
2.890000e-06	-4.872205e-06	-1.510033e-08	-3.516730e+01	-9.879446e+02
2.900000e-06	-4.963460e-06	-1.525102e-08	-3.582597e+01	-9.979203e+02
2.910000e-06	-5.052996e-06	-1.539629e-08	-3.647223e+01	-1.007411e+03
2.920000e-06	-5.140658e-06	-1.553413e-08	-3.710497e+01	-1.016427e+03
2.930000e-06	-5.226366e-06	-1.566525e-08	-3.772362e+01	-1.024975e+03
2.940000e-06	-5.310204e-06	-1.578931e-08	-3.832875e+01	-1.033064e+03
