# Temperatura_=_26.98
# Concentracion g/m^3_=_28200.0
# C_Vs_to_Am_M_A/Vsm_=_65563218390.804596
# pendiente_HvsI_1/m_=_3716.3
# ordenada_HvsI_A/m_=_1297.0
# frecuencia_Hz_=_302276.58204984013

Tiempo_(s)	Campo_(V.s)	Magnetizacion_(V.s)	Campo_(kA/m)	Magnetizacion_(A/m)
0.000000e+00	-6.874624e-06	-1.735917e-08	-4.952040e+01	-1.135795e+03
1.000000e-08	-6.871779e-06	-1.735637e-08	-4.949991e+01	-1.135535e+03
2.000000e-08	-6.866605e-06	-1.734841e-08	-4.946264e+01	-1.135154e+03
3.000000e-08	-6.859316e-06	-1.733969e-08	-4.941013e+01	-1.134642e+03
4.000000e-08	-6.849708e-06	-1.732911e-08	-4.934092e+01	-1.133988e+03
5.000000e-08	-6.837514e-06	-1.731430e-08	-4.925308e+01	-1.133184e+03
6.000000e-08	-6.822773e-06	-1.729767e-08	-4.914690e+01	-1.132227e+03
7.000000e-08	-6.805705e-06	-1.727959e-08	-4.902395e+01	-1.131124e+03
8.000000e-08	-6.786619e-06	-1.726157e-08	-4.888647e+01	-1.129891e+03
9.000000e-08	-6.765376e-06	-1.728332e-08	-4.873345e+01	-1.128549e+03
1.000000e-07	-6.741455e-06	-1.726937e-08	-4.856114e+01	-1.127126e+03
1.100000e-07	-6.714666e-06	-1.720641e-08	-4.836817e+01	-1.125650e+03
1.200000e-07	-6.685346e-06	-1.716686e-08	-4.815697e+01	-1.124140e+03
1.300000e-07	-6.653878e-06	-1.714280e-08	-4.793029e+01	-1.122607e+03
1.400000e-07	-6.620263e-06	-1.708389e-08	-4.768815e+01	-1.121046e+03
1.500000e-07	-6.584788e-06	-1.705815e-08	-4.743261e+01	-1.119436e+03
1.600000e-07	-6.547533e-06	-1.711497e-08	-4.716425e+01	-1.117743e+03
1.700000e-07	-6.508144e-06	-1.702173e-08	-4.688051e+01	-1.115925e+03
1.800000e-07	-6.466487e-06	-1.697047e-08	-4.658044e+01	-1.113938e+03
1.900000e-07	-6.422353e-06	-1.696976e-08	-4.626253e+01	-1.111743e+03
2.000000e-07	-6.375835e-06	-1.687191e-08	-4.592744e+01	-1.109311e+03
2.100000e-07	-6.326910e-06	-1.685886e-08	-4.557502e+01	-1.106628e+03
2.200000e-07	-6.275266e-06	-1.682527e-08	-4.520301e+01	-1.103695e+03
2.300000e-07	-6.221101e-06	-1.677706e-08	-4.481284e+01	-1.100526e+03
2.400000e-07	-6.164655e-06	-1.674377e-08	-4.440624e+01	-1.097142e+03
2.500000e-07	-6.105835e-06	-1.666538e-08	-4.398254e+01	-1.093568e+03
2.600000e-07	-6.044709e-06	-1.660994e-08	-4.354222e+01	-1.089825e+03
2.700000e-07	-5.981399e-06	-1.654473e-08	-4.308618e+01	-1.085927e+03
2.800000e-07	-5.915844e-06	-1.647963e-08	-4.261396e+01	-1.081878e+03
2.900000e-07	-5.848017e-06	-1.641980e-08	-4.212538e+01	-1.077670e+03
3.000000e-07	-5.778044e-06	-1.635200e-08	-4.162134e+01	-1.073291e+03
3.100000e-07	-5.706024e-06	-1.629783e-08	-4.110255e+01	-1.068724e+03
3.200000e-07	-5.631730e-06	-1.620770e-08	-4.056739e+01	-1.063951e+03
3.300000e-07	-5.555005e-06	-1.612915e-08	-4.001471e+01	-1.058960e+03
3.400000e-07	-5.475944e-06	-1.604068e-08	-3.944521e+01	-1.053740e+03
3.500000e-07	-5.394767e-06	-1.595998e-08	-3.886046e+01	-1.048288e+03
3.600000e-07	-5.311791e-06	-1.588864e-08	-3.826275e+01	-1.042600e+03
3.700000e-07	-5.227087e-06	-1.579391e-08	-3.765260e+01	-1.036676e+03
3.800000e-07	-5.140710e-06	-1.570566e-08	-3.703039e+01	-1.030512e+03
3.900000e-07	-5.052529e-06	-1.559931e-08	-3.639519e+01	-1.024101e+03
4.000000e-07	-4.962447e-06	-1.549294e-08	-3.574630e+01	-1.017432e+03
4.100000e-07	-4.870617e-06	-1.538241e-08	-3.508481e+01	-1.010490e+03
4.200000e-07	-4.777184e-06	-1.527635e-08	-3.441178e+01	-1.003260e+03
4.300000e-07	-4.682238e-06	-1.516512e-08	-3.372785e+01	-9.957251e+02
4.400000e-07	-4.585557e-06	-1.504063e-08	-3.303143e+01	-9.878729e+02
4.500000e-07	-4.487097e-06	-1.491401e-08	-3.232218e+01	-9.796918e+02
4.600000e-07	-4.387016e-06	-1.478208e-08	-3.160126e+01	-9.711722e+02
4.700000e-07	-4.285391e-06	-1.465027e-08	-3.086922e+01	-9.623049e+02
4.800000e-07	-4.182317e-06	-1.451026e-08	-3.012674e+01	-9.530787e+02
4.900000e-07	-4.077716e-06	-1.436509e-08	-2.937326e+01	-9.434787e+02
5.000000e-07	-3.971599e-06	-1.420846e-08	-2.860887e+01	-9.334853e+02
5.100000e-07	-3.863985e-06	-1.404514e-08	-2.783368e+01	-9.230741e+02
5.200000e-07	-3.754967e-06	-1.387558e-08	-2.704838e+01	-9.122170e+02
5.300000e-07	-3.644746e-06	-1.370102e-08	-2.625443e+01	-9.008841e+02
5.400000e-07	-3.533229e-06	-1.352186e-08	-2.545113e+01	-8.890456e+02
5.500000e-07	-3.420240e-06	-1.333469e-08	-2.463723e+01	-8.766729e+02
5.600000e-07	-3.305787e-06	-1.313860e-08	-2.381278e+01	-8.637394e+02
5.700000e-07	-3.189887e-06	-1.292932e-08	-2.297791e+01	-8.502191e+02
5.800000e-07	-3.072673e-06	-1.270994e-08	-2.213357e+01	-8.360848e+02
5.900000e-07	-2.954353e-06	-1.247967e-08	-2.128127e+01	-8.213060e+02
6.000000e-07	-2.835004e-06	-1.224441e-08	-2.042156e+01	-8.058464e+02
6.100000e-07	-2.714554e-06	-1.200011e-08	-1.955391e+01	-7.896633e+02
6.200000e-07	-2.593017e-06	-1.174272e-08	-1.867844e+01	-7.727072e+02
6.300000e-07	-2.470510e-06	-1.147018e-08	-1.779598e+01	-7.549234e+02
6.400000e-07	-2.347018e-06	-1.118221e-08	-1.690642e+01	-7.362538e+02
6.500000e-07	-2.222619e-06	-1.088001e-08	-1.601033e+01	-7.166391e+02
6.600000e-07	-2.097529e-06	-1.056347e-08	-1.510926e+01	-6.960198e+02
6.700000e-07	-1.971838e-06	-1.023345e-08	-1.420386e+01	-6.743372e+02
6.800000e-07	-1.845508e-06	-9.886605e-09	-1.329386e+01	-6.515316e+02
6.900000e-07	-1.718519e-06	-9.520741e-09	-1.237911e+01	-6.275425e+02
7.000000e-07	-1.590920e-06	-9.133442e-09	-1.145997e+01	-6.023078e+02
7.100000e-07	-1.462788e-06	-8.727171e-09	-1.053699e+01	-5.757657e+02
7.200000e-07	-1.334163e-06	-8.299832e-09	-9.610459e+00	-5.478605e+02
7.300000e-07	-1.205094e-06	-7.852393e-09	-8.680728e+00	-5.185503e+02
7.400000e-07	-1.075588e-06	-7.385527e-09	-7.747853e+00	-4.878189e+02
7.500000e-07	-9.457441e-07	-6.897456e-09	-6.812537e+00	-4.556875e+02
7.600000e-07	-8.156143e-07	-6.388052e-09	-5.875165e+00	-4.222262e+02
7.700000e-07	-6.851554e-07	-5.859661e-09	-4.935422e+00	-3.875599e+02
7.800000e-07	-5.544949e-07	-5.318870e-09	-3.994227e+00	-3.518676e+02
7.900000e-07	-4.237068e-07	-4.767113e-09	-3.052113e+00	-3.153734e+02
8.000000e-07	-2.927831e-07	-4.206821e-09	-2.109023e+00	-2.783283e+02
8.100000e-07	-1.617105e-07	-3.639936e-09	-1.164859e+00	-2.409847e+02
8.200000e-07	-3.051529e-08	-3.069148e-09	-2.198126e-01	-2.035679e+02
8.300000e-07	1.007273e-07	-2.496949e-09	7.255751e-01	-1.662481e+02
8.400000e-07	2.319783e-07	-1.929051e-09	1.671024e+00	-1.291175e+02
8.500000e-07	3.631807e-07	-1.368450e-09	2.616122e+00	-9.217885e+01
8.600000e-07	4.942368e-07	-8.128151e-10	3.560167e+00	-5.534628e+01
8.700000e-07	6.250935e-07	-2.568306e-10	4.502774e+00	-1.846025e+01
8.800000e-07	7.557916e-07	3.055046e-10	5.444241e+00	1.868506e+01
8.900000e-07	8.862954e-07	8.762771e-10	6.384306e+00	5.630596e+01
9.000000e-07	1.016511e-06	1.457772e-09	7.322298e+00	9.459027e+01
9.100000e-07	1.146358e-06	2.053012e-09	8.257633e+00	1.336612e+02
9.200000e-07	1.275755e-06	2.663275e-09	9.189722e+00	1.735495e+02
9.300000e-07	1.404636e-06	3.283006e-09	1.011810e+01	2.141789e+02
9.400000e-07	1.532967e-06	3.909865e-09	1.104251e+01	2.553652e+02
9.500000e-07	1.660755e-06	4.540437e-09	1.196302e+01	2.968308e+02
9.600000e-07	1.787997e-06	5.168272e-09	1.287959e+01	3.382298e+02
9.700000e-07	1.914565e-06	5.788011e-09	1.379131e+01	3.791823e+02
9.800000e-07	2.040404e-06	6.395589e-09	1.469776e+01	4.193091e+02
9.900000e-07	2.165591e-06	6.989495e-09	1.559953e+01	4.582651e+02
1.000000e-06	2.290071e-06	7.562772e-09	1.649621e+01	4.957655e+02
1.010000e-06	2.413687e-06	8.108242e-09	1.738666e+01	5.316015e+02
1.020000e-06	2.536410e-06	8.626576e-09	1.827068e+01	5.656465e+02
1.030000e-06	2.658174e-06	9.117698e-09	1.914779e+01	5.978520e+02
1.040000e-06	2.778842e-06	9.577533e-09	2.001700e+01	6.282354e+02
1.050000e-06	2.898417e-06	1.000796e-08	2.087835e+01	6.568641e+02
1.060000e-06	3.016928e-06	1.041323e-08	2.173202e+01	6.838366e+02
1.070000e-06	3.134363e-06	1.079882e-08	2.257795e+01	7.092663e+02
1.080000e-06	3.250643e-06	1.116573e-08	2.341556e+01	7.332673e+02
1.090000e-06	3.365594e-06	1.151491e-08	2.424359e+01	7.559453e+02
1.100000e-06	3.479103e-06	1.184583e-08	2.506124e+01	7.773931e+02
1.110000e-06	3.591225e-06	1.215799e-08	2.586889e+01	7.976896e+02
1.120000e-06	3.702072e-06	1.244961e-08	2.666737e+01	8.169021e+02
1.130000e-06	3.811717e-06	1.272144e-08	2.745718e+01	8.350898e+02
1.140000e-06	3.920195e-06	1.298000e-08	2.823859e+01	8.523077e+02
1.150000e-06	4.027365e-06	1.322657e-08	2.901057e+01	8.686100e+02
1.160000e-06	4.132984e-06	1.346113e-08	2.977138e+01	8.840519e+02
1.170000e-06	4.237048e-06	1.368345e-08	3.052099e+01	8.986898e+02
1.180000e-06	4.339625e-06	1.389328e-08	3.125989e+01	9.125805e+02
1.190000e-06	4.440717e-06	1.409318e-08	3.198809e+01	9.257790e+02
1.200000e-06	4.540336e-06	1.428422e-08	3.270568e+01	9.383365e+02
1.210000e-06	4.638195e-06	1.446559e-08	3.341060e+01	9.502977e+02
1.220000e-06	4.734215e-06	1.463877e-08	3.410227e+01	9.616998e+02
1.230000e-06	4.828559e-06	1.480332e-08	3.478185e+01	9.725711e+02
1.240000e-06	4.921223e-06	1.496084e-08	3.544935e+01	9.829322e+02
1.250000e-06	5.012139e-06	1.511103e-08	3.610425e+01	9.927967e+02
1.260000e-06	5.101205e-06	1.525420e-08	3.674583e+01	1.002174e+03
1.270000e-06	5.188370e-06	1.538938e-08	3.737370e+01	1.011071e+03
1.280000e-06	5.273708e-06	1.551742e-08	3.798843e+01	1.019497e+03
1.290000e-06	5.357267e-06	1.564002e-08	3.859033e+01	1.027462e+03
1.300000e-06	5.438863e-06	1.575723e-08	3.917810e+01	1.034980e+03
1.310000e-06	5.518403e-06	1.586668e-08	3.975106e+01	1.042074e+03
1.320000e-06	5.595993e-06	1.596800e-08	4.030996e+01	1.048766e+03
1.330000e-06	5.671513e-06	1.606432e-08	4.085396e+01	1.055086e+03
1.340000e-06	5.744774e-06	1.615515e-08	4.138169e+01	1.061064e+03
1.350000e-06	5.815859e-06	1.624096e-08	4.189373e+01	1.066729e+03
1.360000e-06	5.884895e-06	1.632285e-08	4.239103e+01	1.072110e+03
1.370000e-06	5.951832e-06	1.640022e-08	4.287320e+01	1.077231e+03
1.380000e-06	6.016517e-06	1.647266e-08	4.333915e+01	1.082112e+03
1.390000e-06	6.079054e-06	1.654235e-08	4.378962e+01	1.086769e+03
1.400000e-06	6.139709e-06	1.660945e-08	4.422654e+01	1.091211e+03
1.410000e-06	6.198275e-06	1.667417e-08	4.464842e+01	1.095444e+03
1.420000e-06	6.254503e-06	1.673602e-08	4.505345e+01	1.099468e+03
1.430000e-06	6.308436e-06	1.679406e-08	4.544194e+01	1.103281e+03
1.440000e-06	6.359911e-06	1.684806e-08	4.581274e+01	1.106879e+03
1.450000e-06	6.408730e-06	1.689838e-08	4.616440e+01	1.110257e+03
1.460000e-06	6.455097e-06	1.694482e-08	4.649840e+01	1.113412e+03
1.470000e-06	6.499367e-06	1.698819e-08	4.681729e+01	1.116339e+03
1.480000e-06	6.541392e-06	1.702988e-08	4.712001e+01	1.119040e+03
1.490000e-06	6.580966e-06	1.706840e-08	4.740508e+01	1.121515e+03
1.500000e-06	6.618258e-06	1.710265e-08	4.767370e+01	1.123771e+03
1.510000e-06	6.653298e-06	1.713274e-08	4.792611e+01	1.125815e+03
1.520000e-06	6.685874e-06	1.716024e-08	4.816077e+01	1.127658e+03
1.530000e-06	6.716056e-06	1.718545e-08	4.837818e+01	1.129308e+03
1.540000e-06	6.744091e-06	1.720772e-08	4.858013e+01	1.130777e+03
1.550000e-06	6.769653e-06	1.722630e-08	4.876426e+01	1.132073e+03
1.560000e-06	6.792566e-06	1.724138e-08	4.892931e+01	1.133203e+03
1.570000e-06	6.813189e-06	1.725489e-08	4.907787e+01	1.134174e+03
1.580000e-06	6.831477e-06	1.726738e-08	4.920960e+01	1.134990e+03
1.590000e-06	6.847141e-06	1.727806e-08	4.932243e+01	1.135656e+03
1.600000e-06	6.860209e-06	1.728691e-08	4.941656e+01	1.136177e+03
1.610000e-06	6.870564e-06	1.729487e-08	4.949115e+01	1.136561e+03
1.620000e-06	6.878267e-06	1.730017e-08	4.954664e+01	1.136814e+03
1.630000e-06	6.883579e-06	1.730251e-08	4.958491e+01	1.136945e+03
1.640000e-06	6.886471e-06	1.730412e-08	4.960574e+01	1.136960e+03
1.650000e-06	6.886910e-06	1.730565e-08	4.960890e+01	1.136863e+03
1.660000e-06	6.884950e-06	1.730085e-08	4.959479e+01	1.136653e+03
1.670000e-06	6.880783e-06	1.729329e-08	4.956477e+01	1.136325e+03
1.680000e-06	6.874223e-06	1.728715e-08	4.951752e+01	1.135870e+03
1.690000e-06	6.865342e-06	1.727887e-08	4.945354e+01	1.135278e+03
1.700000e-06	6.854359e-06	1.726930e-08	4.937443e+01	1.134538e+03
1.710000e-06	6.840919e-06	1.726073e-08	4.927762e+01	1.133647e+03
1.720000e-06	6.825048e-06	1.725649e-08	4.916329e+01	1.132605e+03
1.730000e-06	6.807131e-06	1.723724e-08	4.903422e+01	1.131425e+03
1.740000e-06	6.787131e-06	1.716417e-08	4.889016e+01	1.130126e+03
1.750000e-06	6.764229e-06	1.714659e-08	4.872518e+01	1.128734e+03
1.760000e-06	6.738017e-06	1.715949e-08	4.853638e+01	1.127278e+03
1.770000e-06	6.709033e-06	1.713142e-08	4.832759e+01	1.125780e+03
1.780000e-06	6.677790e-06	1.713110e-08	4.810254e+01	1.124257e+03
1.790000e-06	6.644831e-06	1.714706e-08	4.786512e+01	1.122709e+03
1.800000e-06	6.610510e-06	1.704367e-08	4.761790e+01	1.121123e+03
1.810000e-06	6.574219e-06	1.704067e-08	4.735648e+01	1.119471e+03
1.820000e-06	6.535343e-06	1.707255e-08	4.707644e+01	1.117712e+03
1.830000e-06	6.494248e-06	1.698927e-08	4.678042e+01	1.115802e+03
1.840000e-06	6.450964e-06	1.704624e-08	4.646863e+01	1.113701e+03
1.850000e-06	6.405315e-06	1.698276e-08	4.613980e+01	1.111373e+03
1.860000e-06	6.357399e-06	1.690653e-08	4.579465e+01	1.108798e+03
1.870000e-06	6.307109e-06	1.690283e-08	4.543239e+01	1.105971e+03
1.880000e-06	6.254370e-06	1.678447e-08	4.505249e+01	1.102900e+03
1.890000e-06	6.198950e-06	1.677814e-08	4.465328e+01	1.099605e+03
1.900000e-06	6.141014e-06	1.672455e-08	4.423594e+01	1.096110e+03
1.910000e-06	6.080923e-06	1.666874e-08	4.380308e+01	1.092437e+03
1.920000e-06	6.018482e-06	1.666216e-08	4.335330e+01	1.088605e+03
1.930000e-06	5.953808e-06	1.654690e-08	4.288743e+01	1.084620e+03
1.940000e-06	5.887048e-06	1.651187e-08	4.240653e+01	1.080481e+03
1.950000e-06	5.818062e-06	1.641284e-08	4.190961e+01	1.076178e+03
1.960000e-06	5.746683e-06	1.634648e-08	4.139544e+01	1.071693e+03
1.970000e-06	5.672999e-06	1.630308e-08	4.086467e+01	1.067010e+03
1.980000e-06	5.597199e-06	1.620932e-08	4.031865e+01	1.062114e+03
1.990000e-06	5.519103e-06	1.616647e-08	3.975610e+01	1.056993e+03
2.000000e-06	5.438906e-06	1.605341e-08	3.917841e+01	1.051640e+03
2.010000e-06	5.356887e-06	1.597446e-08	3.858760e+01	1.046054e+03
2.020000e-06	5.273088e-06	1.587899e-08	3.798396e+01	1.040231e+03
2.030000e-06	5.187350e-06	1.578980e-08	3.736636e+01	1.034171e+03
2.040000e-06	5.099519e-06	1.571565e-08	3.673368e+01	1.027866e+03
2.050000e-06	5.009906e-06	1.560104e-08	3.608816e+01	1.021309e+03
2.060000e-06	4.918749e-06	1.550365e-08	3.543153e+01	1.014486e+03
2.070000e-06	4.825976e-06	1.537814e-08	3.476325e+01	1.007381e+03
2.080000e-06	4.731405e-06	1.527313e-08	3.408202e+01	9.999784e+02
2.090000e-06	4.635057e-06	1.515449e-08	3.338799e+01	9.922638e+02
2.100000e-06	4.537123e-06	1.503876e-08	3.268254e+01	9.842247e+02
2.110000e-06	4.437739e-06	1.491863e-08	3.196664e+01	9.758512e+02
2.120000e-06	4.336804e-06	1.478211e-08	3.123957e+01	9.671340e+02
2.130000e-06	4.234208e-06	1.464324e-08	3.050053e+01	9.580630e+02
2.140000e-06	4.130000e-06	1.449390e-08	2.974988e+01	9.486252e+02
2.150000e-06	4.024278e-06	1.435203e-08	2.898833e+01	9.388030e+02
2.160000e-06	3.917225e-06	1.419385e-08	2.821719e+01	9.285740e+02
2.170000e-06	3.808830e-06	1.403445e-08	2.743638e+01	9.179115e+02
2.180000e-06	3.699044e-06	1.386259e-08	2.664555e+01	9.067861e+02
2.190000e-06	3.587858e-06	1.368875e-08	2.584464e+01	8.951677e+02
2.200000e-06	3.475228e-06	1.350503e-08	2.503332e+01	8.830272e+02
2.210000e-06	3.361239e-06	1.331328e-08	2.421222e+01	8.703371e+02
2.220000e-06	3.245943e-06	1.311323e-08	2.338170e+01	8.570714e+02
2.230000e-06	3.129324e-06	1.290578e-08	2.254165e+01	8.432036e+02
2.240000e-06	3.011325e-06	1.268879e-08	2.169166e+01	8.287049e+02
2.250000e-06	2.892086e-06	1.245469e-08	2.083274e+01	8.135418e+02
2.260000e-06	2.771757e-06	1.220919e-08	1.996596e+01	7.976743e+02
2.270000e-06	2.650360e-06	1.195178e-08	1.909150e+01	7.810558e+02
2.280000e-06	2.528012e-06	1.168868e-08	1.821018e+01	7.636336e+02
2.290000e-06	2.404831e-06	1.141352e-08	1.732287e+01	7.453507e+02
2.300000e-06	2.280854e-06	1.112729e-08	1.642982e+01	7.261482e+02
2.310000e-06	2.156017e-06	1.082185e-08	1.553057e+01	7.059665e+02
2.320000e-06	2.030368e-06	1.049765e-08	1.462547e+01	6.847467e+02
2.330000e-06	1.903988e-06	1.015486e-08	1.371511e+01	6.624296e+02
2.340000e-06	1.776954e-06	9.796637e-09	1.280004e+01	6.389552e+02
2.350000e-06	1.649300e-06	9.421928e-09	1.188051e+01	6.142618e+02
2.360000e-06	1.521030e-06	9.027574e-09	1.095653e+01	5.882872e+02
2.370000e-06	1.392229e-06	8.612066e-09	1.002873e+01	5.609722e+02
2.380000e-06	1.263000e-06	8.172359e-09	9.097843e+00	5.322678e+02
2.390000e-06	1.133447e-06	7.712884e-09	8.164628e+00	5.021452e+02
2.400000e-06	1.003612e-06	7.232320e-09	7.229379e+00	4.706081e+02
2.410000e-06	8.734939e-07	6.730392e-09	6.292092e+00	4.377047e+02
2.420000e-06	7.431555e-07	6.208733e-09	5.353218e+00	4.035358e+02
2.430000e-06	6.125829e-07	5.667593e-09	4.412656e+00	3.682580e+02
2.440000e-06	4.817433e-07	5.109729e-09	3.470171e+00	3.320776e+02
2.450000e-06	3.507187e-07	4.542390e-09	2.526354e+00	2.952370e+02
2.460000e-06	2.195226e-07	3.971080e-09	1.581301e+00	2.579913e+02
2.470000e-06	8.820919e-08	3.399984e-09	6.354027e-01	2.205812e+02
2.480000e-06	-4.315941e-08	2.830747e-09	-3.108929e-01	1.832034e+02
2.490000e-06	-1.745184e-07	2.263896e-09	-1.257119e+00	1.459859e+02
2.500000e-06	-3.058062e-07	1.699623e-09	-2.202832e+00	1.089704e+02
2.510000e-06	-4.370184e-07	1.134366e-09	-3.148001e+00	7.210796e+01
2.520000e-06	-5.680925e-07	5.672859e-10	-4.092176e+00	3.526797e+01
2.530000e-06	-6.989974e-07	-1.939151e-12	-5.035131e+00	-1.739591e+00
2.540000e-06	-8.296849e-07	-5.759256e-10	-5.976520e+00	-3.913125e+01
2.550000e-06	-9.600456e-07	-1.159286e-09	-6.915556e+00	-7.711177e+01
2.560000e-06	-1.090095e-06	-1.752530e-09	-7.852347e+00	-1.158360e+02
2.570000e-06	-1.219862e-06	-2.356467e-09	-8.787107e+00	-1.553771e+02
2.580000e-06	-1.349310e-06	-2.972798e-09	-9.719567e+00	-1.957055e+02
2.590000e-06	-1.478326e-06	-3.597451e-09	-1.064892e+01	-2.366823e+02
2.600000e-06	-1.606781e-06	-4.227747e-09	-1.157422e+01	-2.780673e+02
2.610000e-06	-1.734593e-06	-4.860316e-09	-1.249490e+01	-3.195404e+02
2.620000e-06	-1.861707e-06	-5.490696e-09	-1.341055e+01	-3.607316e+02
2.630000e-06	-1.988107e-06	-6.112822e-09	-1.432105e+01	-4.012573e+02
2.640000e-06	-2.113709e-06	-6.720625e-09	-1.522581e+01	-4.407542e+02
2.650000e-06	-2.238454e-06	-7.308214e-09	-1.612439e+01	-4.789088e+02
2.660000e-06	-2.362315e-06	-7.869555e-09	-1.701661e+01	-5.154785e+02
2.670000e-06	-2.485223e-06	-8.401414e-09	-1.790196e+01	-5.503015e+02
2.680000e-06	-2.607217e-06	-8.902706e-09	-1.878073e+01	-5.832969e+02
2.690000e-06	-2.728298e-06	-9.376217e-09	-1.965292e+01	-6.144556e+02
2.700000e-06	-2.848367e-06	-9.826339e-09	-2.051782e+01	-6.438257e+02
2.710000e-06	-2.967306e-06	-1.025144e-08	-2.137458e+01	-6.714948e+02
2.720000e-06	-3.084963e-06	-1.065128e-08	-2.222210e+01	-6.975716e+02
2.730000e-06	-3.201474e-06	-1.102997e-08	-2.306138e+01	-7.221714e+02
2.740000e-06	-3.316795e-06	-1.138720e-08	-2.389207e+01	-7.454044e+02
2.750000e-06	-3.430703e-06	-1.172288e-08	-2.471260e+01	-7.673692e+02
2.760000e-06	-3.543152e-06	-1.203916e-08	-2.552261e+01	-7.881504e+02
2.770000e-06	-3.654212e-06	-1.233867e-08	-2.632261e+01	-8.078200e+02
2.780000e-06	-3.763994e-06	-1.262158e-08	-2.711341e+01	-8.264400e+02
2.790000e-06	-3.872565e-06	-1.288921e-08	-2.789548e+01	-8.440671e+02
2.800000e-06	-3.979955e-06	-1.314346e-08	-2.866906e+01	-8.607552e+02
2.810000e-06	-4.086039e-06	-1.338518e-08	-2.943322e+01	-8.765592e+02
2.820000e-06	-4.190650e-06	-1.361712e-08	-3.018676e+01	-8.915348e+02
2.830000e-06	-4.293661e-06	-1.383970e-08	-3.092879e+01	-9.057390e+02
2.840000e-06	-4.395032e-06	-1.405158e-08	-3.165900e+01	-9.192277e+02
2.850000e-06	-4.494802e-06	-1.425097e-08	-3.237769e+01	-9.320542e+02
2.860000e-06	-4.593026e-06	-1.443735e-08	-3.308523e+01	-9.442661e+02
2.870000e-06	-4.689714e-06	-1.461262e-08	-3.378170e+01	-9.559039e+02
2.880000e-06	-4.784729e-06	-1.477960e-08	-3.446614e+01	-9.669999e+02
2.890000e-06	-4.878037e-06	-1.493910e-08	-3.513826e+01	-9.775777e+02
2.900000e-06	-4.969688e-06	-1.509179e-08	-3.579846e+01	-9.876539e+02
2.910000e-06	-5.059552e-06	-1.523878e-08	-3.644579e+01	-9.972392e+02
2.920000e-06	-5.147510e-06	-1.537934e-08	-3.707937e+01	-1.006341e+03
2.930000e-06	-5.233502e-06	-1.551259e-08	-3.769881e+01	-1.014968e+03
2.940000e-06	-5.317560e-06	-1.563852e-08	-3.830431e+01	-1.023129e+03
