# Temperatura_=_79.1
# Concentracion g/m^3_=_28200.0
# C_Vs_to_Am_M_A/Vsm_=_65563218390.804596
# pendiente_HvsI_1/m_=_3716.3
# ordenada_HvsI_A/m_=_1297.0
# frecuencia_Hz_=_302285.76565871714

Tiempo_(s)	Campo_(V.s)	Magnetizacion_(V.s)	Campo_(kA/m)	Magnetizacion_(A/m)
0.000000e+00	-6.877347e-06	-2.695843e-08	-4.951920e+01	-1.764444e+03
1.000000e-08	-6.874228e-06	-2.695176e-08	-4.949675e+01	-1.763944e+03
2.000000e-08	-6.868845e-06	-2.694003e-08	-4.945799e+01	-1.763264e+03
3.000000e-08	-6.861359e-06	-2.692761e-08	-4.940409e+01	-1.762408e+03
4.000000e-08	-6.851545e-06	-2.691017e-08	-4.933342e+01	-1.761374e+03
5.000000e-08	-6.839215e-06	-2.689053e-08	-4.924464e+01	-1.760156e+03
6.000000e-08	-6.824309e-06	-2.686421e-08	-4.913731e+01	-1.758743e+03
7.000000e-08	-6.807006e-06	-2.683421e-08	-4.901273e+01	-1.757128e+03
8.000000e-08	-6.787674e-06	-2.681893e-08	-4.887353e+01	-1.755310e+03
9.000000e-08	-6.766200e-06	-2.683770e-08	-4.871891e+01	-1.753301e+03
1.000000e-07	-6.742099e-06	-2.678437e-08	-4.854537e+01	-1.751126e+03
1.100000e-07	-6.715153e-06	-2.672097e-08	-4.835136e+01	-1.748821e+03
1.200000e-07	-6.685709e-06	-2.668325e-08	-4.813934e+01	-1.746425e+03
1.300000e-07	-6.654029e-06	-2.662008e-08	-4.791124e+01	-1.743968e+03
1.400000e-07	-6.620186e-06	-2.652178e-08	-4.766756e+01	-1.741465e+03
1.500000e-07	-6.584519e-06	-2.652783e-08	-4.741074e+01	-1.738906e+03
1.600000e-07	-6.547036e-06	-2.654763e-08	-4.714085e+01	-1.736250e+03
1.700000e-07	-6.507509e-06	-2.638271e-08	-4.685624e+01	-1.733434e+03
1.800000e-07	-6.465727e-06	-2.641334e-08	-4.655540e+01	-1.730380e+03
1.900000e-07	-6.421434e-06	-2.634825e-08	-4.623648e+01	-1.727009e+03
2.000000e-07	-6.374756e-06	-2.622178e-08	-4.590038e+01	-1.723258e+03
2.100000e-07	-6.325621e-06	-2.622803e-08	-4.554659e+01	-1.719093e+03
2.200000e-07	-6.273784e-06	-2.611184e-08	-4.517335e+01	-1.714512e+03
2.300000e-07	-6.219482e-06	-2.605153e-08	-4.478235e+01	-1.709548e+03
2.400000e-07	-6.162794e-06	-2.597652e-08	-4.437418e+01	-1.704257e+03
2.500000e-07	-6.103698e-06	-2.588754e-08	-4.394867e+01	-1.698703e+03
2.600000e-07	-6.042364e-06	-2.581506e-08	-4.350705e+01	-1.692944e+03
2.700000e-07	-5.978852e-06	-2.572380e-08	-4.304974e+01	-1.687014e+03
2.800000e-07	-5.913158e-06	-2.563407e-08	-4.257672e+01	-1.680919e+03
2.900000e-07	-5.845244e-06	-2.551247e-08	-4.208772e+01	-1.674635e+03
3.000000e-07	-5.775062e-06	-2.542193e-08	-4.158238e+01	-1.668112e+03
3.100000e-07	-5.702706e-06	-2.531833e-08	-4.106139e+01	-1.661296e+03
3.200000e-07	-5.628156e-06	-2.519268e-08	-4.052461e+01	-1.654133e+03
3.300000e-07	-5.551277e-06	-2.510347e-08	-3.997106e+01	-1.646588e+03
3.400000e-07	-5.472077e-06	-2.496784e-08	-3.940079e+01	-1.638651e+03
3.500000e-07	-5.390785e-06	-2.484081e-08	-3.881546e+01	-1.630332e+03
3.600000e-07	-5.307698e-06	-2.471309e-08	-3.821720e+01	-1.621657e+03
3.700000e-07	-5.222889e-06	-2.457442e-08	-3.760655e+01	-1.612656e+03
3.800000e-07	-5.136301e-06	-2.444279e-08	-3.698309e+01	-1.603347e+03
3.900000e-07	-5.047892e-06	-2.428989e-08	-3.634652e+01	-1.593731e+03
4.000000e-07	-4.957679e-06	-2.413415e-08	-3.569695e+01	-1.583785e+03
4.100000e-07	-4.865721e-06	-2.395793e-08	-3.503483e+01	-1.573470e+03
4.200000e-07	-4.772177e-06	-2.379786e-08	-3.436127e+01	-1.562734e+03
4.300000e-07	-4.677075e-06	-2.362686e-08	-3.367651e+01	-1.551528e+03
4.400000e-07	-4.580264e-06	-2.344671e-08	-3.297944e+01	-1.539818e+03
4.500000e-07	-4.481712e-06	-2.326719e-08	-3.226983e+01	-1.527588e+03
4.600000e-07	-4.381532e-06	-2.307417e-08	-3.154850e+01	-1.514839e+03
4.700000e-07	-4.279772e-06	-2.287442e-08	-3.081579e+01	-1.501586e+03
4.800000e-07	-4.176544e-06	-2.265724e-08	-3.007252e+01	-1.487844e+03
4.900000e-07	-4.071896e-06	-2.244133e-08	-2.931901e+01	-1.473617e+03
5.000000e-07	-3.965640e-06	-2.221349e-08	-2.855393e+01	-1.458889e+03
5.100000e-07	-3.857857e-06	-2.197728e-08	-2.777787e+01	-1.443617e+03
5.200000e-07	-3.748677e-06	-2.172930e-08	-2.699173e+01	-1.427741e+03
5.300000e-07	-3.638140e-06	-2.147482e-08	-2.619582e+01	-1.411188e+03
5.400000e-07	-3.526357e-06	-2.121160e-08	-2.539095e+01	-1.393884e+03
5.500000e-07	-3.413236e-06	-2.093150e-08	-2.457644e+01	-1.375773e+03
5.600000e-07	-3.298627e-06	-2.064536e-08	-2.375122e+01	-1.356813e+03
5.700000e-07	-3.182557e-06	-2.034339e-08	-2.291548e+01	-1.336984e+03
5.800000e-07	-3.065189e-06	-2.002741e-08	-2.207039e+01	-1.316276e+03
5.900000e-07	-2.946670e-06	-1.969417e-08	-2.121702e+01	-1.294677e+03
6.000000e-07	-2.827083e-06	-1.934885e-08	-2.035595e+01	-1.272157e+03
6.100000e-07	-2.706517e-06	-1.898581e-08	-1.948783e+01	-1.248657e+03
6.200000e-07	-2.585003e-06	-1.860603e-08	-1.861289e+01	-1.224085e+03
6.300000e-07	-2.462409e-06	-1.821064e-08	-1.773017e+01	-1.198317e+03
6.400000e-07	-2.338767e-06	-1.779532e-08	-1.683990e+01	-1.171211e+03
6.500000e-07	-2.214355e-06	-1.735771e-08	-1.594410e+01	-1.142615e+03
6.600000e-07	-2.089233e-06	-1.689456e-08	-1.504318e+01	-1.112389e+03
6.700000e-07	-1.963365e-06	-1.640857e-08	-1.413689e+01	-1.080406e+03
6.800000e-07	-1.836872e-06	-1.589159e-08	-1.322609e+01	-1.046556e+03
6.900000e-07	-1.709760e-06	-1.534561e-08	-1.231085e+01	-1.010738e+03
7.000000e-07	-1.582011e-06	-1.476832e-08	-1.139101e+01	-9.728448e+02
7.100000e-07	-1.453737e-06	-1.416011e-08	-1.046739e+01	-9.327512e+02
7.200000e-07	-1.325063e-06	-1.351335e-08	-9.540895e+00	-8.903094e+02
7.300000e-07	-1.195998e-06	-1.282353e-08	-8.611585e+00	-8.453554e+02
7.400000e-07	-1.066605e-06	-1.209076e-08	-7.679914e+00	-7.977305e+02
7.500000e-07	-9.369129e-07	-1.131384e-08	-6.746087e+00	-7.473155e+02
7.600000e-07	-8.068398e-07	-1.050161e-08	-5.809517e+00	-6.940700e+02
7.700000e-07	-6.763947e-07	-9.649355e-09	-4.870268e+00	-6.380681e+02
7.800000e-07	-5.456401e-07	-8.761250e-09	-3.928791e+00	-5.795185e+02
7.900000e-07	-4.146293e-07	-7.840452e-09	-2.985470e+00	-5.187615e+02
8.000000e-07	-2.834138e-07	-6.891290e-09	-2.040675e+00	-4.562381e+02
8.100000e-07	-1.519807e-07	-5.919664e-09	-1.094312e+00	-3.924342e+02
8.200000e-07	-2.044433e-08	-4.932313e-09	-1.472061e-01	-3.278081e+02
8.300000e-07	1.110963e-07	-3.938384e-09	7.999306e-01	-2.627164e+02
8.400000e-07	2.426412e-07	-2.941320e-09	1.747098e+00	-1.973545e+02
8.500000e-07	3.741163e-07	-1.943495e-09	2.693763e+00	-1.317256e+02
8.600000e-07	5.054236e-07	-9.397719e-10	3.639219e+00	-6.564940e+01
8.700000e-07	6.364838e-07	7.439038e-11	4.582897e+00	1.189767e+00
8.800000e-07	7.672971e-07	1.105068e-09	5.524796e+00	6.916017e+01
8.900000e-07	8.978084e-07	2.156685e-09	6.464522e+00	1.385820e+02
9.000000e-07	1.027908e-06	3.233895e-09	7.401282e+00	2.096270e+02
9.100000e-07	1.157542e-06	4.338339e-09	8.334693e+00	2.822394e+02
9.200000e-07	1.286760e-06	5.465111e-09	9.265105e+00	3.560941e+02
9.300000e-07	1.415582e-06	6.604576e-09	1.019266e+01	4.306015e+02
9.400000e-07	1.543975e-06	7.743375e-09	1.111714e+01	5.049585e+02
9.500000e-07	1.671913e-06	8.864369e-09	1.203834e+01	5.782368e+02
9.600000e-07	1.799301e-06	9.946880e-09	1.295557e+01	6.494916e+02
9.700000e-07	1.925950e-06	1.097880e-08	1.386748e+01	7.178699e+02
9.800000e-07	2.051755e-06	1.195428e-08	1.477333e+01	7.827008e+02
9.900000e-07	2.176787e-06	1.287293e-08	1.567359e+01	8.435516e+02
1.000000e-06	2.301198e-06	1.373150e-08	1.656940e+01	9.002441e+02
1.010000e-06	2.424896e-06	1.453058e-08	1.746006e+01	9.528314e+02
1.020000e-06	2.547569e-06	1.527195e-08	1.834335e+01	1.001545e+03
1.030000e-06	2.669128e-06	1.595876e-08	1.921861e+01	1.046725e+03
1.040000e-06	2.789677e-06	1.659744e-08	2.008661e+01	1.088751e+03
1.050000e-06	2.909210e-06	1.719169e-08	2.094729e+01	1.127983e+03
1.060000e-06	3.027659e-06	1.774906e-08	2.180016e+01	1.164722e+03
1.070000e-06	3.145003e-06	1.827158e-08	2.264507e+01	1.199203e+03
1.080000e-06	3.261258e-06	1.876068e-08	2.348215e+01	1.231592e+03
1.090000e-06	3.376264e-06	1.921878e-08	2.431024e+01	1.262017e+03
1.100000e-06	3.489805e-06	1.965017e-08	2.512777e+01	1.290585e+03
1.110000e-06	3.601960e-06	2.005694e-08	2.593532e+01	1.317407e+03
1.120000e-06	3.712806e-06	2.044121e-08	2.673345e+01	1.342610e+03
1.130000e-06	3.822385e-06	2.080386e-08	2.752245e+01	1.366337e+03
1.140000e-06	3.930777e-06	2.114694e-08	2.830291e+01	1.388737e+03
1.150000e-06	4.037835e-06	2.147311e-08	2.907377e+01	1.409954e+03
1.160000e-06	4.143356e-06	2.178136e-08	2.983355e+01	1.430111e+03
1.170000e-06	4.247329e-06	2.207167e-08	3.058220e+01	1.449300e+03
1.180000e-06	4.349778e-06	2.234570e-08	3.131986e+01	1.467581e+03
1.190000e-06	4.450794e-06	2.260569e-08	3.204721e+01	1.484990e+03
1.200000e-06	4.550299e-06	2.285379e-08	3.276368e+01	1.501545e+03
1.210000e-06	4.648078e-06	2.308977e-08	3.346772e+01	1.517264e+03
1.220000e-06	4.744029e-06	2.331460e-08	3.415860e+01	1.532172e+03
1.230000e-06	4.838191e-06	2.352944e-08	3.483660e+01	1.546308e+03
1.240000e-06	4.930722e-06	2.373513e-08	3.550285e+01	1.559726e+03
1.250000e-06	5.021575e-06	2.393120e-08	3.615702e+01	1.572490e+03
1.260000e-06	5.110535e-06	2.411748e-08	3.679757e+01	1.584661e+03
1.270000e-06	5.197575e-06	2.429437e-08	3.742428e+01	1.596295e+03
1.280000e-06	5.282872e-06	2.446086e-08	3.803845e+01	1.607431e+03
1.290000e-06	5.366420e-06	2.461991e-08	3.864003e+01	1.618090e+03
1.300000e-06	5.447950e-06	2.477235e-08	3.922707e+01	1.628278e+03
1.310000e-06	5.527407e-06	2.491963e-08	3.979919e+01	1.637991e+03
1.320000e-06	5.604868e-06	2.506150e-08	4.035693e+01	1.647222e+03
1.330000e-06	5.680237e-06	2.519825e-08	4.089961e+01	1.655969e+03
1.340000e-06	5.753316e-06	2.532771e-08	4.142580e+01	1.664236e+03
1.350000e-06	5.824140e-06	2.544898e-08	4.193576e+01	1.672039e+03
1.360000e-06	5.892988e-06	2.556359e-08	4.243149e+01	1.679402e+03
1.370000e-06	5.959805e-06	2.567056e-08	4.291259e+01	1.686352e+03
1.380000e-06	6.024431e-06	2.576907e-08	4.337792e+01	1.692918e+03
1.390000e-06	6.086914e-06	2.586098e-08	4.382782e+01	1.699126e+03
1.400000e-06	6.147386e-06	2.594830e-08	4.426324e+01	1.704998e+03
1.410000e-06	6.205743e-06	2.603174e-08	4.468343e+01	1.710554e+03
1.420000e-06	6.261799e-06	2.611072e-08	4.508705e+01	1.715809e+03
1.430000e-06	6.315609e-06	2.618561e-08	4.547450e+01	1.720779e+03
1.440000e-06	6.366902e-06	2.625804e-08	4.584383e+01	1.725480e+03
1.450000e-06	6.415488e-06	2.632730e-08	4.619367e+01	1.729926e+03
1.460000e-06	6.461675e-06	2.639173e-08	4.652623e+01	1.734129e+03
1.470000e-06	6.505754e-06	2.645278e-08	4.684361e+01	1.738096e+03
1.480000e-06	6.547616e-06	2.651108e-08	4.714503e+01	1.741828e+03
1.490000e-06	6.587034e-06	2.656445e-08	4.742886e+01	1.745315e+03
1.500000e-06	6.624191e-06	2.661149e-08	4.769640e+01	1.748547e+03
1.510000e-06	6.659096e-06	2.665451e-08	4.794773e+01	1.751509e+03
1.520000e-06	6.691510e-06	2.669710e-08	4.818112e+01	1.754187e+03
1.530000e-06	6.721526e-06	2.673565e-08	4.839724e+01	1.756575e+03
1.540000e-06	6.749273e-06	2.676646e-08	4.859703e+01	1.758675e+03
1.550000e-06	6.774477e-06	2.679196e-08	4.877850e+01	1.760500e+03
1.560000e-06	6.797109e-06	2.681569e-08	4.894147e+01	1.762067e+03
1.570000e-06	6.817499e-06	2.683648e-08	4.908828e+01	1.763399e+03
1.580000e-06	6.835615e-06	2.685405e-08	4.921872e+01	1.764515e+03
1.590000e-06	6.851175e-06	2.686936e-08	4.933076e+01	1.765433e+03
1.600000e-06	6.864108e-06	2.688225e-08	4.942388e+01	1.766161e+03
1.610000e-06	6.874300e-06	2.689133e-08	4.949727e+01	1.766699e+03
1.620000e-06	6.881804e-06	2.689675e-08	4.955130e+01	1.767046e+03
1.630000e-06	6.886949e-06	2.690023e-08	4.958834e+01	1.767198e+03
1.640000e-06	6.889667e-06	2.690217e-08	4.960791e+01	1.767153e+03
1.650000e-06	6.889804e-06	2.690194e-08	4.960890e+01	1.766913e+03
1.660000e-06	6.887566e-06	2.689272e-08	4.959278e+01	1.766484e+03
1.670000e-06	6.883158e-06	2.688533e-08	4.956104e+01	1.765873e+03
1.680000e-06	6.876461e-06	2.687377e-08	4.951282e+01	1.765086e+03
1.690000e-06	6.867504e-06	2.685863e-08	4.944833e+01	1.764122e+03
1.700000e-06	6.856332e-06	2.684358e-08	4.936789e+01	1.762977e+03
1.710000e-06	6.842710e-06	2.682947e-08	4.926980e+01	1.761642e+03
1.720000e-06	6.826731e-06	2.681946e-08	4.915475e+01	1.760106e+03
1.730000e-06	6.808693e-06	2.676473e-08	4.902487e+01	1.758367e+03
1.740000e-06	6.788383e-06	2.669644e-08	4.887864e+01	1.756430e+03
1.750000e-06	6.765059e-06	2.669718e-08	4.871069e+01	1.754316e+03
1.760000e-06	6.738550e-06	2.666931e-08	4.851982e+01	1.752058e+03
1.770000e-06	6.709310e-06	2.661469e-08	4.830928e+01	1.749692e+03
1.780000e-06	6.677857e-06	2.665718e-08	4.808281e+01	1.747255e+03
1.790000e-06	6.644739e-06	2.662296e-08	4.784435e+01	1.744770e+03
1.800000e-06	6.610176e-06	2.647700e-08	4.759549e+01	1.742236e+03
1.810000e-06	6.573562e-06	2.654679e-08	4.733185e+01	1.739624e+03
1.820000e-06	6.534431e-06	2.648049e-08	4.705009e+01	1.736879e+03
1.830000e-06	6.493130e-06	2.644501e-08	4.675271e+01	1.733928e+03
1.840000e-06	6.449625e-06	2.649559e-08	4.643946e+01	1.730690e+03
1.850000e-06	6.403833e-06	2.630356e-08	4.610975e+01	1.727094e+03
1.860000e-06	6.355716e-06	2.632158e-08	4.576328e+01	1.723093e+03
1.870000e-06	6.305125e-06	2.624514e-08	4.539901e+01	1.718673e+03
1.880000e-06	6.252112e-06	2.613103e-08	4.501731e+01	1.713853e+03
1.890000e-06	6.196554e-06	2.612380e-08	4.461727e+01	1.708683e+03
1.900000e-06	6.138541e-06	2.596284e-08	4.419955e+01	1.703224e+03
1.910000e-06	6.078235e-06	2.592658e-08	4.376533e+01	1.697539e+03
1.920000e-06	6.015615e-06	2.582293e-08	4.331444e+01	1.691674e+03
1.930000e-06	5.950812e-06	2.572490e-08	4.284784e+01	1.685645e+03
1.940000e-06	5.883842e-06	2.567744e-08	4.236564e+01	1.679439e+03
1.950000e-06	5.814610e-06	2.552132e-08	4.186714e+01	1.673016e+03
1.960000e-06	5.743006e-06	2.546933e-08	4.135157e+01	1.666321e+03
1.970000e-06	5.669162e-06	2.530681e-08	4.081987e+01	1.659299e+03
1.980000e-06	5.593162e-06	2.520598e-08	4.027264e+01	1.651907e+03
1.990000e-06	5.514842e-06	2.510953e-08	3.970871e+01	1.644123e+03
2.000000e-06	5.434456e-06	2.496744e-08	3.912990e+01	1.635951e+03
2.010000e-06	5.352221e-06	2.487077e-08	3.853779e+01	1.627412e+03
2.020000e-06	5.268139e-06	2.470144e-08	3.793237e+01	1.618535e+03
2.030000e-06	5.182130e-06	2.458304e-08	3.731307e+01	1.609346e+03
2.040000e-06	5.094145e-06	2.442283e-08	3.667955e+01	1.599851e+03
2.050000e-06	5.004430e-06	2.428744e-08	3.603358e+01	1.590039e+03
2.060000e-06	4.913123e-06	2.413640e-08	3.537614e+01	1.579874e+03
2.070000e-06	4.820222e-06	2.396762e-08	3.470721e+01	1.569309e+03
2.080000e-06	4.725510e-06	2.380419e-08	3.402526e+01	1.558292e+03
2.090000e-06	4.629014e-06	2.361022e-08	3.333045e+01	1.546783e+03
2.100000e-06	4.530927e-06	2.344045e-08	3.262419e+01	1.534758e+03
2.110000e-06	4.431308e-06	2.324939e-08	3.190690e+01	1.522211e+03
2.120000e-06	4.330242e-06	2.306359e-08	3.117919e+01	1.509153e+03
2.130000e-06	4.227508e-06	2.285323e-08	3.043947e+01	1.495602e+03
2.140000e-06	4.123113e-06	2.263956e-08	2.968780e+01	1.481566e+03
2.150000e-06	4.017273e-06	2.241594e-08	2.892571e+01	1.467037e+03
2.160000e-06	3.910113e-06	2.218695e-08	2.815412e+01	1.451985e+03
2.170000e-06	3.801714e-06	2.195175e-08	2.737361e+01	1.436355e+03
2.180000e-06	3.691964e-06	2.170121e-08	2.658338e+01	1.420076e+03
2.190000e-06	3.580674e-06	2.144596e-08	2.578205e+01	1.403074e+03
2.200000e-06	3.467918e-06	2.117301e-08	2.497017e+01	1.385286e+03
2.210000e-06	3.353784e-06	2.089401e-08	2.414837e+01	1.366662e+03
2.220000e-06	3.238230e-06	2.059854e-08	2.331634e+01	1.347176e+03
2.230000e-06	3.121352e-06	2.029701e-08	2.247478e+01	1.326814e+03
2.240000e-06	3.003191e-06	1.997422e-08	2.162398e+01	1.305567e+03
2.250000e-06	2.883740e-06	1.963898e-08	2.076389e+01	1.283413e+03
2.260000e-06	2.763187e-06	1.928483e-08	1.989588e+01	1.260307e+03
2.270000e-06	2.641690e-06	1.891448e-08	1.902105e+01	1.236169e+03
2.280000e-06	2.519241e-06	1.852851e-08	1.813938e+01	1.210887e+03
2.290000e-06	2.395894e-06	1.812341e-08	1.725124e+01	1.184323e+03
2.300000e-06	2.271652e-06	1.769982e-08	1.635666e+01	1.156330e+03
2.310000e-06	2.146682e-06	1.725269e-08	1.545683e+01	1.126760e+03
2.320000e-06	2.021122e-06	1.678209e-08	1.455276e+01	1.095480e+03
2.330000e-06	1.894906e-06	1.627906e-08	1.364396e+01	1.062376e+03
2.340000e-06	1.767914e-06	1.574480e-08	1.272957e+01	1.027343e+03
2.350000e-06	1.640109e-06	1.517801e-08	1.180934e+01	9.902783e+02
2.360000e-06	1.511693e-06	1.457908e-08	1.088469e+01	9.510650e+02
2.370000e-06	1.382905e-06	1.394349e-08	9.957380e+00	9.095643e+02
2.380000e-06	1.253797e-06	1.327159e-08	9.027761e+00	8.656166e+02
2.390000e-06	1.124315e-06	1.256361e-08	8.095444e+00	8.190578e+02
2.400000e-06	9.944326e-07	1.181271e-08	7.160248e+00	7.697485e+02
2.410000e-06	8.641567e-07	1.101847e-08	6.222218e+00	7.176128e+02
2.420000e-06	7.335652e-07	1.018177e-08	5.281916e+00	6.626761e+02
2.430000e-06	6.027413e-07	9.305971e-09	4.339939e+00	6.050932e+02
2.440000e-06	4.717227e-07	8.393270e-09	3.396561e+00	5.451550e+02
2.450000e-06	3.405762e-07	7.448067e-09	2.452263e+00	4.832682e+02
2.460000e-06	2.093031e-07	6.478739e-09	1.507052e+00	4.199090e+02
2.470000e-06	7.790875e-08	5.491662e-09	5.609691e-01	3.555557e+02
2.480000e-06	-5.349251e-08	4.495884e-09	-3.851640e-01	2.906132e+02
2.490000e-06	-1.848548e-07	3.494856e-09	-1.331016e+00	2.253458e+02
2.500000e-06	-3.161639e-07	2.490592e-09	-2.276486e+00	1.598334e+02
2.510000e-06	-4.474326e-07	1.482233e-09	-3.221665e+00	9.396411e+01
2.520000e-06	-5.785638e-07	4.664540e-10	-4.165853e+00	2.746736e+01
2.530000e-06	-7.094911e-07	-5.628416e-10	-5.108574e+00	-4.001588e+01
2.540000e-06	-8.402223e-07	-1.613849e-09	-6.049882e+00	-1.088371e+02
2.550000e-06	-9.706856e-07	-2.689784e-09	-6.989262e+00	-1.792375e+02
2.560000e-06	-1.100830e-06	-3.789387e-09	-7.926346e+00	-2.512581e+02
2.570000e-06	-1.230531e-06	-4.909935e-09	-8.860236e+00	-3.246815e+02
2.580000e-06	-1.359804e-06	-6.046412e-09	-9.791044e+00	-3.990185e+02
2.590000e-06	-1.488778e-06	-7.189035e-09	-1.071970e+01	-4.735411e+02
2.600000e-06	-1.617359e-06	-8.321563e-09	-1.164553e+01	-5.473579e+02
2.610000e-06	-1.745335e-06	-9.427549e-09	-1.256700e+01	-6.195172e+02
2.620000e-06	-1.872516e-06	-1.049415e-08	-1.348275e+01	-6.891177e+02
2.630000e-06	-1.998774e-06	-1.150741e-08	-1.439184e+01	-7.554083e+02
2.640000e-06	-2.124214e-06	-1.246065e-08	-1.529505e+01	-8.178583e+02
2.650000e-06	-2.248952e-06	-1.335276e-08	-1.619321e+01	-8.761904e+02
2.660000e-06	-2.372836e-06	-1.418418e-08	-1.708521e+01	-9.303718e+02
2.670000e-06	-2.495761e-06	-1.495517e-08	-1.797032e+01	-9.805714e+02
2.680000e-06	-2.617707e-06	-1.566931e-08	-1.884837e+01	-1.027096e+03
2.690000e-06	-2.738739e-06	-1.633393e-08	-1.971984e+01	-1.070316e+03
2.700000e-06	-2.858874e-06	-1.695516e-08	-2.058485e+01	-1.110606e+03
2.710000e-06	-2.977838e-06	-1.753742e-08	-2.144143e+01	-1.148294e+03
2.720000e-06	-3.095527e-06	-1.808055e-08	-2.228883e+01	-1.183639e+03
2.730000e-06	-3.211995e-06	-1.858602e-08	-2.312744e+01	-1.216833e+03
2.740000e-06	-3.327228e-06	-1.906040e-08	-2.395716e+01	-1.248017e+03
2.750000e-06	-3.441016e-06	-1.950739e-08	-2.477647e+01	-1.277302e+03
2.760000e-06	-3.553324e-06	-1.992612e-08	-2.558512e+01	-1.304796e+03
2.770000e-06	-3.664325e-06	-2.031930e-08	-2.638437e+01	-1.330620e+03
2.780000e-06	-3.773989e-06	-2.069259e-08	-2.717398e+01	-1.354909e+03
2.790000e-06	-3.882473e-06	-2.104674e-08	-2.795511e+01	-1.377813e+03
2.800000e-06	-3.989805e-06	-2.138121e-08	-2.872794e+01	-1.399480e+03
2.810000e-06	-4.095776e-06	-2.169697e-08	-2.949096e+01	-1.420040e+03
2.820000e-06	-4.200311e-06	-2.199598e-08	-3.024365e+01	-1.439601e+03
2.830000e-06	-4.303274e-06	-2.228153e-08	-3.098502e+01	-1.458234e+03
2.840000e-06	-4.404607e-06	-2.255247e-08	-3.171465e+01	-1.475983e+03
2.850000e-06	-4.504363e-06	-2.280909e-08	-3.243292e+01	-1.492872e+03
2.860000e-06	-4.602552e-06	-2.305227e-08	-3.313992e+01	-1.508918e+03
2.870000e-06	-4.699216e-06	-2.328473e-08	-3.383593e+01	-1.524141e+03
2.880000e-06	-4.794195e-06	-2.350830e-08	-3.451981e+01	-1.538575e+03
2.890000e-06	-4.887386e-06	-2.372086e-08	-3.519082e+01	-1.552268e+03
2.900000e-06	-4.978843e-06	-2.392461e-08	-3.584934e+01	-1.565282e+03
2.910000e-06	-5.068562e-06	-2.411858e-08	-3.649535e+01	-1.577679e+03
2.920000e-06	-5.156443e-06	-2.430243e-08	-3.712812e+01	-1.589519e+03
2.930000e-06	-5.242309e-06	-2.447576e-08	-3.774639e+01	-1.600848e+03
2.940000e-06	-5.326207e-06	-2.463905e-08	-3.835047e+01	-1.611693e+03
