# Temperatura_=_75.41
# Concentracion g/m^3_=_28200.0
# C_Vs_to_Am_M_A/Vsm_=_65563218390.804596
# pendiente_HvsI_1/m_=_3716.3
# ordenada_HvsI_A/m_=_1297.0
# frecuencia_Hz_=_302285.83486818965

Tiempo_(s)	Campo_(V.s)	Magnetizacion_(V.s)	Campo_(kA/m)	Magnetizacion_(A/m)
0.000000e+00	-6.915197e-06	-2.675145e-08	-4.951570e+01	-1.751387e+03
1.000000e-08	-6.912076e-06	-2.674550e-08	-4.949336e+01	-1.750904e+03
2.000000e-08	-6.906645e-06	-2.673318e-08	-4.945447e+01	-1.750240e+03
3.000000e-08	-6.899103e-06	-2.672164e-08	-4.940046e+01	-1.749400e+03
4.000000e-08	-6.889224e-06	-2.670552e-08	-4.932973e+01	-1.748380e+03
5.000000e-08	-6.876722e-06	-2.668515e-08	-4.924021e+01	-1.747175e+03
6.000000e-08	-6.861697e-06	-2.665926e-08	-4.913263e+01	-1.745774e+03
7.000000e-08	-6.844376e-06	-2.663177e-08	-4.900860e+01	-1.744171e+03
8.000000e-08	-6.824995e-06	-2.661631e-08	-4.886982e+01	-1.742369e+03
9.000000e-08	-6.803367e-06	-2.665421e-08	-4.871496e+01	-1.740383e+03
1.000000e-07	-6.779001e-06	-2.660254e-08	-4.854049e+01	-1.738243e+03
1.100000e-07	-6.751826e-06	-2.651513e-08	-4.834590e+01	-1.735987e+03
1.200000e-07	-6.722215e-06	-2.647851e-08	-4.813387e+01	-1.733660e+03
1.300000e-07	-6.690409e-06	-2.643660e-08	-4.790613e+01	-1.731294e+03
1.400000e-07	-6.656421e-06	-2.632935e-08	-4.766276e+01	-1.728907e+03
1.500000e-07	-6.620624e-06	-2.631098e-08	-4.740644e+01	-1.726485e+03
1.600000e-07	-6.583017e-06	-2.639213e-08	-4.713716e+01	-1.723984e+03
1.700000e-07	-6.543170e-06	-2.619974e-08	-4.685184e+01	-1.721336e+03
1.800000e-07	-6.501013e-06	-2.619254e-08	-4.654998e+01	-1.718455e+03
1.900000e-07	-6.456356e-06	-2.618647e-08	-4.623021e+01	-1.715255e+03
2.000000e-07	-6.409350e-06	-2.603370e-08	-4.589363e+01	-1.711666e+03
2.100000e-07	-6.359971e-06	-2.603805e-08	-4.554006e+01	-1.707648e+03
2.200000e-07	-6.307840e-06	-2.594322e-08	-4.516678e+01	-1.703198e+03
2.300000e-07	-6.253268e-06	-2.587626e-08	-4.477602e+01	-1.698347e+03
2.400000e-07	-6.196358e-06	-2.580501e-08	-4.436852e+01	-1.693154e+03
2.500000e-07	-6.136989e-06	-2.571300e-08	-4.394341e+01	-1.687686e+03
2.600000e-07	-6.075359e-06	-2.564981e-08	-4.350211e+01	-1.682006e+03
2.700000e-07	-6.011489e-06	-2.553879e-08	-4.304478e+01	-1.676154e+03
2.800000e-07	-5.945332e-06	-2.545117e-08	-4.257107e+01	-1.670140e+03
2.900000e-07	-5.876929e-06	-2.534519e-08	-4.208127e+01	-1.663943e+03
3.000000e-07	-5.806395e-06	-2.523943e-08	-4.157622e+01	-1.657519e+03
3.100000e-07	-5.733690e-06	-2.515726e-08	-4.105562e+01	-1.650811e+03
3.200000e-07	-5.658638e-06	-2.504166e-08	-4.051822e+01	-1.643768e+03
3.300000e-07	-5.581209e-06	-2.494818e-08	-3.996379e+01	-1.636354e+03
3.400000e-07	-5.501494e-06	-2.480098e-08	-3.939300e+01	-1.628557e+03
3.500000e-07	-5.419779e-06	-2.467832e-08	-3.880789e+01	-1.620385e+03
3.600000e-07	-5.336328e-06	-2.455927e-08	-3.821035e+01	-1.611861e+03
3.700000e-07	-5.251096e-06	-2.441612e-08	-3.760004e+01	-1.603013e+03
3.800000e-07	-5.164088e-06	-2.429371e-08	-3.697703e+01	-1.593858e+03
3.900000e-07	-5.075230e-06	-2.414182e-08	-3.634077e+01	-1.584394e+03
4.000000e-07	-4.984513e-06	-2.398979e-08	-3.569120e+01	-1.574598e+03
4.100000e-07	-4.892100e-06	-2.381471e-08	-3.502949e+01	-1.564429e+03
4.200000e-07	-4.798103e-06	-2.365989e-08	-3.435642e+01	-1.553837e+03
4.300000e-07	-4.702457e-06	-2.349328e-08	-3.367156e+01	-1.542777e+03
4.400000e-07	-4.605063e-06	-2.331436e-08	-3.297418e+01	-1.531215e+03
4.500000e-07	-4.505947e-06	-2.313395e-08	-3.226446e+01	-1.519137e+03
4.600000e-07	-4.405171e-06	-2.294142e-08	-3.154287e+01	-1.506546e+03
4.700000e-07	-4.302945e-06	-2.274646e-08	-3.081089e+01	-1.493458e+03
4.800000e-07	-4.199225e-06	-2.253479e-08	-3.006821e+01	-1.479888e+03
4.900000e-07	-4.093903e-06	-2.232807e-08	-2.931406e+01	-1.465839e+03
5.000000e-07	-3.987060e-06	-2.210327e-08	-2.854902e+01	-1.451292e+03
5.100000e-07	-3.878752e-06	-2.186886e-08	-2.777349e+01	-1.436205e+03
5.200000e-07	-3.769086e-06	-2.162239e-08	-2.698823e+01	-1.420515e+03
5.300000e-07	-3.658063e-06	-2.136937e-08	-2.619326e+01	-1.404148e+03
5.400000e-07	-3.545585e-06	-2.110668e-08	-2.538787e+01	-1.387033e+03
5.500000e-07	-3.431668e-06	-2.082952e-08	-2.457218e+01	-1.369115e+03
5.600000e-07	-3.316332e-06	-2.054528e-08	-2.374633e+01	-1.350353e+03
5.700000e-07	-3.199529e-06	-2.024482e-08	-2.290997e+01	-1.330729e+03
5.800000e-07	-3.081489e-06	-1.993582e-08	-2.206475e+01	-1.310232e+03
5.900000e-07	-2.962412e-06	-1.961025e-08	-2.121211e+01	-1.288848e+03
6.000000e-07	-2.842164e-06	-1.927321e-08	-2.035108e+01	-1.266542e+03
6.100000e-07	-2.720820e-06	-1.891550e-08	-1.948221e+01	-1.243252e+03
6.200000e-07	-2.598501e-06	-1.853832e-08	-1.860635e+01	-1.218879e+03
6.300000e-07	-2.475139e-06	-1.814160e-08	-1.772303e+01	-1.193295e+03
6.400000e-07	-2.350877e-06	-1.772347e-08	-1.683326e+01	-1.166355e+03
6.500000e-07	-2.225831e-06	-1.728593e-08	-1.593788e+01	-1.137910e+03
6.600000e-07	-2.100053e-06	-1.682533e-08	-1.503726e+01	-1.107820e+03
6.700000e-07	-1.973711e-06	-1.634283e-08	-1.413260e+01	-1.075966e+03
6.800000e-07	-1.846743e-06	-1.583246e-08	-1.322346e+01	-1.042245e+03
6.900000e-07	-1.718961e-06	-1.529436e-08	-1.230848e+01	-1.006561e+03
7.000000e-07	-1.590454e-06	-1.472048e-08	-1.138832e+01	-9.688113e+02
7.100000e-07	-1.461397e-06	-1.411224e-08	-1.046422e+01	-9.288730e+02
7.200000e-07	-1.331932e-06	-1.346397e-08	-9.537190e+00	-8.865966e+02
7.300000e-07	-1.202144e-06	-1.277559e-08	-8.607857e+00	-8.418143e+02
7.400000e-07	-1.071992e-06	-1.204544e-08	-7.675909e+00	-7.943623e+02
7.500000e-07	-9.414184e-07	-1.127203e-08	-6.740950e+00	-7.441172e+02
7.600000e-07	-8.104250e-07	-1.046430e-08	-5.802982e+00	-6.910366e+02
7.700000e-07	-6.791393e-07	-9.616157e-09	-4.862921e+00	-6.351963e+02
7.800000e-07	-5.476588e-07	-8.730155e-09	-3.921466e+00	-5.768107e+02
7.900000e-07	-4.159567e-07	-7.810558e-09	-2.978424e+00	-5.162287e+02
8.000000e-07	-2.840566e-07	-6.864060e-09	-2.033964e+00	-4.539020e+02
8.100000e-07	-1.520547e-07	-5.895254e-09	-1.088775e+00	-3.903260e+02
8.200000e-07	-1.997087e-08	-4.910005e-09	-1.429998e-01	-3.259660e+02
8.300000e-07	1.121986e-07	-3.919344e-09	8.033890e-01	-2.611808e+02
8.400000e-07	2.443924e-07	-2.927914e-09	1.749952e+00	-1.961627e+02
8.500000e-07	3.765491e-07	-1.935633e-09	2.696249e+00	-1.309069e+02
8.600000e-07	5.085916e-07	-9.391575e-10	3.641729e+00	-6.522173e+01
8.700000e-07	6.404309e-07	6.650549e-11	4.585753e+00	1.220854e+00
8.800000e-07	7.720348e-07	1.088961e-09	5.528092e+00	6.879997e+01
8.900000e-07	9.033651e-07	2.134487e-09	6.468473e+00	1.378428e+02
9.000000e-07	1.034303e-06	3.208065e-09	7.406039e+00	2.085233e+02
9.100000e-07	1.164783e-06	4.309472e-09	8.340335e+00	2.807826e+02
9.200000e-07	1.294848e-06	5.434748e-09	9.271653e+00	3.542885e+02
9.300000e-07	1.424486e-06	6.571442e-09	1.019992e+01	4.284426e+02
9.400000e-07	1.553661e-06	7.704123e-09	1.112487e+01	5.024334e+02
9.500000e-07	1.682289e-06	8.815087e-09	1.204589e+01	5.753275e+02
9.600000e-07	1.810222e-06	9.886998e-09	1.296194e+01	6.461790e+02
9.700000e-07	1.937401e-06	1.091107e-08	1.387260e+01	7.141392e+02
9.800000e-07	2.063808e-06	1.188014e-08	1.477773e+01	7.785452e+02
9.900000e-07	2.189503e-06	1.279267e-08	1.567776e+01	8.389751e+02
1.000000e-06	2.314546e-06	1.364475e-08	1.657312e+01	8.952614e+02
1.010000e-06	2.438843e-06	1.443891e-08	1.746314e+01	9.474658e+02
1.020000e-06	2.562195e-06	1.517669e-08	1.834639e+01	9.958250e+02
1.030000e-06	2.684503e-06	1.585967e-08	1.922217e+01	1.040680e+03
1.040000e-06	2.805794e-06	1.649305e-08	2.009066e+01	1.082406e+03
1.050000e-06	2.925993e-06	1.708196e-08	2.095134e+01	1.121358e+03
1.060000e-06	3.045029e-06	1.763430e-08	2.180368e+01	1.157829e+03
1.070000e-06	3.162975e-06	1.815089e-08	2.264822e+01	1.192047e+03
1.080000e-06	3.279895e-06	1.863508e-08	2.348542e+01	1.224175e+03
1.090000e-06	3.395626e-06	1.909077e-08	2.431410e+01	1.254338e+03
1.100000e-06	3.509880e-06	1.951938e-08	2.513221e+01	1.282646e+03
1.110000e-06	3.622643e-06	1.992278e-08	2.593964e+01	1.309213e+03
1.120000e-06	3.734033e-06	2.030399e-08	2.673724e+01	1.334169e+03
1.130000e-06	3.844146e-06	2.066515e-08	2.752569e+01	1.357660e+03
1.140000e-06	3.953079e-06	2.100637e-08	2.830570e+01	1.379839e+03
1.150000e-06	4.060747e-06	2.132707e-08	2.907665e+01	1.400846e+03
1.160000e-06	4.166937e-06	2.163001e-08	2.983702e+01	1.420802e+03
1.170000e-06	4.271533e-06	2.191817e-08	3.058597e+01	1.439798e+03
1.180000e-06	4.374530e-06	2.219072e-08	3.132346e+01	1.457889e+03
1.190000e-06	4.475990e-06	2.244987e-08	3.204996e+01	1.475108e+03
1.200000e-06	4.575967e-06	2.269715e-08	3.276584e+01	1.491475e+03
1.210000e-06	4.674288e-06	2.293103e-08	3.346986e+01	1.507009e+03
1.220000e-06	4.770790e-06	2.315395e-08	3.416085e+01	1.521737e+03
1.230000e-06	4.865508e-06	2.336553e-08	3.483907e+01	1.535704e+03
1.240000e-06	4.958559e-06	2.356700e-08	3.550536e+01	1.548967e+03
1.250000e-06	5.050023e-06	2.375978e-08	3.616028e+01	1.561591e+03
1.260000e-06	5.139665e-06	2.394337e-08	3.680215e+01	1.573638e+03
1.270000e-06	5.227287e-06	2.411877e-08	3.742956e+01	1.585160e+03
1.280000e-06	5.312999e-06	2.428581e-08	3.804330e+01	1.596192e+03
1.290000e-06	5.396926e-06	2.444538e-08	3.864425e+01	1.606750e+03
1.300000e-06	5.478961e-06	2.459817e-08	3.923165e+01	1.616836e+03
1.310000e-06	5.558897e-06	2.474491e-08	3.980403e+01	1.626441e+03
1.320000e-06	5.636717e-06	2.488535e-08	4.036126e+01	1.635559e+03
1.330000e-06	5.712421e-06	2.501897e-08	4.090332e+01	1.644186e+03
1.340000e-06	5.785879e-06	2.514490e-08	4.142931e+01	1.652332e+03
1.350000e-06	5.857161e-06	2.526421e-08	4.193972e+01	1.660016e+03
1.360000e-06	5.926420e-06	2.537728e-08	4.243565e+01	1.667266e+03
1.370000e-06	5.993554e-06	2.548194e-08	4.291636e+01	1.674112e+03
1.380000e-06	6.058466e-06	2.557823e-08	4.338115e+01	1.680587e+03
1.390000e-06	6.121233e-06	2.567003e-08	4.383059e+01	1.686716e+03
1.400000e-06	6.182019e-06	2.575841e-08	4.426585e+01	1.692522e+03
1.410000e-06	6.240643e-06	2.584161e-08	4.468562e+01	1.698021e+03
1.420000e-06	6.296970e-06	2.591966e-08	4.508894e+01	1.703227e+03
1.430000e-06	6.351071e-06	2.599484e-08	4.547633e+01	1.708153e+03
1.440000e-06	6.402676e-06	2.606907e-08	4.584584e+01	1.712813e+03
1.450000e-06	6.451604e-06	2.613879e-08	4.619619e+01	1.717219e+03
1.460000e-06	6.498085e-06	2.620184e-08	4.652901e+01	1.721383e+03
1.470000e-06	6.542425e-06	2.626213e-08	4.684650e+01	1.725311e+03
1.480000e-06	6.584473e-06	2.632009e-08	4.714758e+01	1.729003e+03
1.490000e-06	6.624013e-06	2.637313e-08	4.743071e+01	1.732453e+03
1.500000e-06	6.661292e-06	2.641944e-08	4.769764e+01	1.735646e+03
1.510000e-06	6.696376e-06	2.646173e-08	4.794886e+01	1.738570e+03
1.520000e-06	6.728978e-06	2.650344e-08	4.818230e+01	1.741212e+03
1.530000e-06	6.759148e-06	2.654097e-08	4.839833e+01	1.743565e+03
1.540000e-06	6.787090e-06	2.657174e-08	4.859840e+01	1.745633e+03
1.550000e-06	6.812534e-06	2.659692e-08	4.878060e+01	1.747428e+03
1.560000e-06	6.835359e-06	2.662000e-08	4.894403e+01	1.748970e+03
1.570000e-06	6.855869e-06	2.664210e-08	4.909089e+01	1.750282e+03
1.580000e-06	6.873994e-06	2.666092e-08	4.922068e+01	1.751385e+03
1.590000e-06	6.889513e-06	2.667536e-08	4.933179e+01	1.752295e+03
1.600000e-06	6.902482e-06	2.668666e-08	4.942466e+01	1.753021e+03
1.610000e-06	6.912732e-06	2.669657e-08	4.949805e+01	1.753564e+03
1.620000e-06	6.920248e-06	2.670243e-08	4.955187e+01	1.753920e+03
1.630000e-06	6.925368e-06	2.670391e-08	4.958853e+01	1.754084e+03
1.640000e-06	6.928055e-06	2.670521e-08	4.960777e+01	1.754054e+03
1.650000e-06	6.928212e-06	2.670753e-08	4.960890e+01	1.753830e+03
1.660000e-06	6.926014e-06	2.669851e-08	4.959316e+01	1.753419e+03
1.670000e-06	6.921631e-06	2.669087e-08	4.956177e+01	1.752825e+03
1.680000e-06	6.914927e-06	2.668107e-08	4.951377e+01	1.752053e+03
1.690000e-06	6.905875e-06	2.666755e-08	4.944895e+01	1.751104e+03
1.700000e-06	6.894615e-06	2.665223e-08	4.936833e+01	1.749973e+03
1.710000e-06	6.880912e-06	2.663674e-08	4.927021e+01	1.748649e+03
1.720000e-06	6.864791e-06	2.662654e-08	4.915478e+01	1.747126e+03
1.730000e-06	6.846633e-06	2.657370e-08	4.902476e+01	1.745401e+03
1.740000e-06	6.826199e-06	2.647637e-08	4.887844e+01	1.743484e+03
1.750000e-06	6.802719e-06	2.648452e-08	4.871031e+01	1.741399e+03
1.760000e-06	6.776041e-06	2.648108e-08	4.851929e+01	1.739183e+03
1.770000e-06	6.746628e-06	2.641891e-08	4.830868e+01	1.736879e+03
1.780000e-06	6.715001e-06	2.645662e-08	4.808222e+01	1.734525e+03
1.790000e-06	6.681687e-06	2.646540e-08	4.784368e+01	1.732145e+03
1.800000e-06	6.646986e-06	2.628463e-08	4.759520e+01	1.729740e+03
1.810000e-06	6.610207e-06	2.633829e-08	4.733185e+01	1.727277e+03
1.820000e-06	6.570846e-06	2.631131e-08	4.705001e+01	1.724696e+03
1.830000e-06	6.529290e-06	2.622927e-08	4.675245e+01	1.721916e+03
1.840000e-06	6.485470e-06	2.633820e-08	4.643868e+01	1.718851e+03
1.850000e-06	6.439291e-06	2.614874e-08	4.610802e+01	1.715421e+03
1.860000e-06	6.390838e-06	2.613637e-08	4.576107e+01	1.711573e+03
1.870000e-06	6.339968e-06	2.609189e-08	4.539683e+01	1.707291e+03
1.880000e-06	6.286563e-06	2.594040e-08	4.501443e+01	1.702591e+03
1.890000e-06	6.230520e-06	2.596865e-08	4.461313e+01	1.697524e+03
1.900000e-06	6.172115e-06	2.579809e-08	4.419492e+01	1.692156e+03
1.910000e-06	6.111517e-06	2.575509e-08	4.376102e+01	1.686553e+03
1.920000e-06	6.048503e-06	2.569548e-08	4.330981e+01	1.680765e+03
1.930000e-06	5.983253e-06	2.555527e-08	4.284260e+01	1.674815e+03
1.940000e-06	5.915819e-06	2.553842e-08	4.235974e+01	1.668694e+03
1.950000e-06	5.846079e-06	2.536568e-08	4.186037e+01	1.662364e+03
1.960000e-06	5.774003e-06	2.529943e-08	4.134428e+01	1.655774e+03
1.970000e-06	5.699714e-06	2.515857e-08	4.081234e+01	1.648868e+03
1.980000e-06	5.623239e-06	2.505106e-08	4.026474e+01	1.641602e+03
1.990000e-06	5.544411e-06	2.497752e-08	3.970031e+01	1.633955e+03
2.000000e-06	5.463562e-06	2.481825e-08	3.912139e+01	1.625927e+03
2.010000e-06	5.380921e-06	2.473277e-08	3.852965e+01	1.617538e+03
2.020000e-06	5.296390e-06	2.455477e-08	3.792437e+01	1.608815e+03
2.030000e-06	5.209838e-06	2.443200e-08	3.730462e+01	1.599779e+03
2.040000e-06	5.121306e-06	2.428703e-08	3.667069e+01	1.590437e+03
2.050000e-06	5.031104e-06	2.414826e-08	3.602481e+01	1.580775e+03
2.060000e-06	4.939251e-06	2.400901e-08	3.536710e+01	1.570758e+03
2.070000e-06	4.845671e-06	2.383141e-08	3.469703e+01	1.560338e+03
2.080000e-06	4.750324e-06	2.367817e-08	3.401431e+01	1.549467e+03
2.090000e-06	4.653255e-06	2.348500e-08	3.331925e+01	1.538104e+03
2.100000e-06	4.554671e-06	2.331660e-08	3.261335e+01	1.526228e+03
2.110000e-06	4.454599e-06	2.312638e-08	3.189679e+01	1.513837e+03
2.120000e-06	4.352903e-06	2.294031e-08	3.116861e+01	1.500942e+03
2.130000e-06	4.249530e-06	2.273154e-08	3.042841e+01	1.487560e+03
2.140000e-06	4.144592e-06	2.251695e-08	2.967702e+01	1.473700e+03
2.150000e-06	4.038238e-06	2.230108e-08	2.891548e+01	1.459352e+03
2.160000e-06	3.930528e-06	2.207113e-08	2.814423e+01	1.444483e+03
2.170000e-06	3.821396e-06	2.184088e-08	2.736280e+01	1.429037e+03
2.180000e-06	3.710835e-06	2.159414e-08	2.657113e+01	1.412944e+03
2.190000e-06	3.598781e-06	2.134504e-08	2.576878e+01	1.396131e+03
2.200000e-06	3.485280e-06	2.107385e-08	2.495606e+01	1.378534e+03
2.210000e-06	3.370370e-06	2.079750e-08	2.413326e+01	1.360106e+03
2.220000e-06	3.253991e-06	2.050163e-08	2.329994e+01	1.340822e+03
2.230000e-06	3.136318e-06	2.019870e-08	2.245735e+01	1.320669e+03
2.240000e-06	3.017443e-06	1.987737e-08	2.160615e+01	1.299635e+03
2.250000e-06	2.897348e-06	1.954577e-08	2.074622e+01	1.277697e+03
2.260000e-06	2.776140e-06	1.919785e-08	1.987833e+01	1.254803e+03
2.270000e-06	2.653970e-06	1.883164e-08	1.900353e+01	1.230869e+03
2.280000e-06	2.530950e-06	1.844956e-08	1.812266e+01	1.205777e+03
2.290000e-06	2.407044e-06	1.804525e-08	1.723544e+01	1.179387e+03
2.300000e-06	2.282171e-06	1.762361e-08	1.634130e+01	1.151550e+03
2.310000e-06	2.156504e-06	1.717832e-08	1.544147e+01	1.122122e+03
2.320000e-06	2.030201e-06	1.670922e-08	1.453709e+01	1.090974e+03
2.330000e-06	1.903132e-06	1.620664e-08	1.362722e+01	1.057997e+03
2.340000e-06	1.775254e-06	1.567515e-08	1.271156e+01	1.023095e+03
2.350000e-06	1.646723e-06	1.511135e-08	1.179123e+01	9.861697e+02
2.360000e-06	1.517669e-06	1.451481e-08	1.086714e+01	9.471072e+02
2.370000e-06	1.388188e-06	1.388156e-08	9.940005e+00	9.057683e+02
2.380000e-06	1.258320e-06	1.321052e-08	9.010095e+00	8.619905e+02
2.390000e-06	1.128125e-06	1.250438e-08	8.077850e+00	8.156047e+02
2.400000e-06	9.976586e-07	1.175589e-08	7.143653e+00	7.664670e+02
2.410000e-06	8.669049e-07	1.096413e-08	6.207402e+00	7.144981e+02
2.420000e-06	7.358863e-07	1.013056e-08	5.269254e+00	6.597239e+02
2.430000e-06	6.046379e-07	9.257651e-09	4.329461e+00	6.023032e+02
2.440000e-06	4.731657e-07	8.347393e-09	3.388064e+00	5.425345e+02
2.450000e-06	3.414183e-07	7.406708e-09	2.444698e+00	4.808346e+02
2.460000e-06	2.094297e-07	6.443533e-09	1.499604e+00	4.176901e+02
2.470000e-06	7.735873e-08	5.461686e-09	5.539209e-01	3.535873e+02
2.480000e-06	-5.475144e-08	4.470336e-09	-3.920432e-01	2.889355e+02
2.490000e-06	-1.868817e-07	3.474343e-09	-1.338151e+00	2.239979e+02
2.500000e-06	-3.189066e-07	2.474900e-09	-2.283504e+00	1.588484e+02
2.510000e-06	-4.507758e-07	1.471226e-09	-3.227744e+00	9.336463e+01
2.520000e-06	-5.825197e-07	4.596890e-10	-4.171085e+00	2.726374e+01
2.530000e-06	-7.140951e-07	-5.648266e-10	-5.113220e+00	-3.982502e+01
2.540000e-06	-8.454075e-07	-1.608570e-09	-6.053472e+00	-1.082619e+02
2.550000e-06	-9.763746e-07	-2.677601e-09	-6.991251e+00	-1.782923e+02
2.560000e-06	-1.107039e-06	-3.770593e-09	-7.926865e+00	-2.499558e+02
2.570000e-06	-1.237369e-06	-4.884558e-09	-8.860081e+00	-3.230298e+02
2.580000e-06	-1.367318e-06	-6.015499e-09	-9.790568e+00	-3.970162e+02
2.590000e-06	-1.496896e-06	-7.151853e-09	-1.071840e+01	-4.711785e+02
2.600000e-06	-1.625977e-06	-8.279096e-09	-1.164268e+01	-5.446185e+02
2.610000e-06	-1.754529e-06	-9.380756e-09	-1.256316e+01	-6.163818e+02
2.620000e-06	-1.882456e-06	-1.044263e-08	-1.347917e+01	-6.855693e+02
2.630000e-06	-2.009544e-06	-1.145115e-08	-1.438918e+01	-7.514364e+02
2.640000e-06	-2.135833e-06	-1.239938e-08	-1.529346e+01	-8.134626e+02
2.650000e-06	-2.261381e-06	-1.328583e-08	-1.619243e+01	-8.713815e+02
2.660000e-06	-2.386015e-06	-1.411005e-08	-1.708487e+01	-9.251699e+02
2.670000e-06	-2.509611e-06	-1.487451e-08	-1.796987e+01	-9.750037e+02
2.680000e-06	-2.632210e-06	-1.558257e-08	-1.884773e+01	-1.021191e+03
2.690000e-06	-2.753894e-06	-1.624141e-08	-1.971904e+01	-1.064103e+03
2.700000e-06	-2.874621e-06	-1.685838e-08	-2.058349e+01	-1.104106e+03
2.710000e-06	-2.994212e-06	-1.743770e-08	-2.143981e+01	-1.141521e+03
2.720000e-06	-3.112573e-06	-1.797962e-08	-2.228732e+01	-1.176602e+03
2.730000e-06	-3.229778e-06	-1.848270e-08	-2.312656e+01	-1.209535e+03
2.740000e-06	-3.345679e-06	-1.895302e-08	-2.395646e+01	-1.240457e+03
2.750000e-06	-3.460179e-06	-1.939469e-08	-2.477633e+01	-1.269481e+03
2.760000e-06	-3.573280e-06	-1.980797e-08	-2.558618e+01	-1.296718e+03
2.770000e-06	-3.684969e-06	-2.019776e-08	-2.638592e+01	-1.322290e+03
2.780000e-06	-3.795251e-06	-2.056725e-08	-2.717559e+01	-1.346340e+03
2.790000e-06	-3.904224e-06	-2.091631e-08	-2.795588e+01	-1.369016e+03
2.800000e-06	-4.012060e-06	-2.124596e-08	-2.872803e+01	-1.390468e+03
2.810000e-06	-4.118588e-06	-2.155965e-08	-2.949081e+01	-1.410826e+03
2.820000e-06	-4.223708e-06	-2.185743e-08	-3.024352e+01	-1.430190e+03
2.830000e-06	-4.327279e-06	-2.213795e-08	-3.098513e+01	-1.448632e+03
2.840000e-06	-4.429142e-06	-2.240392e-08	-3.171451e+01	-1.466191e+03
2.850000e-06	-4.529388e-06	-2.265797e-08	-3.243232e+01	-1.482892e+03
2.860000e-06	-4.628103e-06	-2.289995e-08	-3.313915e+01	-1.498750e+03
2.870000e-06	-4.725310e-06	-2.313018e-08	-3.383519e+01	-1.513791e+03
2.880000e-06	-4.820834e-06	-2.335138e-08	-3.451919e+01	-1.528052e+03
2.890000e-06	-4.914516e-06	-2.356164e-08	-3.518999e+01	-1.541584e+03
2.900000e-06	-5.006459e-06	-2.376051e-08	-3.584834e+01	-1.554451e+03
2.910000e-06	-5.096684e-06	-2.395037e-08	-3.649439e+01	-1.566718e+03
2.920000e-06	-5.185062e-06	-2.413089e-08	-3.712722e+01	-1.578442e+03
2.930000e-06	-5.271433e-06	-2.430166e-08	-3.774567e+01	-1.589664e+03
2.940000e-06	-5.355840e-06	-2.446368e-08	-3.835006e+01	-1.600408e+03
