# Temperatura_=_61.23
# Concentracion g/m^3_=_28200.0
# C_Vs_to_Am_M_A/Vsm_=_65563218390.804596
# pendiente_HvsI_1/m_=_3716.3
# ordenada_HvsI_A/m_=_1297.0
# frecuencia_Hz_=_302272.96467847604

Tiempo_(s)	Campo_(V.s)	Magnetizacion_(V.s)	Campo_(kA/m)	Magnetizacion_(A/m)
0.000000e+00	-6.882180e-06	-2.281112e-08	-4.952126e+01	-1.493409e+03
1.000000e-08	-6.878751e-06	-2.280489e-08	-4.949658e+01	-1.493064e+03
2.000000e-08	-6.873073e-06	-2.279731e-08	-4.945572e+01	-1.492549e+03
3.000000e-08	-6.865251e-06	-2.278882e-08	-4.939944e+01	-1.491864e+03
4.000000e-08	-6.855123e-06	-2.277677e-08	-4.932656e+01	-1.491011e+03
5.000000e-08	-6.842450e-06	-2.276282e-08	-4.923538e+01	-1.489999e+03
6.000000e-08	-6.827209e-06	-2.274439e-08	-4.912570e+01	-1.488838e+03
7.000000e-08	-6.809674e-06	-2.271982e-08	-4.899953e+01	-1.487539e+03
8.000000e-08	-6.790112e-06	-2.271488e-08	-4.885877e+01	-1.486118e+03
9.000000e-08	-6.768267e-06	-2.270678e-08	-4.870159e+01	-1.484586e+03
1.000000e-07	-6.743737e-06	-2.266263e-08	-4.852508e+01	-1.482957e+03
1.100000e-07	-6.716442e-06	-2.262607e-08	-4.832867e+01	-1.481240e+03
1.200000e-07	-6.686720e-06	-2.259645e-08	-4.811481e+01	-1.479445e+03
1.300000e-07	-6.654764e-06	-2.254658e-08	-4.788487e+01	-1.477571e+03
1.400000e-07	-6.620649e-06	-2.248919e-08	-4.763938e+01	-1.475615e+03
1.500000e-07	-6.584751e-06	-2.251334e-08	-4.738108e+01	-1.473562e+03
1.600000e-07	-6.547048e-06	-2.245832e-08	-4.710978e+01	-1.471388e+03
1.700000e-07	-6.507213e-06	-2.235693e-08	-4.682315e+01	-1.469063e+03
1.800000e-07	-6.465082e-06	-2.235941e-08	-4.651999e+01	-1.466550e+03
1.900000e-07	-6.420454e-06	-2.228154e-08	-4.619887e+01	-1.463816e+03
2.000000e-07	-6.373465e-06	-2.226048e-08	-4.586076e+01	-1.460830e+03
2.100000e-07	-6.324003e-06	-2.224876e-08	-4.550485e+01	-1.457574e+03
2.200000e-07	-6.271830e-06	-2.218512e-08	-4.512944e+01	-1.454043e+03
2.300000e-07	-6.217239e-06	-2.215285e-08	-4.473662e+01	-1.450246e+03
2.400000e-07	-6.160262e-06	-2.204087e-08	-4.432664e+01	-1.446202e+03
2.500000e-07	-6.100899e-06	-2.197115e-08	-4.389949e+01	-1.441937e+03
2.600000e-07	-6.039298e-06	-2.191957e-08	-4.345623e+01	-1.437475e+03
2.700000e-07	-5.975504e-06	-2.183728e-08	-4.299719e+01	-1.432833e+03
2.800000e-07	-5.909474e-06	-2.176260e-08	-4.252208e+01	-1.428016e+03
2.900000e-07	-5.841133e-06	-2.168100e-08	-4.203032e+01	-1.423017e+03
3.000000e-07	-5.770647e-06	-2.160563e-08	-4.152313e+01	-1.417817e+03
3.100000e-07	-5.697952e-06	-2.150292e-08	-4.100005e+01	-1.412390e+03
3.200000e-07	-5.622958e-06	-2.143484e-08	-4.046042e+01	-1.406709e+03
3.300000e-07	-5.545727e-06	-2.135781e-08	-3.990471e+01	-1.400750e+03
3.400000e-07	-5.466282e-06	-2.125293e-08	-3.933305e+01	-1.394498e+03
3.500000e-07	-5.384779e-06	-2.116036e-08	-3.874659e+01	-1.387945e+03
3.600000e-07	-5.301435e-06	-2.104646e-08	-3.814688e+01	-1.381091e+03
3.700000e-07	-5.216352e-06	-2.094008e-08	-3.753466e+01	-1.373940e+03
3.800000e-07	-5.129544e-06	-2.083549e-08	-3.691003e+01	-1.366491e+03
3.900000e-07	-5.040927e-06	-2.071765e-08	-3.627238e+01	-1.358742e+03
4.000000e-07	-4.950449e-06	-2.058628e-08	-3.562133e+01	-1.350679e+03
4.100000e-07	-4.858248e-06	-2.045060e-08	-3.495790e+01	-1.342283e+03
4.200000e-07	-4.764438e-06	-2.031548e-08	-3.428288e+01	-1.333532e+03
4.300000e-07	-4.669013e-06	-2.017329e-08	-3.359624e+01	-1.324399e+03
4.400000e-07	-4.571855e-06	-2.002807e-08	-3.289713e+01	-1.314867e+03
4.500000e-07	-4.473034e-06	-1.987835e-08	-3.218606e+01	-1.304920e+03
4.600000e-07	-4.372537e-06	-1.972118e-08	-3.146292e+01	-1.294550e+03
4.700000e-07	-4.270448e-06	-1.955720e-08	-3.072834e+01	-1.283753e+03
4.800000e-07	-4.166972e-06	-1.938524e-08	-2.998376e+01	-1.272522e+03
4.900000e-07	-4.061977e-06	-1.921153e-08	-2.922827e+01	-1.260844e+03
5.000000e-07	-3.955444e-06	-1.902690e-08	-2.846170e+01	-1.248694e+03
5.100000e-07	-3.847418e-06	-1.882776e-08	-2.768439e+01	-1.236036e+03
5.200000e-07	-3.738027e-06	-1.861938e-08	-2.689726e+01	-1.222823e+03
5.300000e-07	-3.627428e-06	-1.840505e-08	-2.610144e+01	-1.209003e+03
5.400000e-07	-3.515424e-06	-1.818528e-08	-2.529550e+01	-1.194524e+03
5.500000e-07	-3.401922e-06	-1.795134e-08	-2.447879e+01	-1.179339e+03
5.600000e-07	-3.286966e-06	-1.770580e-08	-2.365161e+01	-1.163409e+03
5.700000e-07	-3.170585e-06	-1.744749e-08	-2.281419e+01	-1.146708e+03
5.800000e-07	-3.052993e-06	-1.718059e-08	-2.196804e+01	-1.129209e+03
5.900000e-07	-2.934330e-06	-1.690399e-08	-2.111420e+01	-1.110888e+03
6.000000e-07	-2.814611e-06	-1.661635e-08	-2.025275e+01	-1.091708e+03
6.100000e-07	-2.693756e-06	-1.631194e-08	-1.938313e+01	-1.071617e+03
6.200000e-07	-2.571813e-06	-1.598509e-08	-1.850568e+01	-1.050539e+03
6.300000e-07	-2.448960e-06	-1.564074e-08	-1.762168e+01	-1.028384e+03
6.400000e-07	-2.325172e-06	-1.527716e-08	-1.673095e+01	-1.005043e+03
6.500000e-07	-2.200518e-06	-1.489762e-08	-1.583400e+01	-9.803993e+02
6.600000e-07	-2.075203e-06	-1.449727e-08	-1.493228e+01	-9.543362e+02
6.700000e-07	-1.949283e-06	-1.407581e-08	-1.402622e+01	-9.267404e+02
6.800000e-07	-1.822740e-06	-1.363034e-08	-1.311567e+01	-8.975039e+02
6.900000e-07	-1.695538e-06	-1.315708e-08	-1.220038e+01	-8.665221e+02
7.000000e-07	-1.567708e-06	-1.265655e-08	-1.128056e+01	-8.336893e+02
7.100000e-07	-1.439298e-06	-1.212713e-08	-1.035658e+01	-7.988963e+02
7.200000e-07	-1.310386e-06	-1.156668e-08	-9.428982e+00	-7.620309e+02
7.300000e-07	-1.181070e-06	-1.097004e-08	-8.498483e+00	-7.229873e+02
7.400000e-07	-1.051394e-06	-1.033807e-08	-7.565387e+00	-6.816813e+02
7.500000e-07	-9.213795e-07	-9.671336e-09	-6.629857e+00	-6.380742e+02
7.600000e-07	-7.910530e-07	-8.972809e-09	-5.692082e+00	-5.921963e+02
7.700000e-07	-6.604390e-07	-8.239346e-09	-4.752239e+00	-5.441686e+02
7.800000e-07	-5.295903e-07	-7.477066e-09	-3.810707e+00	-4.942119e+02
7.900000e-07	-3.985811e-07	-6.693614e-09	-2.868021e+00	-4.426410e+02
8.000000e-07	-2.674019e-07	-5.890849e-09	-1.924111e+00	-3.898395e+02
8.100000e-07	-1.360771e-07	-5.074583e-09	-9.791534e-01	-3.362175e+02
8.200000e-07	-4.678253e-09	-4.249845e-09	-3.366273e-02	-2.821578e+02
8.300000e-07	1.268158e-07	-3.423767e-09	9.125128e-01	-2.279603e+02
8.400000e-07	2.583357e-07	-2.598492e-09	1.858875e+00	-1.737957e+02
8.500000e-07	3.897806e-07	-1.777690e-09	2.804696e+00	-1.196787e+02
8.600000e-07	5.211359e-07	-9.573421e-10	3.749874e+00	-6.546902e+01
8.700000e-07	6.523092e-07	-1.318879e-10	4.693741e+00	-1.090218e+01
8.800000e-07	7.831891e-07	7.048318e-10	5.635497e+00	4.435332e+01
8.900000e-07	9.137520e-07	1.561274e-09	6.574972e+00	1.006214e+02
9.000000e-07	1.043961e-06	2.436543e-09	7.511898e+00	1.581396e+02
9.100000e-07	1.173751e-06	3.332504e-09	8.445812e+00	2.169908e+02
9.200000e-07	1.303105e-06	4.248739e-09	9.376592e+00	2.770576e+02
9.300000e-07	1.432045e-06	5.179182e-09	1.030439e+01	3.380098e+02
9.400000e-07	1.560508e-06	6.116955e-09	1.122875e+01	3.993260e+02
9.500000e-07	1.688371e-06	7.050168e-09	1.214881e+01	4.603457e+02
9.600000e-07	1.815592e-06	7.962544e-09	1.306423e+01	5.203429e+02
9.700000e-07	1.942097e-06	8.843657e-09	1.397451e+01	5.786078e+02
9.800000e-07	2.067927e-06	9.687748e-09	1.487993e+01	6.345212e+02
9.900000e-07	2.193130e-06	1.048970e-08	1.578084e+01	6.876116e+02
1.000000e-06	2.317603e-06	1.124460e-08	1.667649e+01	7.375850e+02
1.010000e-06	2.441249e-06	1.195266e-08	1.756620e+01	7.843279e+02
1.020000e-06	2.563936e-06	1.261602e-08	1.844900e+01	8.278835e+02
1.030000e-06	2.685573e-06	1.323277e-08	1.932425e+01	8.684119e+02
1.040000e-06	2.806155e-06	1.380829e-08	2.019191e+01	9.061424e+02
1.050000e-06	2.925642e-06	1.434325e-08	2.105168e+01	9.413281e+02
1.060000e-06	3.044019e-06	1.484190e-08	2.190347e+01	9.742110e+02
1.070000e-06	3.161341e-06	1.530754e-08	2.274767e+01	1.005001e+03
1.080000e-06	3.277567e-06	1.574260e-08	2.358398e+01	1.033869e+03
1.090000e-06	3.392494e-06	1.615015e-08	2.441095e+01	1.060955e+03
1.100000e-06	3.505904e-06	1.653373e-08	2.522700e+01	1.086376e+03
1.110000e-06	3.617856e-06	1.689780e-08	2.603256e+01	1.110242e+03
1.120000e-06	3.728553e-06	1.724270e-08	2.682909e+01	1.132662e+03
1.130000e-06	3.838066e-06	1.756759e-08	2.761710e+01	1.153753e+03
1.140000e-06	3.946366e-06	1.787239e-08	2.839638e+01	1.173631e+03
1.150000e-06	4.053399e-06	1.815849e-08	2.916654e+01	1.192410e+03
1.160000e-06	4.158890e-06	1.842644e-08	2.992561e+01	1.210189e+03
1.170000e-06	4.262724e-06	1.867855e-08	3.067276e+01	1.227051e+03
1.180000e-06	4.365067e-06	1.891762e-08	3.140917e+01	1.243059e+03
1.190000e-06	4.465939e-06	1.914773e-08	3.213501e+01	1.258255e+03
1.200000e-06	4.565288e-06	1.936888e-08	3.284988e+01	1.272674e+03
1.210000e-06	4.662928e-06	1.957729e-08	3.355246e+01	1.286345e+03
1.220000e-06	4.758736e-06	1.977215e-08	3.424185e+01	1.299299e+03
1.230000e-06	4.852847e-06	1.995747e-08	3.491903e+01	1.311577e+03
1.240000e-06	4.945339e-06	2.013459e-08	3.558456e+01	1.323222e+03
1.250000e-06	5.036127e-06	2.030233e-08	3.623784e+01	1.334284e+03
1.260000e-06	5.125015e-06	2.046176e-08	3.687744e+01	1.344807e+03
1.270000e-06	5.211990e-06	2.061516e-08	3.750328e+01	1.354828e+03
1.280000e-06	5.297167e-06	2.076058e-08	3.811617e+01	1.364370e+03
1.290000e-06	5.380495e-06	2.089871e-08	3.871576e+01	1.373443e+03
1.300000e-06	5.461798e-06	2.103011e-08	3.930079e+01	1.382048e+03
1.310000e-06	5.541049e-06	2.115491e-08	3.987105e+01	1.390180e+03
1.320000e-06	5.618285e-06	2.127373e-08	4.042680e+01	1.397838e+03
1.330000e-06	5.693375e-06	2.138649e-08	4.096712e+01	1.405030e+03
1.340000e-06	5.766267e-06	2.149127e-08	4.149161e+01	1.411778e+03
1.350000e-06	5.837016e-06	2.158832e-08	4.200070e+01	1.418114e+03
1.360000e-06	5.905702e-06	2.167984e-08	4.249493e+01	1.424083e+03
1.370000e-06	5.972267e-06	2.176484e-08	4.297390e+01	1.429730e+03
1.380000e-06	6.036607e-06	2.184433e-08	4.343687e+01	1.435098e+03
1.390000e-06	6.098841e-06	2.191970e-08	4.388468e+01	1.440219e+03
1.400000e-06	6.159072e-06	2.199270e-08	4.431807e+01	1.445113e+03
1.410000e-06	6.217141e-06	2.206434e-08	4.473592e+01	1.449786e+03
1.420000e-06	6.272977e-06	2.213345e-08	4.513769e+01	1.454234e+03
1.430000e-06	6.326532e-06	2.219817e-08	4.552305e+01	1.458449e+03
1.440000e-06	6.377547e-06	2.225890e-08	4.589013e+01	1.462420e+03
1.450000e-06	6.425882e-06	2.231648e-08	4.623793e+01	1.466140e+03
1.460000e-06	6.471882e-06	2.236879e-08	4.656893e+01	1.469609e+03
1.470000e-06	6.515762e-06	2.241671e-08	4.688466e+01	1.472831e+03
1.480000e-06	6.557250e-06	2.246184e-08	4.718320e+01	1.475814e+03
1.490000e-06	6.596319e-06	2.250463e-08	4.746432e+01	1.478567e+03
1.500000e-06	6.633181e-06	2.254376e-08	4.772956e+01	1.481097e+03
1.510000e-06	6.667734e-06	2.257917e-08	4.797819e+01	1.483406e+03
1.520000e-06	6.699852e-06	2.261250e-08	4.820930e+01	1.485494e+03
1.530000e-06	6.729639e-06	2.264222e-08	4.842363e+01	1.487358e+03
1.540000e-06	6.757173e-06	2.266614e-08	4.862176e+01	1.488999e+03
1.550000e-06	6.782235e-06	2.268466e-08	4.880209e+01	1.490419e+03
1.560000e-06	6.804721e-06	2.270020e-08	4.896389e+01	1.491628e+03
1.570000e-06	6.824828e-06	2.271421e-08	4.910858e+01	1.492642e+03
1.580000e-06	6.842545e-06	2.272731e-08	4.923606e+01	1.493478e+03
1.590000e-06	6.857714e-06	2.273872e-08	4.934521e+01	1.494157e+03
1.600000e-06	6.870262e-06	2.274927e-08	4.943550e+01	1.494696e+03
1.610000e-06	6.880070e-06	2.275902e-08	4.950607e+01	1.495107e+03
1.620000e-06	6.887209e-06	2.276560e-08	4.955744e+01	1.495394e+03
1.630000e-06	6.891976e-06	2.276778e-08	4.959174e+01	1.495554e+03
1.640000e-06	6.894360e-06	2.276756e-08	4.960890e+01	1.495579e+03
1.650000e-06	6.894239e-06	2.276429e-08	4.960803e+01	1.495456e+03
1.660000e-06	6.891801e-06	2.275838e-08	4.959049e+01	1.495175e+03
1.670000e-06	6.887157e-06	2.275239e-08	4.955707e+01	1.494727e+03
1.680000e-06	6.880181e-06	2.274463e-08	4.950687e+01	1.494109e+03
1.690000e-06	6.870903e-06	2.273633e-08	4.944011e+01	1.493321e+03
1.700000e-06	6.859357e-06	2.272575e-08	4.935703e+01	1.492370e+03
1.710000e-06	6.845422e-06	2.271493e-08	4.925676e+01	1.491266e+03
1.720000e-06	6.829185e-06	2.270099e-08	4.913992e+01	1.490019e+03
1.730000e-06	6.810923e-06	2.264592e-08	4.900852e+01	1.488644e+03
1.740000e-06	6.790345e-06	2.261978e-08	4.886045e+01	1.487154e+03
1.750000e-06	6.766674e-06	2.261386e-08	4.869012e+01	1.485561e+03
1.760000e-06	6.739818e-06	2.258435e-08	4.849688e+01	1.483878e+03
1.770000e-06	6.710265e-06	2.255326e-08	4.828423e+01	1.482112e+03
1.780000e-06	6.678551e-06	2.257386e-08	4.805603e+01	1.480269e+03
1.790000e-06	6.645240e-06	2.251220e-08	4.781634e+01	1.478347e+03
1.800000e-06	6.610502e-06	2.246881e-08	4.756637e+01	1.476334e+03
1.810000e-06	6.573654e-06	2.251980e-08	4.730123e+01	1.474210e+03
1.820000e-06	6.534317e-06	2.244487e-08	4.701818e+01	1.471948e+03
1.830000e-06	6.492817e-06	2.247803e-08	4.671956e+01	1.469514e+03
1.840000e-06	6.449039e-06	2.242563e-08	4.640455e+01	1.466870e+03
1.850000e-06	6.402878e-06	2.230315e-08	4.607240e+01	1.463985e+03
1.860000e-06	6.354356e-06	2.230288e-08	4.572326e+01	1.460836e+03
1.870000e-06	6.303434e-06	2.217556e-08	4.535685e+01	1.457413e+03
1.880000e-06	6.250051e-06	2.216866e-08	4.497273e+01	1.453719e+03
1.890000e-06	6.194038e-06	2.215060e-08	4.456967e+01	1.449769e+03
1.900000e-06	6.135662e-06	2.204828e-08	4.414963e+01	1.445588e+03
1.910000e-06	6.075069e-06	2.203940e-08	4.371362e+01	1.441200e+03
1.920000e-06	6.012118e-06	2.192520e-08	4.326066e+01	1.436627e+03
1.930000e-06	5.946976e-06	2.186160e-08	4.279192e+01	1.431878e+03
1.940000e-06	5.879672e-06	2.179121e-08	4.230763e+01	1.426952e+03
1.950000e-06	5.810117e-06	2.171996e-08	4.180714e+01	1.421834e+03
1.960000e-06	5.738212e-06	2.165810e-08	4.128975e+01	1.416499e+03
1.970000e-06	5.664092e-06	2.152034e-08	4.075641e+01	1.410921e+03
1.980000e-06	5.587790e-06	2.146272e-08	4.020737e+01	1.405073e+03
1.990000e-06	5.509201e-06	2.135187e-08	3.964188e+01	1.398937e+03
2.000000e-06	5.428554e-06	2.126494e-08	3.906158e+01	1.392503e+03
2.010000e-06	5.346107e-06	2.117376e-08	3.846832e+01	1.385767e+03
2.020000e-06	5.261826e-06	2.105275e-08	3.786188e+01	1.378731e+03
2.030000e-06	5.175499e-06	2.095252e-08	3.724070e+01	1.371400e+03
2.040000e-06	5.087191e-06	2.080755e-08	3.660527e+01	1.363769e+03
2.050000e-06	4.997171e-06	2.069837e-08	3.595753e+01	1.355831e+03
2.060000e-06	4.905568e-06	2.056998e-08	3.529839e+01	1.347569e+03
2.070000e-06	4.812272e-06	2.045355e-08	3.462707e+01	1.338959e+03
2.080000e-06	4.717235e-06	2.031751e-08	3.394323e+01	1.329979e+03
2.090000e-06	4.620518e-06	2.017272e-08	3.324730e+01	1.320606e+03
2.100000e-06	4.522274e-06	2.003305e-08	3.254037e+01	1.310822e+03
2.110000e-06	4.422609e-06	1.987665e-08	3.182322e+01	1.300619e+03
2.120000e-06	4.321276e-06	1.972008e-08	3.109407e+01	1.289991e+03
2.130000e-06	4.218242e-06	1.953864e-08	3.035268e+01	1.278931e+03
2.140000e-06	4.113682e-06	1.936133e-08	2.960031e+01	1.267430e+03
2.150000e-06	4.007632e-06	1.917222e-08	2.883722e+01	1.255469e+03
2.160000e-06	3.900218e-06	1.898610e-08	2.806432e+01	1.243015e+03
2.170000e-06	3.791377e-06	1.879200e-08	2.728114e+01	1.230026e+03
2.180000e-06	3.681140e-06	1.859484e-08	2.648793e+01	1.216451e+03
2.190000e-06	3.569485e-06	1.838435e-08	2.568451e+01	1.202237e+03
2.200000e-06	3.456395e-06	1.815952e-08	2.487076e+01	1.187333e+03
2.210000e-06	3.341980e-06	1.792327e-08	2.404747e+01	1.171700e+03
2.220000e-06	3.226188e-06	1.767413e-08	2.321428e+01	1.155304e+03
2.230000e-06	3.108995e-06	1.741591e-08	2.237101e+01	1.138122e+03
2.240000e-06	2.990532e-06	1.713553e-08	2.151861e+01	1.120127e+03
2.250000e-06	2.870930e-06	1.684307e-08	2.065800e+01	1.101290e+03
2.260000e-06	2.750177e-06	1.653610e-08	1.978911e+01	1.081563e+03
2.270000e-06	2.628466e-06	1.622312e-08	1.891333e+01	1.060883e+03
2.280000e-06	2.505934e-06	1.589759e-08	1.803164e+01	1.039163e+03
2.290000e-06	2.382529e-06	1.555638e-08	1.714367e+01	1.016301e+03
2.300000e-06	2.258203e-06	1.519461e-08	1.624907e+01	9.921832e+02
2.310000e-06	2.133054e-06	1.480895e-08	1.534855e+01	9.666913e+02
2.320000e-06	2.007179e-06	1.439932e-08	1.444281e+01	9.397105e+02
2.330000e-06	1.880623e-06	1.396634e-08	1.353217e+01	9.111309e+02
2.340000e-06	1.753358e-06	1.350775e-08	1.261642e+01	8.808469e+02
2.350000e-06	1.625436e-06	1.301790e-08	1.169595e+01	8.487539e+02
2.360000e-06	1.496959e-06	1.249298e-08	1.077148e+01	8.147440e+02
2.370000e-06	1.367952e-06	1.193497e-08	9.843204e+00	7.787057e+02
2.380000e-06	1.238523e-06	1.134803e-08	8.911886e+00	7.405293e+02
2.390000e-06	1.108762e-06	1.073399e-08	7.978186e+00	7.001195e+02
2.400000e-06	9.787360e-07	1.009037e-08	7.042570e+00	6.574169e+02
2.410000e-06	8.484852e-07	9.410842e-09	6.105340e+00	6.124218e+02
2.420000e-06	7.179806e-07	8.692214e-09	5.166284e+00	5.652177e+02
2.430000e-06	5.871965e-07	7.937136e-09	4.225217e+00	5.159858e+02
2.440000e-06	4.562445e-07	7.153445e-09	3.282942e+00	4.650061e+02
2.450000e-06	3.251137e-07	6.349866e-09	2.339381e+00	4.126392e+02
2.460000e-06	1.938029e-07	5.533323e-09	1.394524e+00	3.592909e+02
2.470000e-06	6.239783e-08	4.709650e-09	4.489884e-01	3.053613e+02
2.480000e-06	-6.906134e-08	3.883964e-09	-4.969361e-01	2.511894e+02
2.490000e-06	-2.004858e-07	3.057007e-09	-1.442611e+00	1.970009e+02
2.500000e-06	-3.318239e-07	2.230136e-09	-2.387664e+00	1.428735e+02
2.510000e-06	-4.630615e-07	1.399814e-09	-3.331995e+00	8.872561e+01
2.520000e-06	-5.941474e-07	5.641436e-10	-4.275233e+00	3.433619e+01
2.530000e-06	-7.250457e-07	-2.812567e-10	-5.217122e+00	-2.060820e+01
2.540000e-06	-8.557456e-07	-1.139092e-09	-6.157583e+00	-7.644393e+01
2.550000e-06	-9.861890e-07	-2.010459e-09	-7.096198e+00	-1.334516e+02
2.560000e-06	-1.116308e-06	-2.900197e-09	-8.032479e+00	-1.917815e+02
2.570000e-06	-1.246136e-06	-3.807623e-09	-8.966666e+00	-2.513987e+02
2.580000e-06	-1.375616e-06	-4.728974e-09	-9.898353e+00	-3.120558e+02
2.590000e-06	-1.504584e-06	-5.660630e-09	-1.082635e+01	-3.733019e+02
2.600000e-06	-1.633021e-06	-6.596278e-09	-1.175053e+01	-4.345230e+02
2.610000e-06	-1.760890e-06	-7.523889e-09	-1.267062e+01	-4.950095e+02
2.620000e-06	-1.888105e-06	-8.430699e-09	-1.358601e+01	-5.540356e+02
2.630000e-06	-2.014547e-06	-9.306244e-09	-1.449582e+01	-6.109385e+02
2.640000e-06	-2.140145e-06	-1.014214e-08	-1.539957e+01	-6.651834e+02
2.650000e-06	-2.264954e-06	-1.092929e-08	-1.629765e+01	-7.164048e+02
2.660000e-06	-2.388861e-06	-1.166341e-08	-1.718924e+01	-7.644199e+02
2.670000e-06	-2.511761e-06	-1.234621e-08	-1.807357e+01	-8.092143e+02
2.680000e-06	-2.633690e-06	-1.298149e-08	-1.895092e+01	-8.509076e+02
2.690000e-06	-2.754681e-06	-1.357503e-08	-1.982152e+01	-8.897077e+02
2.700000e-06	-2.874723e-06	-1.413119e-08	-2.068529e+01	-9.258633e+02
2.710000e-06	-2.993703e-06	-1.465057e-08	-2.154142e+01	-9.596240e+02
2.720000e-06	-3.111473e-06	-1.513447e-08	-2.238884e+01	-9.912138e+02
2.730000e-06	-3.227936e-06	-1.558863e-08	-2.322686e+01	-1.020819e+03
2.740000e-06	-3.343080e-06	-1.601610e-08	-2.405539e+01	-1.048591e+03
2.750000e-06	-3.456891e-06	-1.641649e-08	-2.487432e+01	-1.074653e+03
2.760000e-06	-3.569325e-06	-1.679014e-08	-2.568335e+01	-1.099117e+03
2.770000e-06	-3.680337e-06	-1.713831e-08	-2.648215e+01	-1.122092e+03
2.780000e-06	-3.789956e-06	-1.746459e-08	-2.727092e+01	-1.143691e+03
2.790000e-06	-3.898322e-06	-1.777300e-08	-2.805068e+01	-1.164032e+03
2.800000e-06	-4.005521e-06	-1.806804e-08	-2.882204e+01	-1.183230e+03
2.810000e-06	-4.111387e-06	-1.835021e-08	-2.958380e+01	-1.201392e+03
2.820000e-06	-4.215767e-06	-1.861562e-08	-3.033488e+01	-1.218606e+03
2.830000e-06	-4.318565e-06	-1.886517e-08	-3.107457e+01	-1.234943e+03
2.840000e-06	-4.419704e-06	-1.910278e-08	-3.180232e+01	-1.250454e+03
2.850000e-06	-4.519295e-06	-1.932972e-08	-3.251893e+01	-1.265175e+03
2.860000e-06	-4.617403e-06	-1.954288e-08	-3.322488e+01	-1.279136e+03
2.870000e-06	-4.713943e-06	-1.974375e-08	-3.391954e+01	-1.292368e+03
2.880000e-06	-4.808781e-06	-1.993634e-08	-3.460195e+01	-1.304907e+03
2.890000e-06	-4.901801e-06	-2.011874e-08	-3.527129e+01	-1.316795e+03
2.900000e-06	-4.993104e-06	-2.029191e-08	-3.592826e+01	-1.328081e+03
2.910000e-06	-5.082714e-06	-2.045779e-08	-3.657306e+01	-1.338811e+03
2.920000e-06	-5.170462e-06	-2.061532e-08	-3.720445e+01	-1.349026e+03
2.930000e-06	-5.256201e-06	-2.076406e-08	-3.782140e+01	-1.358754e+03
2.940000e-06	-5.339984e-06	-2.090416e-08	-3.842427e+01	-1.368011e+03
