# Temperatura_=_28.15
# Concentracion g/m^3_=_28200.0
# C_Vs_to_Am_M_A/Vsm_=_65563218390.804596
# pendiente_HvsI_1/m_=_3716.3
# ordenada_HvsI_A/m_=_1297.0
# frecuencia_Hz_=_302274.41839777166

Tiempo_(s)	Campo_(V.s)	Magnetizacion_(V.s)	Campo_(kA/m)	Magnetizacion_(A/m)
0.000000e+00	-6.893115e-06	-1.741754e-08	-4.951724e+01	-1.139247e+03
1.000000e-08	-6.889922e-06	-1.741499e-08	-4.949430e+01	-1.138983e+03
2.000000e-08	-6.884500e-06	-1.740443e-08	-4.945535e+01	-1.138605e+03
3.000000e-08	-6.876950e-06	-1.739559e-08	-4.940111e+01	-1.138099e+03
4.000000e-08	-6.867034e-06	-1.738678e-08	-4.932988e+01	-1.137447e+03
5.000000e-08	-6.854580e-06	-1.737330e-08	-4.924041e+01	-1.136639e+03
6.000000e-08	-6.839530e-06	-1.735308e-08	-4.913230e+01	-1.135670e+03
7.000000e-08	-6.822141e-06	-1.733030e-08	-4.900739e+01	-1.134549e+03
8.000000e-08	-6.802778e-06	-1.731603e-08	-4.886830e+01	-1.133300e+03
9.000000e-08	-6.781235e-06	-1.735257e-08	-4.871354e+01	-1.131959e+03
1.000000e-07	-6.757025e-06	-1.733623e-08	-4.853962e+01	-1.130570e+03
1.100000e-07	-6.729965e-06	-1.727561e-08	-4.834523e+01	-1.129173e+03
1.200000e-07	-6.700378e-06	-1.724863e-08	-4.813269e+01	-1.127798e+03
1.300000e-07	-6.668629e-06	-1.721258e-08	-4.790462e+01	-1.126455e+03
1.400000e-07	-6.634709e-06	-1.711004e-08	-4.766096e+01	-1.125126e+03
1.500000e-07	-6.598934e-06	-1.707627e-08	-4.740397e+01	-1.123770e+03
1.600000e-07	-6.561390e-06	-1.717416e-08	-4.713427e+01	-1.122326e+03
1.700000e-07	-6.521734e-06	-1.708411e-08	-4.684939e+01	-1.120723e+03
1.800000e-07	-6.479845e-06	-1.707857e-08	-4.654848e+01	-1.118890e+03
1.900000e-07	-6.435481e-06	-1.709360e-08	-4.622979e+01	-1.116774e+03
2.000000e-07	-6.388732e-06	-1.693163e-08	-4.589396e+01	-1.114345e+03
2.100000e-07	-6.339506e-06	-1.688414e-08	-4.554034e+01	-1.111602e+03
2.200000e-07	-6.287467e-06	-1.686727e-08	-4.516652e+01	-1.108572e+03
2.300000e-07	-6.232972e-06	-1.686438e-08	-4.477505e+01	-1.105300e+03
2.400000e-07	-6.176172e-06	-1.681518e-08	-4.436702e+01	-1.101841e+03
2.500000e-07	-6.116921e-06	-1.672280e-08	-4.394139e+01	-1.098244e+03
2.600000e-07	-6.055437e-06	-1.669941e-08	-4.349971e+01	-1.094543e+03
2.700000e-07	-5.991774e-06	-1.661838e-08	-4.304238e+01	-1.090752e+03
2.800000e-07	-5.925833e-06	-1.653143e-08	-4.256869e+01	-1.086859e+03
2.900000e-07	-5.857629e-06	-1.650796e-08	-4.207874e+01	-1.082835e+03
3.000000e-07	-5.787227e-06	-1.646165e-08	-4.157300e+01	-1.078641e+03
3.100000e-07	-5.714607e-06	-1.635900e-08	-4.105133e+01	-1.074236e+03
3.200000e-07	-5.639714e-06	-1.625107e-08	-4.051333e+01	-1.069589e+03
3.300000e-07	-5.562487e-06	-1.623135e-08	-3.995856e+01	-1.064684e+03
3.400000e-07	-5.482961e-06	-1.615753e-08	-3.938728e+01	-1.059520e+03
3.500000e-07	-5.401409e-06	-1.605203e-08	-3.880145e+01	-1.054111e+03
3.600000e-07	-5.318080e-06	-1.597902e-08	-3.820285e+01	-1.048473e+03
3.700000e-07	-5.233024e-06	-1.588647e-08	-3.759184e+01	-1.042622e+03
3.800000e-07	-5.146267e-06	-1.578735e-08	-3.696862e+01	-1.036566e+03
3.900000e-07	-5.057663e-06	-1.569185e-08	-3.633213e+01	-1.030296e+03
4.000000e-07	-4.967167e-06	-1.561713e-08	-3.568203e+01	-1.023794e+03
4.100000e-07	-4.874979e-06	-1.549938e-08	-3.501980e+01	-1.017030e+03
4.200000e-07	-4.781232e-06	-1.536630e-08	-3.434636e+01	-1.009971e+03
4.300000e-07	-4.685861e-06	-1.525338e-08	-3.366125e+01	-1.002588e+03
4.400000e-07	-4.588693e-06	-1.514789e-08	-3.296324e+01	-9.948622e+02
4.500000e-07	-4.489836e-06	-1.503233e-08	-3.225309e+01	-9.867837e+02
4.600000e-07	-4.389336e-06	-1.490539e-08	-3.153114e+01	-9.783534e+02
4.700000e-07	-4.287303e-06	-1.477123e-08	-3.079818e+01	-9.695769e+02
4.800000e-07	-4.183825e-06	-1.461197e-08	-3.005484e+01	-9.604582e+02
4.900000e-07	-4.078789e-06	-1.445704e-08	-2.930030e+01	-9.509935e+02
5.000000e-07	-3.972285e-06	-1.431735e-08	-2.853522e+01	-9.411669e+02
5.100000e-07	-3.864262e-06	-1.417612e-08	-2.775923e+01	-9.309496e+02
5.200000e-07	-3.754786e-06	-1.401021e-08	-2.697280e+01	-9.203015e+02
5.300000e-07	-3.644062e-06	-1.383176e-08	-2.617741e+01	-9.091771e+02
5.400000e-07	-3.531978e-06	-1.365022e-08	-2.537225e+01	-8.975313e+02
5.500000e-07	-3.418427e-06	-1.346200e-08	-2.455654e+01	-8.853246e+02
5.600000e-07	-3.303447e-06	-1.327191e-08	-2.373057e+01	-8.725262e+02
5.700000e-07	-3.187054e-06	-1.307265e-08	-2.289445e+01	-8.591137e+02
5.800000e-07	-3.069392e-06	-1.285688e-08	-2.204922e+01	-8.450695e+02
5.900000e-07	-2.950657e-06	-1.262065e-08	-2.119627e+01	-8.303752e+02
6.000000e-07	-2.830842e-06	-1.237961e-08	-2.033558e+01	-8.150056e+02
6.100000e-07	-2.709857e-06	-1.213434e-08	-1.946647e+01	-7.989242e+02
6.200000e-07	-2.587847e-06	-1.188103e-08	-1.859000e+01	-7.820814e+02
6.300000e-07	-2.464954e-06	-1.161348e-08	-1.770719e+01	-7.644153e+02
6.400000e-07	-2.341088e-06	-1.132696e-08	-1.681739e+01	-7.458556e+02
6.500000e-07	-2.216291e-06	-1.102329e-08	-1.592090e+01	-7.263289e+02
6.600000e-07	-2.090812e-06	-1.070797e-08	-1.501951e+01	-7.057631e+02
6.700000e-07	-1.964834e-06	-1.038027e-08	-1.411454e+01	-6.840901e+02
6.800000e-07	-1.838254e-06	-1.003018e-08	-1.320524e+01	-6.612462e+02
6.900000e-07	-1.710949e-06	-9.660818e-09	-1.229074e+01	-6.371697e+02
7.000000e-07	-1.582986e-06	-9.272899e-09	-1.137151e+01	-6.117990e+02
7.100000e-07	-1.454406e-06	-8.865773e-09	-1.044784e+01	-5.850710e+02
7.200000e-07	-1.325296e-06	-8.433550e-09	-9.520366e+00	-5.569234e+02
7.300000e-07	-1.195754e-06	-7.980769e-09	-8.589795e+00	-5.273023e+02
7.400000e-07	-1.065853e-06	-7.509035e-09	-7.656639e+00	-4.961730e+02
7.500000e-07	-9.356629e-07	-7.011579e-09	-6.721409e+00	-4.635359e+02
7.600000e-07	-8.051548e-07	-6.491378e-09	-5.783893e+00	-4.294404e+02
7.700000e-07	-6.743621e-07	-5.953025e-09	-4.844334e+00	-3.939952e+02
7.800000e-07	-5.433874e-07	-5.399541e-09	-3.903466e+00	-3.573712e+02
7.900000e-07	-4.122420e-07	-4.829328e-09	-2.961373e+00	-3.197929e+02
8.000000e-07	-2.809351e-07	-4.247834e-09	-2.018120e+00	-2.815190e+02
8.100000e-07	-1.495398e-07	-3.660107e-09	-1.074231e+00	-2.428134e+02
8.200000e-07	-1.807192e-08	-3.067687e-09	-1.298211e-01	-2.039117e+02
8.300000e-07	1.134078e-07	-2.473784e-09	8.146735e-01	-1.649882e+02
8.400000e-07	2.448782e-07	-1.884044e-09	1.759102e+00	-1.261306e+02
8.500000e-07	3.763238e-07	-1.295965e-09	2.703352e+00	-8.732794e+01
8.600000e-07	5.076822e-07	-7.056294e-10	3.646975e+00	-4.847494e+01
8.700000e-07	6.389177e-07	-1.131192e-10	4.589716e+00	-9.393422e+00
8.800000e-07	7.699466e-07	4.840543e-10	5.530972e+00	3.013201e+01
8.900000e-07	9.007446e-07	1.093719e-09	6.470570e+00	7.030970e+01
9.000000e-07	1.031307e-06	1.718998e-09	7.408479e+00	1.112954e+02
9.100000e-07	1.161533e-06	2.355814e-09	8.343965e+00	1.531536e+02
9.200000e-07	1.291362e-06	3.004581e-09	9.276598e+00	1.958312e+02
9.300000e-07	1.420722e-06	3.663025e-09	1.020587e+01	2.391500e+02
9.400000e-07	1.549490e-06	4.326463e-09	1.113089e+01	2.828163e+02
9.500000e-07	1.677597e-06	4.986392e-09	1.205115e+01	3.264480e+02
9.600000e-07	1.805052e-06	5.637862e-09	1.296673e+01	3.696127e+02
9.700000e-07	1.931829e-06	6.278801e-09	1.387744e+01	4.118715e+02
9.800000e-07	2.057920e-06	6.902807e-09	1.478323e+01	4.528204e+02
9.900000e-07	2.183349e-06	7.503629e-09	1.568426e+01	4.921250e+02
1.000000e-06	2.308017e-06	8.074749e-09	1.657983e+01	5.295424e+02
1.010000e-06	2.431851e-06	8.612567e-09	1.746939e+01	5.649300e+02
1.020000e-06	2.554804e-06	9.116774e-09	1.835264e+01	5.982411e+02
1.030000e-06	2.676838e-06	9.590958e-09	1.922927e+01	6.295103e+02
1.040000e-06	2.797822e-06	1.003551e-08	2.009837e+01	6.588323e+02
1.050000e-06	2.917667e-06	1.045196e-08	2.095929e+01	6.863383e+02
1.060000e-06	3.036418e-06	1.084396e-08	2.181235e+01	7.121747e+02
1.070000e-06	3.154103e-06	1.121688e-08	2.265775e+01	7.364851e+02
1.080000e-06	3.270613e-06	1.156938e-08	2.349471e+01	7.593989e+02
1.090000e-06	3.385813e-06	1.190091e-08	2.432225e+01	7.810259e+02
1.100000e-06	3.499605e-06	1.221372e-08	2.513969e+01	8.014561e+02
1.110000e-06	3.611979e-06	1.250901e-08	2.594694e+01	8.207631e+02
1.120000e-06	3.723041e-06	1.278591e-08	2.674476e+01	8.390094e+02
1.130000e-06	3.832857e-06	1.304393e-08	2.753363e+01	8.562522e+02
1.140000e-06	3.941468e-06	1.328942e-08	2.831385e+01	8.725478e+02
1.150000e-06	4.048800e-06	1.352322e-08	2.908488e+01	8.879545e+02
1.160000e-06	4.154689e-06	1.374513e-08	2.984554e+01	9.025337e+02
1.170000e-06	4.258984e-06	1.395544e-08	3.059475e+01	9.163480e+02
1.180000e-06	4.361652e-06	1.415402e-08	3.133227e+01	9.294591e+02
1.190000e-06	4.462818e-06	1.434262e-08	3.205901e+01	9.419248e+02
1.200000e-06	4.562489e-06	1.452225e-08	3.277500e+01	9.537953e+02
1.210000e-06	4.660471e-06	1.469165e-08	3.347886e+01	9.651108e+02
1.220000e-06	4.756606e-06	1.485393e-08	3.416946e+01	9.759010e+02
1.230000e-06	4.850960e-06	1.500978e-08	3.484726e+01	9.861847e+02
1.240000e-06	4.943743e-06	1.516040e-08	3.551377e+01	9.959721e+02
1.250000e-06	5.034846e-06	1.530391e-08	3.616821e+01	1.005268e+03
1.260000e-06	5.124021e-06	1.544065e-08	3.680881e+01	1.014075e+03
1.270000e-06	5.211290e-06	1.557016e-08	3.743572e+01	1.022400e+03
1.280000e-06	5.296752e-06	1.568983e-08	3.804964e+01	1.030253e+03
1.290000e-06	5.380428e-06	1.579960e-08	3.865073e+01	1.037652e+03
1.300000e-06	5.462169e-06	1.590213e-08	3.923793e+01	1.044624e+03
1.310000e-06	5.541834e-06	1.600105e-08	3.981021e+01	1.051200e+03
1.320000e-06	5.619481e-06	1.609650e-08	4.036798e+01	1.057418e+03
1.330000e-06	5.695000e-06	1.618798e-08	4.091049e+01	1.063312e+03
1.340000e-06	5.768204e-06	1.627342e-08	4.143635e+01	1.068916e+03
1.350000e-06	5.839277e-06	1.635394e-08	4.194691e+01	1.074257e+03
1.360000e-06	5.908341e-06	1.643169e-08	4.244303e+01	1.079356e+03
1.370000e-06	5.975238e-06	1.650563e-08	4.292359e+01	1.084225e+03
1.380000e-06	6.039869e-06	1.657523e-08	4.338788e+01	1.088873e+03
1.390000e-06	6.102374e-06	1.664152e-08	4.383689e+01	1.093302e+03
1.400000e-06	6.162947e-06	1.670579e-08	4.427202e+01	1.097514e+03
1.410000e-06	6.221387e-06	1.676692e-08	4.469183e+01	1.101511e+03
1.420000e-06	6.277527e-06	1.682312e-08	4.509511e+01	1.105294e+03
1.430000e-06	6.331430e-06	1.687635e-08	4.548233e+01	1.108866e+03
1.440000e-06	6.382824e-06	1.692699e-08	4.585152e+01	1.112228e+03
1.450000e-06	6.431530e-06	1.697526e-08	4.620140e+01	1.115382e+03
1.460000e-06	6.477807e-06	1.702053e-08	4.653384e+01	1.118328e+03
1.470000e-06	6.521963e-06	1.706254e-08	4.685104e+01	1.121068e+03
1.480000e-06	6.563870e-06	1.710080e-08	4.715208e+01	1.123600e+03
1.490000e-06	6.603326e-06	1.713517e-08	4.743551e+01	1.125924e+03
1.500000e-06	6.640505e-06	1.716597e-08	4.770260e+01	1.128044e+03
1.510000e-06	6.675424e-06	1.719271e-08	4.795343e+01	1.129966e+03
1.520000e-06	6.707892e-06	1.721825e-08	4.818667e+01	1.131696e+03
1.530000e-06	6.737967e-06	1.724218e-08	4.840272e+01	1.133246e+03
1.540000e-06	6.765809e-06	1.726201e-08	4.860273e+01	1.134627e+03
1.550000e-06	6.791168e-06	1.727914e-08	4.878489e+01	1.135849e+03
1.560000e-06	6.813855e-06	1.729501e-08	4.894787e+01	1.136919e+03
1.570000e-06	6.834198e-06	1.730842e-08	4.909400e+01	1.137843e+03
1.580000e-06	6.852230e-06	1.731895e-08	4.922353e+01	1.138622e+03
1.590000e-06	6.867656e-06	1.732813e-08	4.933435e+01	1.139258e+03
1.600000e-06	6.880529e-06	1.733659e-08	4.942682e+01	1.139753e+03
1.610000e-06	6.890692e-06	1.734363e-08	4.949983e+01	1.140111e+03
1.620000e-06	6.898092e-06	1.734838e-08	4.955299e+01	1.140337e+03
1.630000e-06	6.903095e-06	1.735140e-08	4.958893e+01	1.140443e+03
1.640000e-06	6.905718e-06	1.735374e-08	4.960777e+01	1.140436e+03
1.650000e-06	6.905875e-06	1.735467e-08	4.960890e+01	1.140323e+03
1.660000e-06	6.903726e-06	1.734664e-08	4.959346e+01	1.140105e+03
1.670000e-06	6.899396e-06	1.734083e-08	4.956235e+01	1.139778e+03
1.680000e-06	6.892673e-06	1.733663e-08	4.951406e+01	1.139328e+03
1.690000e-06	6.883586e-06	1.732842e-08	4.944879e+01	1.138740e+03
1.700000e-06	6.872296e-06	1.731856e-08	4.936768e+01	1.138000e+03
1.710000e-06	6.858547e-06	1.731110e-08	4.926892e+01	1.137100e+03
1.720000e-06	6.842401e-06	1.730994e-08	4.915292e+01	1.136042e+03
1.730000e-06	6.824253e-06	1.727995e-08	4.902256e+01	1.134844e+03
1.740000e-06	6.803939e-06	1.719476e-08	4.887663e+01	1.133537e+03
1.750000e-06	6.780605e-06	1.719324e-08	4.870901e+01	1.132163e+03
1.760000e-06	6.753999e-06	1.720047e-08	4.851789e+01	1.130765e+03
1.770000e-06	6.724673e-06	1.715284e-08	4.830722e+01	1.129378e+03
1.780000e-06	6.693135e-06	1.718315e-08	4.808066e+01	1.128021e+03
1.790000e-06	6.659899e-06	1.724326e-08	4.784191e+01	1.126689e+03
1.800000e-06	6.625288e-06	1.713162e-08	4.759328e+01	1.125351e+03
1.810000e-06	6.588632e-06	1.714214e-08	4.732996e+01	1.123954e+03
1.820000e-06	6.549393e-06	1.714271e-08	4.704808e+01	1.122427e+03
1.830000e-06	6.507941e-06	1.701386e-08	4.675031e+01	1.120700e+03
1.840000e-06	6.464224e-06	1.710375e-08	4.643626e+01	1.118711e+03
1.850000e-06	6.418245e-06	1.707130e-08	4.610597e+01	1.116418e+03
1.860000e-06	6.370018e-06	1.705850e-08	4.575953e+01	1.113808e+03
1.870000e-06	6.319331e-06	1.700549e-08	4.539541e+01	1.110896e+03
1.880000e-06	6.266203e-06	1.682412e-08	4.501376e+01	1.107721e+03
1.890000e-06	6.210437e-06	1.685194e-08	4.461317e+01	1.104335e+03
1.900000e-06	6.152188e-06	1.677334e-08	4.419473e+01	1.100792e+03
1.910000e-06	6.091721e-06	1.675031e-08	4.376036e+01	1.097132e+03
1.920000e-06	6.028835e-06	1.677029e-08	4.330861e+01	1.093380e+03
1.930000e-06	5.963731e-06	1.662081e-08	4.284094e+01	1.089533e+03
1.940000e-06	5.896563e-06	1.657455e-08	4.235843e+01	1.085570e+03
1.950000e-06	5.827089e-06	1.648904e-08	4.185936e+01	1.081453e+03
1.960000e-06	5.755224e-06	1.646616e-08	4.134311e+01	1.077143e+03
1.970000e-06	5.681163e-06	1.638513e-08	4.081108e+01	1.072602e+03
1.980000e-06	5.604939e-06	1.628477e-08	4.026353e+01	1.067809e+03
1.990000e-06	5.526387e-06	1.625017e-08	3.969924e+01	1.062755e+03
2.000000e-06	5.445790e-06	1.611582e-08	3.912026e+01	1.057449e+03
2.010000e-06	5.363409e-06	1.606562e-08	3.852847e+01	1.051906e+03
2.020000e-06	5.279163e-06	1.599417e-08	3.792329e+01	1.046145e+03
2.030000e-06	5.192930e-06	1.590528e-08	3.730382e+01	1.040177e+03
2.040000e-06	5.104737e-06	1.578015e-08	3.667028e+01	1.034000e+03
2.050000e-06	5.014807e-06	1.565984e-08	3.602426e+01	1.027601e+03
2.060000e-06	4.923239e-06	1.560178e-08	3.536648e+01	1.020953e+03
2.070000e-06	4.829932e-06	1.549437e-08	3.469620e+01	1.014024e+03
2.080000e-06	4.734812e-06	1.539157e-08	3.401290e+01	1.006783e+03
2.090000e-06	4.638000e-06	1.525907e-08	3.331744e+01	9.992057e+02
2.100000e-06	4.539678e-06	1.513473e-08	3.261113e+01	9.912785e+02
2.110000e-06	4.439871e-06	1.500402e-08	3.189416e+01	9.829983e+02
2.120000e-06	4.338445e-06	1.488728e-08	3.116556e+01	9.743693e+02
2.130000e-06	4.235352e-06	1.477743e-08	3.042499e+01	9.653969e+02
2.140000e-06	4.130689e-06	1.462942e-08	2.967313e+01	9.560815e+02
2.150000e-06	4.024600e-06	1.446904e-08	2.891103e+01	9.464127e+02
2.160000e-06	3.917225e-06	1.429914e-08	2.813969e+01	9.363671e+02
2.170000e-06	3.808423e-06	1.414453e-08	2.735811e+01	9.259088e+02
2.180000e-06	3.698189e-06	1.398693e-08	2.656623e+01	9.149941e+02
2.190000e-06	3.586528e-06	1.382797e-08	2.576410e+01	9.035769e+02
2.200000e-06	3.473420e-06	1.364320e-08	2.495159e+01	8.916148e+02
2.210000e-06	3.358971e-06	1.343833e-08	2.412943e+01	8.790730e+02
2.220000e-06	3.243071e-06	1.322991e-08	2.329685e+01	8.659259e+02
2.230000e-06	3.125729e-06	1.303161e-08	2.245392e+01	8.521543e+02
2.240000e-06	3.007172e-06	1.282668e-08	2.160226e+01	8.377410e+02
2.250000e-06	2.887517e-06	1.260178e-08	2.074271e+01	8.226644e+02
2.260000e-06	2.766676e-06	1.236076e-08	1.987464e+01	8.068932e+02
2.270000e-06	2.644781e-06	1.210109e-08	1.899899e+01	7.903836e+02
2.280000e-06	2.522045e-06	1.183241e-08	1.811731e+01	7.730783e+02
2.290000e-06	2.398480e-06	1.155634e-08	1.722967e+01	7.549104e+02
2.300000e-06	2.274039e-06	1.127357e-08	1.633574e+01	7.358070e+02
2.310000e-06	2.148662e-06	1.097187e-08	1.543508e+01	7.156950e+02
2.320000e-06	2.022482e-06	1.064985e-08	1.452866e+01	6.945044e+02
2.330000e-06	1.895667e-06	1.030839e-08	1.361767e+01	6.721698e+02
2.340000e-06	1.768198e-06	9.951483e-09	1.270199e+01	6.486288e+02
2.350000e-06	1.640133e-06	9.575808e-09	1.178203e+01	6.238203e+02
2.360000e-06	1.511502e-06	9.178523e-09	1.085799e+01	5.976816e+02
2.370000e-06	1.382345e-06	8.756131e-09	9.930184e+00	5.701497e+02
2.380000e-06	1.252803e-06	8.308070e-09	8.999610e+00	5.411656e+02
2.390000e-06	1.122933e-06	7.843834e-09	8.066678e+00	5.106849e+02
2.400000e-06	9.927665e-07	7.360458e-09	7.131617e+00	4.786910e+02
2.410000e-06	8.623127e-07	6.852795e-09	6.194492e+00	4.452106e+02
2.420000e-06	7.316385e-07	6.318486e-09	5.255783e+00	4.103263e+02
2.430000e-06	6.007331e-07	5.761589e-09	4.315414e+00	3.741827e+02
2.440000e-06	4.695813e-07	5.189087e-09	3.373274e+00	3.369830e+02
2.450000e-06	3.382877e-07	4.605570e-09	2.430116e+00	2.989743e+02
2.460000e-06	2.068577e-07	4.017441e-09	1.485979e+00	2.604223e+02
2.470000e-06	7.530834e-08	3.424961e-09	5.409834e-01	2.215789e+02
2.480000e-06	-5.629484e-08	2.827389e-09	-4.043984e-01	1.826484e+02
2.490000e-06	-1.879113e-07	2.228650e-09	-1.349876e+00	1.437579e+02
2.500000e-06	-3.194848e-07	1.634964e-09	-2.295045e+00	1.049393e+02
2.510000e-06	-4.509533e-07	1.044748e-09	-3.239459e+00	6.612593e+01
2.520000e-06	-5.823009e-07	4.505224e-10	-4.183004e+00	2.716737e+01
2.530000e-06	-7.134628e-07	-1.530054e-10	-5.125217e+00	-1.214097e+01
2.540000e-06	-8.443740e-07	-7.678963e-10	-6.065627e+00	-5.201612e+01
2.550000e-06	-9.750262e-07	-1.394448e-09	-7.004178e+00	-9.264172e+01
2.560000e-06	-1.105388e-06	-2.029999e-09	-7.940645e+00	-1.341254e+02
2.570000e-06	-1.235397e-06	-2.674788e-09	-8.874568e+00	-1.764665e+02
2.580000e-06	-1.365013e-06	-3.331822e-09	-9.805675e+00	-2.195403e+02
2.590000e-06	-1.494204e-06	-3.998520e-09	-1.073373e+01	-2.631003e+02
2.600000e-06	-1.622898e-06	-4.668872e-09	-1.165822e+01	-3.067979e+02
2.610000e-06	-1.751011e-06	-5.334861e-09	-1.257853e+01	-3.502173e+02
2.620000e-06	-1.878415e-06	-5.990022e-09	-1.349374e+01	-3.929168e+02
2.630000e-06	-2.005097e-06	-6.627327e-09	-1.440377e+01	-4.344729e+02
2.640000e-06	-2.131051e-06	-7.241905e-09	-1.530858e+01	-4.745178e+02
2.650000e-06	-2.256135e-06	-7.829124e-09	-1.620712e+01	-5.127675e+02
2.660000e-06	-2.380301e-06	-8.385452e-09	-1.709908e+01	-5.490362e+02
2.670000e-06	-2.503513e-06	-8.907927e-09	-1.798418e+01	-5.832375e+02
2.680000e-06	-2.625770e-06	-9.395698e-09	-1.886242e+01	-6.153733e+02
2.690000e-06	-2.747112e-06	-9.854521e-09	-1.973410e+01	-6.455154e+02
2.700000e-06	-2.867431e-06	-1.028686e-08	-2.059842e+01	-6.737824e+02
2.710000e-06	-2.986669e-06	-1.069313e-08	-2.145498e+01	-7.003164e+02
2.720000e-06	-3.104752e-06	-1.107577e-08	-2.230323e+01	-7.252641e+02
2.730000e-06	-3.221584e-06	-1.143661e-08	-2.314250e+01	-7.487619e+02
2.740000e-06	-3.337105e-06	-1.177620e-08	-2.397235e+01	-7.709284e+02
2.750000e-06	-3.451205e-06	-1.209551e-08	-2.479200e+01	-7.918618e+02
2.760000e-06	-3.563889e-06	-1.239678e-08	-2.560148e+01	-8.116422e+02
2.770000e-06	-3.675148e-06	-1.268071e-08	-2.640072e+01	-8.303360e+02
2.780000e-06	-3.785068e-06	-1.294715e-08	-2.719033e+01	-8.480021e+02
2.790000e-06	-3.893763e-06	-1.319955e-08	-2.797116e+01	-8.646968e+02
2.800000e-06	-4.001245e-06	-1.344128e-08	-2.874326e+01	-8.804773e+02
2.810000e-06	-4.107453e-06	-1.367216e-08	-2.950622e+01	-8.954037e+02
2.820000e-06	-4.212228e-06	-1.389236e-08	-3.025887e+01	-9.095382e+02
2.830000e-06	-4.315425e-06	-1.410291e-08	-3.100019e+01	-9.229435e+02
2.840000e-06	-4.416929e-06	-1.430247e-08	-3.172936e+01	-9.356793e+02
2.850000e-06	-4.516805e-06	-1.448994e-08	-3.244682e+01	-9.477994e+02
2.860000e-06	-4.615172e-06	-1.466588e-08	-3.315345e+01	-9.593487e+02
2.870000e-06	-4.711999e-06	-1.483208e-08	-3.384902e+01	-9.703613e+02
2.880000e-06	-4.807166e-06	-1.499015e-08	-3.453265e+01	-9.808605e+02
2.890000e-06	-4.900572e-06	-1.513952e-08	-3.520365e+01	-9.908599e+02
2.900000e-06	-4.992213e-06	-1.528133e-08	-3.586196e+01	-1.000366e+03
2.910000e-06	-5.082159e-06	-1.541860e-08	-3.650809e+01	-1.009383e+03
2.920000e-06	-5.170235e-06	-1.555134e-08	-3.714079e+01	-1.017913e+03
2.930000e-06	-5.256266e-06	-1.567749e-08	-3.775880e+01	-1.025967e+03
2.940000e-06	-5.340322e-06	-1.579665e-08	-3.836262e+01	-1.033557e+03
