# Temperatura_=_69.55
# Concentracion g/m^3_=_28200.0
# C_Vs_to_Am_M_A/Vsm_=_65563218390.804596
# pendiente_HvsI_1/m_=_3716.3
# ordenada_HvsI_A/m_=_1297.0
# frecuencia_Hz_=_302287.546332354

Tiempo_(s)	Campo_(V.s)	Magnetizacion_(V.s)	Campo_(kA/m)	Magnetizacion_(A/m)
0.000000e+00	-6.913832e-06	-2.471161e-08	-4.951568e+01	-1.617741e+03
1.000000e-08	-6.910900e-06	-2.470156e-08	-4.949468e+01	-1.617306e+03
2.000000e-08	-6.905625e-06	-2.469217e-08	-4.945690e+01	-1.616694e+03
3.000000e-08	-6.898229e-06	-2.468090e-08	-4.940393e+01	-1.615905e+03
4.000000e-08	-6.888524e-06	-2.466578e-08	-4.933443e+01	-1.614941e+03
5.000000e-08	-6.876297e-06	-2.464891e-08	-4.924686e+01	-1.613805e+03
6.000000e-08	-6.861510e-06	-2.463096e-08	-4.914095e+01	-1.612499e+03
7.000000e-08	-6.844328e-06	-2.461163e-08	-4.901790e+01	-1.611029e+03
8.000000e-08	-6.825042e-06	-2.460718e-08	-4.887978e+01	-1.609406e+03
9.000000e-08	-6.803537e-06	-2.457850e-08	-4.872577e+01	-1.607642e+03
1.000000e-07	-6.779395e-06	-2.453513e-08	-4.855286e+01	-1.605756e+03
1.100000e-07	-6.752472e-06	-2.450983e-08	-4.836005e+01	-1.603767e+03
1.200000e-07	-6.723024e-06	-2.446971e-08	-4.814914e+01	-1.601696e+03
1.300000e-07	-6.691334e-06	-2.440701e-08	-4.792219e+01	-1.599554e+03
1.400000e-07	-6.657513e-06	-2.436170e-08	-4.767997e+01	-1.597342e+03
1.500000e-07	-6.621790e-06	-2.436422e-08	-4.742412e+01	-1.595046e+03
1.600000e-07	-6.584249e-06	-2.427743e-08	-4.715526e+01	-1.592634e+03
1.700000e-07	-6.544624e-06	-2.422342e-08	-4.687148e+01	-1.590061e+03
1.800000e-07	-6.502765e-06	-2.421935e-08	-4.657168e+01	-1.587274e+03
1.900000e-07	-6.458455e-06	-2.412805e-08	-4.625435e+01	-1.584220e+03
2.000000e-07	-6.411649e-06	-2.410560e-08	-4.591913e+01	-1.580857e+03
2.100000e-07	-6.362378e-06	-2.405617e-08	-4.556626e+01	-1.577160e+03
2.200000e-07	-6.310440e-06	-2.397536e-08	-4.519429e+01	-1.573125e+03
2.300000e-07	-6.255957e-06	-2.392991e-08	-4.480409e+01	-1.568770e+03
2.400000e-07	-6.199116e-06	-2.383446e-08	-4.439701e+01	-1.564129e+03
2.500000e-07	-6.139889e-06	-2.376162e-08	-4.397283e+01	-1.559242e+03
2.600000e-07	-6.078424e-06	-2.369072e-08	-4.353263e+01	-1.554146e+03
2.700000e-07	-6.014789e-06	-2.361946e-08	-4.307689e+01	-1.548864e+03
2.800000e-07	-5.948863e-06	-2.352864e-08	-4.260473e+01	-1.543401e+03
2.900000e-07	-5.880636e-06	-2.342257e-08	-4.211611e+01	-1.537746e+03
3.000000e-07	-5.810240e-06	-2.334823e-08	-4.161194e+01	-1.531868e+03
3.100000e-07	-5.737681e-06	-2.324348e-08	-4.109229e+01	-1.525732e+03
3.200000e-07	-5.662827e-06	-2.315165e-08	-4.055619e+01	-1.519303e+03
3.300000e-07	-5.585581e-06	-2.305504e-08	-4.000297e+01	-1.512557e+03
3.400000e-07	-5.506010e-06	-2.294880e-08	-3.943310e+01	-1.505481e+03
3.500000e-07	-5.424423e-06	-2.283419e-08	-3.884879e+01	-1.498077e+03
3.600000e-07	-5.341046e-06	-2.270595e-08	-3.825166e+01	-1.490354e+03
3.700000e-07	-5.255933e-06	-2.259243e-08	-3.764209e+01	-1.482325e+03
3.800000e-07	-5.169087e-06	-2.246770e-08	-3.702011e+01	-1.473995e+03
3.900000e-07	-5.080451e-06	-2.233812e-08	-3.638532e+01	-1.465358e+03
4.000000e-07	-4.989951e-06	-2.219475e-08	-3.573718e+01	-1.456395e+03
4.100000e-07	-4.897665e-06	-2.204531e-08	-3.507624e+01	-1.447077e+03
4.200000e-07	-4.803718e-06	-2.189240e-08	-3.440340e+01	-1.437367e+03
4.300000e-07	-4.708160e-06	-2.173595e-08	-3.371903e+01	-1.427233e+03
4.400000e-07	-4.610928e-06	-2.157653e-08	-3.302268e+01	-1.416649e+03
4.500000e-07	-4.511929e-06	-2.140933e-08	-3.231366e+01	-1.405605e+03
4.600000e-07	-4.411299e-06	-2.123700e-08	-3.159297e+01	-1.394100e+03
4.700000e-07	-4.309146e-06	-2.105444e-08	-3.086136e+01	-1.382137e+03
4.800000e-07	-4.205477e-06	-2.086297e-08	-3.011891e+01	-1.369722e+03
4.900000e-07	-4.100280e-06	-2.066635e-08	-2.936550e+01	-1.356847e+03
5.000000e-07	-3.993534e-06	-2.046288e-08	-2.860100e+01	-1.343490e+03
5.100000e-07	-3.885252e-06	-2.024730e-08	-2.782551e+01	-1.329611e+03
5.200000e-07	-3.775587e-06	-2.002218e-08	-2.704011e+01	-1.315154e+03
5.300000e-07	-3.664684e-06	-1.978876e-08	-2.624584e+01	-1.300059e+03
5.400000e-07	-3.552476e-06	-1.954641e-08	-2.544222e+01	-1.284267e+03
5.500000e-07	-3.438770e-06	-1.929124e-08	-2.462788e+01	-1.267728e+03
5.600000e-07	-3.323465e-06	-1.902601e-08	-2.380208e+01	-1.250409e+03
5.700000e-07	-3.206720e-06	-1.875002e-08	-2.296598e+01	-1.232289e+03
5.800000e-07	-3.088749e-06	-1.846115e-08	-2.212109e+01	-1.213355e+03
5.900000e-07	-2.969726e-06	-1.816125e-08	-2.126867e+01	-1.193590e+03
6.000000e-07	-2.849691e-06	-1.784967e-08	-2.040900e+01	-1.172962e+03
6.100000e-07	-2.728575e-06	-1.752088e-08	-1.954159e+01	-1.151414e+03
6.200000e-07	-2.606334e-06	-1.716953e-08	-1.866612e+01	-1.128864e+03
6.300000e-07	-2.482995e-06	-1.680131e-08	-1.778279e+01	-1.105201e+03
6.400000e-07	-2.358746e-06	-1.641589e-08	-1.689293e+01	-1.080300e+03
6.500000e-07	-2.233731e-06	-1.601238e-08	-1.599760e+01	-1.054028e+03
6.600000e-07	-2.108012e-06	-1.558757e-08	-1.509722e+01	-1.026258e+03
6.700000e-07	-1.981643e-06	-1.514094e-08	-1.419219e+01	-9.968733e+02
6.800000e-07	-1.854618e-06	-1.466775e-08	-1.328246e+01	-9.657677e+02
6.900000e-07	-1.726930e-06	-1.416516e-08	-1.236798e+01	-9.328399e+02
7.000000e-07	-1.598650e-06	-1.363514e-08	-1.144926e+01	-8.979834e+02
7.100000e-07	-1.469854e-06	-1.307321e-08	-1.052684e+01	-8.610782e+02
7.200000e-07	-1.340575e-06	-1.247618e-08	-9.600967e+00	-8.219879e+02
7.300000e-07	-1.210798e-06	-1.183989e-08	-8.671529e+00	-7.805679e+02
7.400000e-07	-1.080524e-06	-1.116674e-08	-7.738526e+00	-7.366854e+02
7.500000e-07	-9.498732e-07	-1.045720e-08	-6.802829e+00	-6.902482e+02
7.600000e-07	-8.188822e-07	-9.710704e-09	-5.864694e+00	-6.412393e+02
7.700000e-07	-6.875515e-07	-8.925868e-09	-4.924126e+00	-5.897460e+02
7.800000e-07	-5.559842e-07	-8.107803e-09	-3.981863e+00	-5.359762e+02
7.900000e-07	-4.242312e-07	-7.262726e-09	-3.038271e+00	-4.802547e+02
8.000000e-07	-2.923172e-07	-6.391491e-09	-2.093526e+00	-4.229942e+02
8.100000e-07	-1.603213e-07	-5.502242e-09	-1.148194e+00	-3.646462e+02
8.200000e-07	-2.825783e-08	-4.600130e-09	-2.023777e-01	-3.056356e+02
8.300000e-07	1.038423e-07	-3.693153e-09	7.437007e-01	-2.462951e+02
8.400000e-07	2.358960e-07	-2.785279e-09	1.689446e+00	-1.868100e+02
8.500000e-07	3.679422e-07	-1.878567e-09	2.635139e+00	-1.271895e+02
8.600000e-07	4.999439e-07	-9.711311e-10	3.580512e+00	-6.727088e+01
8.700000e-07	6.318018e-07	-5.402416e-11	4.524856e+00	-6.760819e+00
8.800000e-07	7.634784e-07	8.779610e-10	5.467901e+00	5.469350e+01
8.900000e-07	8.949126e-07	1.832250e-09	6.409211e+00	1.174145e+02
9.000000e-07	1.026034e-06	2.809780e-09	7.348280e+00	1.816027e+02
9.100000e-07	1.156736e-06	3.809563e-09	8.284346e+00	2.472621e+02
9.200000e-07	1.286916e-06	4.830577e-09	9.216671e+00	3.141568e+02
9.300000e-07	1.416478e-06	5.864855e-09	1.014457e+01	3.818079e+02
9.400000e-07	1.545458e-06	6.899177e-09	1.106830e+01	4.495325e+02
9.500000e-07	1.673959e-06	7.918651e-09	1.198861e+01	5.165174e+02
9.600000e-07	1.801919e-06	8.909945e-09	1.290504e+01	5.819128e+02
9.700000e-07	1.929199e-06	9.862580e-09	1.381659e+01	6.449303e+02
9.800000e-07	2.055720e-06	1.076703e-08	1.472272e+01	7.049269e+02
9.900000e-07	2.181442e-06	1.161967e-08	1.562311e+01	7.614609e+02
1.000000e-06	2.306425e-06	1.242030e-08	1.651822e+01	8.143141e+02
1.010000e-06	2.430725e-06	1.316503e-08	1.740844e+01	8.634778e+02
1.020000e-06	2.554272e-06	1.385807e-08	1.829326e+01	9.091117e+02
1.030000e-06	2.676749e-06	1.450342e-08	1.917042e+01	9.514855e+02
1.040000e-06	2.797991e-06	1.510413e-08	2.003873e+01	9.909168e+02
1.050000e-06	2.918218e-06	1.566210e-08	2.089978e+01	1.027719e+03
1.060000e-06	3.037380e-06	1.618152e-08	2.175320e+01	1.062163e+03
1.070000e-06	3.155448e-06	1.666677e-08	2.259878e+01	1.094464e+03
1.080000e-06	3.272431e-06	1.712362e-08	2.343659e+01	1.124783e+03
1.090000e-06	3.388125e-06	1.755483e-08	2.426517e+01	1.153243e+03
1.100000e-06	3.502329e-06	1.796084e-08	2.508308e+01	1.179951e+03
1.110000e-06	3.615078e-06	1.834513e-08	2.589057e+01	1.205012e+03
1.120000e-06	3.726512e-06	1.870598e-08	2.668864e+01	1.228548e+03
1.130000e-06	3.836680e-06	1.904451e-08	2.747764e+01	1.250692e+03
1.140000e-06	3.945655e-06	1.936252e-08	2.825810e+01	1.271584e+03
1.150000e-06	4.053403e-06	1.966223e-08	2.902978e+01	1.291359e+03
1.160000e-06	4.159695e-06	1.994534e-08	2.979102e+01	1.310131e+03
1.170000e-06	4.264380e-06	2.021467e-08	3.054075e+01	1.327990e+03
1.180000e-06	4.367480e-06	2.047100e-08	3.127914e+01	1.344993e+03
1.190000e-06	4.469090e-06	2.071509e-08	3.200686e+01	1.361174e+03
1.200000e-06	4.569239e-06	2.094874e-08	3.272411e+01	1.376553e+03
1.210000e-06	4.667682e-06	2.117074e-08	3.342914e+01	1.391147e+03
1.220000e-06	4.764265e-06	2.138075e-08	3.412085e+01	1.404980e+03
1.230000e-06	4.859048e-06	2.157871e-08	3.479967e+01	1.418093e+03
1.240000e-06	4.952141e-06	2.176610e-08	3.546638e+01	1.430536e+03
1.250000e-06	5.043600e-06	2.194471e-08	3.612140e+01	1.442372e+03
1.260000e-06	5.133272e-06	2.211538e-08	3.676361e+01	1.453660e+03
1.270000e-06	5.220973e-06	2.228002e-08	3.739171e+01	1.464450e+03
1.280000e-06	5.306761e-06	2.243789e-08	3.800611e+01	1.474775e+03
1.290000e-06	5.390776e-06	2.258962e-08	3.860781e+01	1.484648e+03
1.300000e-06	5.472869e-06	2.273417e-08	3.919575e+01	1.494066e+03
1.310000e-06	5.552863e-06	2.287136e-08	3.976865e+01	1.503018e+03
1.320000e-06	5.630849e-06	2.300201e-08	4.032717e+01	1.511489e+03
1.330000e-06	5.706790e-06	2.312535e-08	4.087105e+01	1.519476e+03
1.340000e-06	5.780454e-06	2.324115e-08	4.139862e+01	1.526987e+03
1.350000e-06	5.851873e-06	2.334962e-08	4.191011e+01	1.534045e+03
1.360000e-06	5.921233e-06	2.345265e-08	4.240685e+01	1.540685e+03
1.370000e-06	5.988546e-06	2.354908e-08	4.288894e+01	1.546952e+03
1.380000e-06	6.053652e-06	2.363818e-08	4.335521e+01	1.552887e+03
1.390000e-06	6.116552e-06	2.372249e-08	4.380570e+01	1.558526e+03
1.400000e-06	6.177434e-06	2.380411e-08	4.424172e+01	1.563894e+03
1.410000e-06	6.236239e-06	2.388253e-08	4.466287e+01	1.569005e+03
1.420000e-06	6.292753e-06	2.395664e-08	4.506762e+01	1.573864e+03
1.430000e-06	6.346977e-06	2.402647e-08	4.545596e+01	1.578469e+03
1.440000e-06	6.398764e-06	2.409417e-08	4.582685e+01	1.582818e+03
1.450000e-06	6.447864e-06	2.415897e-08	4.617850e+01	1.586909e+03
1.460000e-06	6.494486e-06	2.421725e-08	4.651240e+01	1.590746e+03
1.470000e-06	6.538907e-06	2.427075e-08	4.683053e+01	1.594332e+03
1.480000e-06	6.581064e-06	2.432206e-08	4.713245e+01	1.597674e+03
1.490000e-06	6.620825e-06	2.437076e-08	4.741721e+01	1.600776e+03
1.500000e-06	6.658285e-06	2.441546e-08	4.768550e+01	1.603641e+03
1.510000e-06	6.693450e-06	2.445614e-08	4.793734e+01	1.606266e+03
1.520000e-06	6.726138e-06	2.449327e-08	4.817145e+01	1.608646e+03
1.530000e-06	6.756425e-06	2.452605e-08	4.838836e+01	1.610779e+03
1.540000e-06	6.784437e-06	2.455280e-08	4.858897e+01	1.612663e+03
1.550000e-06	6.809951e-06	2.457404e-08	4.877170e+01	1.614302e+03
1.560000e-06	6.832904e-06	2.459418e-08	4.893609e+01	1.615706e+03
1.570000e-06	6.853545e-06	2.461333e-08	4.908391e+01	1.616890e+03
1.580000e-06	6.871829e-06	2.462969e-08	4.921486e+01	1.617871e+03
1.590000e-06	6.887485e-06	2.464279e-08	4.932699e+01	1.618667e+03
1.600000e-06	6.900486e-06	2.465404e-08	4.942010e+01	1.619292e+03
1.610000e-06	6.910839e-06	2.466416e-08	4.949424e+01	1.619755e+03
1.620000e-06	6.918543e-06	2.467130e-08	4.954942e+01	1.620059e+03
1.630000e-06	6.923759e-06	2.467439e-08	4.958678e+01	1.620202e+03
1.640000e-06	6.926557e-06	2.467486e-08	4.960682e+01	1.620181e+03
1.650000e-06	6.926848e-06	2.467030e-08	4.960890e+01	1.619990e+03
1.660000e-06	6.924807e-06	2.466519e-08	4.959428e+01	1.619624e+03
1.670000e-06	6.920583e-06	2.465930e-08	4.956403e+01	1.619081e+03
1.680000e-06	6.913971e-06	2.465014e-08	4.951668e+01	1.618361e+03
1.690000e-06	6.905064e-06	2.464005e-08	4.945289e+01	1.617465e+03
1.700000e-06	6.893955e-06	2.462563e-08	4.937332e+01	1.616396e+03
1.710000e-06	6.880404e-06	2.460709e-08	4.927627e+01	1.615155e+03
1.720000e-06	6.864466e-06	2.457997e-08	4.916213e+01	1.613749e+03
1.730000e-06	6.846473e-06	2.452866e-08	4.903327e+01	1.612184e+03
1.740000e-06	6.826264e-06	2.451668e-08	4.888853e+01	1.610473e+03
1.750000e-06	6.803060e-06	2.449400e-08	4.872235e+01	1.608632e+03
1.760000e-06	6.776574e-06	2.445382e-08	4.853266e+01	1.606681e+03
1.770000e-06	6.747330e-06	2.443469e-08	4.832322e+01	1.604640e+03
1.780000e-06	6.715868e-06	2.442786e-08	4.809790e+01	1.602525e+03
1.790000e-06	6.682631e-06	2.436142e-08	4.785986e+01	1.600341e+03
1.800000e-06	6.647949e-06	2.436997e-08	4.761147e+01	1.598080e+03
1.810000e-06	6.611314e-06	2.437418e-08	4.734909e+01	1.595718e+03
1.820000e-06	6.572170e-06	2.428802e-08	4.706875e+01	1.593214e+03
1.830000e-06	6.530786e-06	2.432067e-08	4.677237e+01	1.590517e+03
1.840000e-06	6.487185e-06	2.421995e-08	4.646010e+01	1.587574e+03
1.850000e-06	6.441212e-06	2.414279e-08	4.613085e+01	1.584336e+03
1.860000e-06	6.392890e-06	2.413202e-08	4.578478e+01	1.580771e+03
1.870000e-06	6.342174e-06	2.402136e-08	4.542156e+01	1.576867e+03
1.880000e-06	6.289074e-06	2.401881e-08	4.504127e+01	1.572635e+03
1.890000e-06	6.233374e-06	2.393714e-08	4.464235e+01	1.568101e+03
1.900000e-06	6.175081e-06	2.384870e-08	4.422487e+01	1.563306e+03
1.910000e-06	6.114515e-06	2.379987e-08	4.379111e+01	1.558288e+03
1.920000e-06	6.051633e-06	2.367352e-08	4.334076e+01	1.553076e+03
1.930000e-06	5.986551e-06	2.363073e-08	4.287465e+01	1.547685e+03
1.940000e-06	5.919272e-06	2.353527e-08	4.239281e+01	1.542108e+03
1.950000e-06	5.849651e-06	2.346617e-08	4.189419e+01	1.536321e+03
1.960000e-06	5.777745e-06	2.337687e-08	4.137922e+01	1.530290e+03
1.970000e-06	5.703622e-06	2.324460e-08	4.084836e+01	1.523980e+03
1.980000e-06	5.627278e-06	2.316842e-08	4.030160e+01	1.517361e+03
1.990000e-06	5.548615e-06	2.304106e-08	3.973823e+01	1.510414e+03
2.000000e-06	5.467909e-06	2.295489e-08	3.916023e+01	1.503138e+03
2.010000e-06	5.385424e-06	2.283312e-08	3.856948e+01	1.495538e+03
2.020000e-06	5.301101e-06	2.271063e-08	3.796557e+01	1.487628e+03
2.030000e-06	5.214795e-06	2.258920e-08	3.734747e+01	1.479415e+03
2.040000e-06	5.126490e-06	2.243920e-08	3.671504e+01	1.470900e+03
2.050000e-06	5.036432e-06	2.232028e-08	3.607006e+01	1.462069e+03
2.060000e-06	4.944727e-06	2.217991e-08	3.541328e+01	1.452894e+03
2.070000e-06	4.851292e-06	2.205151e-08	3.474412e+01	1.443341e+03
2.080000e-06	4.756055e-06	2.189208e-08	3.406205e+01	1.433377e+03
2.090000e-06	4.659120e-06	2.173556e-08	3.336782e+01	1.422972e+03
2.100000e-06	4.560704e-06	2.157129e-08	3.266298e+01	1.412109e+03
2.110000e-06	4.460764e-06	2.139634e-08	3.194722e+01	1.400784e+03
2.120000e-06	4.359179e-06	2.121845e-08	3.121969e+01	1.389000e+03
2.130000e-06	4.255883e-06	2.102700e-08	3.047991e+01	1.376762e+03
2.140000e-06	4.150992e-06	2.083807e-08	2.972869e+01	1.364069e+03
2.150000e-06	4.044693e-06	2.063502e-08	2.896740e+01	1.350905e+03
2.160000e-06	3.937026e-06	2.043442e-08	2.819631e+01	1.337236e+03
2.170000e-06	3.827984e-06	2.021886e-08	2.741537e+01	1.323014e+03
2.180000e-06	3.717502e-06	1.999818e-08	2.662411e+01	1.308177e+03
2.190000e-06	3.605581e-06	1.976193e-08	2.582255e+01	1.292664e+03
2.200000e-06	3.492271e-06	1.951571e-08	2.501105e+01	1.276423e+03
2.210000e-06	3.377578e-06	1.925603e-08	2.418964e+01	1.259413e+03
2.220000e-06	3.261435e-06	1.898569e-08	2.335784e+01	1.241609e+03
2.230000e-06	3.143860e-06	1.870457e-08	2.251578e+01	1.222996e+03
2.240000e-06	3.024982e-06	1.840594e-08	2.166440e+01	1.203560e+03
2.250000e-06	2.904894e-06	1.809638e-08	2.080435e+01	1.183276e+03
2.260000e-06	2.783758e-06	1.777516e-08	1.993680e+01	1.162098e+03
2.270000e-06	2.661689e-06	1.744336e-08	1.906256e+01	1.139953e+03
2.280000e-06	2.538707e-06	1.709103e-08	1.818178e+01	1.116741e+03
2.290000e-06	2.414824e-06	1.671937e-08	1.729455e+01	1.092341e+03
2.300000e-06	2.290036e-06	1.632570e-08	1.640085e+01	1.066623e+03
2.310000e-06	2.164429e-06	1.591326e-08	1.550127e+01	1.039456e+03
2.320000e-06	2.038024e-06	1.547774e-08	1.459598e+01	1.010719e+03
2.330000e-06	1.910880e-06	1.501911e-08	1.368540e+01	9.803009e+02
2.340000e-06	1.783046e-06	1.453297e-08	1.276987e+01	9.481008e+02
2.350000e-06	1.654566e-06	1.401313e-08	1.184971e+01	9.140151e+02
2.360000e-06	1.525603e-06	1.345816e-08	1.092611e+01	8.779297e+02
2.370000e-06	1.396265e-06	1.286962e-08	9.999807e+00	8.397146e+02
2.380000e-06	1.266542e-06	1.224940e-08	9.070759e+00	7.992266e+02
2.390000e-06	1.136431e-06	1.159649e-08	8.138927e+00	7.563251e+02
2.400000e-06	1.005984e-06	1.090789e-08	7.204685e+00	7.108981e+02
2.410000e-06	8.751628e-07	1.017937e-08	6.267766e+00	6.628951e+02
2.420000e-06	7.440110e-07	9.409158e-09	5.328479e+00	6.123595e+02
2.430000e-06	6.126053e-07	8.599901e-09	4.387374e+00	5.594511e+02
2.440000e-06	4.809988e-07	7.758315e-09	3.444831e+00	5.044506e+02
2.450000e-06	3.492588e-07	6.891861e-09	2.501331e+00	4.477414e+02
2.460000e-06	2.173996e-07	6.006647e-09	1.556979e+00	3.897666e+02
2.470000e-06	8.545619e-08	5.107969e-09	6.120226e-01	3.309697e+02
2.480000e-06	-4.655543e-08	4.202835e-09	-3.334220e-01	2.717273e+02
2.490000e-06	-1.785752e-07	3.293394e-09	-1.278925e+00	2.122875e+02
2.500000e-06	-3.105482e-07	2.380449e-09	-2.224093e+00	1.527302e+02
2.510000e-06	-4.424472e-07	1.464696e-09	-3.168731e+00	9.295741e+01
2.520000e-06	-5.741868e-07	5.438212e-10	-4.112228e+00	3.272001e+01
2.530000e-06	-7.057682e-07	-3.892112e-10	-5.054591e+00	-2.832148e+01
2.540000e-06	-8.371572e-07	-1.338975e-09	-5.995576e+00	-9.051260e+01
2.550000e-06	-9.682648e-07	-2.310557e-09	-6.934546e+00	-1.541120e+02
2.560000e-06	-1.099003e-06	-3.306291e-09	-7.870874e+00	-2.192082e+02
2.570000e-06	-1.229333e-06	-4.321301e-09	-8.804269e+00	-2.856621e+02
2.580000e-06	-1.359274e-06	-5.349191e-09	-9.734885e+00	-3.530878e+02
2.590000e-06	-1.488783e-06	-6.383565e-09	-1.066241e+01	-4.208756e+02
2.600000e-06	-1.617819e-06	-7.415398e-09	-1.158654e+01	-4.882530e+02
2.610000e-06	-1.746330e-06	-8.430083e-09	-1.250692e+01	-5.543727e+02
2.620000e-06	-1.874278e-06	-9.414162e-09	-1.342326e+01	-6.184111e+02
2.630000e-06	-2.001508e-06	-1.035574e-08	-1.433446e+01	-6.796595e+02
2.640000e-06	-2.127851e-06	-1.124439e-08	-1.523931e+01	-7.375926e+02
2.650000e-06	-2.253316e-06	-1.207607e-08	-1.613786e+01	-7.919042e+02
2.660000e-06	-2.377941e-06	-1.285069e-08	-1.703041e+01	-8.425068e+02
2.670000e-06	-2.501652e-06	-1.357089e-08	-1.791640e+01	-8.895003e+02
2.680000e-06	-2.624346e-06	-1.423947e-08	-1.879511e+01	-9.331186e+02
2.690000e-06	-2.746019e-06	-1.486214e-08	-1.966652e+01	-9.736677e+02
2.700000e-06	-2.866759e-06	-1.544542e-08	-2.053124e+01	-1.011468e+03
2.710000e-06	-2.986561e-06	-1.599254e-08	-2.138924e+01	-1.046809e+03
2.720000e-06	-3.105194e-06	-1.650160e-08	-2.223886e+01	-1.079931e+03
2.730000e-06	-3.222488e-06	-1.697443e-08	-2.307890e+01	-1.111013e+03
2.740000e-06	-3.338462e-06	-1.741890e-08	-2.390949e+01	-1.140190e+03
2.750000e-06	-3.453141e-06	-1.783628e-08	-2.473080e+01	-1.167574e+03
2.760000e-06	-3.566320e-06	-1.822857e-08	-2.554137e+01	-1.193269e+03
2.770000e-06	-3.677962e-06	-1.859829e-08	-2.634093e+01	-1.217390e+03
2.780000e-06	-3.788248e-06	-1.894572e-08	-2.713078e+01	-1.240064e+03
2.790000e-06	-3.897278e-06	-1.927199e-08	-2.791164e+01	-1.261432e+03
2.800000e-06	-4.005121e-06	-1.958128e-08	-2.868399e+01	-1.281631e+03
2.810000e-06	-4.111673e-06	-1.987731e-08	-2.944710e+01	-1.300785e+03
2.820000e-06	-4.216875e-06	-2.015841e-08	-3.020053e+01	-1.318995e+03
2.830000e-06	-4.320572e-06	-2.042406e-08	-3.094319e+01	-1.336329e+03
2.840000e-06	-4.422486e-06	-2.067522e-08	-3.167309e+01	-1.352831e+03
2.850000e-06	-4.522736e-06	-2.091289e-08	-3.239106e+01	-1.368524e+03
2.860000e-06	-4.621474e-06	-2.114027e-08	-3.309820e+01	-1.383424e+03
2.870000e-06	-4.718702e-06	-2.135787e-08	-3.379453e+01	-1.397552e+03
2.880000e-06	-4.814224e-06	-2.156562e-08	-3.447864e+01	-1.410943e+03
2.890000e-06	-4.907886e-06	-2.176201e-08	-3.514944e+01	-1.423642e+03
2.900000e-06	-4.999872e-06	-2.194635e-08	-3.580822e+01	-1.435710e+03
2.910000e-06	-5.090124e-06	-2.212364e-08	-3.645459e+01	-1.447207e+03
2.920000e-06	-5.178587e-06	-2.229326e-08	-3.708815e+01	-1.458188e+03
2.930000e-06	-5.265076e-06	-2.245311e-08	-3.770757e+01	-1.468693e+03
2.940000e-06	-5.349535e-06	-2.260478e-08	-3.831245e+01	-1.478743e+03
