# Temperatura_=_54.26
# Concentracion g/m^3_=_28200.0
# C_Vs_to_Am_M_A/Vsm_=_65563218390.804596
# pendiente_HvsI_1/m_=_3716.3
# ordenada_HvsI_A/m_=_1297.0
# frecuencia_Hz_=_302285.35286068224

Tiempo_(s)	Campo_(V.s)	Magnetizacion_(V.s)	Campo_(kA/m)	Magnetizacion_(A/m)
0.000000e+00	-6.913277e-06	-2.392696e-08	-4.951918e+01	-1.566628e+03
1.000000e-08	-6.910123e-06	-2.392147e-08	-4.949659e+01	-1.566231e+03
2.000000e-08	-6.904695e-06	-2.391297e-08	-4.945771e+01	-1.565666e+03
3.000000e-08	-6.897137e-06	-2.390472e-08	-4.940358e+01	-1.564936e+03
4.000000e-08	-6.887159e-06	-2.389290e-08	-4.933210e+01	-1.564046e+03
5.000000e-08	-6.874659e-06	-2.387922e-08	-4.924256e+01	-1.563000e+03
6.000000e-08	-6.859623e-06	-2.386081e-08	-4.913487e+01	-1.561802e+03
7.000000e-08	-6.842226e-06	-2.383897e-08	-4.901025e+01	-1.560458e+03
8.000000e-08	-6.822799e-06	-2.382616e-08	-4.887109e+01	-1.558973e+03
9.000000e-08	-6.801119e-06	-2.383680e-08	-4.871581e+01	-1.557356e+03
1.000000e-07	-6.776766e-06	-2.378933e-08	-4.854137e+01	-1.555619e+03
1.100000e-07	-6.749657e-06	-2.373076e-08	-4.834719e+01	-1.553779e+03
1.200000e-07	-6.720059e-06	-2.369928e-08	-4.813518e+01	-1.551851e+03
1.300000e-07	-6.688216e-06	-2.366326e-08	-4.790709e+01	-1.549850e+03
1.400000e-07	-6.654244e-06	-2.359302e-08	-4.766376e+01	-1.547780e+03
1.500000e-07	-6.618454e-06	-2.358678e-08	-4.740739e+01	-1.545634e+03
1.600000e-07	-6.580795e-06	-2.360184e-08	-4.713765e+01	-1.543393e+03
1.700000e-07	-6.540951e-06	-2.346360e-08	-4.685224e+01	-1.541021e+03
1.800000e-07	-6.498854e-06	-2.345209e-08	-4.655071e+01	-1.538473e+03
1.900000e-07	-6.454308e-06	-2.340513e-08	-4.623163e+01	-1.535702e+03
2.000000e-07	-6.407313e-06	-2.333008e-08	-4.589501e+01	-1.532664e+03
2.100000e-07	-6.357832e-06	-2.333875e-08	-4.554058e+01	-1.529327e+03
2.200000e-07	-6.305618e-06	-2.326894e-08	-4.516658e+01	-1.525677e+03
2.300000e-07	-6.250952e-06	-2.323912e-08	-4.477501e+01	-1.521717e+03
2.400000e-07	-6.193959e-06	-2.315432e-08	-4.436677e+01	-1.517468e+03
2.500000e-07	-6.134563e-06	-2.305403e-08	-4.394132e+01	-1.512960e+03
2.600000e-07	-6.072946e-06	-2.299788e-08	-4.349997e+01	-1.508224e+03
2.700000e-07	-6.009091e-06	-2.291301e-08	-4.304258e+01	-1.503286e+03
2.800000e-07	-5.942959e-06	-2.283113e-08	-4.256888e+01	-1.498161e+03
2.900000e-07	-5.874628e-06	-2.274902e-08	-4.207943e+01	-1.492848e+03
3.000000e-07	-5.804109e-06	-2.267106e-08	-4.157432e+01	-1.487331e+03
3.100000e-07	-5.731367e-06	-2.257446e-08	-4.105327e+01	-1.481588e+03
3.200000e-07	-5.656324e-06	-2.247800e-08	-4.051574e+01	-1.475590e+03
3.300000e-07	-5.578939e-06	-2.240491e-08	-3.996144e+01	-1.469314e+03
3.400000e-07	-5.499270e-06	-2.228903e-08	-3.939078e+01	-1.462740e+03
3.500000e-07	-5.417540e-06	-2.219267e-08	-3.880535e+01	-1.455858e+03
3.600000e-07	-5.334002e-06	-2.208564e-08	-3.820698e+01	-1.448664e+03
3.700000e-07	-5.248749e-06	-2.196037e-08	-3.759632e+01	-1.441157e+03
3.800000e-07	-5.161776e-06	-2.185021e-08	-3.697334e+01	-1.433332e+03
3.900000e-07	-5.072970e-06	-2.172296e-08	-3.633723e+01	-1.425180e+03
4.000000e-07	-4.982300e-06	-2.158920e-08	-3.568777e+01	-1.416686e+03
4.100000e-07	-4.889912e-06	-2.144326e-08	-3.502600e+01	-1.407828e+03
4.200000e-07	-4.795938e-06	-2.130968e-08	-3.435287e+01	-1.398584e+03
4.300000e-07	-4.700308e-06	-2.116161e-08	-3.366788e+01	-1.388934e+03
4.400000e-07	-4.602941e-06	-2.100451e-08	-3.297045e+01	-1.378864e+03
4.500000e-07	-4.503882e-06	-2.084535e-08	-3.226091e+01	-1.368367e+03
4.600000e-07	-4.403125e-06	-2.067683e-08	-3.153919e+01	-1.357441e+03
4.700000e-07	-4.300827e-06	-2.050606e-08	-3.080644e+01	-1.346085e+03
4.800000e-07	-4.197051e-06	-2.032444e-08	-3.006310e+01	-1.334294e+03
4.900000e-07	-4.091741e-06	-2.014589e-08	-2.930877e+01	-1.322051e+03
5.000000e-07	-3.984930e-06	-1.995238e-08	-2.854370e+01	-1.309324e+03
5.100000e-07	-3.876613e-06	-1.974409e-08	-2.776783e+01	-1.296070e+03
5.200000e-07	-3.766944e-06	-1.952389e-08	-2.698228e+01	-1.282232e+03
5.300000e-07	-3.656012e-06	-1.929962e-08	-2.618769e+01	-1.267756e+03
5.400000e-07	-3.543621e-06	-1.906764e-08	-2.538264e+01	-1.252587e+03
5.500000e-07	-3.429756e-06	-1.882254e-08	-2.456704e+01	-1.236685e+03
5.600000e-07	-3.314409e-06	-1.856809e-08	-2.374081e+01	-1.220019e+03
5.700000e-07	-3.197631e-06	-1.829782e-08	-2.290434e+01	-1.202571e+03
5.800000e-07	-3.079624e-06	-1.801955e-08	-2.205907e+01	-1.184323e+03
5.900000e-07	-2.960476e-06	-1.773128e-08	-2.120563e+01	-1.165253e+03
6.000000e-07	-2.840217e-06	-1.743449e-08	-2.034422e+01	-1.145321e+03
6.100000e-07	-2.718936e-06	-1.711907e-08	-1.947549e+01	-1.124463e+03
6.200000e-07	-2.596733e-06	-1.678251e-08	-1.860016e+01	-1.102593e+03
6.300000e-07	-2.473493e-06	-1.642356e-08	-1.771741e+01	-1.079601e+03
6.400000e-07	-2.349231e-06	-1.604253e-08	-1.682733e+01	-1.055365e+03
6.500000e-07	-2.224185e-06	-1.564559e-08	-1.593163e+01	-1.029759e+03
6.600000e-07	-2.098448e-06	-1.523010e-08	-1.503100e+01	-1.002664e+03
6.700000e-07	-1.972029e-06	-1.479454e-08	-1.412547e+01	-9.739708e+02
6.800000e-07	-1.844994e-06	-1.433290e-08	-1.321553e+01	-9.435789e+02
6.900000e-07	-1.717307e-06	-1.384451e-08	-1.230091e+01	-9.113900e+02
7.000000e-07	-1.588946e-06	-1.332575e-08	-1.138148e+01	-8.772989e+02
7.100000e-07	-1.460021e-06	-1.277509e-08	-1.045800e+01	-8.411866e+02
7.200000e-07	-1.330622e-06	-1.218838e-08	-9.531130e+00	-8.029194e+02
7.300000e-07	-1.200793e-06	-1.156517e-08	-8.601172e+00	-7.623588e+02
7.400000e-07	-1.070553e-06	-1.090645e-08	-7.668272e+00	-7.193823e+02
7.500000e-07	-9.399535e-07	-1.021009e-08	-6.732803e+00	-6.739127e+02
7.600000e-07	-8.090155e-07	-9.478857e-09	-5.794906e+00	-6.259504e+02
7.700000e-07	-6.777754e-07	-8.711075e-09	-4.854845e+00	-5.756007e+02
7.800000e-07	-5.463069e-07	-7.913773e-09	-3.913148e+00	-5.230876e+02
7.900000e-07	-4.146499e-07	-7.090067e-09	-2.970100e+00	-4.687476e+02
8.000000e-07	-2.828262e-07	-6.242751e-09	-2.025859e+00	-4.130000e+02
8.100000e-07	-1.508558e-07	-5.378080e-09	-1.080566e+00	-3.562969e+02
8.200000e-07	-1.875755e-08	-4.503656e-09	-1.343587e-01	-2.990603e+02
8.300000e-07	1.133923e-07	-3.626713e-09	8.122186e-01	-2.416175e+02
8.400000e-07	2.455241e-07	-2.748385e-09	1.758667e+00	-1.841484e+02
8.500000e-07	3.776127e-07	-1.872125e-09	2.704806e+00	-1.266576e+02
8.600000e-07	5.095864e-07	-9.966409e-10	3.650122e+00	-6.897865e+01
8.700000e-07	6.413166e-07	-1.161675e-10	4.593693e+00	-1.081330e+01
8.800000e-07	7.728154e-07	7.772385e-10	5.535607e+00	4.820041e+01
8.900000e-07	9.041342e-07	1.690734e-09	6.476233e+00	1.084017e+02
9.000000e-07	1.035159e-06	2.626774e-09	7.414754e+00	1.700188e+02
9.100000e-07	1.165815e-06	3.587200e-09	8.350629e+00	2.330956e+02
9.200000e-07	1.296057e-06	4.570084e-09	9.283539e+00	2.974466e+02
9.300000e-07	1.425780e-06	5.566150e-09	1.021274e+01	3.626513e+02
9.400000e-07	1.554914e-06	6.565564e-09	1.113771e+01	4.280861e+02
9.500000e-07	1.683424e-06	7.554596e-09	1.205821e+01	4.929909e+02
9.600000e-07	1.811262e-06	8.519635e-09	1.297391e+01	5.565557e+02
9.700000e-07	1.938433e-06	9.447741e-09	1.388482e+01	6.180127e+02
9.800000e-07	2.064947e-06	1.033082e-08	1.479103e+01	6.767172e+02
9.900000e-07	2.190737e-06	1.116929e-08	1.569205e+01	7.322044e+02
1.000000e-06	2.315733e-06	1.195555e-08	1.658739e+01	7.842150e+02
1.010000e-06	2.439937e-06	1.268954e-08	1.747705e+01	8.326887e+02
1.020000e-06	2.563356e-06	1.337598e-08	1.836109e+01	8.777307e+02
1.030000e-06	2.685765e-06	1.401548e-08	1.923789e+01	9.195613e+02
1.040000e-06	2.806924e-06	1.460952e-08	2.010575e+01	9.584607e+02
1.050000e-06	2.926923e-06	1.516060e-08	2.096529e+01	9.947189e+02
1.060000e-06	3.045908e-06	1.567455e-08	2.181756e+01	1.028600e+03
1.070000e-06	3.163876e-06	1.615208e-08	2.266256e+01	1.060324e+03
1.080000e-06	3.280752e-06	1.659870e-08	2.349974e+01	1.090064e+03
1.090000e-06	3.396420e-06	1.701989e-08	2.432825e+01	1.117958e+03
1.100000e-06	3.510557e-06	1.741780e-08	2.514581e+01	1.144125e+03
1.110000e-06	3.623115e-06	1.779208e-08	2.595205e+01	1.168676e+03
1.120000e-06	3.734401e-06	1.814394e-08	2.674918e+01	1.191731e+03
1.130000e-06	3.844531e-06	1.847604e-08	2.753803e+01	1.213416e+03
1.140000e-06	3.953475e-06	1.879032e-08	2.831839e+01	1.233859e+03
1.150000e-06	4.061170e-06	1.908577e-08	2.908980e+01	1.253183e+03
1.160000e-06	4.167384e-06	1.936120e-08	2.985060e+01	1.271496e+03
1.170000e-06	4.271888e-06	1.962026e-08	3.059915e+01	1.288883e+03
1.180000e-06	4.374759e-06	1.986612e-08	3.133601e+01	1.305406e+03
1.190000e-06	4.476179e-06	2.010171e-08	3.206247e+01	1.321106e+03
1.200000e-06	4.576203e-06	2.032851e-08	3.277893e+01	1.336013e+03
1.210000e-06	4.674582e-06	2.054435e-08	3.348361e+01	1.350154e+03
1.220000e-06	4.771024e-06	2.074761e-08	3.417442e+01	1.363560e+03
1.230000e-06	4.865644e-06	2.093964e-08	3.485217e+01	1.376272e+03
1.240000e-06	4.958625e-06	2.112232e-08	3.551819e+01	1.388338e+03
1.250000e-06	5.050005e-06	2.129693e-08	3.617274e+01	1.399812e+03
1.260000e-06	5.139509e-06	2.146417e-08	3.681384e+01	1.410742e+03
1.270000e-06	5.227000e-06	2.162435e-08	3.744053e+01	1.421168e+03
1.280000e-06	5.312650e-06	2.177524e-08	3.805404e+01	1.431116e+03
1.290000e-06	5.396574e-06	2.191932e-08	3.865518e+01	1.440597e+03
1.300000e-06	5.478532e-06	2.205876e-08	3.924224e+01	1.449609e+03
1.310000e-06	5.558321e-06	2.219061e-08	3.981375e+01	1.458145e+03
1.320000e-06	5.636058e-06	2.231296e-08	4.037058e+01	1.466201e+03
1.330000e-06	5.711691e-06	2.242886e-08	4.091233e+01	1.473782e+03
1.340000e-06	5.785078e-06	2.253901e-08	4.143800e+01	1.480902e+03
1.350000e-06	5.856362e-06	2.264287e-08	4.194859e+01	1.487592e+03
1.360000e-06	5.925652e-06	2.273959e-08	4.244492e+01	1.493887e+03
1.370000e-06	5.992800e-06	2.282980e-08	4.292589e+01	1.499829e+03
1.380000e-06	6.057719e-06	2.291478e-08	4.339090e+01	1.505457e+03
1.390000e-06	6.120472e-06	2.299399e-08	4.384039e+01	1.510803e+03
1.400000e-06	6.181209e-06	2.307003e-08	4.427544e+01	1.515887e+03
1.410000e-06	6.239793e-06	2.314367e-08	4.469508e+01	1.520721e+03
1.420000e-06	6.296074e-06	2.321393e-08	4.509821e+01	1.525310e+03
1.430000e-06	6.350111e-06	2.328085e-08	4.548528e+01	1.529653e+03
1.440000e-06	6.401617e-06	2.334334e-08	4.585421e+01	1.533752e+03
1.450000e-06	6.450430e-06	2.340196e-08	4.620385e+01	1.537609e+03
1.460000e-06	6.496830e-06	2.345743e-08	4.653621e+01	1.541228e+03
1.470000e-06	6.541094e-06	2.350903e-08	4.685327e+01	1.544617e+03
1.480000e-06	6.583058e-06	2.355855e-08	4.715385e+01	1.547781e+03
1.490000e-06	6.622562e-06	2.360396e-08	4.743682e+01	1.550722e+03
1.500000e-06	6.659835e-06	2.364499e-08	4.770380e+01	1.553439e+03
1.510000e-06	6.694806e-06	2.368198e-08	4.795430e+01	1.555927e+03
1.520000e-06	6.727307e-06	2.371656e-08	4.818710e+01	1.558178e+03
1.530000e-06	6.757411e-06	2.374914e-08	4.840273e+01	1.560186e+03
1.540000e-06	6.785233e-06	2.377422e-08	4.860201e+01	1.561951e+03
1.550000e-06	6.810580e-06	2.379483e-08	4.878358e+01	1.563477e+03
1.560000e-06	6.833323e-06	2.381375e-08	4.894648e+01	1.564777e+03
1.570000e-06	6.853750e-06	2.383046e-08	4.909280e+01	1.565868e+03
1.580000e-06	6.871852e-06	2.384537e-08	4.922246e+01	1.566771e+03
1.590000e-06	6.887336e-06	2.385899e-08	4.933337e+01	1.567506e+03
1.600000e-06	6.900146e-06	2.387071e-08	4.942513e+01	1.568088e+03
1.610000e-06	6.910269e-06	2.387884e-08	4.949764e+01	1.568525e+03
1.620000e-06	6.917782e-06	2.388330e-08	4.955145e+01	1.568820e+03
1.630000e-06	6.922919e-06	2.388597e-08	4.958825e+01	1.568968e+03
1.640000e-06	6.925644e-06	2.388718e-08	4.960777e+01	1.568962e+03
1.650000e-06	6.925802e-06	2.388513e-08	4.960890e+01	1.568795e+03
1.660000e-06	6.923623e-06	2.387409e-08	4.959329e+01	1.568463e+03
1.670000e-06	6.919235e-06	2.386573e-08	4.956186e+01	1.567963e+03
1.680000e-06	6.912471e-06	2.385864e-08	4.951341e+01	1.567298e+03
1.690000e-06	6.903385e-06	2.384868e-08	4.944833e+01	1.566470e+03
1.700000e-06	6.892058e-06	2.383675e-08	4.936719e+01	1.565484e+03
1.710000e-06	6.878270e-06	2.382440e-08	4.926843e+01	1.564345e+03
1.720000e-06	6.862098e-06	2.381227e-08	4.915259e+01	1.563058e+03
1.730000e-06	6.843916e-06	2.376347e-08	4.902236e+01	1.561626e+03
1.740000e-06	6.823515e-06	2.370090e-08	4.887622e+01	1.560059e+03
1.750000e-06	6.800112e-06	2.370284e-08	4.870860e+01	1.558368e+03
1.760000e-06	6.773461e-06	2.368876e-08	4.851770e+01	1.556566e+03
1.770000e-06	6.744031e-06	2.364664e-08	4.830689e+01	1.554671e+03
1.780000e-06	6.712398e-06	2.366859e-08	4.808031e+01	1.552697e+03
1.790000e-06	6.679085e-06	2.365345e-08	4.784169e+01	1.550653e+03
1.800000e-06	6.644355e-06	2.355020e-08	4.759292e+01	1.548539e+03
1.810000e-06	6.607579e-06	2.359808e-08	4.732950e+01	1.546338e+03
1.820000e-06	6.568260e-06	2.355777e-08	4.704786e+01	1.544022e+03
1.830000e-06	6.526734e-06	2.352006e-08	4.675041e+01	1.541549e+03
1.840000e-06	6.482925e-06	2.355597e-08	4.643661e+01	1.538870e+03
1.850000e-06	6.436733e-06	2.340613e-08	4.610574e+01	1.535942e+03
1.860000e-06	6.388227e-06	2.339556e-08	4.575830e+01	1.532724e+03
1.870000e-06	6.337260e-06	2.331761e-08	4.539323e+01	1.529198e+03
1.880000e-06	6.283822e-06	2.322853e-08	4.501045e+01	1.525358e+03
1.890000e-06	6.227841e-06	2.325324e-08	4.460947e+01	1.521219e+03
1.900000e-06	6.169513e-06	2.313818e-08	4.419167e+01	1.516808e+03
1.910000e-06	6.108928e-06	2.310288e-08	4.375770e+01	1.512158e+03
1.920000e-06	6.045915e-06	2.302417e-08	4.330635e+01	1.507297e+03
1.930000e-06	5.980684e-06	2.291820e-08	4.283910e+01	1.502244e+03
1.940000e-06	5.913227e-06	2.287091e-08	4.235591e+01	1.497006e+03
1.950000e-06	5.843479e-06	2.275986e-08	4.185631e+01	1.491571e+03
1.960000e-06	5.771447e-06	2.271025e-08	4.134036e+01	1.485920e+03
1.970000e-06	5.697220e-06	2.258367e-08	4.080868e+01	1.480025e+03
1.980000e-06	5.620772e-06	2.250761e-08	4.026108e+01	1.473860e+03
1.990000e-06	5.541988e-06	2.242090e-08	3.969676e+01	1.467404e+03
2.000000e-06	5.461177e-06	2.229053e-08	3.911792e+01	1.460644e+03
2.010000e-06	5.378548e-06	2.220793e-08	3.852606e+01	1.453573e+03
2.020000e-06	5.294044e-06	2.207280e-08	3.792076e+01	1.446188e+03
2.030000e-06	5.207549e-06	2.197159e-08	3.730121e+01	1.438489e+03
2.040000e-06	5.119056e-06	2.183656e-08	3.666734e+01	1.430467e+03
2.050000e-06	5.028856e-06	2.171613e-08	3.602124e+01	1.422109e+03
2.060000e-06	4.937049e-06	2.158600e-08	3.536364e+01	1.413396e+03
2.070000e-06	4.843528e-06	2.144065e-08	3.469376e+01	1.404306e+03
2.080000e-06	4.748227e-06	2.130410e-08	3.401113e+01	1.394817e+03
2.090000e-06	4.651228e-06	2.114938e-08	3.331633e+01	1.384913e+03
2.100000e-06	4.552725e-06	2.100952e-08	3.261076e+01	1.374584e+03
2.110000e-06	4.452641e-06	2.084350e-08	3.189387e+01	1.363826e+03
2.120000e-06	4.350900e-06	2.067471e-08	3.116511e+01	1.352639e+03
2.130000e-06	4.247492e-06	2.048452e-08	3.042441e+01	1.341020e+03
2.140000e-06	4.142515e-06	2.029459e-08	2.967246e+01	1.328957e+03
2.150000e-06	4.036129e-06	2.010351e-08	2.891043e+01	1.316425e+03
2.160000e-06	3.928376e-06	1.990973e-08	2.813861e+01	1.303383e+03
2.170000e-06	3.819178e-06	1.971056e-08	2.735643e+01	1.289781e+03
2.180000e-06	3.708559e-06	1.949838e-08	2.656408e+01	1.275562e+03
2.190000e-06	3.596515e-06	1.927807e-08	2.576151e+01	1.260671e+03
2.200000e-06	3.483039e-06	1.903893e-08	2.494870e+01	1.245061e+03
2.210000e-06	3.368270e-06	1.879370e-08	2.412662e+01	1.228697e+03
2.220000e-06	3.252075e-06	1.853251e-08	2.329432e+01	1.211558e+03
2.230000e-06	3.134450e-06	1.825998e-08	2.245178e+01	1.193626e+03
2.240000e-06	3.015575e-06	1.796741e-08	2.160029e+01	1.174882e+03
2.250000e-06	2.895481e-06	1.766479e-08	2.074007e+01	1.155295e+03
2.260000e-06	2.774317e-06	1.735076e-08	1.987218e+01	1.134810e+03
2.270000e-06	2.652248e-06	1.702691e-08	1.899781e+01	1.113349e+03
2.280000e-06	2.529273e-06	1.669013e-08	1.811696e+01	1.090812e+03
2.290000e-06	2.405351e-06	1.633430e-08	1.722931e+01	1.067079e+03
2.300000e-06	2.280491e-06	1.595601e-08	1.633495e+01	1.042025e+03
2.310000e-06	2.154818e-06	1.555211e-08	1.543477e+01	1.015529e+03
2.320000e-06	2.028448e-06	1.512555e-08	1.452959e+01	9.874753e+02
2.330000e-06	1.901378e-06	1.467414e-08	1.361940e+01	9.577620e+02
2.340000e-06	1.773552e-06	1.419871e-08	1.270379e+01	9.262907e+02
2.350000e-06	1.645067e-06	1.369146e-08	1.178347e+01	8.929599e+02
2.360000e-06	1.516082e-06	1.315080e-08	1.085956e+01	8.576566e+02
2.370000e-06	1.386691e-06	1.257469e-08	9.932741e+00	8.202522e+02
2.380000e-06	1.256921e-06	1.196667e-08	9.003210e+00	7.806084e+02
2.390000e-06	1.126725e-06	1.132807e-08	8.070628e+00	7.385931e+02
2.400000e-06	9.961792e-07	1.065429e-08	7.135542e+00	6.941076e+02
2.410000e-06	8.653501e-07	9.943053e-09	6.198425e+00	6.471179e+02
2.420000e-06	7.342746e-07	9.191565e-09	5.259543e+00	5.976857e+02
2.430000e-06	6.029642e-07	8.401576e-09	4.318979e+00	5.459880e+02
2.440000e-06	4.714274e-07	7.577284e-09	3.376792e+00	4.923191e+02
2.450000e-06	3.397269e-07	6.728206e-09	2.433434e+00	4.370707e+02
2.460000e-06	2.078757e-07	5.864798e-09	1.488995e+00	3.806892e+02
2.470000e-06	7.595280e-08	4.993873e-09	5.440431e-01	3.236162e+02
2.480000e-06	-5.603136e-08	4.119933e-09	-4.013476e-01	2.662235e+02
2.490000e-06	-1.879998e-07	3.243577e-09	-1.346626e+00	2.087539e+02
2.500000e-06	-3.198589e-07	2.365437e-09	-2.291121e+00	1.512822e+02
2.510000e-06	-4.516275e-07	1.483515e-09	-3.234967e+00	9.370634e+01
2.520000e-06	-5.832690e-07	5.932457e-10	-4.177903e+00	3.577320e+01
2.530000e-06	-7.147888e-07	-3.056698e-10	-5.119968e+00	-2.286381e+01
2.540000e-06	-8.461252e-07	-1.218653e-09	-6.060719e+00	-8.256364e+01
2.550000e-06	-9.771678e-07	-2.150297e-09	-6.999365e+00	-1.436081e+02
2.560000e-06	-1.107905e-06	-3.101934e-09	-7.935825e+00	-2.061206e+02
2.570000e-06	-1.238257e-06	-4.076951e-09	-8.869525e+00	-2.700088e+02
2.580000e-06	-1.368155e-06	-5.069030e-09	-9.799973e+00	-3.349427e+02
2.590000e-06	-1.497609e-06	-6.070620e-09	-1.072724e+01	-4.003723e+02
2.600000e-06	-1.626565e-06	-7.070535e-09	-1.165094e+01	-4.655815e+02
2.610000e-06	-1.755009e-06	-8.055789e-09	-1.257097e+01	-5.297689e+02
2.620000e-06	-1.882921e-06	-9.014072e-09	-1.348720e+01	-5.921396e+02
2.630000e-06	-2.010130e-06	-9.932889e-09	-1.439838e+01	-6.519922e+02
2.640000e-06	-2.136470e-06	-1.080470e-08	-1.530334e+01	-7.087861e+02
2.650000e-06	-2.261925e-06	-1.162216e-08	-1.620196e+01	-7.621805e+02
2.660000e-06	-2.386469e-06	-1.238292e-08	-1.709406e+01	-8.120396e+02
2.670000e-06	-2.510028e-06	-1.309178e-08	-1.797911e+01	-8.584090e+02
2.680000e-06	-2.632608e-06	-1.375142e-08	-1.885714e+01	-9.014702e+02
2.690000e-06	-2.754188e-06	-1.436745e-08	-1.972800e+01	-9.414865e+02
2.700000e-06	-2.874786e-06	-1.494423e-08	-2.059184e+01	-9.787491e+02
2.710000e-06	-2.994446e-06	-1.548087e-08	-2.144895e+01	-1.013535e+03
2.720000e-06	-3.112993e-06	-1.597607e-08	-2.229809e+01	-1.046084e+03
2.730000e-06	-3.230263e-06	-1.643628e-08	-2.313808e+01	-1.076586e+03
2.740000e-06	-3.346190e-06	-1.687143e-08	-2.396846e+01	-1.105191e+03
2.750000e-06	-3.460779e-06	-1.728180e-08	-2.478925e+01	-1.132023e+03
2.760000e-06	-3.573924e-06	-1.767008e-08	-2.559970e+01	-1.157195e+03
2.770000e-06	-3.685477e-06	-1.803572e-08	-2.639874e+01	-1.180824e+03
2.780000e-06	-3.795652e-06	-1.837705e-08	-2.718791e+01	-1.203032e+03
2.790000e-06	-3.904607e-06	-1.869560e-08	-2.796835e+01	-1.223947e+03
2.800000e-06	-4.012384e-06	-1.899540e-08	-2.874035e+01	-1.243698e+03
2.810000e-06	-4.118924e-06	-1.928212e-08	-2.950348e+01	-1.262397e+03
2.820000e-06	-4.224024e-06	-1.955499e-08	-3.025631e+01	-1.280139e+03
2.830000e-06	-4.327586e-06	-1.981376e-08	-3.099811e+01	-1.296996e+03
2.840000e-06	-4.429398e-06	-2.005832e-08	-3.172738e+01	-1.313016e+03
2.850000e-06	-4.529533e-06	-2.029060e-08	-3.244464e+01	-1.328232e+03
2.860000e-06	-4.628169e-06	-2.051270e-08	-3.315116e+01	-1.342670e+03
2.870000e-06	-4.725208e-06	-2.072446e-08	-3.384624e+01	-1.356361e+03
2.880000e-06	-4.820630e-06	-2.092667e-08	-3.452974e+01	-1.369341e+03
2.890000e-06	-4.914226e-06	-2.111632e-08	-3.520016e+01	-1.381655e+03
2.900000e-06	-5.006076e-06	-2.129423e-08	-3.585807e+01	-1.393355e+03
2.910000e-06	-5.096315e-06	-2.146307e-08	-3.650445e+01	-1.404494e+03
2.920000e-06	-5.184668e-06	-2.162449e-08	-3.713731e+01	-1.415114e+03
2.930000e-06	-5.270927e-06	-2.177769e-08	-3.775518e+01	-1.425249e+03
2.940000e-06	-5.355196e-06	-2.192288e-08	-3.835879e+01	-1.434913e+03
