# Temperatura_=_84.06
# Concentracion g/m^3_=_28200.0
# C_Vs_to_Am_M_A/Vsm_=_65563218390.804596
# pendiente_HvsI_1/m_=_3716.3
# ordenada_HvsI_A/m_=_1297.0
# frecuencia_Hz_=_302284.2960351851

Tiempo_(s)	Campo_(V.s)	Magnetizacion_(V.s)	Campo_(kA/m)	Magnetizacion_(A/m)
0.000000e+00	-6.879527e-06	-2.767903e-08	-4.952195e+01	-1.812271e+03
1.000000e-08	-6.876819e-06	-2.767256e-08	-4.950246e+01	-1.811752e+03
2.000000e-08	-6.871760e-06	-2.766234e-08	-4.946604e+01	-1.811034e+03
3.000000e-08	-6.864630e-06	-2.764966e-08	-4.941471e+01	-1.810127e+03
4.000000e-08	-6.855225e-06	-2.763502e-08	-4.934702e+01	-1.809036e+03
5.000000e-08	-6.843329e-06	-2.761558e-08	-4.926138e+01	-1.807762e+03
6.000000e-08	-6.828820e-06	-2.759146e-08	-4.915694e+01	-1.806298e+03
7.000000e-08	-6.811848e-06	-2.756519e-08	-4.903476e+01	-1.804638e+03
8.000000e-08	-6.792846e-06	-2.753702e-08	-4.889798e+01	-1.802780e+03
9.000000e-08	-6.771701e-06	-2.753759e-08	-4.874577e+01	-1.800730e+03
1.000000e-07	-6.747971e-06	-2.751057e-08	-4.857495e+01	-1.798507e+03
1.100000e-07	-6.721467e-06	-2.744790e-08	-4.838416e+01	-1.796145e+03
1.200000e-07	-6.692382e-06	-2.739441e-08	-4.817480e+01	-1.793680e+03
1.300000e-07	-6.661092e-06	-2.735031e-08	-4.794955e+01	-1.791150e+03
1.400000e-07	-6.627607e-06	-2.728079e-08	-4.770852e+01	-1.788576e+03
1.500000e-07	-6.592204e-06	-2.722914e-08	-4.745367e+01	-1.785957e+03
1.600000e-07	-6.555094e-06	-2.724557e-08	-4.718654e+01	-1.783263e+03
1.700000e-07	-6.515990e-06	-2.714649e-08	-4.690505e+01	-1.780435e+03
1.800000e-07	-6.474689e-06	-2.708147e-08	-4.660774e+01	-1.777396e+03
1.900000e-07	-6.430899e-06	-2.705545e-08	-4.629253e+01	-1.774061e+03
2.000000e-07	-6.384649e-06	-2.695227e-08	-4.595959e+01	-1.770358e+03
2.100000e-07	-6.335999e-06	-2.690609e-08	-4.560939e+01	-1.766234e+03
2.200000e-07	-6.284669e-06	-2.684579e-08	-4.523989e+01	-1.761675e+03
2.300000e-07	-6.230698e-06	-2.677031e-08	-4.485138e+01	-1.756699e+03
2.400000e-07	-6.174323e-06	-2.668938e-08	-4.444557e+01	-1.751353e+03
2.500000e-07	-6.115592e-06	-2.659244e-08	-4.402280e+01	-1.745701e+03
2.600000e-07	-6.054639e-06	-2.652147e-08	-4.358403e+01	-1.739803e+03
2.700000e-07	-5.991550e-06	-2.642421e-08	-4.312989e+01	-1.733704e+03
2.800000e-07	-5.926198e-06	-2.631209e-08	-4.265945e+01	-1.727422e+03
2.900000e-07	-5.858600e-06	-2.621268e-08	-4.217285e+01	-1.720945e+03
3.000000e-07	-5.788834e-06	-2.610716e-08	-4.167065e+01	-1.714235e+03
3.100000e-07	-5.716897e-06	-2.600127e-08	-4.115281e+01	-1.707240e+03
3.200000e-07	-5.642690e-06	-2.588813e-08	-4.061864e+01	-1.699910e+03
3.300000e-07	-5.566133e-06	-2.579145e-08	-4.006754e+01	-1.692206e+03
3.400000e-07	-5.487246e-06	-2.565758e-08	-3.949968e+01	-1.684111e+03
3.500000e-07	-5.406220e-06	-2.551587e-08	-3.891642e+01	-1.675630e+03
3.600000e-07	-5.323366e-06	-2.539087e-08	-3.832000e+01	-1.666784e+03
3.700000e-07	-5.238794e-06	-2.525219e-08	-3.771121e+01	-1.657598e+03
3.800000e-07	-5.152520e-06	-2.511398e-08	-3.709017e+01	-1.648091e+03
3.900000e-07	-5.064540e-06	-2.496151e-08	-3.645685e+01	-1.638265e+03
4.000000e-07	-4.974747e-06	-2.480152e-08	-3.581048e+01	-1.628100e+03
4.100000e-07	-4.883092e-06	-2.462633e-08	-3.515071e+01	-1.617557e+03
4.200000e-07	-4.789778e-06	-2.445691e-08	-3.447899e+01	-1.606589e+03
4.300000e-07	-4.694925e-06	-2.428812e-08	-3.379619e+01	-1.595146e+03
4.400000e-07	-4.598423e-06	-2.410760e-08	-3.310153e+01	-1.583191e+03
4.500000e-07	-4.500128e-06	-2.391892e-08	-3.239396e+01	-1.570704e+03
4.600000e-07	-4.400090e-06	-2.372194e-08	-3.167384e+01	-1.557686e+03
4.700000e-07	-4.298497e-06	-2.351636e-08	-3.094253e+01	-1.544148e+03
4.800000e-07	-4.195402e-06	-2.329759e-08	-3.020040e+01	-1.530104e+03
4.900000e-07	-4.090887e-06	-2.307799e-08	-2.944806e+01	-1.515558e+03
5.000000e-07	-3.984864e-06	-2.284829e-08	-2.868486e+01	-1.500495e+03
5.100000e-07	-3.877306e-06	-2.260506e-08	-2.791060e+01	-1.484877e+03
5.200000e-07	-3.768391e-06	-2.234954e-08	-2.712659e+01	-1.468644e+03
5.300000e-07	-3.658208e-06	-2.208960e-08	-2.633344e+01	-1.451729e+03
5.400000e-07	-3.546698e-06	-2.182139e-08	-2.553074e+01	-1.434059e+03
5.500000e-07	-3.433844e-06	-2.153904e-08	-2.471836e+01	-1.415579e+03
5.600000e-07	-3.319523e-06	-2.124721e-08	-2.389543e+01	-1.396248e+03
5.700000e-07	-3.203653e-06	-2.094041e-08	-2.306134e+01	-1.376044e+03
5.800000e-07	-3.086432e-06	-2.061933e-08	-2.221754e+01	-1.354956e+03
5.900000e-07	-2.968073e-06	-2.028166e-08	-2.136554e+01	-1.332968e+03
6.000000e-07	-2.848648e-06	-1.993147e-08	-2.050586e+01	-1.310047e+03
6.100000e-07	-2.728174e-06	-1.956451e-08	-1.963863e+01	-1.286130e+03
6.200000e-07	-2.606752e-06	-1.917836e-08	-1.876458e+01	-1.261119e+03
6.300000e-07	-2.484293e-06	-1.877444e-08	-1.788307e+01	-1.234888e+03
6.400000e-07	-2.360752e-06	-1.835101e-08	-1.699376e+01	-1.207288e+03
6.500000e-07	-2.236350e-06	-1.790523e-08	-1.609826e+01	-1.178168e+03
6.600000e-07	-2.111343e-06	-1.743549e-08	-1.519840e+01	-1.147387e+03
6.700000e-07	-1.985686e-06	-1.694103e-08	-1.429387e+01	-1.114821e+03
6.800000e-07	-1.859301e-06	-1.641824e-08	-1.338409e+01	-1.080362e+03
6.900000e-07	-1.732274e-06	-1.586460e-08	-1.246969e+01	-1.043913e+03
7.000000e-07	-1.604659e-06	-1.527599e-08	-1.155106e+01	-1.005367e+03
7.100000e-07	-1.476479e-06	-1.465387e-08	-1.062837e+01	-9.645960e+02
7.200000e-07	-1.347844e-06	-1.399461e-08	-9.702393e+00	-9.214426e+02
7.300000e-07	-1.218847e-06	-1.329685e-08	-8.773811e+00	-8.757278e+02
7.400000e-07	-1.089429e-06	-1.255559e-08	-7.842205e+00	-8.272724e+02
7.500000e-07	-9.596000e-07	-1.176771e-08	-6.907635e+00	-7.759339e+02
7.600000e-07	-8.294316e-07	-1.093840e-08	-5.970624e+00	-7.216493e+02
7.700000e-07	-6.989642e-07	-1.006751e-08	-5.031461e+00	-6.644748e+02
7.800000e-07	-5.682634e-07	-9.157019e-09	-4.090617e+00	-6.046097e+02
7.900000e-07	-4.373048e-07	-8.212746e-09	-3.147918e+00	-5.423956e+02
8.000000e-07	-3.061119e-07	-7.241004e-09	-2.203532e+00	-4.782862e+02
8.100000e-07	-1.747872e-07	-6.245447e-09	-1.258198e+00	-4.127893e+02
8.200000e-07	-4.334178e-08	-5.231777e-09	-3.119937e-01	-3.463908e+02
8.300000e-07	8.818454e-08	-4.208738e-09	6.347922e-01	-2.794749e+02
8.400000e-07	2.196576e-07	-3.182881e-09	1.581195e+00	-2.122591e+02
8.500000e-07	3.510295e-07	-2.155630e-09	2.526869e+00	-1.447592e+02
8.600000e-07	4.823441e-07	-1.123009e-09	3.472131e+00	-7.679459e+01
8.700000e-07	6.135059e-07	-7.928113e-11	4.416293e+00	-8.037811e+00
8.800000e-07	7.444020e-07	9.793333e-10	5.358543e+00	6.190025e+01
8.900000e-07	8.749921e-07	2.062391e-09	6.298589e+00	1.333639e+02
9.000000e-07	1.005253e-06	3.174512e-09	7.236266e+00	2.065461e+02
9.100000e-07	1.135145e-06	4.313618e-09	8.171287e+00	2.814026e+02
9.200000e-07	1.264610e-06	5.476960e-09	9.103235e+00	3.576060e+02
9.300000e-07	1.393600e-06	6.653563e-09	1.003176e+01	4.345483e+02
9.400000e-07	1.522081e-06	7.829409e-09	1.095663e+01	5.113933e+02
9.500000e-07	1.650005e-06	8.985147e-09	1.187748e+01	5.871688e+02
9.600000e-07	1.777376e-06	1.010425e-08	1.279436e+01	6.608812e+02
9.700000e-07	1.904140e-06	1.117463e-08	1.370686e+01	7.316307e+02
9.800000e-07	2.030186e-06	1.218717e-08	1.461420e+01	7.987074e+02
9.900000e-07	2.155520e-06	1.313976e-08	1.551641e+01	8.616522e+02
1.000000e-06	2.280165e-06	1.402819e-08	1.641366e+01	9.202744e+02
1.010000e-06	2.404052e-06	1.485436e-08	1.730546e+01	9.746280e+02
1.020000e-06	2.526991e-06	1.562035e-08	1.819042e+01	1.024956e+03
1.030000e-06	2.648842e-06	1.633102e-08	1.906756e+01	1.071615e+03
1.040000e-06	2.769580e-06	1.699203e-08	1.993669e+01	1.115004e+03
1.050000e-06	2.889313e-06	1.760715e-08	2.079858e+01	1.155499e+03
1.060000e-06	3.008021e-06	1.818181e-08	2.165310e+01	1.193414e+03
1.070000e-06	3.125652e-06	1.872090e-08	2.249986e+01	1.228991e+03
1.080000e-06	3.242180e-06	1.922676e-08	2.333868e+01	1.262401e+03
1.090000e-06	3.357347e-06	1.970146e-08	2.416770e+01	1.293771e+03
1.100000e-06	3.471033e-06	2.014769e-08	2.498607e+01	1.323211e+03
1.110000e-06	3.583373e-06	2.056770e-08	2.579474e+01	1.350834e+03
1.120000e-06	3.694430e-06	2.096355e-08	2.659418e+01	1.376773e+03
1.130000e-06	3.804268e-06	2.133620e-08	2.738484e+01	1.401177e+03
1.140000e-06	3.912968e-06	2.168878e-08	2.816731e+01	1.424206e+03
1.150000e-06	4.020359e-06	2.202234e-08	2.894036e+01	1.446011e+03
1.160000e-06	4.126233e-06	2.233964e-08	2.970250e+01	1.466725e+03
1.170000e-06	4.230511e-06	2.264009e-08	3.045313e+01	1.486445e+03
1.180000e-06	4.333212e-06	2.292403e-08	3.119242e+01	1.505237e+03
1.190000e-06	4.434454e-06	2.319378e-08	3.192121e+01	1.523137e+03
1.200000e-06	4.534223e-06	2.345042e-08	3.263939e+01	1.540165e+03
1.210000e-06	4.632309e-06	2.369403e-08	3.334546e+01	1.556337e+03
1.220000e-06	4.728606e-06	2.392612e-08	3.403865e+01	1.571680e+03
1.230000e-06	4.823175e-06	2.414629e-08	3.471940e+01	1.586234e+03
1.240000e-06	4.916137e-06	2.435614e-08	3.538858e+01	1.600054e+03
1.250000e-06	5.007462e-06	2.455721e-08	3.604598e+01	1.613202e+03
1.260000e-06	5.096876e-06	2.474889e-08	3.668962e+01	1.625742e+03
1.270000e-06	5.184326e-06	2.493087e-08	3.731912e+01	1.637729e+03
1.280000e-06	5.269967e-06	2.510273e-08	3.793561e+01	1.649201e+03
1.290000e-06	5.353822e-06	2.526718e-08	3.853924e+01	1.660178e+03
1.300000e-06	5.435746e-06	2.542538e-08	3.912896e+01	1.670666e+03
1.310000e-06	5.515605e-06	2.557792e-08	3.970382e+01	1.680663e+03
1.320000e-06	5.593444e-06	2.572400e-08	4.026414e+01	1.690165e+03
1.330000e-06	5.669233e-06	2.586346e-08	4.080971e+01	1.699172e+03
1.340000e-06	5.742729e-06	2.599619e-08	4.133876e+01	1.707694e+03
1.350000e-06	5.813976e-06	2.612075e-08	4.185163e+01	1.715749e+03
1.360000e-06	5.883229e-06	2.623810e-08	4.235015e+01	1.723363e+03
1.370000e-06	5.950410e-06	2.634889e-08	4.283375e+01	1.730562e+03
1.380000e-06	6.015368e-06	2.645171e-08	4.330134e+01	1.737371e+03
1.390000e-06	6.078202e-06	2.654829e-08	4.375365e+01	1.743811e+03
1.400000e-06	6.139022e-06	2.663959e-08	4.419146e+01	1.749896e+03
1.410000e-06	6.197741e-06	2.672665e-08	4.461415e+01	1.755643e+03
1.420000e-06	6.254231e-06	2.680988e-08	4.502078e+01	1.761064e+03
1.430000e-06	6.308475e-06	2.688833e-08	4.541126e+01	1.766177e+03
1.440000e-06	6.360239e-06	2.696262e-08	4.578388e+01	1.771003e+03
1.450000e-06	6.409337e-06	2.703361e-08	4.613731e+01	1.775564e+03
1.460000e-06	6.456029e-06	2.710068e-08	4.647342e+01	1.779881e+03
1.470000e-06	6.500562e-06	2.716297e-08	4.679399e+01	1.783967e+03
1.480000e-06	6.542766e-06	2.722223e-08	4.709779e+01	1.787827e+03
1.490000e-06	6.582509e-06	2.727882e-08	4.738388e+01	1.791453e+03
1.500000e-06	6.620054e-06	2.733093e-08	4.765414e+01	1.794827e+03
1.510000e-06	6.655370e-06	2.737697e-08	4.790837e+01	1.797927e+03
1.520000e-06	6.688172e-06	2.741934e-08	4.814449e+01	1.800730e+03
1.530000e-06	6.718574e-06	2.745770e-08	4.836333e+01	1.803223e+03
1.540000e-06	6.746798e-06	2.749058e-08	4.856651e+01	1.805403e+03
1.550000e-06	6.772514e-06	2.751808e-08	4.875162e+01	1.807281e+03
1.560000e-06	6.795548e-06	2.754077e-08	4.891743e+01	1.808882e+03
1.570000e-06	6.816280e-06	2.756052e-08	4.906667e+01	1.810235e+03
1.580000e-06	6.834728e-06	2.757780e-08	4.919946e+01	1.811371e+03
1.590000e-06	6.850628e-06	2.759250e-08	4.931392e+01	1.812312e+03
1.600000e-06	6.863958e-06	2.760555e-08	4.940988e+01	1.813072e+03
1.610000e-06	6.874549e-06	2.761686e-08	4.948611e+01	1.813654e+03
1.620000e-06	6.882408e-06	2.762362e-08	4.954269e+01	1.814049e+03
1.630000e-06	6.887866e-06	2.762673e-08	4.958198e+01	1.814248e+03
1.640000e-06	6.890970e-06	2.762692e-08	4.960432e+01	1.814239e+03
1.650000e-06	6.891606e-06	2.762535e-08	4.960890e+01	1.814019e+03
1.660000e-06	6.889875e-06	2.761763e-08	4.959644e+01	1.813587e+03
1.670000e-06	6.885955e-06	2.760778e-08	4.956822e+01	1.812953e+03
1.680000e-06	6.879715e-06	2.759657e-08	4.952330e+01	1.812126e+03
1.690000e-06	6.871106e-06	2.758255e-08	4.946133e+01	1.811114e+03
1.700000e-06	6.860234e-06	2.756720e-08	4.938307e+01	1.809918e+03
1.710000e-06	6.846981e-06	2.755022e-08	4.928767e+01	1.808536e+03
1.720000e-06	6.831350e-06	2.753251e-08	4.917515e+01	1.806960e+03
1.730000e-06	6.813621e-06	2.749917e-08	4.904753e+01	1.805187e+03
1.740000e-06	6.793797e-06	2.742558e-08	4.890483e+01	1.803217e+03
1.750000e-06	6.771122e-06	2.739084e-08	4.874160e+01	1.801065e+03
1.760000e-06	6.745177e-06	2.737980e-08	4.855484e+01	1.798757e+03
1.770000e-06	6.716374e-06	2.734342e-08	4.834750e+01	1.796332e+03
1.780000e-06	6.685295e-06	2.733166e-08	4.812378e+01	1.793826e+03
1.790000e-06	6.652455e-06	2.733318e-08	4.788738e+01	1.791269e+03
1.800000e-06	6.618213e-06	2.724470e-08	4.764089e+01	1.788671e+03
1.810000e-06	6.582067e-06	2.721664e-08	4.738070e+01	1.786014e+03
1.820000e-06	6.543339e-06	2.720920e-08	4.710192e+01	1.783252e+03
1.830000e-06	6.502390e-06	2.714835e-08	4.680715e+01	1.780313e+03
1.840000e-06	6.459292e-06	2.717386e-08	4.649691e+01	1.777115e+03
1.850000e-06	6.413868e-06	2.708732e-08	4.616992e+01	1.773577e+03
1.860000e-06	6.366147e-06	2.700339e-08	4.582641e+01	1.769637e+03
1.870000e-06	6.315980e-06	2.695734e-08	4.546528e+01	1.765264e+03
1.880000e-06	6.263420e-06	2.683968e-08	4.508693e+01	1.760462e+03
1.890000e-06	6.208288e-06	2.680870e-08	4.469007e+01	1.755268e+03
1.900000e-06	6.150604e-06	2.671449e-08	4.427483e+01	1.749738e+03
1.910000e-06	6.090694e-06	2.661619e-08	4.384357e+01	1.743938e+03
1.920000e-06	6.028404e-06	2.656238e-08	4.339518e+01	1.737921e+03
1.930000e-06	5.963862e-06	2.643253e-08	4.293058e+01	1.731718e+03
1.940000e-06	5.897242e-06	2.636078e-08	4.245102e+01	1.725327e+03
1.950000e-06	5.828392e-06	2.624911e-08	4.195541e+01	1.718722e+03
1.960000e-06	5.757169e-06	2.614194e-08	4.144271e+01	1.711856e+03
1.970000e-06	5.683678e-06	2.602790e-08	4.091369e+01	1.704675e+03
1.980000e-06	5.608060e-06	2.589955e-08	4.036935e+01	1.697134e+03
1.990000e-06	5.530076e-06	2.580777e-08	3.980799e+01	1.689207e+03
2.000000e-06	5.449989e-06	2.566398e-08	3.923149e+01	1.680890e+03
2.010000e-06	5.368139e-06	2.554267e-08	3.864229e+01	1.672197e+03
2.020000e-06	5.284425e-06	2.540042e-08	3.803968e+01	1.663153e+03
2.030000e-06	5.198761e-06	2.525251e-08	3.742303e+01	1.653782e+03
2.040000e-06	5.111060e-06	2.511015e-08	3.679172e+01	1.644094e+03
2.050000e-06	5.021571e-06	2.495732e-08	3.614754e+01	1.634077e+03
2.060000e-06	4.930480e-06	2.481365e-08	3.549183e+01	1.623701e+03
2.070000e-06	4.837753e-06	2.463823e-08	3.482434e+01	1.612922e+03
2.080000e-06	4.743296e-06	2.446433e-08	3.414439e+01	1.601687e+03
2.090000e-06	4.647119e-06	2.427893e-08	3.345206e+01	1.589955e+03
2.100000e-06	4.549365e-06	2.409656e-08	3.274839e+01	1.577697e+03
2.110000e-06	4.450066e-06	2.390962e-08	3.203359e+01	1.564906e+03
2.120000e-06	4.349217e-06	2.371086e-08	3.130763e+01	1.551588e+03
2.130000e-06	4.246637e-06	2.350103e-08	3.056921e+01	1.537759e+03
2.140000e-06	4.142443e-06	2.327589e-08	2.981918e+01	1.523429e+03
2.150000e-06	4.036866e-06	2.305144e-08	2.905919e+01	1.508590e+03
2.160000e-06	3.929920e-06	2.281740e-08	2.828935e+01	1.493216e+03
2.170000e-06	3.821561e-06	2.257779e-08	2.750933e+01	1.477254e+03
2.180000e-06	3.711835e-06	2.232555e-08	2.671947e+01	1.460640e+03
2.190000e-06	3.600683e-06	2.206335e-08	2.591935e+01	1.443301e+03
2.200000e-06	3.488087e-06	2.178303e-08	2.510883e+01	1.425174e+03
2.210000e-06	3.374143e-06	2.149288e-08	2.428861e+01	1.406211e+03
2.220000e-06	3.258801e-06	2.119444e-08	2.345833e+01	1.386383e+03
2.230000e-06	3.142104e-06	2.088450e-08	2.261829e+01	1.365675e+03
2.240000e-06	3.024110e-06	2.055675e-08	2.176891e+01	1.344075e+03
2.250000e-06	2.904786e-06	2.021308e-08	2.090997e+01	1.321559e+03
2.260000e-06	2.784303e-06	1.985675e-08	2.004267e+01	1.298079e+03
2.270000e-06	2.662877e-06	1.948166e-08	1.916860e+01	1.273551e+03
2.280000e-06	2.540562e-06	1.908918e-08	1.828811e+01	1.247859e+03
2.290000e-06	2.417360e-06	1.867750e-08	1.740125e+01	1.220864e+03
2.300000e-06	2.293264e-06	1.824590e-08	1.650795e+01	1.192414e+03
2.310000e-06	2.168465e-06	1.778856e-08	1.560960e+01	1.162361e+03
2.320000e-06	2.043020e-06	1.730624e-08	1.470659e+01	1.130573e+03
2.330000e-06	1.916833e-06	1.679557e-08	1.379823e+01	1.096937e+03
2.340000e-06	1.789826e-06	1.625534e-08	1.288398e+01	1.061354e+03
2.350000e-06	1.662010e-06	1.568215e-08	1.196390e+01	1.023720e+03
2.360000e-06	1.533602e-06	1.507410e-08	1.103956e+01	9.839197e+02
2.370000e-06	1.404821e-06	1.443006e-08	1.011254e+01	9.418080e+02
2.380000e-06	1.275741e-06	1.374631e-08	9.183363e+00	8.972133e+02
2.390000e-06	1.146285e-06	1.302475e-08	8.251480e+00	8.499527e+02
2.400000e-06	1.016418e-06	1.226012e-08	7.316635e+00	7.998629e+02
2.410000e-06	8.861692e-07	1.145194e-08	6.379047e+00	7.468415e+02
2.420000e-06	7.556135e-07	1.060137e-08	5.439248e+00	6.908895e+02
2.430000e-06	6.248569e-07	9.708226e-09	4.498003e+00	6.321433e+02
2.440000e-06	4.939199e-07	8.775140e-09	3.555459e+00	5.708855e+02
2.450000e-06	3.628124e-07	7.807005e-09	2.611688e+00	5.075275e+02
2.460000e-06	2.315689e-07	6.813683e-09	1.666938e+00	4.425623e+02
2.470000e-06	1.002587e-07	5.802440e-09	7.217078e-01	3.764952e+02
2.480000e-06	-3.109122e-08	4.780447e-09	-2.238087e-01	3.097632e+02
2.490000e-06	-1.624768e-07	3.752115e-09	-1.169582e+00	2.426616e+02
2.500000e-06	-2.938014e-07	2.719501e-09	-2.114916e+00	1.752945e+02
2.510000e-06	-4.249964e-07	1.682245e-09	-3.059316e+00	1.075619e+02
2.520000e-06	-5.560993e-07	6.351240e-10	-4.003055e+00	3.919070e+01
2.530000e-06	-6.870622e-07	-4.270860e-10	-4.945785e+00	-3.019405e+01
2.540000e-06	-8.178324e-07	-1.507431e-09	-5.887128e+00	-1.009694e+02
2.550000e-06	-9.484003e-07	-2.610390e-09	-6.827015e+00	-1.734054e+02
2.560000e-06	-1.078609e-06	-3.739020e-09	-7.764314e+00	-2.475677e+02
2.570000e-06	-1.208352e-06	-4.894665e-09	-8.698265e+00	-3.232529e+02
2.580000e-06	-1.337690e-06	-6.069592e-09	-9.629297e+00	-3.999696e+02
2.590000e-06	-1.466637e-06	-7.249899e-09	-1.055751e+01	-4.769702e+02
2.600000e-06	-1.595219e-06	-8.422472e-09	-1.148311e+01	-5.533275e+02
2.610000e-06	-1.723320e-06	-9.568575e-09	-1.240524e+01	-6.280426e+02
2.620000e-06	-1.850687e-06	-1.067373e-08	-1.332209e+01	-7.001619e+02
2.630000e-06	-1.977233e-06	-1.172589e-08	-1.423302e+01	-7.688847e+02
2.640000e-06	-2.102978e-06	-1.271520e-08	-1.513819e+01	-8.336395e+02
2.650000e-06	-2.227852e-06	-1.363825e-08	-1.603709e+01	-8.941212e+02
2.660000e-06	-2.351845e-06	-1.449687e-08	-1.692965e+01	-9.502843e+02
2.670000e-06	-2.474997e-06	-1.529411e-08	-1.781615e+01	-1.002299e+03
2.680000e-06	-2.597179e-06	-1.603490e-08	-1.869567e+01	-1.050482e+03
2.690000e-06	-2.718385e-06	-1.672464e-08	-1.956817e+01	-1.095225e+03
2.700000e-06	-2.838649e-06	-1.736675e-08	-2.043388e+01	-1.136917e+03
2.710000e-06	-2.957837e-06	-1.796582e-08	-2.129185e+01	-1.175905e+03
2.720000e-06	-3.075844e-06	-1.852626e-08	-2.214132e+01	-1.212460e+03
2.730000e-06	-3.192605e-06	-1.904992e-08	-2.298181e+01	-1.246781e+03
2.740000e-06	-3.308108e-06	-1.953881e-08	-2.381326e+01	-1.279012e+03
2.750000e-06	-3.422289e-06	-1.999883e-08	-2.463519e+01	-1.309266e+03
2.760000e-06	-3.535009e-06	-2.043164e-08	-2.544659e+01	-1.337653e+03
2.770000e-06	-3.646295e-06	-2.083860e-08	-2.624768e+01	-1.364296e+03
2.780000e-06	-3.756252e-06	-2.122344e-08	-2.703920e+01	-1.389339e+03
2.790000e-06	-3.864944e-06	-2.158702e-08	-2.782162e+01	-1.412938e+03
2.800000e-06	-3.972452e-06	-2.192954e-08	-2.859551e+01	-1.435251e+03
2.810000e-06	-4.078691e-06	-2.225219e-08	-2.936026e+01	-1.456419e+03
2.820000e-06	-4.183551e-06	-2.255835e-08	-3.011509e+01	-1.476555e+03
2.830000e-06	-4.286852e-06	-2.285152e-08	-3.085870e+01	-1.495739e+03
2.840000e-06	-4.388470e-06	-2.313207e-08	-3.159019e+01	-1.514018e+03
2.850000e-06	-4.488521e-06	-2.339958e-08	-3.231041e+01	-1.531418e+03
2.860000e-06	-4.587021e-06	-2.365206e-08	-3.301945e+01	-1.547955e+03
2.870000e-06	-4.683982e-06	-2.388997e-08	-3.371742e+01	-1.563650e+03
2.880000e-06	-4.779256e-06	-2.411730e-08	-3.440325e+01	-1.578537e+03
2.890000e-06	-4.872684e-06	-2.433535e-08	-3.507578e+01	-1.592664e+03
2.900000e-06	-4.964419e-06	-2.454456e-08	-3.573614e+01	-1.606092e+03
2.910000e-06	-5.054501e-06	-2.474499e-08	-3.638459e+01	-1.618886e+03
2.920000e-06	-5.142766e-06	-2.493468e-08	-3.701996e+01	-1.631104e+03
2.930000e-06	-5.228982e-06	-2.511371e-08	-3.764058e+01	-1.642794e+03
2.940000e-06	-5.313216e-06	-2.528354e-08	-3.824693e+01	-1.653981e+03
