# Temperatura_=_65.6
# Concentracion g/m^3_=_28200.0
# C_Vs_to_Am_M_A/Vsm_=_65563218390.804596
# pendiente_HvsI_1/m_=_3716.3
# ordenada_HvsI_A/m_=_1297.0
# frecuencia_Hz_=_302275.2105790724

Tiempo_(s)	Campo_(V.s)	Magnetizacion_(V.s)	Campo_(kA/m)	Magnetizacion_(A/m)
0.000000e+00	-6.870675e-06	-2.051330e-08	-4.952715e+01	-1.342910e+03
1.000000e-08	-6.867650e-06	-2.050760e-08	-4.950534e+01	-1.342613e+03
2.000000e-08	-6.862322e-06	-2.050054e-08	-4.946693e+01	-1.342191e+03
3.000000e-08	-6.854927e-06	-2.049224e-08	-4.941363e+01	-1.341632e+03
4.000000e-08	-6.845229e-06	-2.048199e-08	-4.934372e+01	-1.340926e+03
5.000000e-08	-6.833008e-06	-2.046874e-08	-4.925563e+01	-1.340062e+03
6.000000e-08	-6.818246e-06	-2.045275e-08	-4.914922e+01	-1.339037e+03
7.000000e-08	-6.801087e-06	-2.043569e-08	-4.902552e+01	-1.337856e+03
8.000000e-08	-6.781841e-06	-2.042501e-08	-4.888679e+01	-1.336533e+03
9.000000e-08	-6.760394e-06	-2.041985e-08	-4.873219e+01	-1.335094e+03
1.000000e-07	-6.736328e-06	-2.039735e-08	-4.855871e+01	-1.333567e+03
1.100000e-07	-6.709462e-06	-2.035857e-08	-4.836504e+01	-1.331983e+03
1.200000e-07	-6.680090e-06	-2.031763e-08	-4.815332e+01	-1.330364e+03
1.300000e-07	-6.648529e-06	-2.027677e-08	-4.792581e+01	-1.328720e+03
1.400000e-07	-6.614828e-06	-2.023245e-08	-4.768288e+01	-1.327042e+03
1.500000e-07	-6.579262e-06	-2.022619e-08	-4.742650e+01	-1.325303e+03
1.600000e-07	-6.541897e-06	-2.021204e-08	-4.715716e+01	-1.323461e+03
1.700000e-07	-6.502493e-06	-2.015161e-08	-4.687311e+01	-1.321464e+03
1.800000e-07	-6.460878e-06	-2.011444e-08	-4.657313e+01	-1.319261e+03
1.900000e-07	-6.416800e-06	-2.006728e-08	-4.625540e+01	-1.316808e+03
2.000000e-07	-6.370294e-06	-2.001954e-08	-4.592016e+01	-1.314079e+03
2.100000e-07	-6.321380e-06	-1.996796e-08	-4.556757e+01	-1.311067e+03
2.200000e-07	-6.269812e-06	-1.992589e-08	-4.519584e+01	-1.307786e+03
2.300000e-07	-6.215663e-06	-1.989934e-08	-4.480551e+01	-1.304266e+03
2.400000e-07	-6.159127e-06	-1.982226e-08	-4.439797e+01	-1.300541e+03
2.500000e-07	-6.100232e-06	-1.975891e-08	-4.397342e+01	-1.296645e+03
2.600000e-07	-6.039070e-06	-1.971503e-08	-4.353253e+01	-1.292603e+03
2.700000e-07	-5.975709e-06	-1.963916e-08	-4.307580e+01	-1.288420e+03
2.800000e-07	-5.910102e-06	-1.955995e-08	-4.260287e+01	-1.284088e+03
2.900000e-07	-5.842240e-06	-1.949943e-08	-4.211369e+01	-1.279581e+03
3.000000e-07	-5.772187e-06	-1.943233e-08	-4.160872e+01	-1.274868e+03
3.100000e-07	-5.700037e-06	-1.934645e-08	-4.108862e+01	-1.269918e+03
3.200000e-07	-5.625680e-06	-1.926997e-08	-4.055262e+01	-1.264704e+03
3.300000e-07	-5.548983e-06	-1.918620e-08	-3.999976e+01	-1.259216e+03
3.400000e-07	-5.469959e-06	-1.909373e-08	-3.943011e+01	-1.253452e+03
3.500000e-07	-5.388755e-06	-1.900854e-08	-3.884475e+01	-1.247422e+03
3.600000e-07	-5.305730e-06	-1.891162e-08	-3.824626e+01	-1.241140e+03
3.700000e-07	-5.221032e-06	-1.881485e-08	-3.763572e+01	-1.234615e+03
3.800000e-07	-5.134644e-06	-1.871804e-08	-3.701300e+01	-1.227847e+03
3.900000e-07	-5.046565e-06	-1.860524e-08	-3.637808e+01	-1.220824e+03
4.000000e-07	-4.956599e-06	-1.848604e-08	-3.572956e+01	-1.213523e+03
4.100000e-07	-4.864772e-06	-1.836753e-08	-3.506763e+01	-1.205911e+03
4.200000e-07	-4.771357e-06	-1.824546e-08	-3.439425e+01	-1.197955e+03
4.300000e-07	-4.676383e-06	-1.811811e-08	-3.370963e+01	-1.189625e+03
4.400000e-07	-4.579715e-06	-1.798697e-08	-3.301280e+01	-1.180903e+03
4.500000e-07	-4.481326e-06	-1.784880e-08	-3.230357e+01	-1.171781e+03
4.600000e-07	-4.381277e-06	-1.770346e-08	-3.158236e+01	-1.162261e+03
4.700000e-07	-4.279668e-06	-1.755204e-08	-3.084992e+01	-1.152350e+03
4.800000e-07	-4.176610e-06	-1.739320e-08	-3.010703e+01	-1.142051e+03
4.900000e-07	-4.072039e-06	-1.723141e-08	-2.935323e+01	-1.131360e+03
5.000000e-07	-3.965924e-06	-1.706113e-08	-2.858830e+01	-1.120257e+03
5.100000e-07	-3.858336e-06	-1.688135e-08	-2.781275e+01	-1.108709e+03
5.200000e-07	-3.749369e-06	-1.669428e-08	-2.702726e+01	-1.096671e+03
5.300000e-07	-3.639087e-06	-1.650104e-08	-2.623230e+01	-1.084089e+03
5.400000e-07	-3.527533e-06	-1.630042e-08	-2.542816e+01	-1.070914e+03
5.500000e-07	-3.414696e-06	-1.608913e-08	-2.461478e+01	-1.057100e+03
5.600000e-07	-3.300434e-06	-1.586747e-08	-2.379113e+01	-1.042611e+03
5.700000e-07	-3.184577e-06	-1.563343e-08	-2.295597e+01	-1.027422e+03
5.800000e-07	-3.067349e-06	-1.538974e-08	-2.211094e+01	-1.011510e+03
5.900000e-07	-2.949037e-06	-1.513409e-08	-2.125809e+01	-9.948520e+02
6.000000e-07	-2.829671e-06	-1.486939e-08	-2.039763e+01	-9.774137e+02
6.100000e-07	-2.709313e-06	-1.459346e-08	-1.953004e+01	-9.591479e+02
6.200000e-07	-2.587974e-06	-1.430102e-08	-1.865537e+01	-9.399902e+02
6.300000e-07	-2.465556e-06	-1.399265e-08	-1.777292e+01	-9.198612e+02
6.400000e-07	-2.342135e-06	-1.366560e-08	-1.688324e+01	-8.986713e+02
6.500000e-07	-2.217848e-06	-1.331971e-08	-1.598732e+01	-8.763267e+02
6.600000e-07	-2.092844e-06	-1.295382e-08	-1.508623e+01	-8.527349e+02
6.700000e-07	-1.967255e-06	-1.257211e-08	-1.418092e+01	-8.278077e+02
6.800000e-07	-1.841055e-06	-1.217223e-08	-1.327122e+01	-8.014608e+02
6.900000e-07	-1.714176e-06	-1.175023e-08	-1.235661e+01	-7.736098e+02
7.000000e-07	-1.586636e-06	-1.130457e-08	-1.143724e+01	-7.441663e+02
7.100000e-07	-1.458533e-06	-1.083105e-08	-1.051381e+01	-7.130351e+02
7.200000e-07	-1.329997e-06	-1.032669e-08	-9.587261e+00	-6.801169e+02
7.300000e-07	-1.201111e-06	-9.791294e-09	-8.658189e+00	-6.453173e+02
7.400000e-07	-1.071872e-06	-9.227759e-09	-7.726570e+00	-6.085631e+02
7.500000e-07	-9.422534e-07	-8.636741e-09	-6.792218e+00	-5.698234e+02
7.600000e-07	-8.122309e-07	-8.017446e-09	-5.854953e+00	-5.291317e+02
7.700000e-07	-6.818894e-07	-7.369355e-09	-4.915388e+00	-4.866021e+02
7.800000e-07	-5.513138e-07	-6.699014e-09	-3.974136e+00	-4.424367e+02
7.900000e-07	-4.205112e-07	-6.010649e-09	-3.031248e+00	-3.969160e+02
8.000000e-07	-2.894765e-07	-5.305785e-09	-2.086686e+00	-3.503757e+02
8.100000e-07	-1.583424e-07	-4.588427e-09	-1.141409e+00	-3.031675e+02
8.200000e-07	-2.716012e-08	-3.862076e-09	-1.957833e-01	-2.556125e+02
8.300000e-07	1.041085e-07	-3.132513e-09	7.504645e-01	-2.079552e+02
8.400000e-07	2.353832e-07	-2.403431e-09	1.696756e+00	-1.603255e+02
8.500000e-07	3.665672e-07	-1.677117e-09	2.642393e+00	-1.127200e+02
8.600000e-07	4.976291e-07	-9.523742e-10	3.587151e+00	-6.500524e+01
8.700000e-07	6.285228e-07	-2.242014e-10	4.530696e+00	-1.694632e+01
8.800000e-07	7.591697e-07	5.124974e-10	5.472463e+00	3.174368e+01
8.900000e-07	8.895523e-07	1.263897e-09	6.412323e+00	8.134145e+01
9.000000e-07	1.019637e-06	2.034065e-09	7.350034e+00	1.320488e+02
9.100000e-07	1.149352e-06	2.824911e-09	8.285083e+00	1.839374e+02
9.200000e-07	1.278628e-06	3.633358e-09	9.216968e+00	2.369126e+02
9.300000e-07	1.407439e-06	4.453294e-09	1.014550e+01	2.907033e+02
9.400000e-07	1.535754e-06	5.278157e-09	1.107046e+01	3.448792e+02
9.500000e-07	1.663489e-06	6.099370e-09	1.199123e+01	3.988926e+02
9.600000e-07	1.790574e-06	6.907781e-09	1.290732e+01	4.521362e+02
9.700000e-07	1.917002e-06	7.694890e-09	1.381867e+01	5.040082e+02
9.800000e-07	2.042793e-06	8.451647e-09	1.472544e+01	5.539724e+02
9.900000e-07	2.167880e-06	9.173224e-09	1.562713e+01	6.016056e+02
1.000000e-06	2.292202e-06	9.855981e-09	1.652330e+01	6.466246e+02
1.010000e-06	2.415726e-06	1.049682e-08	1.741372e+01	6.888927e+02
1.020000e-06	2.538358e-06	1.109888e-08	1.829771e+01	7.284057e+02
1.030000e-06	2.659967e-06	1.166229e-08	1.917433e+01	7.652643e+02
1.040000e-06	2.780480e-06	1.218606e-08	2.004304e+01	7.996387e+02
1.050000e-06	2.899904e-06	1.267319e-08	2.090391e+01	8.317331e+02
1.060000e-06	3.018327e-06	1.312857e-08	2.175756e+01	8.617556e+02
1.070000e-06	3.135723e-06	1.355486e-08	2.260381e+01	8.898978e+02
1.080000e-06	3.251918e-06	1.395597e-08	2.344139e+01	9.163240e+02
1.090000e-06	3.366728e-06	1.433301e-08	2.426900e+01	9.411700e+02
1.100000e-06	3.480092e-06	1.468738e-08	2.508619e+01	9.645484e+02
1.110000e-06	3.592086e-06	1.502371e-08	2.589349e+01	9.865564e+02
1.120000e-06	3.702825e-06	1.534177e-08	2.669175e+01	1.007283e+03
1.130000e-06	3.812429e-06	1.564135e-08	2.748183e+01	1.026815e+03
1.140000e-06	3.920829e-06	1.592178e-08	2.826323e+01	1.045239e+03
1.150000e-06	4.027865e-06	1.618487e-08	2.903480e+01	1.062639e+03
1.160000e-06	4.133401e-06	1.643405e-08	2.979555e+01	1.079098e+03
1.170000e-06	4.237346e-06	1.667076e-08	3.054484e+01	1.094688e+03
1.180000e-06	4.339782e-06	1.689553e-08	3.128324e+01	1.109476e+03
1.190000e-06	4.440769e-06	1.710954e-08	3.201121e+01	1.123516e+03
1.200000e-06	4.540250e-06	1.731218e-08	3.272831e+01	1.136855e+03
1.210000e-06	4.637982e-06	1.750177e-08	3.343282e+01	1.149533e+03
1.220000e-06	4.733849e-06	1.768077e-08	3.412388e+01	1.161583e+03
1.230000e-06	4.828076e-06	1.785347e-08	3.480310e+01	1.173038e+03
1.240000e-06	4.920733e-06	1.802138e-08	3.547102e+01	1.183926e+03
1.250000e-06	5.011666e-06	1.818135e-08	3.612651e+01	1.194273e+03
1.260000e-06	5.100672e-06	1.833246e-08	3.676811e+01	1.204104e+03
1.270000e-06	5.187739e-06	1.847456e-08	3.739573e+01	1.213436e+03
1.280000e-06	5.273008e-06	1.860882e-08	3.801039e+01	1.222286e+03
1.290000e-06	5.356521e-06	1.873635e-08	3.861239e+01	1.230667e+03
1.300000e-06	5.438083e-06	1.885908e-08	3.920033e+01	1.238589e+03
1.310000e-06	5.517556e-06	1.897539e-08	3.977321e+01	1.246066e+03
1.320000e-06	5.595062e-06	1.908305e-08	4.033191e+01	1.253114e+03
1.330000e-06	5.670488e-06	1.918430e-08	4.087562e+01	1.259753e+03
1.340000e-06	5.743585e-06	1.927847e-08	4.140254e+01	1.266011e+03
1.350000e-06	5.814508e-06	1.936807e-08	4.191378e+01	1.271916e+03
1.360000e-06	5.883436e-06	1.945477e-08	4.241065e+01	1.277503e+03
1.370000e-06	5.950263e-06	1.953858e-08	4.289238e+01	1.282804e+03
1.380000e-06	6.014895e-06	1.961654e-08	4.335827e+01	1.287845e+03
1.390000e-06	6.077425e-06	1.968732e-08	4.380902e+01	1.292650e+03
1.400000e-06	6.137929e-06	1.975438e-08	4.424516e+01	1.297233e+03
1.410000e-06	6.196218e-06	1.981815e-08	4.466534e+01	1.301601e+03
1.420000e-06	6.252242e-06	1.987880e-08	4.506918e+01	1.305756e+03
1.430000e-06	6.306000e-06	1.993827e-08	4.545669e+01	1.309694e+03
1.440000e-06	6.357287e-06	1.999786e-08	4.582640e+01	1.313410e+03
1.450000e-06	6.406005e-06	2.005427e-08	4.617758e+01	1.316897e+03
1.460000e-06	6.452316e-06	2.010491e-08	4.651141e+01	1.320151e+03
1.470000e-06	6.496470e-06	2.015116e-08	4.682970e+01	1.323171e+03
1.480000e-06	6.538348e-06	2.019384e-08	4.713157e+01	1.325956e+03
1.490000e-06	6.577759e-06	2.023168e-08	4.741566e+01	1.328512e+03
1.500000e-06	6.614904e-06	2.026390e-08	4.768342e+01	1.330844e+03
1.510000e-06	6.649847e-06	2.029273e-08	4.793531e+01	1.332961e+03
1.520000e-06	6.682334e-06	2.032355e-08	4.816950e+01	1.334869e+03
1.530000e-06	6.712450e-06	2.035439e-08	4.838658e+01	1.336579e+03
1.540000e-06	6.740332e-06	2.037813e-08	4.858757e+01	1.338099e+03
1.550000e-06	6.765700e-06	2.039553e-08	4.877043e+01	1.339435e+03
1.560000e-06	6.788521e-06	2.041135e-08	4.893494e+01	1.340596e+03
1.570000e-06	6.809033e-06	2.042644e-08	4.908280e+01	1.341587e+03
1.580000e-06	6.827185e-06	2.043916e-08	4.921365e+01	1.342414e+03
1.590000e-06	6.842772e-06	2.044902e-08	4.932601e+01	1.343082e+03
1.600000e-06	6.855732e-06	2.045734e-08	4.941943e+01	1.343598e+03
1.610000e-06	6.865979e-06	2.046446e-08	4.949330e+01	1.343971e+03
1.620000e-06	6.873584e-06	2.046807e-08	4.954812e+01	1.344207e+03
1.630000e-06	6.878834e-06	2.046932e-08	4.958596e+01	1.344316e+03
1.640000e-06	6.881691e-06	2.047040e-08	4.960656e+01	1.344303e+03
1.650000e-06	6.882016e-06	2.047070e-08	4.960890e+01	1.344174e+03
1.660000e-06	6.879990e-06	2.046727e-08	4.959429e+01	1.343928e+03
1.670000e-06	6.875751e-06	2.046029e-08	4.956374e+01	1.343560e+03
1.680000e-06	6.869183e-06	2.045256e-08	4.951639e+01	1.343062e+03
1.690000e-06	6.860354e-06	2.044409e-08	4.945275e+01	1.342420e+03
1.700000e-06	6.849276e-06	2.043335e-08	4.937289e+01	1.341625e+03
1.710000e-06	6.835775e-06	2.042228e-08	4.927557e+01	1.340668e+03
1.720000e-06	6.819962e-06	2.040911e-08	4.916158e+01	1.339553e+03
1.730000e-06	6.802082e-06	2.037731e-08	4.903270e+01	1.338288e+03
1.740000e-06	6.782021e-06	2.033799e-08	4.888809e+01	1.336895e+03
1.750000e-06	6.758959e-06	2.031265e-08	4.872184e+01	1.335402e+03
1.760000e-06	6.732648e-06	2.030078e-08	4.853218e+01	1.333839e+03
1.770000e-06	6.703650e-06	2.028610e-08	4.832315e+01	1.332233e+03
1.780000e-06	6.672423e-06	2.028297e-08	4.809805e+01	1.330599e+03
1.790000e-06	6.639437e-06	2.025984e-08	4.786027e+01	1.328938e+03
1.800000e-06	6.605042e-06	2.021942e-08	4.761233e+01	1.327229e+03
1.810000e-06	6.568685e-06	2.020068e-08	4.735026e+01	1.325437e+03
1.820000e-06	6.529777e-06	2.017921e-08	4.706979e+01	1.323513e+03
1.830000e-06	6.488678e-06	2.017560e-08	4.677353e+01	1.321404e+03
1.840000e-06	6.445412e-06	2.014975e-08	4.646165e+01	1.319062e+03
1.850000e-06	6.399762e-06	2.010675e-08	4.613258e+01	1.316453e+03
1.860000e-06	6.351750e-06	2.006388e-08	4.578648e+01	1.313562e+03
1.870000e-06	6.301341e-06	1.998360e-08	4.542311e+01	1.310393e+03
1.880000e-06	6.248516e-06	1.993077e-08	4.504232e+01	1.306971e+03
1.890000e-06	6.193101e-06	1.988951e-08	4.464287e+01	1.303329e+03
1.900000e-06	6.135213e-06	1.982186e-08	4.422558e+01	1.299503e+03
1.910000e-06	6.075086e-06	1.978146e-08	4.379215e+01	1.295522e+03
1.920000e-06	6.012566e-06	1.973050e-08	4.334148e+01	1.291399e+03
1.930000e-06	5.947842e-06	1.964772e-08	4.287492e+01	1.287133e+03
1.940000e-06	5.881068e-06	1.957513e-08	4.239358e+01	1.282704e+03
1.950000e-06	5.812083e-06	1.951360e-08	4.189630e+01	1.278084e+03
1.960000e-06	5.740738e-06	1.943840e-08	4.138201e+01	1.273238e+03
1.970000e-06	5.667099e-06	1.935475e-08	4.085119e+01	1.268140e+03
1.980000e-06	5.591285e-06	1.928259e-08	4.030469e+01	1.262770e+03
1.990000e-06	5.513169e-06	1.919610e-08	3.974159e+01	1.257123e+03
2.000000e-06	5.432953e-06	1.910159e-08	3.916335e+01	1.251206e+03
2.010000e-06	5.350920e-06	1.900423e-08	3.857202e+01	1.245030e+03
2.020000e-06	5.267120e-06	1.890630e-08	3.796795e+01	1.238608e+03
2.030000e-06	5.181367e-06	1.881250e-08	3.734980e+01	1.231944e+03
2.040000e-06	5.093554e-06	1.870734e-08	3.671680e+01	1.225033e+03
2.050000e-06	5.003989e-06	1.859727e-08	3.607118e+01	1.217855e+03
2.060000e-06	4.912850e-06	1.848384e-08	3.541420e+01	1.210380e+03
2.070000e-06	4.820085e-06	1.836617e-08	3.474550e+01	1.202575e+03
2.080000e-06	4.725544e-06	1.823779e-08	3.406400e+01	1.194408e+03
2.090000e-06	4.629262e-06	1.810608e-08	3.336996e+01	1.185856e+03
2.100000e-06	4.531429e-06	1.797257e-08	3.266473e+01	1.176906e+03
2.110000e-06	4.432111e-06	1.783404e-08	3.194880e+01	1.167555e+03
2.120000e-06	4.331240e-06	1.768819e-08	3.122167e+01	1.157811e+03
2.130000e-06	4.228635e-06	1.753263e-08	3.048205e+01	1.147678e+03
2.140000e-06	4.124374e-06	1.737243e-08	2.973048e+01	1.137156e+03
2.150000e-06	4.018687e-06	1.720527e-08	2.896864e+01	1.126233e+03
2.160000e-06	3.911668e-06	1.703201e-08	2.819720e+01	1.114880e+03
2.170000e-06	3.803326e-06	1.685170e-08	2.741621e+01	1.103058e+03
2.180000e-06	3.693646e-06	1.666872e-08	2.662559e+01	1.090716e+03
2.190000e-06	3.582551e-06	1.647476e-08	2.582476e+01	1.077801e+03
2.200000e-06	3.470011e-06	1.626687e-08	2.501352e+01	1.064265e+03
2.210000e-06	3.356089e-06	1.604855e-08	2.419231e+01	1.050069e+03
2.220000e-06	3.240795e-06	1.582183e-08	2.336122e+01	1.035183e+03
2.230000e-06	3.124179e-06	1.558933e-08	2.252059e+01	1.019584e+03
2.240000e-06	3.006249e-06	1.534446e-08	2.167049e+01	1.003248e+03
2.250000e-06	2.887008e-06	1.508384e-08	2.081095e+01	9.861488e+02
2.260000e-06	2.766603e-06	1.480822e-08	1.994301e+01	9.682444e+02
2.270000e-06	2.645254e-06	1.452099e-08	1.906827e+01	9.494777e+02
2.280000e-06	2.523037e-06	1.422055e-08	1.818727e+01	9.297754e+02
2.290000e-06	2.399897e-06	1.390603e-08	1.729962e+01	9.090514e+02
2.300000e-06	2.275879e-06	1.357656e-08	1.640564e+01	8.872130e+02
2.310000e-06	2.151126e-06	1.322770e-08	1.550636e+01	8.641666e+02
2.320000e-06	2.025699e-06	1.285608e-08	1.460222e+01	8.398221e+02
2.330000e-06	1.899495e-06	1.246374e-08	1.369247e+01	8.140937e+02
2.340000e-06	1.772488e-06	1.205187e-08	1.277695e+01	7.868976e+02
2.350000e-06	1.644804e-06	1.161818e-08	1.185654e+01	7.581477e+02
2.360000e-06	1.516612e-06	1.115767e-08	1.093247e+01	7.277517e+02
2.370000e-06	1.387968e-06	1.066688e-08	1.000515e+01	6.956113e+02
2.380000e-06	1.258876e-06	1.014337e-08	9.074583e+00	6.616286e+02
2.390000e-06	1.129440e-06	9.591236e-09	8.141550e+00	6.257186e+02
2.400000e-06	9.997277e-07	9.012461e-09	7.206521e+00	5.878299e+02
2.410000e-06	8.697016e-07	8.406287e-09	6.269230e+00	5.479656e+02
2.420000e-06	7.393421e-07	7.772233e-09	5.329535e+00	5.062038e+02
2.430000e-06	6.087469e-07	7.108118e-09	4.388142e+00	4.627092e+02
2.440000e-06	4.779799e-07	6.419101e-09	3.445510e+00	4.177305e+02
2.450000e-06	3.470697e-07	5.712916e-09	2.501846e+00	3.715839e+02
2.460000e-06	2.159814e-07	4.995409e-09	1.556899e+00	3.246195e+02
2.470000e-06	8.472528e-08	4.270151e-09	6.107407e-01	2.771776e+02
2.480000e-06	-4.653815e-08	3.541665e-09	-3.354695e-01	2.295407e+02
2.490000e-06	-1.777242e-07	2.812488e-09	-1.281122e+00	1.818915e+02
2.500000e-06	-3.088831e-07	2.084317e-09	-2.226579e+00	1.342846e+02
2.510000e-06	-4.399552e-07	1.356718e-09	-3.171410e+00	8.664030e+01
2.520000e-06	-5.708698e-07	6.246582e-10	-4.115106e+00	3.876213e+01
2.530000e-06	-7.016450e-07	-1.166933e-10	-5.057796e+00	-9.621575e+00
2.540000e-06	-8.322655e-07	-8.700341e-10	-5.999372e+00	-5.879996e+01
2.550000e-06	-9.626301e-07	-1.637660e-09	-6.939103e+00	-1.090145e+02
2.560000e-06	-1.092607e-06	-2.421139e-09	-7.876039e+00	-1.603984e+02
2.570000e-06	-1.222223e-06	-3.223023e-09	-8.810374e+00	-2.129311e+02
2.580000e-06	-1.351461e-06	-4.040862e-09	-9.741983e+00	-2.664165e+02
2.590000e-06	-1.480271e-06	-4.869706e-09	-1.067051e+01	-3.204889e+02
2.600000e-06	-1.608649e-06	-5.700946e-09	-1.159592e+01	-3.746445e+02
2.610000e-06	-1.736453e-06	-6.524159e-09	-1.251720e+01	-4.282936e+02
2.620000e-06	-1.863550e-06	-7.330344e-09	-1.343337e+01	-4.808243e+02
2.630000e-06	-1.989879e-06	-8.109459e-09	-1.434401e+01	-5.316656e+02
2.640000e-06	-2.115393e-06	-8.854094e-09	-1.524878e+01	-5.803412e+02
2.650000e-06	-2.240069e-06	-9.559902e-09	-1.614750e+01	-6.265059e+02
2.660000e-06	-2.363866e-06	-1.022422e-08	-1.703989e+01	-6.699609e+02
2.670000e-06	-2.486748e-06	-1.084543e-08	-1.792568e+01	-7.106478e+02
2.680000e-06	-2.608647e-06	-1.142705e-08	-1.880439e+01	-7.486265e+02
2.690000e-06	-2.729560e-06	-1.197164e-08	-1.967599e+01	-7.840419e+02
2.700000e-06	-2.849564e-06	-1.247925e-08	-2.054104e+01	-8.170878e+02
2.710000e-06	-2.968508e-06	-1.295265e-08	-2.139844e+01	-8.479737e+02
2.720000e-06	-3.086225e-06	-1.339538e-08	-2.224700e+01	-8.769001e+02
2.730000e-06	-3.202677e-06	-1.380924e-08	-2.308645e+01	-9.040436e+02
2.740000e-06	-3.317823e-06	-1.419846e-08	-2.391648e+01	-9.295520e+02
2.750000e-06	-3.431569e-06	-1.456692e-08	-2.473640e+01	-9.535470e+02
2.760000e-06	-3.543858e-06	-1.491164e-08	-2.554584e+01	-9.761312e+02
2.770000e-06	-3.654772e-06	-1.523509e-08	-2.634537e+01	-9.973964e+02
2.780000e-06	-3.764429e-06	-1.554022e-08	-2.713582e+01	-1.017430e+03
2.790000e-06	-3.872901e-06	-1.582842e-08	-2.791774e+01	-1.036318e+03
2.800000e-06	-3.980148e-06	-1.610112e-08	-2.869083e+01	-1.054147e+03
2.810000e-06	-4.086072e-06	-1.635834e-08	-2.945439e+01	-1.071000e+03
2.820000e-06	-4.190586e-06	-1.660177e-08	-3.020777e+01	-1.086954e+03
2.830000e-06	-4.293553e-06	-1.683388e-08	-3.095001e+01	-1.102079e+03
2.840000e-06	-4.394830e-06	-1.705703e-08	-3.168006e+01	-1.116434e+03
2.850000e-06	-4.494535e-06	-1.726954e-08	-3.239878e+01	-1.130068e+03
2.860000e-06	-4.592763e-06	-1.746948e-08	-3.310685e+01	-1.143025e+03
2.870000e-06	-4.689468e-06	-1.765748e-08	-3.380395e+01	-1.155340e+03
2.880000e-06	-4.784451e-06	-1.783531e-08	-3.448864e+01	-1.167046e+03
2.890000e-06	-4.877547e-06	-1.800369e-08	-3.515972e+01	-1.178174e+03
2.900000e-06	-4.968945e-06	-1.816294e-08	-3.581856e+01	-1.188750e+03
2.910000e-06	-5.058718e-06	-1.831525e-08	-3.646569e+01	-1.198800e+03
2.920000e-06	-5.146666e-06	-1.846259e-08	-3.709966e+01	-1.208344e+03
2.930000e-06	-5.232584e-06	-1.860296e-08	-3.771900e+01	-1.217399e+03
2.940000e-06	-5.316529e-06	-1.873580e-08	-3.832411e+01	-1.225980e+03
