# Temperatura_=_65.6
# Concentracion g/m^3_=_28200.0
# C_Vs_to_Am_M_A/Vsm_=_65563218390.804596
# pendiente_HvsI_1/m_=_3716.3
# ordenada_HvsI_A/m_=_1297.0
# frecuencia_Hz_=_302270.8837774015

Tiempo_(s)	Campo_(V.s)	Magnetizacion_(V.s)	Campo_(kA/m)	Magnetizacion_(A/m)
0.000000e+00	-6.867436e-06	-2.032662e-08	-4.952399e+01	-1.330736e+03
1.000000e-08	-6.864306e-06	-2.032345e-08	-4.950141e+01	-1.330413e+03
2.000000e-08	-6.858881e-06	-2.031601e-08	-4.946230e+01	-1.329944e+03
3.000000e-08	-6.851369e-06	-2.030778e-08	-4.940812e+01	-1.329320e+03
4.000000e-08	-6.841548e-06	-2.029603e-08	-4.933729e+01	-1.328538e+03
5.000000e-08	-6.829239e-06	-2.028066e-08	-4.924854e+01	-1.327600e+03
6.000000e-08	-6.814302e-06	-2.026084e-08	-4.914082e+01	-1.326513e+03
7.000000e-08	-6.796922e-06	-2.023863e-08	-4.901548e+01	-1.325292e+03
8.000000e-08	-6.777582e-06	-2.021962e-08	-4.887601e+01	-1.323957e+03
9.000000e-08	-6.756120e-06	-2.024400e-08	-4.872124e+01	-1.322529e+03
1.000000e-07	-6.731957e-06	-2.022500e-08	-4.854699e+01	-1.321030e+03
1.100000e-07	-6.704939e-06	-2.016320e-08	-4.835215e+01	-1.319480e+03
1.200000e-07	-6.675429e-06	-2.012598e-08	-4.813935e+01	-1.317888e+03
1.300000e-07	-6.643817e-06	-2.009562e-08	-4.791138e+01	-1.316252e+03
1.400000e-07	-6.610096e-06	-2.002646e-08	-4.766820e+01	-1.314560e+03
1.500000e-07	-6.574475e-06	-2.000939e-08	-4.741132e+01	-1.312784e+03
1.600000e-07	-6.537034e-06	-2.006101e-08	-4.714132e+01	-1.310890e+03
1.700000e-07	-6.497531e-06	-1.993814e-08	-4.685645e+01	-1.308837e+03
1.800000e-07	-6.455833e-06	-1.990213e-08	-4.655574e+01	-1.306585e+03
1.900000e-07	-6.411607e-06	-1.989561e-08	-4.623681e+01	-1.304103e+03
2.000000e-07	-6.364975e-06	-1.979286e-08	-4.590053e+01	-1.301367e+03
2.100000e-07	-6.315931e-06	-1.979838e-08	-4.554685e+01	-1.298370e+03
2.200000e-07	-6.264134e-06	-1.976610e-08	-4.517332e+01	-1.295120e+03
2.300000e-07	-6.209819e-06	-1.971000e-08	-4.478163e+01	-1.291632e+03
2.400000e-07	-6.153197e-06	-1.964791e-08	-4.437331e+01	-1.287930e+03
2.500000e-07	-6.094187e-06	-1.956581e-08	-4.394776e+01	-1.284039e+03
2.600000e-07	-6.032933e-06	-1.951115e-08	-4.350603e+01	-1.279977e+03
2.700000e-07	-5.969529e-06	-1.943821e-08	-4.304880e+01	-1.275754e+03
2.800000e-07	-5.903842e-06	-1.937683e-08	-4.257510e+01	-1.271370e+03
2.900000e-07	-5.835908e-06	-1.931257e-08	-4.208520e+01	-1.266813e+03
3.000000e-07	-5.765812e-06	-1.923245e-08	-4.157971e+01	-1.262066e+03
3.100000e-07	-5.693536e-06	-1.915735e-08	-4.105850e+01	-1.257107e+03
3.200000e-07	-5.619046e-06	-1.906354e-08	-4.052132e+01	-1.251916e+03
3.300000e-07	-5.542240e-06	-1.899929e-08	-3.996744e+01	-1.246477e+03
3.400000e-07	-5.463062e-06	-1.890854e-08	-3.939645e+01	-1.240781e+03
3.500000e-07	-5.381749e-06	-1.881589e-08	-3.881007e+01	-1.234822e+03
3.600000e-07	-5.298688e-06	-1.873017e-08	-3.821108e+01	-1.228599e+03
3.700000e-07	-5.213926e-06	-1.862433e-08	-3.759983e+01	-1.222110e+03
3.800000e-07	-5.127462e-06	-1.852559e-08	-3.697630e+01	-1.215349e+03
3.900000e-07	-5.039265e-06	-1.841260e-08	-3.634027e+01	-1.208307e+03
4.000000e-07	-4.949170e-06	-1.830323e-08	-3.569056e+01	-1.200968e+03
4.100000e-07	-4.857315e-06	-1.817879e-08	-3.502815e+01	-1.193316e+03
4.200000e-07	-4.763900e-06	-1.805824e-08	-3.435450e+01	-1.185331e+03
4.300000e-07	-4.668932e-06	-1.793249e-08	-3.366964e+01	-1.176997e+03
4.400000e-07	-4.572286e-06	-1.779540e-08	-3.297269e+01	-1.168302e+03
4.500000e-07	-4.473872e-06	-1.765699e-08	-3.226298e+01	-1.159236e+03
4.600000e-07	-4.373750e-06	-1.751231e-08	-3.154096e+01	-1.149795e+03
4.700000e-07	-4.272079e-06	-1.736504e-08	-3.080777e+01	-1.139971e+03
4.800000e-07	-4.168982e-06	-1.720797e-08	-3.006429e+01	-1.129754e+03
4.900000e-07	-4.064398e-06	-1.705129e-08	-2.931010e+01	-1.119129e+03
5.000000e-07	-3.958263e-06	-1.688188e-08	-2.854471e+01	-1.108068e+03
5.100000e-07	-3.850617e-06	-1.670155e-08	-2.776843e+01	-1.096540e+03
5.200000e-07	-3.741575e-06	-1.651049e-08	-2.698208e+01	-1.084505e+03
5.300000e-07	-3.631311e-06	-1.631482e-08	-2.618692e+01	-1.071922e+03
5.400000e-07	-3.519766e-06	-1.611400e-08	-2.538252e+01	-1.058754e+03
5.500000e-07	-3.406806e-06	-1.590205e-08	-2.456792e+01	-1.044964e+03
5.600000e-07	-3.292376e-06	-1.568261e-08	-2.374272e+01	-1.030525e+03
5.700000e-07	-3.176442e-06	-1.545086e-08	-2.290667e+01	-1.015409e+03
5.800000e-07	-3.059202e-06	-1.520920e-08	-2.206120e+01	-9.995907e+02
5.900000e-07	-2.940906e-06	-1.495465e-08	-2.120812e+01	-9.830373e+02
6.000000e-07	-2.821603e-06	-1.469358e-08	-2.034777e+01	-9.657071e+02
6.100000e-07	-2.701175e-06	-1.441927e-08	-1.947932e+01	-9.475460e+02
6.200000e-07	-2.579706e-06	-1.412766e-08	-1.860335e+01	-9.284875e+02
6.300000e-07	-2.457260e-06	-1.381914e-08	-1.772034e+01	-9.084546e+02
6.400000e-07	-2.333808e-06	-1.349065e-08	-1.683007e+01	-8.873645e+02
6.500000e-07	-2.209489e-06	-1.314530e-08	-1.593356e+01	-8.651327e+02
6.600000e-07	-2.084481e-06	-1.278509e-08	-1.503207e+01	-8.416755e+02
6.700000e-07	-1.958859e-06	-1.240975e-08	-1.412616e+01	-8.169116e+02
6.800000e-07	-1.832668e-06	-1.201270e-08	-1.321614e+01	-7.907589e+02
6.900000e-07	-1.705888e-06	-1.159277e-08	-1.230188e+01	-7.631317e+02
7.000000e-07	-1.578406e-06	-1.114705e-08	-1.138255e+01	-7.339367e+02
7.100000e-07	-1.450248e-06	-1.067592e-08	-1.045835e+01	-7.030729e+02
7.200000e-07	-1.321566e-06	-1.017542e-08	-9.530375e+00	-6.704355e+02
7.300000e-07	-1.192500e-06	-9.647265e-09	-8.599622e+00	-6.359278e+02
7.400000e-07	-1.063098e-06	-9.092793e-09	-7.666449e+00	-5.994780e+02
7.500000e-07	-9.333476e-07	-8.506880e-09	-6.730765e+00	-5.610603e+02
7.600000e-07	-8.033518e-07	-7.890852e-09	-5.793310e+00	-5.207153e+02
7.700000e-07	-6.731707e-07	-7.246761e-09	-4.854519e+00	-4.785648e+02
7.800000e-07	-5.427748e-07	-6.583331e-09	-3.914179e+00	-4.348160e+02
7.900000e-07	-4.122173e-07	-5.902487e-09	-2.972674e+00	-3.897511e+02
8.000000e-07	-2.814801e-07	-5.205854e-09	-2.029872e+00	-3.437028e+02
8.100000e-07	-1.505430e-07	-4.495922e-09	-1.085629e+00	-2.970156e+02
8.200000e-07	-1.945264e-08	-3.776397e-09	-1.402812e-01	-2.500012e+02
8.300000e-07	1.116644e-07	-3.054136e-09	8.052596e-01	-2.028936e+02
8.400000e-07	2.427048e-07	-2.333778e-09	1.750247e+00	-1.558146e+02
8.500000e-07	3.736748e-07	-1.617441e-09	2.694727e+00	-1.087559e+02
8.600000e-07	5.045367e-07	-9.021431e-10	3.638428e+00	-6.158350e+01
8.700000e-07	6.352287e-07	-1.832976e-10	4.580903e+00	-1.406620e+01
8.800000e-07	7.656950e-07	5.450007e-10	5.521751e+00	3.407657e+01
8.900000e-07	8.959387e-07	1.288799e-09	6.460994e+00	8.311408e+01
9.000000e-07	1.025945e-06	2.051894e-09	7.398526e+00	1.332416e+02
9.100000e-07	1.155647e-06	2.834793e-09	8.333857e+00	1.845267e+02
9.200000e-07	1.284960e-06	3.634783e-09	9.266391e+00	2.368738e+02
9.300000e-07	1.413795e-06	4.445230e-09	1.019548e+01	2.900140e+02
9.400000e-07	1.542053e-06	5.260322e-09	1.112040e+01	3.435222e+02
9.500000e-07	1.669689e-06	6.071807e-09	1.204083e+01	3.968569e+02
9.600000e-07	1.796667e-06	6.871472e-09	1.295652e+01	4.494181e+02
9.700000e-07	1.922972e-06	7.649664e-09	1.386737e+01	5.006110e+02
9.800000e-07	2.048667e-06	8.395448e-09	1.477380e+01	5.499061e+02
9.900000e-07	2.173755e-06	9.106616e-09	1.567587e+01	5.968863e+02
1.000000e-06	2.298040e-06	9.778987e-09	1.657214e+01	6.412750e+02
1.010000e-06	2.421377e-06	1.041091e-08	1.746157e+01	6.829420e+02
1.020000e-06	2.543776e-06	1.100332e-08	1.834424e+01	7.218899e+02
1.030000e-06	2.665230e-06	1.155853e-08	1.922010e+01	7.582258e+02
1.040000e-06	2.785624e-06	1.207765e-08	2.008832e+01	7.921251e+02
1.050000e-06	2.904914e-06	1.256068e-08	2.094856e+01	8.237951e+02
1.060000e-06	3.023217e-06	1.300978e-08	2.180170e+01	8.534438e+02
1.070000e-06	3.140531e-06	1.342930e-08	2.264770e+01	8.812592e+02
1.080000e-06	3.256657e-06	1.382460e-08	2.348513e+01	9.073993e+02
1.090000e-06	3.371397e-06	1.419905e-08	2.431257e+01	9.319913e+02
1.100000e-06	3.484715e-06	1.455249e-08	2.512976e+01	9.551387e+02
1.110000e-06	3.596654e-06	1.488551e-08	2.593700e+01	9.769309e+02
1.120000e-06	3.707287e-06	1.519856e-08	2.673482e+01	9.974518e+02
1.130000e-06	3.816736e-06	1.549224e-08	2.752410e+01	1.016786e+03
1.140000e-06	3.924977e-06	1.576922e-08	2.830467e+01	1.035021e+03
1.150000e-06	4.031895e-06	1.603070e-08	2.907570e+01	1.052246e+03
1.160000e-06	4.137349e-06	1.627943e-08	2.983617e+01	1.068545e+03
1.170000e-06	4.241204e-06	1.651515e-08	3.058512e+01	1.083996e+03
1.180000e-06	4.343536e-06	1.673723e-08	3.132307e+01	1.098665e+03
1.190000e-06	4.444411e-06	1.694702e-08	3.205053e+01	1.112606e+03
1.200000e-06	4.543737e-06	1.714631e-08	3.276681e+01	1.125861e+03
1.210000e-06	4.641322e-06	1.733560e-08	3.347054e+01	1.138462e+03
1.220000e-06	4.737124e-06	1.751513e-08	3.416141e+01	1.150438e+03
1.230000e-06	4.831235e-06	1.768680e-08	3.484008e+01	1.161815e+03
1.240000e-06	4.923733e-06	1.785241e-08	3.550712e+01	1.172618e+03
1.250000e-06	5.014527e-06	1.800978e-08	3.616188e+01	1.182876e+03
1.260000e-06	5.103388e-06	1.815918e-08	3.680269e+01	1.192614e+03
1.270000e-06	5.190337e-06	1.830018e-08	3.742971e+01	1.201856e+03
1.280000e-06	5.275473e-06	1.843402e-08	3.804367e+01	1.210624e+03
1.290000e-06	5.358772e-06	1.856161e-08	3.864437e+01	1.218935e+03
1.300000e-06	5.440110e-06	1.868095e-08	3.923094e+01	1.226801e+03
1.310000e-06	5.519432e-06	1.879317e-08	3.980296e+01	1.234234e+03
1.320000e-06	5.596763e-06	1.889920e-08	4.036063e+01	1.241248e+03
1.330000e-06	5.671960e-06	1.900029e-08	4.090290e+01	1.247858e+03
1.340000e-06	5.744876e-06	1.909652e-08	4.142873e+01	1.254086e+03
1.350000e-06	5.815676e-06	1.918761e-08	4.193930e+01	1.259959e+03
1.360000e-06	5.884517e-06	1.927425e-08	4.243575e+01	1.265508e+03
1.370000e-06	5.951294e-06	1.935555e-08	4.291730e+01	1.270763e+03
1.380000e-06	6.015828e-06	1.943111e-08	4.338268e+01	1.275756e+03
1.390000e-06	6.078162e-06	1.950196e-08	4.383220e+01	1.280511e+03
1.400000e-06	6.138509e-06	1.956873e-08	4.426739e+01	1.285047e+03
1.410000e-06	6.196750e-06	1.963267e-08	4.468738e+01	1.289373e+03
1.420000e-06	6.252694e-06	1.969417e-08	4.509083e+01	1.293493e+03
1.430000e-06	6.306360e-06	1.975362e-08	4.547783e+01	1.297403e+03
1.440000e-06	6.357512e-06	1.981066e-08	4.584671e+01	1.301098e+03
1.450000e-06	6.406011e-06	1.986551e-08	4.619646e+01	1.304570e+03
1.460000e-06	6.452144e-06	1.991590e-08	4.652914e+01	1.307816e+03
1.470000e-06	6.496175e-06	1.996053e-08	4.684667e+01	1.310833e+03
1.480000e-06	6.537891e-06	2.000202e-08	4.714750e+01	1.313622e+03
1.490000e-06	6.577162e-06	2.004161e-08	4.743070e+01	1.316187e+03
1.500000e-06	6.614220e-06	2.007802e-08	4.769794e+01	1.318533e+03
1.510000e-06	6.649003e-06	2.010896e-08	4.794878e+01	1.320667e+03
1.520000e-06	6.681333e-06	2.013771e-08	4.818192e+01	1.322594e+03
1.530000e-06	6.711312e-06	2.016444e-08	4.839811e+01	1.324320e+03
1.540000e-06	6.739020e-06	2.018703e-08	4.859792e+01	1.325851e+03
1.550000e-06	6.764236e-06	2.020528e-08	4.877977e+01	1.327192e+03
1.560000e-06	6.786901e-06	2.022061e-08	4.894322e+01	1.328351e+03
1.570000e-06	6.807265e-06	2.023403e-08	4.909007e+01	1.329335e+03
1.580000e-06	6.825280e-06	2.024680e-08	4.921998e+01	1.330155e+03
1.590000e-06	6.840704e-06	2.025857e-08	4.933121e+01	1.330820e+03
1.600000e-06	6.853568e-06	2.026826e-08	4.942398e+01	1.331341e+03
1.610000e-06	6.863724e-06	2.027720e-08	4.949722e+01	1.331727e+03
1.620000e-06	6.871191e-06	2.028391e-08	4.955107e+01	1.331983e+03
1.630000e-06	6.876312e-06	2.028620e-08	4.958800e+01	1.332114e+03
1.640000e-06	6.879017e-06	2.028576e-08	4.960750e+01	1.332118e+03
1.650000e-06	6.879211e-06	2.028451e-08	4.960890e+01	1.331993e+03
1.660000e-06	6.877103e-06	2.027594e-08	4.959370e+01	1.331732e+03
1.670000e-06	6.872841e-06	2.026912e-08	4.956297e+01	1.331326e+03
1.680000e-06	6.866178e-06	2.026260e-08	4.951491e+01	1.330769e+03
1.690000e-06	6.857132e-06	2.025359e-08	4.944968e+01	1.330054e+03
1.700000e-06	6.845869e-06	2.024361e-08	4.936846e+01	1.329183e+03
1.710000e-06	6.832188e-06	2.023335e-08	4.926980e+01	1.328158e+03
1.720000e-06	6.816178e-06	2.022696e-08	4.915435e+01	1.326993e+03
1.730000e-06	6.798147e-06	2.019840e-08	4.902431e+01	1.325703e+03
1.740000e-06	6.777905e-06	2.012091e-08	4.887834e+01	1.324312e+03
1.750000e-06	6.754668e-06	2.010727e-08	4.871077e+01	1.322841e+03
1.760000e-06	6.728243e-06	2.011490e-08	4.852021e+01	1.321311e+03
1.770000e-06	6.699105e-06	2.008133e-08	4.831008e+01	1.319736e+03
1.780000e-06	6.667727e-06	2.009301e-08	4.808380e+01	1.318120e+03
1.790000e-06	6.634642e-06	2.010857e-08	4.784521e+01	1.316454e+03
1.800000e-06	6.600200e-06	1.999549e-08	4.759684e+01	1.314718e+03
1.810000e-06	6.563690e-06	2.000675e-08	4.733355e+01	1.312879e+03
1.820000e-06	6.524579e-06	2.003028e-08	4.705150e+01	1.310899e+03
1.830000e-06	6.483374e-06	1.994773e-08	4.675435e+01	1.308737e+03
1.840000e-06	6.439972e-06	2.000183e-08	4.644137e+01	1.306356e+03
1.850000e-06	6.394239e-06	1.990420e-08	4.611157e+01	1.303731e+03
1.860000e-06	6.346184e-06	1.982269e-08	4.576502e+01	1.300846e+03
1.870000e-06	6.295670e-06	1.980252e-08	4.540074e+01	1.297702e+03
1.880000e-06	6.242760e-06	1.969524e-08	4.501918e+01	1.294313e+03
1.890000e-06	6.187271e-06	1.970533e-08	4.461903e+01	1.290700e+03
1.900000e-06	6.129321e-06	1.963647e-08	4.420113e+01	1.286887e+03
1.910000e-06	6.069131e-06	1.958278e-08	4.376707e+01	1.282896e+03
1.920000e-06	6.006558e-06	1.954860e-08	4.331583e+01	1.278742e+03
1.930000e-06	5.941762e-06	1.942472e-08	4.284856e+01	1.274428e+03
1.940000e-06	5.874892e-06	1.939982e-08	4.236633e+01	1.269947e+03
1.950000e-06	5.805794e-06	1.930464e-08	4.186804e+01	1.265283e+03
1.960000e-06	5.734288e-06	1.924531e-08	4.135238e+01	1.260417e+03
1.970000e-06	5.660535e-06	1.917112e-08	4.082051e+01	1.255327e+03
1.980000e-06	5.584642e-06	1.906689e-08	4.027322e+01	1.249996e+03
1.990000e-06	5.506362e-06	1.901192e-08	3.970871e+01	1.244411e+03
2.000000e-06	5.425992e-06	1.889016e-08	3.912912e+01	1.238565e+03
2.010000e-06	5.343896e-06	1.881586e-08	3.853709e+01	1.232456e+03
2.020000e-06	5.260030e-06	1.871649e-08	3.793230e+01	1.226081e+03
2.030000e-06	5.174152e-06	1.862194e-08	3.731300e+01	1.219437e+03
2.040000e-06	5.086252e-06	1.851967e-08	3.667912e+01	1.212517e+03
2.050000e-06	4.996651e-06	1.839425e-08	3.603297e+01	1.205307e+03
2.060000e-06	4.905460e-06	1.829044e-08	3.537535e+01	1.197791e+03
2.070000e-06	4.812682e-06	1.815811e-08	3.470629e+01	1.189951e+03
2.080000e-06	4.718115e-06	1.804377e-08	3.402432e+01	1.181768e+03
2.090000e-06	4.621725e-06	1.791125e-08	3.332922e+01	1.173229e+03
2.100000e-06	4.523803e-06	1.778376e-08	3.262306e+01	1.164323e+03
2.110000e-06	4.424458e-06	1.764617e-08	3.190664e+01	1.155043e+03
2.120000e-06	4.323548e-06	1.749657e-08	3.117894e+01	1.145384e+03
2.130000e-06	4.220887e-06	1.734157e-08	3.043860e+01	1.135337e+03
2.140000e-06	4.116579e-06	1.717673e-08	2.968640e+01	1.124889e+03
2.150000e-06	4.010847e-06	1.701528e-08	2.892391e+01	1.114018e+03
2.160000e-06	3.903826e-06	1.684122e-08	2.815214e+01	1.102695e+03
2.170000e-06	3.795439e-06	1.666592e-08	2.737052e+01	1.090882e+03
2.180000e-06	3.685690e-06	1.647814e-08	2.657907e+01	1.078539e+03
2.190000e-06	3.574530e-06	1.628590e-08	2.577745e+01	1.065625e+03
2.200000e-06	3.461933e-06	1.607905e-08	2.496546e+01	1.052106e+03
2.210000e-06	3.348004e-06	1.586566e-08	2.414387e+01	1.037948e+03
2.220000e-06	3.232671e-06	1.564274e-08	2.331216e+01	1.023125e+03
2.230000e-06	3.115984e-06	1.541107e-08	2.247068e+01	1.007611e+03
2.240000e-06	2.998030e-06	1.516296e-08	2.162006e+01	9.913772e+02
2.250000e-06	2.878789e-06	1.489857e-08	2.076017e+01	9.743856e+02
2.260000e-06	2.758371e-06	1.462501e-08	1.989178e+01	9.565879e+02
2.270000e-06	2.636986e-06	1.434022e-08	1.901642e+01	9.379227e+02
2.280000e-06	2.514764e-06	1.404497e-08	1.813503e+01	9.183172e+02
2.290000e-06	2.391756e-06	1.373324e-08	1.724797e+01	8.976904e+02
2.300000e-06	2.267832e-06	1.340614e-08	1.635429e+01	8.759580e+02
2.310000e-06	2.142952e-06	1.305583e-08	1.545373e+01	8.530359e+02
2.320000e-06	2.017356e-06	1.268600e-08	1.454800e+01	8.288418e+02
2.330000e-06	1.891156e-06	1.229840e-08	1.363792e+01	8.032943e+02
2.340000e-06	1.764259e-06	1.189340e-08	1.272282e+01	7.763098e+02
2.350000e-06	1.636646e-06	1.146377e-08	1.180255e+01	7.477985e+02
2.360000e-06	1.508401e-06	1.100456e-08	1.087771e+01	7.176625e+02
2.370000e-06	1.379670e-06	1.051382e-08	9.949384e+00	6.857977e+02
2.380000e-06	1.250570e-06	9.992492e-09	9.018392e+00	6.521021e+02
2.390000e-06	1.121171e-06	9.446880e-09	8.085236e+00	6.164908e+02
2.400000e-06	9.914659e-07	8.874735e-09	7.149880e+00	5.789157e+02
2.410000e-06	8.614727e-07	8.275525e-09	6.212445e+00	5.393866e+02
2.420000e-06	7.312210e-07	7.647798e-09	5.273144e+00	4.979892e+02
2.430000e-06	6.007378e-07	6.990480e-09	4.332175e+00	4.548946e+02
2.440000e-06	4.700846e-07	6.306922e-09	3.389979e+00	4.103551e+02
2.450000e-06	3.392864e-07	5.605258e-09	2.446738e+00	3.646856e+02
2.460000e-06	2.083574e-07	4.894373e-09	1.502553e+00	3.182309e+02
2.470000e-06	7.729434e-08	4.177431e-09	5.574022e-01	2.713224e+02
2.480000e-06	-5.384568e-08	3.458236e-09	-3.883040e-01	2.242325e+02
2.490000e-06	-1.849629e-07	2.739184e-09	-1.333846e+00	1.771344e+02
2.500000e-06	-3.160037e-07	2.020948e-09	-2.278836e+00	1.300763e+02
2.510000e-06	-4.469227e-07	1.300982e-09	-3.222949e+00	8.297596e+01
2.520000e-06	-5.777150e-07	5.748872e-10	-4.166147e+00	3.563909e+01
2.530000e-06	-7.083727e-07	-1.584225e-10	-5.108376e+00	-1.220069e+01
2.540000e-06	-8.388596e-07	-9.021025e-10	-6.049372e+00	-6.082529e+01
2.550000e-06	-9.690962e-07	-1.661352e-09	-6.988563e+00	-1.104691e+02
2.560000e-06	-1.099009e-06	-2.436359e-09	-7.925417e+00	-1.612599e+02
2.570000e-06	-1.228575e-06	-3.227414e-09	-8.859776e+00	-2.131749e+02
2.580000e-06	-1.357780e-06	-4.034006e-09	-9.791528e+00	-2.660190e+02
2.590000e-06	-1.486571e-06	-4.851286e-09	-1.072029e+01	-3.194303e+02
2.600000e-06	-1.614854e-06	-5.670327e-09	-1.164540e+01	-3.729111e+02
2.610000e-06	-1.742485e-06	-6.480963e-09	-1.256580e+01	-4.258786e+02
2.620000e-06	-1.869396e-06	-7.276175e-09	-1.348101e+01	-4.777280e+02
2.630000e-06	-1.995637e-06	-8.045781e-09	-1.439138e+01	-5.278950e+02
2.640000e-06	-2.121174e-06	-8.780933e-09	-1.529669e+01	-5.759099e+02
2.650000e-06	-2.245835e-06	-9.477883e-09	-1.619567e+01	-6.214338e+02
2.660000e-06	-2.369552e-06	-1.013282e-08	-1.708784e+01	-6.642743e+02
2.670000e-06	-2.492304e-06	-1.074388e-08	-1.797306e+01	-7.043799e+02
2.680000e-06	-2.614117e-06	-1.131650e-08	-1.885151e+01	-7.418170e+02
2.690000e-06	-2.735052e-06	-1.185466e-08	-1.972362e+01	-7.767364e+02
2.700000e-06	-2.854941e-06	-1.235667e-08	-2.058819e+01	-8.093360e+02
2.710000e-06	-2.973715e-06	-1.282421e-08	-2.144472e+01	-8.398266e+02
2.720000e-06	-3.091402e-06	-1.325940e-08	-2.229341e+01	-8.684067e+02
2.730000e-06	-3.207813e-06	-1.366573e-08	-2.313290e+01	-8.952476e+02
2.740000e-06	-3.322802e-06	-1.405079e-08	-2.396213e+01	-9.204894e+02
2.750000e-06	-3.436411e-06	-1.441672e-08	-2.478142e+01	-9.442446e+02
2.760000e-06	-3.548703e-06	-1.476027e-08	-2.559120e+01	-9.666074e+02
2.770000e-06	-3.659588e-06	-1.508095e-08	-2.639083e+01	-9.876630e+02
2.780000e-06	-3.769126e-06	-1.538277e-08	-2.718076e+01	-1.007495e+03
2.790000e-06	-3.877453e-06	-1.566827e-08	-2.796196e+01	-1.026191e+03
2.800000e-06	-3.984552e-06	-1.593814e-08	-2.873429e+01	-1.043838e+03
2.810000e-06	-4.090398e-06	-1.619342e-08	-2.949759e+01	-1.060524e+03
2.820000e-06	-4.194804e-06	-1.643550e-08	-3.025051e+01	-1.076330e+03
2.830000e-06	-4.297640e-06	-1.666632e-08	-3.099210e+01	-1.091327e+03
2.840000e-06	-4.398833e-06	-1.688655e-08	-3.172184e+01	-1.105574e+03
2.850000e-06	-4.498430e-06	-1.709687e-08	-3.244009e+01	-1.119119e+03
2.860000e-06	-4.596548e-06	-1.729647e-08	-3.314765e+01	-1.131997e+03
2.870000e-06	-4.693063e-06	-1.748327e-08	-3.384366e+01	-1.144237e+03
2.880000e-06	-4.787870e-06	-1.766014e-08	-3.452735e+01	-1.155868e+03
2.890000e-06	-4.880950e-06	-1.782711e-08	-3.519860e+01	-1.166914e+03
2.900000e-06	-4.972288e-06	-1.798674e-08	-3.585727e+01	-1.177403e+03
2.910000e-06	-5.061900e-06	-1.814192e-08	-3.650350e+01	-1.187360e+03
2.920000e-06	-5.149650e-06	-1.828826e-08	-3.713630e+01	-1.196812e+03
2.930000e-06	-5.235383e-06	-1.842532e-08	-3.775456e+01	-1.205782e+03
2.940000e-06	-5.319180e-06	-1.855428e-08	-3.835885e+01	-1.214286e+03
