# Temperatura_=_62.48
# Concentracion g/m^3_=_28200.0
# C_Vs_to_Am_M_A/Vsm_=_65563218390.804596
# pendiente_HvsI_1/m_=_3716.3
# ordenada_HvsI_A/m_=_1297.0
# frecuencia_Hz_=_302286.3191467704

Tiempo_(s)	Campo_(V.s)	Magnetizacion_(V.s)	Campo_(kA/m)	Magnetizacion_(A/m)
0.000000e+00	-6.961964e-06	-2.433260e-08	-4.952132e+01	-1.593185e+03
1.000000e-08	-6.958998e-06	-2.432713e-08	-4.950022e+01	-1.592807e+03
2.000000e-08	-6.953769e-06	-2.431909e-08	-4.946303e+01	-1.592239e+03
3.000000e-08	-6.946382e-06	-2.430908e-08	-4.941049e+01	-1.591484e+03
4.000000e-08	-6.936649e-06	-2.429493e-08	-4.934125e+01	-1.590549e+03
5.000000e-08	-6.924386e-06	-2.427932e-08	-4.925402e+01	-1.589446e+03
6.000000e-08	-6.909463e-06	-2.425983e-08	-4.914787e+01	-1.588186e+03
7.000000e-08	-6.892096e-06	-2.423909e-08	-4.902434e+01	-1.586781e+03
8.000000e-08	-6.872734e-06	-2.423047e-08	-4.888662e+01	-1.585243e+03
9.000000e-08	-6.851178e-06	-2.423586e-08	-4.873329e+01	-1.583583e+03
1.000000e-07	-6.826948e-06	-2.418651e-08	-4.856093e+01	-1.581813e+03
1.100000e-07	-6.799917e-06	-2.413327e-08	-4.836866e+01	-1.579945e+03
1.200000e-07	-6.770381e-06	-2.409961e-08	-4.815857e+01	-1.577990e+03
1.300000e-07	-6.738581e-06	-2.405570e-08	-4.793237e+01	-1.575957e+03
1.400000e-07	-6.704576e-06	-2.399805e-08	-4.769049e+01	-1.573846e+03
1.500000e-07	-6.668720e-06	-2.398298e-08	-4.743544e+01	-1.571649e+03
1.600000e-07	-6.631041e-06	-2.396851e-08	-4.716742e+01	-1.569344e+03
1.700000e-07	-6.591160e-06	-2.386437e-08	-4.688374e+01	-1.566896e+03
1.800000e-07	-6.548955e-06	-2.383951e-08	-4.658354e+01	-1.564260e+03
1.900000e-07	-6.504305e-06	-2.378297e-08	-4.626594e+01	-1.561390e+03
2.000000e-07	-6.457238e-06	-2.373109e-08	-4.593114e+01	-1.558241e+03
2.100000e-07	-6.407636e-06	-2.371871e-08	-4.557832e+01	-1.554781e+03
2.200000e-07	-6.355298e-06	-2.365143e-08	-4.520603e+01	-1.550992e+03
2.300000e-07	-6.300500e-06	-2.361694e-08	-4.481624e+01	-1.546878e+03
2.400000e-07	-6.243355e-06	-2.352043e-08	-4.440976e+01	-1.542459e+03
2.500000e-07	-6.183810e-06	-2.342234e-08	-4.398622e+01	-1.537766e+03
2.600000e-07	-6.121974e-06	-2.336518e-08	-4.354637e+01	-1.532835e+03
2.700000e-07	-6.057894e-06	-2.327685e-08	-4.309056e+01	-1.527696e+03
2.800000e-07	-5.991560e-06	-2.319839e-08	-4.261872e+01	-1.522368e+03
2.900000e-07	-5.922961e-06	-2.311893e-08	-4.213076e+01	-1.516853e+03
3.000000e-07	-5.852173e-06	-2.303328e-08	-4.162724e+01	-1.511140e+03
3.100000e-07	-5.779145e-06	-2.292652e-08	-4.110779e+01	-1.505205e+03
3.200000e-07	-5.703740e-06	-2.282612e-08	-4.057142e+01	-1.499018e+03
3.300000e-07	-5.625945e-06	-2.275018e-08	-4.001805e+01	-1.492553e+03
3.400000e-07	-5.545822e-06	-2.264041e-08	-3.944812e+01	-1.485787e+03
3.500000e-07	-5.463715e-06	-2.254223e-08	-3.886409e+01	-1.478707e+03
3.600000e-07	-5.379881e-06	-2.242640e-08	-3.826777e+01	-1.471308e+03
3.700000e-07	-5.294266e-06	-2.230171e-08	-3.765878e+01	-1.463587e+03
3.800000e-07	-5.206895e-06	-2.218561e-08	-3.703730e+01	-1.455543e+03
3.900000e-07	-5.117640e-06	-2.205565e-08	-3.640242e+01	-1.447169e+03
4.000000e-07	-5.026495e-06	-2.192676e-08	-3.575409e+01	-1.438450e+03
4.100000e-07	-4.933637e-06	-2.178108e-08	-3.509358e+01	-1.429367e+03
4.200000e-07	-4.839121e-06	-2.163747e-08	-3.442127e+01	-1.419897e+03
4.300000e-07	-4.742918e-06	-2.148001e-08	-3.373697e+01	-1.410018e+03
4.400000e-07	-4.644932e-06	-2.131777e-08	-3.303998e+01	-1.399714e+03
4.500000e-07	-4.545305e-06	-2.115410e-08	-3.233132e+01	-1.388976e+03
4.600000e-07	-4.444052e-06	-2.098628e-08	-3.161110e+01	-1.377799e+03
4.700000e-07	-4.341235e-06	-2.081459e-08	-3.087975e+01	-1.366182e+03
4.800000e-07	-4.236955e-06	-2.062732e-08	-3.013799e+01	-1.354119e+03
4.900000e-07	-4.131067e-06	-2.044038e-08	-2.938480e+01	-1.341594e+03
5.000000e-07	-4.023626e-06	-2.024105e-08	-2.862056e+01	-1.328581e+03
5.100000e-07	-3.914744e-06	-2.002983e-08	-2.784606e+01	-1.315038e+03
5.200000e-07	-3.804511e-06	-1.980749e-08	-2.706196e+01	-1.300913e+03
5.300000e-07	-3.692951e-06	-1.958128e-08	-2.626842e+01	-1.286152e+03
5.400000e-07	-3.579906e-06	-1.934565e-08	-2.546432e+01	-1.270703e+03
5.500000e-07	-3.465263e-06	-1.909405e-08	-2.464885e+01	-1.254525e+03
5.600000e-07	-3.349110e-06	-1.883309e-08	-2.382264e+01	-1.237590e+03
5.700000e-07	-3.231618e-06	-1.856129e-08	-2.298690e+01	-1.219877e+03
5.800000e-07	-3.112975e-06	-1.828220e-08	-2.214298e+01	-1.201371e+03
5.900000e-07	-2.993224e-06	-1.799112e-08	-2.129118e+01	-1.182049e+03
6.000000e-07	-2.872346e-06	-1.768822e-08	-2.043135e+01	-1.161872e+03
6.100000e-07	-2.750310e-06	-1.736695e-08	-1.956330e+01	-1.140777e+03
6.200000e-07	-2.627160e-06	-1.702532e-08	-1.868732e+01	-1.118674e+03
6.300000e-07	-2.503061e-06	-1.666282e-08	-1.780459e+01	-1.095452e+03
6.400000e-07	-2.378090e-06	-1.628223e-08	-1.691565e+01	-1.070985e+03
6.500000e-07	-2.252295e-06	-1.588347e-08	-1.602086e+01	-1.045144e+03
6.600000e-07	-2.125799e-06	-1.546438e-08	-1.512107e+01	-1.017807e+03
6.700000e-07	-1.998671e-06	-1.502540e-08	-1.421680e+01	-9.888620e+02
6.800000e-07	-1.870837e-06	-1.455952e-08	-1.330750e+01	-9.582075e+02
6.900000e-07	-1.742254e-06	-1.406538e-08	-1.239287e+01	-9.257452e+02
7.000000e-07	-1.612993e-06	-1.354030e-08	-1.147342e+01	-8.913700e+02
7.100000e-07	-1.483120e-06	-1.298474e-08	-1.054962e+01	-8.549611e+02
7.200000e-07	-1.352742e-06	-1.239449e-08	-9.622226e+00	-8.163803e+02
7.300000e-07	-1.221972e-06	-1.176809e-08	-8.692038e+00	-7.754804e+02
7.400000e-07	-1.090797e-06	-1.110362e-08	-7.758978e+00	-7.321255e+02
7.500000e-07	-9.592627e-07	-1.039976e-08	-6.823355e+00	-6.862217e+02
7.600000e-07	-8.274515e-07	-9.659838e-09	-5.885766e+00	-6.377508e+02
7.700000e-07	-6.953896e-07	-8.883213e-09	-4.946393e+00	-5.868001e+02
7.800000e-07	-5.630700e-07	-8.076119e-09	-4.005188e+00	-5.335795e+02
7.900000e-07	-4.305569e-07	-7.240584e-09	-3.062605e+00	-4.784163e+02
8.000000e-07	-2.979142e-07	-6.379345e-09	-2.119101e+00	-4.217277e+02
8.100000e-07	-1.651154e-07	-5.499008e-09	-1.174486e+00	-3.639702e+02
8.200000e-07	-3.224775e-08	-4.605411e-09	-2.293823e-01	-3.055746e+02
8.300000e-07	1.006326e-07	-3.706369e-09	7.158126e-01	-2.468792e+02
8.400000e-07	2.334827e-07	-2.807597e-09	1.660792e+00	-1.880741e+02
8.500000e-07	3.662871e-07	-1.910857e-09	2.605446e+00	-1.291717e+02
8.600000e-07	4.990133e-07	-1.013409e-09	3.549544e+00	-7.000968e+01
8.700000e-07	6.315674e-07	-1.094655e-10	4.492418e+00	-1.029171e+01
8.800000e-07	7.639657e-07	8.076873e-10	5.434184e+00	5.034180e+01
8.900000e-07	8.961176e-07	1.746626e-09	6.374197e+00	1.122236e+02
9.000000e-07	1.027966e-06	2.710440e-09	7.312054e+00	1.755677e+02
9.100000e-07	1.159451e-06	3.697476e-09	8.247322e+00	2.403931e+02
9.200000e-07	1.290555e-06	4.706388e-09	9.179877e+00	3.064790e+02
9.300000e-07	1.421301e-06	5.729103e-09	1.010989e+01	3.733601e+02
9.400000e-07	1.551529e-06	6.754406e-09	1.103622e+01	4.403646e+02
9.500000e-07	1.681134e-06	7.765264e-09	1.195812e+01	5.066858e+02
9.600000e-07	1.810022e-06	8.747471e-09	1.287491e+01	5.714763e+02
9.700000e-07	1.938071e-06	9.691075e-09	1.378574e+01	6.339458e+02
9.800000e-07	2.065393e-06	1.058623e-08	1.469140e+01	6.934459e+02
9.900000e-07	2.192043e-06	1.143228e-08	1.559227e+01	7.495269e+02
1.000000e-06	2.317928e-06	1.222435e-08	1.648771e+01	8.019615e+02
1.010000e-06	2.442999e-06	1.296372e-08	1.737736e+01	8.507318e+02
1.020000e-06	2.567170e-06	1.365399e-08	1.826060e+01	8.959894e+02
1.030000e-06	2.690425e-06	1.429618e-08	1.913733e+01	9.379974e+02
1.040000e-06	2.812766e-06	1.489245e-08	2.000755e+01	9.770687e+02
1.050000e-06	2.933980e-06	1.544525e-08	2.086977e+01	1.013514e+03
1.060000e-06	3.053901e-06	1.596031e-08	2.172278e+01	1.047603e+03
1.070000e-06	3.172749e-06	1.644183e-08	2.256816e+01	1.079554e+03
1.080000e-06	3.290630e-06	1.689390e-08	2.340666e+01	1.109527e+03
1.090000e-06	3.407346e-06	1.731783e-08	2.423688e+01	1.137650e+03
1.100000e-06	3.522729e-06	1.771753e-08	2.505761e+01	1.164031e+03
1.110000e-06	3.636564e-06	1.809526e-08	2.586733e+01	1.188779e+03
1.120000e-06	3.748813e-06	1.845075e-08	2.666577e+01	1.212015e+03
1.130000e-06	3.859725e-06	1.878477e-08	2.745471e+01	1.233874e+03
1.140000e-06	3.969435e-06	1.910111e-08	2.823509e+01	1.254494e+03
1.150000e-06	4.077863e-06	1.939999e-08	2.900635e+01	1.274005e+03
1.160000e-06	4.184996e-06	1.968196e-08	2.976840e+01	1.292520e+03
1.170000e-06	4.290618e-06	1.994719e-08	3.051970e+01	1.310122e+03
1.180000e-06	4.394499e-06	2.019695e-08	3.125862e+01	1.326866e+03
1.190000e-06	4.496763e-06	2.043535e-08	3.198604e+01	1.342783e+03
1.200000e-06	4.597511e-06	2.066284e-08	3.270267e+01	1.357892e+03
1.210000e-06	4.696754e-06	2.087933e-08	3.340860e+01	1.372213e+03
1.220000e-06	4.794208e-06	2.108568e-08	3.410180e+01	1.385774e+03
1.230000e-06	4.889734e-06	2.128190e-08	3.478129e+01	1.398618e+03
1.240000e-06	4.983496e-06	2.146739e-08	3.544823e+01	1.410803e+03
1.250000e-06	5.075575e-06	2.164361e-08	3.610320e+01	1.422390e+03
1.260000e-06	5.165910e-06	2.181232e-08	3.674576e+01	1.433440e+03
1.270000e-06	5.254302e-06	2.197271e-08	3.737450e+01	1.443999e+03
1.280000e-06	5.340750e-06	2.212465e-08	3.798943e+01	1.454097e+03
1.290000e-06	5.425328e-06	2.227066e-08	3.859104e+01	1.463740e+03
1.300000e-06	5.507990e-06	2.241143e-08	3.917902e+01	1.472921e+03
1.310000e-06	5.588631e-06	2.254612e-08	3.975263e+01	1.481625e+03
1.320000e-06	5.667204e-06	2.267320e-08	4.031153e+01	1.489839e+03
1.330000e-06	5.743661e-06	2.279376e-08	4.085538e+01	1.497563e+03
1.340000e-06	5.817816e-06	2.290655e-08	4.138285e+01	1.504812e+03
1.350000e-06	5.889764e-06	2.301277e-08	4.189463e+01	1.511618e+03
1.360000e-06	5.959644e-06	2.311442e-08	4.239169e+01	1.518027e+03
1.370000e-06	6.027470e-06	2.320852e-08	4.287415e+01	1.524088e+03
1.380000e-06	6.093071e-06	2.329439e-08	4.334078e+01	1.529846e+03
1.390000e-06	6.156381e-06	2.337518e-08	4.379111e+01	1.535336e+03
1.400000e-06	6.217631e-06	2.345395e-08	4.422678e+01	1.540579e+03
1.410000e-06	6.276872e-06	2.352914e-08	4.464818e+01	1.545579e+03
1.420000e-06	6.333895e-06	2.359976e-08	4.505379e+01	1.550333e+03
1.430000e-06	6.388593e-06	2.366774e-08	4.544286e+01	1.554833e+03
1.440000e-06	6.440846e-06	2.373420e-08	4.581454e+01	1.559072e+03
1.450000e-06	6.490369e-06	2.379777e-08	4.616681e+01	1.563048e+03
1.460000e-06	6.537325e-06	2.385423e-08	4.650081e+01	1.566768e+03
1.470000e-06	6.582059e-06	2.390536e-08	4.681901e+01	1.570241e+03
1.480000e-06	6.624554e-06	2.395489e-08	4.712128e+01	1.573479e+03
1.490000e-06	6.664585e-06	2.400135e-08	4.740603e+01	1.576492e+03
1.500000e-06	6.702248e-06	2.404377e-08	4.767393e+01	1.579282e+03
1.510000e-06	6.737750e-06	2.408082e-08	4.792646e+01	1.581847e+03
1.520000e-06	6.770845e-06	2.411475e-08	4.816187e+01	1.584178e+03
1.530000e-06	6.801477e-06	2.414748e-08	4.837976e+01	1.586264e+03
1.540000e-06	6.829872e-06	2.417610e-08	4.858174e+01	1.588100e+03
1.550000e-06	6.855749e-06	2.419917e-08	4.876580e+01	1.589685e+03
1.560000e-06	6.878946e-06	2.421884e-08	4.893080e+01	1.591030e+03
1.570000e-06	6.899742e-06	2.423663e-08	4.907873e+01	1.592154e+03
1.580000e-06	6.918223e-06	2.425175e-08	4.921018e+01	1.593083e+03
1.590000e-06	6.934150e-06	2.426459e-08	4.932348e+01	1.593840e+03
1.600000e-06	6.947439e-06	2.427598e-08	4.941800e+01	1.594448e+03
1.610000e-06	6.957955e-06	2.428593e-08	4.949280e+01	1.594919e+03
1.620000e-06	6.965693e-06	2.429270e-08	4.954785e+01	1.595256e+03
1.630000e-06	6.970974e-06	2.429539e-08	4.958541e+01	1.595452e+03
1.640000e-06	6.973866e-06	2.429542e-08	4.960598e+01	1.595495e+03
1.650000e-06	6.974276e-06	2.429378e-08	4.960890e+01	1.595370e+03
1.660000e-06	6.972285e-06	2.428658e-08	4.959473e+01	1.595064e+03
1.670000e-06	6.968088e-06	2.427928e-08	4.956488e+01	1.594571e+03
1.680000e-06	6.961528e-06	2.426980e-08	4.951822e+01	1.593889e+03
1.690000e-06	6.952614e-06	2.425939e-08	4.945481e+01	1.593023e+03
1.700000e-06	6.941436e-06	2.424654e-08	4.937530e+01	1.591985e+03
1.710000e-06	6.927807e-06	2.423248e-08	4.927836e+01	1.590784e+03
1.720000e-06	6.911817e-06	2.421490e-08	4.916462e+01	1.589435e+03
1.730000e-06	6.893733e-06	2.416384e-08	4.903598e+01	1.587947e+03
1.740000e-06	6.873421e-06	2.411016e-08	4.889151e+01	1.586334e+03
1.750000e-06	6.850139e-06	2.411147e-08	4.872589e+01	1.584605e+03
1.760000e-06	6.823584e-06	2.409536e-08	4.853701e+01	1.582774e+03
1.770000e-06	6.794207e-06	2.405815e-08	4.832804e+01	1.580851e+03
1.780000e-06	6.762594e-06	2.406121e-08	4.810317e+01	1.578848e+03
1.790000e-06	6.729236e-06	2.403551e-08	4.786590e+01	1.576768e+03
1.800000e-06	6.694438e-06	2.397210e-08	4.761838e+01	1.574607e+03
1.810000e-06	6.657666e-06	2.399367e-08	4.735681e+01	1.572347e+03
1.820000e-06	6.618307e-06	2.396312e-08	4.707685e+01	1.569959e+03
1.830000e-06	6.576694e-06	2.394706e-08	4.678085e+01	1.567403e+03
1.840000e-06	6.532867e-06	2.393093e-08	4.646910e+01	1.564631e+03
1.850000e-06	6.486678e-06	2.379719e-08	4.614055e+01	1.561596e+03
1.860000e-06	6.438169e-06	2.377656e-08	4.579550e+01	1.558260e+03
1.870000e-06	6.387231e-06	2.369103e-08	4.543317e+01	1.554601e+03
1.880000e-06	6.333743e-06	2.361990e-08	4.505270e+01	1.550613e+03
1.890000e-06	6.277602e-06	2.362392e-08	4.465337e+01	1.546310e+03
1.900000e-06	6.219062e-06	2.352094e-08	4.423697e+01	1.541720e+03
1.910000e-06	6.158217e-06	2.349008e-08	4.380417e+01	1.536879e+03
1.920000e-06	6.094955e-06	2.339065e-08	4.335418e+01	1.531818e+03
1.930000e-06	6.029501e-06	2.327786e-08	4.288859e+01	1.526563e+03
1.940000e-06	5.961904e-06	2.322480e-08	4.240777e+01	1.521122e+03
1.950000e-06	5.891946e-06	2.312446e-08	4.191015e+01	1.515488e+03
1.960000e-06	5.819569e-06	2.307437e-08	4.139532e+01	1.509643e+03
1.970000e-06	5.745018e-06	2.294532e-08	4.086503e+01	1.503559e+03
1.980000e-06	5.668241e-06	2.286434e-08	4.031891e+01	1.497206e+03
1.990000e-06	5.589089e-06	2.276677e-08	3.975589e+01	1.490559e+03
2.000000e-06	5.507864e-06	2.263683e-08	3.917813e+01	1.483604e+03
2.010000e-06	5.424875e-06	2.254818e-08	3.858781e+01	1.476330e+03
2.020000e-06	5.340048e-06	2.241291e-08	3.798443e+01	1.468736e+03
2.030000e-06	5.253109e-06	2.231305e-08	3.736603e+01	1.460819e+03
2.040000e-06	5.164213e-06	2.216515e-08	3.673369e+01	1.452575e+03
2.050000e-06	5.073667e-06	2.203763e-08	3.608963e+01	1.443993e+03
2.060000e-06	4.981423e-06	2.190669e-08	3.543349e+01	1.435056e+03
2.070000e-06	4.887334e-06	2.176512e-08	3.476422e+01	1.425740e+03
2.080000e-06	4.791431e-06	2.162694e-08	3.408205e+01	1.416024e+03
2.090000e-06	4.693919e-06	2.146398e-08	3.338843e+01	1.405889e+03
2.100000e-06	4.594924e-06	2.131655e-08	3.268427e+01	1.395322e+03
2.110000e-06	4.494398e-06	2.114255e-08	3.196922e+01	1.384317e+03
2.120000e-06	4.392083e-06	2.097381e-08	3.124144e+01	1.372873e+03
2.130000e-06	4.288079e-06	2.078309e-08	3.050164e+01	1.360986e+03
2.140000e-06	4.182613e-06	2.059415e-08	2.975145e+01	1.348645e+03
2.150000e-06	4.075745e-06	2.039951e-08	2.899128e+01	1.335828e+03
2.160000e-06	3.967497e-06	2.019827e-08	2.822130e+01	1.322498e+03
2.170000e-06	3.857686e-06	1.999110e-08	2.744020e+01	1.308608e+03
2.180000e-06	3.746372e-06	1.977294e-08	2.664841e+01	1.294103e+03
2.190000e-06	3.633670e-06	1.954955e-08	2.584675e+01	1.278930e+03
2.200000e-06	3.519594e-06	1.930536e-08	2.503531e+01	1.263042e+03
2.210000e-06	3.404110e-06	1.905515e-08	2.421386e+01	1.246406e+03
2.220000e-06	3.287078e-06	1.878820e-08	2.338140e+01	1.229000e+03
2.230000e-06	3.168587e-06	1.851531e-08	2.253856e+01	1.210808e+03
2.240000e-06	3.048889e-06	1.822276e-08	2.168713e+01	1.191810e+03
2.250000e-06	2.928108e-06	1.791914e-08	2.082800e+01	1.171974e+03
2.260000e-06	2.806286e-06	1.760148e-08	1.996146e+01	1.151249e+03
2.270000e-06	2.683473e-06	1.727249e-08	1.908788e+01	1.129554e+03
2.280000e-06	2.559759e-06	1.692968e-08	1.820789e+01	1.106786e+03
2.290000e-06	2.435135e-06	1.656757e-08	1.732142e+01	1.082823e+03
2.300000e-06	2.309476e-06	1.618492e-08	1.642759e+01	1.057537e+03
2.310000e-06	2.182880e-06	1.577741e-08	1.552710e+01	1.030802e+03
2.320000e-06	2.055518e-06	1.534824e-08	1.462116e+01	1.002500e+03
2.330000e-06	1.927468e-06	1.489339e-08	1.371032e+01	9.725288e+02
2.340000e-06	1.798801e-06	1.441503e-08	1.279510e+01	9.407883e+02
2.350000e-06	1.669584e-06	1.390617e-08	1.187596e+01	9.071778e+02
2.360000e-06	1.539864e-06	1.336322e-08	1.095325e+01	8.715832e+02
2.370000e-06	1.409677e-06	1.278325e-08	1.002721e+01	8.338728e+02
2.380000e-06	1.279090e-06	1.216873e-08	9.098326e+00	7.939010e+02
2.390000e-06	1.148146e-06	1.152240e-08	8.166904e+00	7.515246e+02
2.400000e-06	1.016847e-06	1.084082e-08	7.232960e+00	7.066290e+02
2.410000e-06	8.852215e-07	1.011963e-08	6.296691e+00	6.591623e+02
2.420000e-06	7.533114e-07	9.358554e-09	5.358398e+00	6.091674e+02
2.430000e-06	6.210953e-07	8.559620e-09	4.417928e+00	5.568054e+02
2.440000e-06	4.886661e-07	7.726906e-09	3.475943e+00	5.023594e+02
2.450000e-06	3.561566e-07	6.868365e-09	2.533386e+00	4.462162e+02
2.460000e-06	2.235039e-07	5.993316e-09	1.589811e+00	3.888240e+02
2.470000e-06	9.064962e-08	5.105954e-09	6.448021e-01	3.306320e+02
2.480000e-06	-4.232846e-08	4.209936e-09	-3.010876e-01	2.720222e+02
2.490000e-06	-1.752614e-07	3.310750e-09	-1.246657e+00	2.132483e+02
2.500000e-06	-3.080844e-07	2.410516e-09	-2.191443e+00	1.543940e+02
2.510000e-06	-4.408403e-07	1.506643e-09	-3.135752e+00	9.536292e+01
2.520000e-06	-5.734830e-07	5.947356e-10	-4.079257e+00	3.590435e+01
2.530000e-06	-7.059042e-07	-3.286965e-10	-5.021185e+00	-2.432648e+01
2.540000e-06	-8.380812e-07	-1.265351e-09	-5.961376e+00	-8.568413e+01
2.550000e-06	-9.699789e-07	-2.220760e-09	-6.899581e+00	-1.484396e+02
2.560000e-06	-1.101557e-06	-3.200600e-09	-7.835511e+00	-2.126958e+02
2.570000e-06	-1.232771e-06	-4.203242e-09	-8.768853e+00	-2.783291e+02
2.580000e-06	-1.363564e-06	-5.220345e-09	-9.699200e+00	-3.449681e+02
2.590000e-06	-1.493935e-06	-6.244382e-09	-1.062655e+01	-4.120151e+02
2.600000e-06	-1.623859e-06	-7.266862e-09	-1.155071e+01	-4.787060e+02
2.610000e-06	-1.753202e-06	-8.273083e-09	-1.247074e+01	-5.441976e+02
2.620000e-06	-1.881830e-06	-9.248779e-09	-1.338569e+01	-6.076660e+02
2.630000e-06	-2.009821e-06	-1.018055e-08	-1.429611e+01	-6.683985e+02
2.640000e-06	-2.137208e-06	-1.106286e-08	-1.520223e+01	-7.258625e+02
2.650000e-06	-2.263851e-06	-1.188926e-08	-1.610305e+01	-7.797430e+02
2.660000e-06	-2.389535e-06	-1.265602e-08	-1.699706e+01	-8.299432e+02
2.670000e-06	-2.514186e-06	-1.336832e-08	-1.788372e+01	-8.765545e+02
2.680000e-06	-2.637860e-06	-1.402976e-08	-1.876343e+01	-9.198035e+02
2.690000e-06	-2.760504e-06	-1.464693e-08	-1.963581e+01	-9.599906e+02
2.700000e-06	-2.882023e-06	-1.522498e-08	-2.050019e+01	-9.974326e+02
2.710000e-06	-3.002494e-06	-1.576715e-08	-2.135711e+01	-1.032419e+03
2.720000e-06	-3.122025e-06	-1.627136e-08	-2.220736e+01	-1.065188e+03
2.730000e-06	-3.240404e-06	-1.673865e-08	-2.304940e+01	-1.095922e+03
2.740000e-06	-3.357337e-06	-1.717665e-08	-2.388116e+01	-1.124759e+03
2.750000e-06	-3.472812e-06	-1.758742e-08	-2.470255e+01	-1.151811e+03
2.760000e-06	-3.586929e-06	-1.797542e-08	-2.551427e+01	-1.177187e+03
2.770000e-06	-3.699557e-06	-1.834063e-08	-2.631541e+01	-1.201002e+03
2.780000e-06	-3.810625e-06	-1.868269e-08	-2.710545e+01	-1.223386e+03
2.790000e-06	-3.920378e-06	-1.900552e-08	-2.788614e+01	-1.244477e+03
2.800000e-06	-4.028924e-06	-1.931178e-08	-2.865824e+01	-1.264409e+03
2.810000e-06	-4.136250e-06	-1.960409e-08	-2.942167e+01	-1.283304e+03
2.820000e-06	-4.242268e-06	-1.988128e-08	-3.017579e+01	-1.301257e+03
2.830000e-06	-4.346791e-06	-2.014227e-08	-3.091927e+01	-1.318333e+03
2.840000e-06	-4.449665e-06	-2.038842e-08	-3.165102e+01	-1.334572e+03
2.850000e-06	-4.550757e-06	-2.062232e-08	-3.237010e+01	-1.349997e+03
2.860000e-06	-4.650187e-06	-2.084505e-08	-3.307736e+01	-1.364626e+03
2.870000e-06	-4.748083e-06	-2.105810e-08	-3.377371e+01	-1.378481e+03
2.880000e-06	-4.844376e-06	-2.126335e-08	-3.445865e+01	-1.391601e+03
2.890000e-06	-4.938842e-06	-2.145722e-08	-3.513060e+01	-1.404038e+03
2.900000e-06	-5.031408e-06	-2.163846e-08	-3.578904e+01	-1.415852e+03
2.910000e-06	-5.122314e-06	-2.181087e-08	-3.643566e+01	-1.427107e+03
2.920000e-06	-5.211480e-06	-2.197612e-08	-3.706991e+01	-1.437855e+03
2.930000e-06	-5.298658e-06	-2.213212e-08	-3.769002e+01	-1.448132e+03
2.940000e-06	-5.383763e-06	-2.227889e-08	-3.829538e+01	-1.457954e+03
