# Temperatura_=_67.95
# Concentracion g/m^3_=_28200.0
# C_Vs_to_Am_M_A/Vsm_=_65563218390.804596
# pendiente_HvsI_1/m_=_3716.3
# ordenada_HvsI_A/m_=_1297.0
# frecuencia_Hz_=_302284.85713213927

Tiempo_(s)	Campo_(V.s)	Magnetizacion_(V.s)	Campo_(kA/m)	Magnetizacion_(A/m)
0.000000e+00	-6.911291e-06	-2.441717e-08	-4.951784e+01	-1.598365e+03
1.000000e-08	-6.908415e-06	-2.441062e-08	-4.949724e+01	-1.598005e+03
2.000000e-08	-6.903275e-06	-2.440134e-08	-4.946041e+01	-1.597477e+03
3.000000e-08	-6.895968e-06	-2.439231e-08	-4.940806e+01	-1.596778e+03
4.000000e-08	-6.886285e-06	-2.438082e-08	-4.933868e+01	-1.595905e+03
5.000000e-08	-6.874129e-06	-2.436652e-08	-4.925158e+01	-1.594855e+03
6.000000e-08	-6.859379e-06	-2.434622e-08	-4.914591e+01	-1.593628e+03
7.000000e-08	-6.842174e-06	-2.432321e-08	-4.902263e+01	-1.592225e+03
8.000000e-08	-6.822942e-06	-2.430704e-08	-4.888484e+01	-1.590654e+03
9.000000e-08	-6.801566e-06	-2.431639e-08	-4.873169e+01	-1.588931e+03
1.000000e-07	-6.777518e-06	-2.427734e-08	-4.855939e+01	-1.587077e+03
1.100000e-07	-6.750672e-06	-2.421738e-08	-4.836704e+01	-1.585118e+03
1.200000e-07	-6.721372e-06	-2.417870e-08	-4.815711e+01	-1.583083e+03
1.300000e-07	-6.689832e-06	-2.413992e-08	-4.793114e+01	-1.580991e+03
1.400000e-07	-6.656040e-06	-2.407216e-08	-4.768902e+01	-1.578853e+03
1.500000e-07	-6.620403e-06	-2.405443e-08	-4.743369e+01	-1.576659e+03
1.600000e-07	-6.583061e-06	-2.407054e-08	-4.716615e+01	-1.574381e+03
1.700000e-07	-6.543583e-06	-2.394615e-08	-4.688330e+01	-1.571972e+03
1.800000e-07	-6.501833e-06	-2.391849e-08	-4.658417e+01	-1.569375e+03
1.900000e-07	-6.457633e-06	-2.388261e-08	-4.626748e+01	-1.566529e+03
2.000000e-07	-6.410998e-06	-2.380166e-08	-4.593336e+01	-1.563382e+03
2.100000e-07	-6.361899e-06	-2.378638e-08	-4.558157e+01	-1.559896e+03
2.200000e-07	-6.310087e-06	-2.372449e-08	-4.521035e+01	-1.556061e+03
2.300000e-07	-6.255787e-06	-2.368867e-08	-4.482130e+01	-1.551886e+03
2.400000e-07	-6.199140e-06	-2.359563e-08	-4.441544e+01	-1.547403e+03
2.500000e-07	-6.140074e-06	-2.349308e-08	-4.399224e+01	-1.542653e+03
2.600000e-07	-6.078743e-06	-2.343886e-08	-4.355283e+01	-1.537677e+03
2.700000e-07	-6.015155e-06	-2.335100e-08	-4.309723e+01	-1.532508e+03
2.800000e-07	-5.949295e-06	-2.326822e-08	-4.262536e+01	-1.527162e+03
2.900000e-07	-5.881233e-06	-2.319411e-08	-4.213771e+01	-1.521633e+03
3.000000e-07	-5.810966e-06	-2.310829e-08	-4.163426e+01	-1.515900e+03
3.100000e-07	-5.738524e-06	-2.300630e-08	-4.111523e+01	-1.509929e+03
3.200000e-07	-5.663772e-06	-2.290099e-08	-4.057965e+01	-1.503684e+03
3.300000e-07	-5.586631e-06	-2.281408e-08	-4.002696e+01	-1.497135e+03
3.400000e-07	-5.507185e-06	-2.269843e-08	-3.945774e+01	-1.490262e+03
3.500000e-07	-5.425687e-06	-2.260118e-08	-3.887383e+01	-1.483056e+03
3.600000e-07	-5.342395e-06	-2.249108e-08	-3.827706e+01	-1.475523e+03
3.700000e-07	-5.257324e-06	-2.236351e-08	-3.766754e+01	-1.467669e+03
3.800000e-07	-5.170545e-06	-2.225032e-08	-3.704579e+01	-1.459501e+03
3.900000e-07	-5.081977e-06	-2.211529e-08	-3.641122e+01	-1.451019e+03
4.000000e-07	-4.991501e-06	-2.197579e-08	-3.576298e+01	-1.442210e+03
4.100000e-07	-4.899282e-06	-2.182730e-08	-3.510225e+01	-1.433054e+03
4.200000e-07	-4.805485e-06	-2.168533e-08	-3.443022e+01	-1.423525e+03
4.300000e-07	-4.710062e-06	-2.153085e-08	-3.374653e+01	-1.413593e+03
4.400000e-07	-4.612869e-06	-2.137016e-08	-3.305016e+01	-1.403237e+03
4.500000e-07	-4.513935e-06	-2.120872e-08	-3.234133e+01	-1.392441e+03
4.600000e-07	-4.413372e-06	-2.103856e-08	-3.162082e+01	-1.381195e+03
4.700000e-07	-4.311304e-06	-2.086479e-08	-3.088952e+01	-1.369498e+03
4.800000e-07	-4.207735e-06	-2.067711e-08	-3.014748e+01	-1.357342e+03
4.900000e-07	-4.102616e-06	-2.048827e-08	-2.939432e+01	-1.344716e+03
5.000000e-07	-3.995989e-06	-2.028528e-08	-2.863036e+01	-1.331595e+03
5.100000e-07	-3.887857e-06	-2.007168e-08	-2.785562e+01	-1.317940e+03
5.200000e-07	-3.778331e-06	-1.984748e-08	-2.707089e+01	-1.303705e+03
5.300000e-07	-3.667546e-06	-1.961637e-08	-2.627714e+01	-1.288836e+03
5.400000e-07	-3.555359e-06	-1.937811e-08	-2.547335e+01	-1.273283e+03
5.500000e-07	-3.441664e-06	-1.912895e-08	-2.465875e+01	-1.257005e+03
5.600000e-07	-3.326482e-06	-1.887074e-08	-2.383350e+01	-1.239971e+03
5.700000e-07	-3.209871e-06	-1.859684e-08	-2.299800e+01	-1.222160e+03
5.800000e-07	-3.092031e-06	-1.831372e-08	-2.215371e+01	-1.203552e+03
5.900000e-07	-2.973130e-06	-1.801754e-08	-2.130181e+01	-1.184123e+03
6.000000e-07	-2.853153e-06	-1.771163e-08	-2.044220e+01	-1.163833e+03
6.100000e-07	-2.732048e-06	-1.739021e-08	-1.957451e+01	-1.142621e+03
6.200000e-07	-2.609917e-06	-1.704943e-08	-1.869947e+01	-1.120399e+03
6.300000e-07	-2.486774e-06	-1.668616e-08	-1.781718e+01	-1.097063e+03
6.400000e-07	-2.362639e-06	-1.630173e-08	-1.692778e+01	-1.072491e+03
6.500000e-07	-2.237716e-06	-1.590119e-08	-1.603273e+01	-1.046560e+03
6.600000e-07	-2.112091e-06	-1.548187e-08	-1.513265e+01	-1.019152e+03
6.700000e-07	-1.985789e-06	-1.504218e-08	-1.422773e+01	-9.901581e+02
6.800000e-07	-1.858848e-06	-1.457506e-08	-1.331823e+01	-9.594760e+02
6.900000e-07	-1.731201e-06	-1.408035e-08	-1.240366e+01	-9.270045e+02
7.000000e-07	-1.602884e-06	-1.355558e-08	-1.148430e+01	-8.926338e+02
7.100000e-07	-1.473986e-06	-1.300059e-08	-1.056077e+01	-8.562376e+02
7.200000e-07	-1.344599e-06	-1.241121e-08	-9.633748e+00	-8.176733e+02
7.300000e-07	-1.214848e-06	-1.178555e-08	-8.704115e+00	-7.767910e+02
7.400000e-07	-1.084723e-06	-1.112266e-08	-7.771794e+00	-7.334547e+02
7.500000e-07	-9.542198e-07	-1.042009e-08	-6.836770e+00	-6.875727e+02
7.600000e-07	-8.233889e-07	-9.680494e-09	-5.899396e+00	-6.391305e+02
7.700000e-07	-6.922314e-07	-8.902128e-09	-4.959682e+00	-5.882191e+02
7.800000e-07	-5.608450e-07	-8.092995e-09	-4.018328e+00	-5.350504e+02
7.900000e-07	-4.293028e-07	-7.258124e-09	-3.075858e+00	-4.799516e+02
8.000000e-07	-2.975614e-07	-6.399367e-09	-2.131960e+00	-4.233365e+02
8.100000e-07	-1.656571e-07	-5.521493e-09	-1.186895e+00	-3.656556e+02
8.200000e-07	-3.362141e-08	-4.629989e-09	-2.408898e-01	-3.073325e+02
8.300000e-07	9.848296e-08	-3.732694e-09	7.056082e-01	-2.486993e+02
8.400000e-07	2.305640e-07	-2.834628e-09	1.651939e+00	-1.899427e+02
8.500000e-07	3.625873e-07	-1.938692e-09	2.597856e+00	-1.310755e+02
8.600000e-07	4.944991e-07	-1.042930e-09	3.542975e+00	-7.194038e+01
8.700000e-07	6.262501e-07	-1.400763e-10	4.486941e+00	-1.224921e+01
8.800000e-07	7.578004e-07	7.777528e-10	5.429469e+00	4.834819e+01
8.900000e-07	8.890705e-07	1.717339e-09	6.369990e+00	1.101770e+02
9.000000e-07	1.020007e-06	2.680199e-09	7.308124e+00	1.734483e+02
9.100000e-07	1.150561e-06	3.666210e-09	8.243512e+00	2.381850e+02
9.200000e-07	1.280670e-06	4.674565e-09	9.175709e+00	3.041777e+02
9.300000e-07	1.410329e-06	5.694570e-09	1.010469e+01	3.709788e+02
9.400000e-07	1.539520e-06	6.716946e-09	1.103032e+01	4.379371e+02
9.500000e-07	1.668136e-06	7.728757e-09	1.195182e+01	5.042662e+02
9.600000e-07	1.796073e-06	8.713246e-09	1.286846e+01	5.691343e+02
9.700000e-07	1.923299e-06	9.659517e-09	1.378001e+01	6.317579e+02
9.800000e-07	2.049814e-06	1.055852e-08	1.468645e+01	6.914852e+02
9.900000e-07	2.175593e-06	1.140915e-08	1.558764e+01	7.478533e+02
1.000000e-06	2.300609e-06	1.220659e-08	1.648334e+01	8.006137e+02
1.010000e-06	2.424866e-06	1.295008e-08	1.737362e+01	8.497239e+02
1.020000e-06	2.548251e-06	1.364430e-08	1.825764e+01	8.953115e+02
1.030000e-06	2.670614e-06	1.428987e-08	1.913435e+01	9.376212e+02
1.040000e-06	2.791983e-06	1.488930e-08	2.000393e+01	9.769559e+02
1.050000e-06	2.912278e-06	1.544654e-08	2.086581e+01	1.013625e+03
1.060000e-06	3.031374e-06	1.596602e-08	2.171911e+01	1.047906e+03
1.070000e-06	3.149425e-06	1.644983e-08	2.256492e+01	1.080028e+03
1.080000e-06	3.266466e-06	1.690283e-08	2.340349e+01	1.110167e+03
1.090000e-06	3.382227e-06	1.732933e-08	2.423289e+01	1.138461e+03
1.100000e-06	3.496506e-06	1.773262e-08	2.505168e+01	1.165023e+03
1.110000e-06	3.609310e-06	1.811327e-08	2.585990e+01	1.189964e+03
1.120000e-06	3.720771e-06	1.847213e-08	2.665849e+01	1.213400e+03
1.130000e-06	3.830984e-06	1.881060e-08	2.744814e+01	1.235454e+03
1.140000e-06	3.939994e-06	1.913094e-08	2.822917e+01	1.256258e+03
1.150000e-06	4.047786e-06	1.943334e-08	2.900147e+01	1.275935e+03
1.160000e-06	4.154135e-06	1.971614e-08	2.976344e+01	1.294594e+03
1.170000e-06	4.258829e-06	1.998168e-08	3.051355e+01	1.312322e+03
1.180000e-06	4.361916e-06	2.023288e-08	3.125215e+01	1.329181e+03
1.190000e-06	4.463496e-06	2.047350e-08	3.197995e+01	1.345210e+03
1.200000e-06	4.563604e-06	2.070483e-08	3.269719e+01	1.360437e+03
1.210000e-06	4.662088e-06	2.092459e-08	3.340281e+01	1.374885e+03
1.220000e-06	4.758717e-06	2.113309e-08	3.409514e+01	1.388582e+03
1.230000e-06	4.853541e-06	2.133119e-08	3.477453e+01	1.401568e+03
1.240000e-06	4.946743e-06	2.151907e-08	3.544230e+01	1.413891e+03
1.250000e-06	5.038306e-06	2.169674e-08	3.609833e+01	1.425608e+03
1.260000e-06	5.128017e-06	2.186571e-08	3.674109e+01	1.436774e+03
1.270000e-06	5.215767e-06	2.202765e-08	3.736979e+01	1.447433e+03
1.280000e-06	5.301645e-06	2.218216e-08	3.798509e+01	1.457617e+03
1.290000e-06	5.385689e-06	2.233064e-08	3.858725e+01	1.467341e+03
1.300000e-06	5.467768e-06	2.247451e-08	3.917533e+01	1.476607e+03
1.310000e-06	5.547795e-06	2.261162e-08	3.974870e+01	1.485407e+03
1.320000e-06	5.625774e-06	2.274118e-08	4.030740e+01	1.493732e+03
1.330000e-06	5.701717e-06	2.286370e-08	4.085152e+01	1.501583e+03
1.340000e-06	5.775475e-06	2.297709e-08	4.137998e+01	1.508966e+03
1.350000e-06	5.847029e-06	2.308328e-08	4.189265e+01	1.515905e+03
1.360000e-06	5.916499e-06	2.318466e-08	4.239038e+01	1.522431e+03
1.370000e-06	5.983869e-06	2.327889e-08	4.287307e+01	1.528583e+03
1.380000e-06	6.048994e-06	2.336469e-08	4.333968e+01	1.534398e+03
1.390000e-06	6.111908e-06	2.344684e-08	4.379044e+01	1.539912e+03
1.400000e-06	6.172846e-06	2.352588e-08	4.422705e+01	1.545151e+03
1.410000e-06	6.231651e-06	2.360034e-08	4.464838e+01	1.550131e+03
1.420000e-06	6.288161e-06	2.367179e-08	4.505326e+01	1.554862e+03
1.430000e-06	6.342441e-06	2.374175e-08	4.544216e+01	1.559349e+03
1.440000e-06	6.394251e-06	2.380913e-08	4.581337e+01	1.563596e+03
1.450000e-06	6.443380e-06	2.387157e-08	4.616536e+01	1.567605e+03
1.460000e-06	6.490062e-06	2.392783e-08	4.649983e+01	1.571379e+03
1.470000e-06	6.534572e-06	2.397922e-08	4.681874e+01	1.574922e+03
1.480000e-06	6.576788e-06	2.402869e-08	4.712120e+01	1.578236e+03
1.490000e-06	6.616508e-06	2.407583e-08	4.740579e+01	1.581321e+03
1.500000e-06	6.653948e-06	2.411931e-08	4.767404e+01	1.584173e+03
1.510000e-06	6.689222e-06	2.415869e-08	4.792677e+01	1.586786e+03
1.520000e-06	6.722059e-06	2.419585e-08	4.816204e+01	1.589153e+03
1.530000e-06	6.752412e-06	2.422957e-08	4.837951e+01	1.591269e+03
1.540000e-06	6.780505e-06	2.425765e-08	4.858079e+01	1.593132e+03
1.550000e-06	6.806129e-06	2.428100e-08	4.876438e+01	1.594750e+03
1.560000e-06	6.829153e-06	2.430079e-08	4.892934e+01	1.596133e+03
1.570000e-06	6.849860e-06	2.431806e-08	4.907770e+01	1.597300e+03
1.580000e-06	6.868179e-06	2.433300e-08	4.920896e+01	1.598269e+03
1.590000e-06	6.883927e-06	2.434516e-08	4.932179e+01	1.599060e+03
1.600000e-06	6.897140e-06	2.435562e-08	4.941645e+01	1.599688e+03
1.610000e-06	6.907622e-06	2.436479e-08	4.949155e+01	1.600162e+03
1.620000e-06	6.915360e-06	2.437084e-08	4.954699e+01	1.600488e+03
1.630000e-06	6.920680e-06	2.437396e-08	4.958511e+01	1.600665e+03
1.640000e-06	6.923606e-06	2.437629e-08	4.960607e+01	1.600689e+03
1.650000e-06	6.924000e-06	2.437727e-08	4.960890e+01	1.600556e+03
1.660000e-06	6.922001e-06	2.437060e-08	4.959457e+01	1.600260e+03
1.670000e-06	6.917787e-06	2.436301e-08	4.956438e+01	1.599798e+03
1.680000e-06	6.911187e-06	2.435340e-08	4.951710e+01	1.599166e+03
1.690000e-06	6.902236e-06	2.434132e-08	4.945297e+01	1.598361e+03
1.700000e-06	6.891096e-06	2.432768e-08	4.937315e+01	1.597381e+03
1.710000e-06	6.877561e-06	2.431346e-08	4.927618e+01	1.596223e+03
1.720000e-06	6.861627e-06	2.429891e-08	4.916201e+01	1.594889e+03
1.730000e-06	6.843661e-06	2.425858e-08	4.903329e+01	1.593382e+03
1.740000e-06	6.823549e-06	2.419645e-08	4.888919e+01	1.591716e+03
1.750000e-06	6.800486e-06	2.418807e-08	4.872395e+01	1.589910e+03
1.760000e-06	6.774177e-06	2.417726e-08	4.853545e+01	1.587989e+03
1.770000e-06	6.745067e-06	2.413840e-08	4.832689e+01	1.585980e+03
1.780000e-06	6.713669e-06	2.414250e-08	4.810193e+01	1.583909e+03
1.790000e-06	6.680542e-06	2.412862e-08	4.786458e+01	1.581789e+03
1.800000e-06	6.646057e-06	2.403484e-08	4.761750e+01	1.579619e+03
1.810000e-06	6.609614e-06	2.404883e-08	4.735639e+01	1.577378e+03
1.820000e-06	6.570613e-06	2.402375e-08	4.707696e+01	1.575027e+03
1.830000e-06	6.529380e-06	2.398891e-08	4.678154e+01	1.572511e+03
1.840000e-06	6.485923e-06	2.401652e-08	4.647018e+01	1.569769e+03
1.850000e-06	6.440140e-06	2.389662e-08	4.614215e+01	1.566745e+03
1.860000e-06	6.392043e-06	2.386152e-08	4.579755e+01	1.563395e+03
1.870000e-06	6.341443e-06	2.378758e-08	4.543501e+01	1.559697e+03
1.880000e-06	6.288381e-06	2.369383e-08	4.505484e+01	1.555653e+03
1.890000e-06	6.232769e-06	2.370444e-08	4.465639e+01	1.551286e+03
1.900000e-06	6.174685e-06	2.359909e-08	4.424023e+01	1.546635e+03
1.910000e-06	6.114323e-06	2.354614e-08	4.380775e+01	1.541743e+03
1.920000e-06	6.051558e-06	2.347949e-08	4.335805e+01	1.536647e+03
1.930000e-06	5.986549e-06	2.336151e-08	4.289227e+01	1.531369e+03
1.940000e-06	5.919426e-06	2.330749e-08	4.241136e+01	1.525914e+03
1.950000e-06	5.850022e-06	2.320270e-08	4.191409e+01	1.520264e+03
1.960000e-06	5.778236e-06	2.314061e-08	4.139976e+01	1.514391e+03
1.970000e-06	5.704224e-06	2.302740e-08	4.086948e+01	1.508258e+03
1.980000e-06	5.628042e-06	2.293163e-08	4.032366e+01	1.501831e+03
1.990000e-06	5.549531e-06	2.283706e-08	3.976114e+01	1.495086e+03
2.000000e-06	5.468956e-06	2.270224e-08	3.918384e+01	1.488011e+03
2.010000e-06	5.386568e-06	2.261251e-08	3.859355e+01	1.480605e+03
2.020000e-06	5.302310e-06	2.248377e-08	3.798985e+01	1.472876e+03
2.030000e-06	5.216054e-06	2.237698e-08	3.737185e+01	1.464831e+03
2.040000e-06	5.127815e-06	2.224350e-08	3.673964e+01	1.456472e+03
2.050000e-06	5.037843e-06	2.210785e-08	3.609501e+01	1.447793e+03
2.060000e-06	4.946264e-06	2.197228e-08	3.543887e+01	1.438777e+03
2.070000e-06	4.853022e-06	2.182159e-08	3.477081e+01	1.429397e+03
2.080000e-06	4.757950e-06	2.168057e-08	3.408964e+01	1.419626e+03
2.090000e-06	4.661128e-06	2.152274e-08	3.339593e+01	1.409439e+03
2.100000e-06	4.562762e-06	2.137502e-08	3.269116e+01	1.398817e+03
2.110000e-06	4.462916e-06	2.120636e-08	3.197579e+01	1.387748e+03
2.120000e-06	4.361492e-06	2.103179e-08	3.124911e+01	1.376228e+03
2.130000e-06	4.258336e-06	2.084117e-08	3.051002e+01	1.364253e+03
2.140000e-06	4.153565e-06	2.064625e-08	2.975936e+01	1.351814e+03
2.150000e-06	4.047376e-06	2.045125e-08	2.899854e+01	1.338891e+03
2.160000e-06	3.939863e-06	2.024990e-08	2.822823e+01	1.325451e+03
2.170000e-06	3.830974e-06	2.004337e-08	2.744807e+01	1.311449e+03
2.180000e-06	3.720634e-06	1.982487e-08	2.665751e+01	1.296835e+03
2.190000e-06	3.608851e-06	1.959708e-08	2.585661e+01	1.281557e+03
2.200000e-06	3.495654e-06	1.935028e-08	2.504557e+01	1.265568e+03
2.210000e-06	3.381050e-06	1.909763e-08	2.422446e+01	1.248833e+03
2.220000e-06	3.265010e-06	1.883117e-08	2.339306e+01	1.231329e+03
2.230000e-06	3.147534e-06	1.855512e-08	2.255137e+01	1.213036e+03
2.240000e-06	3.028754e-06	1.826081e-08	2.170034e+01	1.193933e+03
2.250000e-06	2.908804e-06	1.795347e-08	2.084092e+01	1.173987e+03
2.260000e-06	2.787741e-06	1.763386e-08	1.997354e+01	1.153146e+03
2.270000e-06	2.665698e-06	1.730281e-08	1.909913e+01	1.131333e+03
2.280000e-06	2.542726e-06	1.695852e-08	1.821806e+01	1.108448e+03
2.290000e-06	2.418863e-06	1.659415e-08	1.733061e+01	1.084375e+03
2.300000e-06	2.294162e-06	1.620955e-08	1.643715e+01	1.058993e+03
2.310000e-06	2.168648e-06	1.580132e-08	1.553787e+01	1.032178e+03
2.320000e-06	2.042355e-06	1.537146e-08	1.463301e+01	1.003820e+03
2.330000e-06	1.915322e-06	1.491596e-08	1.372285e+01	9.738124e+02
2.340000e-06	1.787589e-06	1.443560e-08	1.280767e+01	9.420561e+02
2.350000e-06	1.659209e-06	1.392534e-08	1.188786e+01	9.084453e+02
2.360000e-06	1.530264e-06	1.338081e-08	1.096400e+01	8.728607e+02
2.370000e-06	1.400889e-06	1.280029e-08	1.003705e+01	8.351657e+02
2.380000e-06	1.271142e-06	1.218662e-08	9.107447e+00	7.952113e+02
2.390000e-06	1.141014e-06	1.154105e-08	8.175109e+00	7.528530e+02
2.400000e-06	1.010531e-06	1.085938e-08	7.240228e+00	7.079776e+02
2.410000e-06	8.797105e-07	1.013962e-08	6.302927e+00	6.605364e+02
2.420000e-06	7.486827e-07	9.380830e-09	5.364143e+00	6.105762e+02
2.430000e-06	6.174251e-07	8.582670e-09	4.423712e+00	5.582610e+02
2.440000e-06	4.859524e-07	7.748186e-09	3.481739e+00	5.038748e+02
2.450000e-06	3.543909e-07	6.888869e-09	2.539131e+00	4.478021e+02
2.460000e-06	2.226884e-07	6.014010e-09	1.595512e+00	3.904861e+02
2.470000e-06	9.079426e-08	5.128075e-09	6.505204e-01	3.323690e+02
2.480000e-06	-4.122885e-08	4.234966e-09	-2.953954e-01	2.738261e+02
2.490000e-06	-1.732385e-07	3.337422e-09	-1.241215e+00	2.151063e+02
2.500000e-06	-3.052020e-07	2.435184e-09	-2.186704e+00	1.562921e+02
2.510000e-06	-4.370858e-07	1.529235e-09	-3.131621e+00	9.729028e+01
2.520000e-06	-5.688029e-07	6.185960e-10	-4.075344e+00	3.785742e+01
2.530000e-06	-7.003521e-07	-3.027356e-10	-5.017865e+00	-2.234203e+01
2.540000e-06	-8.316454e-07	-1.239172e-09	-5.958552e+00	-8.365397e+01
2.550000e-06	-9.626044e-07	-2.195193e-09	-6.896844e+00	-1.463443e+02
2.560000e-06	-1.093286e-06	-3.172840e-09	-7.833148e+00	-2.105172e+02
2.570000e-06	-1.223646e-06	-4.172478e-09	-8.767145e+00	-2.760573e+02
2.580000e-06	-1.353611e-06	-5.188871e-09	-9.698318e+00	-3.426087e+02
2.590000e-06	-1.483149e-06	-6.213084e-09	-1.062643e+01	-4.095936e+02
2.600000e-06	-1.612169e-06	-7.235727e-09	-1.155083e+01	-4.762690e+02
2.610000e-06	-1.740687e-06	-8.243859e-09	-1.247163e+01	-5.418095e+02
2.620000e-06	-1.868630e-06	-9.219706e-09	-1.338831e+01	-6.054018e+02
2.630000e-06	-1.995756e-06	-1.015134e-08	-1.429914e+01	-6.663338e+02
2.640000e-06	-2.122037e-06	-1.103458e-08	-1.520392e+01	-7.240635e+02
2.650000e-06	-2.247521e-06	-1.186491e-08	-1.610298e+01	-7.782574e+02
2.660000e-06	-2.372098e-06	-1.264144e-08	-1.699555e+01	-8.287950e+02
2.670000e-06	-2.495689e-06	-1.336377e-08	-1.788105e+01	-8.757428e+02
2.680000e-06	-2.618311e-06	-1.403384e-08	-1.875961e+01	-9.193064e+02
2.690000e-06	-2.739980e-06	-1.465545e-08	-1.963134e+01	-9.597725e+02
2.700000e-06	-2.860728e-06	-1.523426e-08	-2.049647e+01	-9.974535e+02
2.710000e-06	-2.980390e-06	-1.577673e-08	-2.135382e+01	-1.032643e+03
2.720000e-06	-3.098852e-06	-1.627996e-08	-2.220257e+01	-1.065590e+03
2.730000e-06	-3.216156e-06	-1.674799e-08	-2.304304e+01	-1.096490e+03
2.740000e-06	-3.332207e-06	-1.719083e-08	-2.387451e+01	-1.125494e+03
2.750000e-06	-3.446842e-06	-1.760895e-08	-2.469585e+01	-1.152724e+03
2.760000e-06	-3.560008e-06	-1.800189e-08	-2.550666e+01	-1.178289e+03
2.770000e-06	-3.671741e-06	-1.837145e-08	-2.630720e+01	-1.202302e+03
2.780000e-06	-3.782062e-06	-1.871948e-08	-2.709762e+01	-1.224884e+03
2.790000e-06	-3.891120e-06	-1.904540e-08	-2.787900e+01	-1.246164e+03
2.800000e-06	-3.999037e-06	-1.935008e-08	-2.865220e+01	-1.266269e+03
2.810000e-06	-4.105700e-06	-1.963969e-08	-2.941641e+01	-1.285317e+03
2.820000e-06	-4.210970e-06	-1.991592e-08	-3.017065e+01	-1.303402e+03
2.830000e-06	-4.314664e-06	-2.017756e-08	-3.091360e+01	-1.320597e+03
2.840000e-06	-4.416640e-06	-2.042720e-08	-3.164423e+01	-1.336949e+03
2.850000e-06	-4.516980e-06	-2.066655e-08	-3.236315e+01	-1.352489e+03
2.860000e-06	-4.615787e-06	-2.089509e-08	-3.307107e+01	-1.367240e+03
2.870000e-06	-4.713074e-06	-2.111219e-08	-3.376811e+01	-1.381228e+03
2.880000e-06	-4.808692e-06	-2.131783e-08	-3.445319e+01	-1.394488e+03
2.890000e-06	-4.902437e-06	-2.151022e-08	-3.512486e+01	-1.407066e+03
2.900000e-06	-4.994406e-06	-2.169026e-08	-3.578380e+01	-1.419014e+03
2.910000e-06	-5.084685e-06	-2.186392e-08	-3.643062e+01	-1.430391e+03
2.920000e-06	-5.173162e-06	-2.203126e-08	-3.706454e+01	-1.441244e+03
2.930000e-06	-5.259647e-06	-2.218909e-08	-3.768418e+01	-1.451613e+03
2.940000e-06	-5.344124e-06	-2.233891e-08	-3.828945e+01	-1.461517e+03
