# Temperatura_=_68.6
# Concentracion g/m^3_=_28200.0
# C_Vs_to_Am_M_A/Vsm_=_65563218390.804596
# pendiente_HvsI_1/m_=_3716.3
# ordenada_HvsI_A/m_=_1297.0
# frecuencia_Hz_=_302285.84469519963

Tiempo_(s)	Campo_(V.s)	Magnetizacion_(V.s)	Campo_(kA/m)	Magnetizacion_(A/m)
0.000000e+00	-6.895764e-06	-2.447568e-08	-4.952361e+01	-1.602699e+03
1.000000e-08	-6.893097e-06	-2.446924e-08	-4.950446e+01	-1.602310e+03
2.000000e-08	-6.888093e-06	-2.445960e-08	-4.946852e+01	-1.601745e+03
3.000000e-08	-6.881015e-06	-2.444853e-08	-4.941769e+01	-1.601000e+03
4.000000e-08	-6.871605e-06	-2.443635e-08	-4.935011e+01	-1.600071e+03
5.000000e-08	-6.859668e-06	-2.442070e-08	-4.926438e+01	-1.598959e+03
6.000000e-08	-6.845175e-06	-2.440176e-08	-4.916030e+01	-1.597668e+03
7.000000e-08	-6.828262e-06	-2.437858e-08	-4.903883e+01	-1.596209e+03
8.000000e-08	-6.809292e-06	-2.435480e-08	-4.890259e+01	-1.594598e+03
9.000000e-08	-6.788222e-06	-2.435503e-08	-4.875128e+01	-1.592857e+03
1.000000e-07	-6.764535e-06	-2.434084e-08	-4.858116e+01	-1.591012e+03
1.100000e-07	-6.737995e-06	-2.428249e-08	-4.839056e+01	-1.589088e+03
1.200000e-07	-6.708910e-06	-2.423042e-08	-4.818167e+01	-1.587104e+03
1.300000e-07	-6.677611e-06	-2.419646e-08	-4.795690e+01	-1.585067e+03
1.400000e-07	-6.644087e-06	-2.413672e-08	-4.771613e+01	-1.582973e+03
1.500000e-07	-6.608653e-06	-2.408079e-08	-4.746166e+01	-1.580795e+03
1.600000e-07	-6.571523e-06	-2.410268e-08	-4.719500e+01	-1.578494e+03
1.700000e-07	-6.532343e-06	-2.403620e-08	-4.691362e+01	-1.576018e+03
1.800000e-07	-6.490862e-06	-2.395129e-08	-4.661571e+01	-1.573311e+03
1.900000e-07	-6.446891e-06	-2.394403e-08	-4.629992e+01	-1.570322e+03
2.000000e-07	-6.400467e-06	-2.386510e-08	-4.596652e+01	-1.567013e+03
2.100000e-07	-6.351678e-06	-2.380994e-08	-4.561613e+01	-1.563367e+03
2.200000e-07	-6.300227e-06	-2.376319e-08	-4.524662e+01	-1.559387e+03
2.300000e-07	-6.246149e-06	-2.369662e-08	-4.485824e+01	-1.555096e+03
2.400000e-07	-6.189746e-06	-2.364128e-08	-4.445318e+01	-1.550532e+03
2.500000e-07	-6.130962e-06	-2.355269e-08	-4.403100e+01	-1.545732e+03
2.600000e-07	-6.069916e-06	-2.348693e-08	-4.359259e+01	-1.540733e+03
2.700000e-07	-6.006690e-06	-2.340317e-08	-4.313852e+01	-1.535554e+03
2.800000e-07	-5.941192e-06	-2.329678e-08	-4.266813e+01	-1.530196e+03
2.900000e-07	-5.873479e-06	-2.321337e-08	-4.218183e+01	-1.524646e+03
3.000000e-07	-5.803568e-06	-2.312619e-08	-4.167974e+01	-1.518874e+03
3.100000e-07	-5.731497e-06	-2.304623e-08	-4.116215e+01	-1.512846e+03
3.200000e-07	-5.657178e-06	-2.295493e-08	-4.062841e+01	-1.506528e+03
3.300000e-07	-5.580473e-06	-2.286072e-08	-4.007753e+01	-1.499896e+03
3.400000e-07	-5.501412e-06	-2.273927e-08	-3.950974e+01	-1.492940e+03
3.500000e-07	-5.420266e-06	-2.261755e-08	-3.892696e+01	-1.485659e+03
3.600000e-07	-5.337316e-06	-2.251760e-08	-3.833124e+01	-1.478061e+03
3.700000e-07	-5.252613e-06	-2.239790e-08	-3.772293e+01	-1.470154e+03
3.800000e-07	-5.166211e-06	-2.227851e-08	-3.710241e+01	-1.461943e+03
3.900000e-07	-5.078062e-06	-2.214790e-08	-3.646935e+01	-1.453422e+03
4.000000e-07	-4.988019e-06	-2.199862e-08	-3.582268e+01	-1.444577e+03
4.100000e-07	-4.896163e-06	-2.184514e-08	-3.516299e+01	-1.435382e+03
4.200000e-07	-4.802694e-06	-2.170448e-08	-3.449172e+01	-1.425810e+03
4.300000e-07	-4.707607e-06	-2.156269e-08	-3.380883e+01	-1.415833e+03
4.400000e-07	-4.610805e-06	-2.140247e-08	-3.311362e+01	-1.405431e+03
4.500000e-07	-4.512267e-06	-2.123435e-08	-3.240595e+01	-1.394591e+03
4.600000e-07	-4.412078e-06	-2.106090e-08	-3.168642e+01	-1.383310e+03
4.700000e-07	-4.310370e-06	-2.088070e-08	-3.095598e+01	-1.371586e+03
4.800000e-07	-4.207178e-06	-2.069541e-08	-3.021487e+01	-1.359413e+03
4.900000e-07	-4.102505e-06	-2.050880e-08	-2.946314e+01	-1.346777e+03
5.000000e-07	-3.996244e-06	-2.031009e-08	-2.870000e+01	-1.333652e+03
5.100000e-07	-3.888420e-06	-2.009466e-08	-2.792564e+01	-1.319997e+03
5.200000e-07	-3.779280e-06	-1.987043e-08	-2.714182e+01	-1.305763e+03
5.300000e-07	-3.668891e-06	-1.964212e-08	-2.634904e+01	-1.290896e+03
5.400000e-07	-3.557145e-06	-1.940324e-08	-2.554651e+01	-1.275349e+03
5.500000e-07	-3.443969e-06	-1.915170e-08	-2.473371e+01	-1.259080e+03
5.600000e-07	-3.329263e-06	-1.889334e-08	-2.390992e+01	-1.242061e+03
5.700000e-07	-3.213048e-06	-1.862296e-08	-2.307529e+01	-1.224273e+03
5.800000e-07	-3.095578e-06	-1.833856e-08	-2.223165e+01	-1.205695e+03
5.900000e-07	-2.977004e-06	-1.804248e-08	-2.138008e+01	-1.186301e+03
6.000000e-07	-2.857354e-06	-1.773661e-08	-2.052079e+01	-1.166047e+03
6.100000e-07	-2.736655e-06	-1.741609e-08	-1.965396e+01	-1.144868e+03
6.200000e-07	-2.614970e-06	-1.707604e-08	-1.878005e+01	-1.122675e+03
6.300000e-07	-2.492188e-06	-1.671762e-08	-1.789826e+01	-1.099358e+03
6.400000e-07	-2.368383e-06	-1.633913e-08	-1.700912e+01	-1.074800e+03
6.500000e-07	-2.243793e-06	-1.593869e-08	-1.611435e+01	-1.048879e+03
6.600000e-07	-2.118493e-06	-1.551725e-08	-1.521448e+01	-1.021485e+03
6.700000e-07	-1.992541e-06	-1.507489e-08	-1.430992e+01	-9.925145e+02
6.800000e-07	-1.865956e-06	-1.461053e-08	-1.340082e+01	-9.618728e+02
6.900000e-07	-1.738706e-06	-1.412091e-08	-1.248694e+01	-9.294646e+02
7.000000e-07	-1.610767e-06	-1.360179e-08	-1.156812e+01	-8.951833e+02
7.100000e-07	-1.482234e-06	-1.304992e-08	-1.064503e+01	-8.589036e+02
7.200000e-07	-1.353252e-06	-1.246187e-08	-9.718714e+00	-8.204802e+02
7.300000e-07	-1.223892e-06	-1.183798e-08	-8.789682e+00	-7.797585e+02
7.400000e-07	-1.094204e-06	-1.117637e-08	-7.858296e+00	-7.365958e+02
7.500000e-07	-9.641613e-07	-1.047749e-08	-6.924360e+00	-6.908924e+02
7.600000e-07	-8.336748e-07	-9.741779e-09	-5.987239e+00	-6.426260e+02
7.700000e-07	-7.027803e-07	-8.968464e-09	-5.047189e+00	-5.918800e+02
7.800000e-07	-5.716346e-07	-8.160725e-09	-4.105334e+00	-5.388600e+02
7.900000e-07	-4.403368e-07	-7.325541e-09	-3.162386e+00	-4.838883e+02
8.000000e-07	-3.088878e-07	-6.468528e-09	-2.218353e+00	-4.273761e+02
8.100000e-07	-1.773228e-07	-5.594454e-09	-1.273487e+00	-3.697737e+02
8.200000e-07	-4.565889e-08	-4.707277e-09	-3.279105e-01	-3.115078e+02
8.300000e-07	8.610749e-08	-3.812447e-09	6.184020e-01	-2.529159e+02
8.400000e-07	2.178667e-07	-2.916155e-09	1.564663e+00	-1.941928e+02
8.500000e-07	3.495556e-07	-2.018558e-09	2.510419e+00	-1.353608e+02
8.600000e-07	4.811736e-07	-1.120042e-09	3.455666e+00	-7.627208e+01
8.700000e-07	6.126261e-07	-2.154804e-10	4.399724e+00	-1.664587e+01
8.800000e-07	7.438757e-07	7.005720e-10	5.342325e+00	4.386445e+01
8.900000e-07	8.748552e-07	1.636644e-09	6.282986e+00	1.055859e+02
9.000000e-07	1.005467e-06	2.595739e-09	7.221007e+00	1.687374e+02
9.100000e-07	1.135696e-06	3.576916e-09	8.156277e+00	2.333556e+02
9.200000e-07	1.265526e-06	4.581334e-09	9.088685e+00	2.992488e+02
9.300000e-07	1.394943e-06	5.600597e-09	1.001813e+01	3.659887e+02
9.400000e-07	1.523864e-06	6.625211e-09	1.094400e+01	4.329420e+02
9.500000e-07	1.652197e-06	7.638705e-09	1.186566e+01	4.993356e+02
9.600000e-07	1.779889e-06	8.626793e-09	1.278271e+01	5.643434e+02
9.700000e-07	1.906908e-06	9.579334e-09	1.369493e+01	6.271804e+02
9.800000e-07	2.033222e-06	1.048580e-08	1.460208e+01	6.871849e+02
9.900000e-07	2.158810e-06	1.134357e-08	1.550402e+01	7.438784e+02
1.000000e-06	2.283678e-06	1.214671e-08	1.640079e+01	7.969937e+02
1.010000e-06	2.407756e-06	1.289318e-08	1.729189e+01	8.464698e+02
1.020000e-06	2.530922e-06	1.359034e-08	1.817643e+01	8.924190e+02
1.030000e-06	2.653085e-06	1.424236e-08	1.905378e+01	9.350758e+02
1.040000e-06	2.774203e-06	1.484886e-08	1.992362e+01	9.747384e+02
1.050000e-06	2.894214e-06	1.541266e-08	2.078551e+01	1.011717e+03
1.060000e-06	3.013130e-06	1.593821e-08	2.163953e+01	1.046293e+03
1.070000e-06	3.130990e-06	1.642775e-08	2.248597e+01	1.078699e+03
1.080000e-06	3.247819e-06	1.688461e-08	2.332500e+01	1.109117e+03
1.090000e-06	3.363417e-06	1.731546e-08	2.415520e+01	1.137683e+03
1.100000e-06	3.477501e-06	1.772265e-08	2.497452e+01	1.164509e+03
1.110000e-06	3.590141e-06	1.810664e-08	2.578348e+01	1.189702e+03
1.120000e-06	3.701446e-06	1.846852e-08	2.658284e+01	1.213369e+03
1.130000e-06	3.811483e-06	1.880832e-08	2.737310e+01	1.235632e+03
1.140000e-06	3.920361e-06	1.912962e-08	2.815503e+01	1.256618e+03
1.150000e-06	4.028031e-06	1.943395e-08	2.892829e+01	1.276452e+03
1.160000e-06	4.134231e-06	1.972079e-08	2.969099e+01	1.295248e+03
1.170000e-06	4.238785e-06	1.999239e-08	3.044187e+01	1.313099e+03
1.180000e-06	4.341751e-06	2.024781e-08	3.118135e+01	1.330075e+03
1.190000e-06	4.443228e-06	2.048893e-08	3.191013e+01	1.346221e+03
1.200000e-06	4.543256e-06	2.072074e-08	3.262851e+01	1.361567e+03
1.210000e-06	4.641604e-06	2.094321e-08	3.333481e+01	1.376137e+03
1.220000e-06	4.738055e-06	2.115280e-08	3.402750e+01	1.389957e+03
1.230000e-06	4.832765e-06	2.135065e-08	3.470768e+01	1.403061e+03
1.240000e-06	4.925855e-06	2.154029e-08	3.537623e+01	1.415492e+03
1.250000e-06	5.017318e-06	2.172003e-08	3.603310e+01	1.427305e+03
1.260000e-06	5.107001e-06	2.189103e-08	3.667718e+01	1.438552e+03
1.270000e-06	5.194707e-06	2.205429e-08	3.730706e+01	1.449282e+03
1.280000e-06	5.280527e-06	2.221016e-08	3.792339e+01	1.459532e+03
1.290000e-06	5.364536e-06	2.235914e-08	3.852672e+01	1.469324e+03
1.300000e-06	5.446627e-06	2.250203e-08	3.911628e+01	1.478665e+03
1.310000e-06	5.526703e-06	2.263926e-08	3.969137e+01	1.487552e+03
1.320000e-06	5.604762e-06	2.277088e-08	4.025197e+01	1.495977e+03
1.330000e-06	5.680755e-06	2.289571e-08	4.079773e+01	1.503937e+03
1.340000e-06	5.754497e-06	2.301149e-08	4.132732e+01	1.511435e+03
1.350000e-06	5.826034e-06	2.311843e-08	4.184109e+01	1.518486e+03
1.360000e-06	5.895513e-06	2.321976e-08	4.234007e+01	1.525117e+03
1.370000e-06	5.962935e-06	2.331581e-08	4.282427e+01	1.531362e+03
1.380000e-06	6.028141e-06	2.340510e-08	4.329257e+01	1.537260e+03
1.390000e-06	6.091153e-06	2.348933e-08	4.374511e+01	1.542845e+03
1.400000e-06	6.152164e-06	2.356929e-08	4.418327e+01	1.548147e+03
1.410000e-06	6.211073e-06	2.364520e-08	4.460634e+01	1.553190e+03
1.420000e-06	6.267723e-06	2.371763e-08	4.501319e+01	1.557984e+03
1.430000e-06	6.322113e-06	2.378736e-08	4.540380e+01	1.562538e+03
1.440000e-06	6.374045e-06	2.385507e-08	4.577677e+01	1.566852e+03
1.450000e-06	6.423291e-06	2.391886e-08	4.613044e+01	1.570925e+03
1.460000e-06	6.470074e-06	2.397722e-08	4.646642e+01	1.574757e+03
1.470000e-06	6.514725e-06	2.403118e-08	4.678709e+01	1.578347e+03
1.480000e-06	6.557097e-06	2.408213e-08	4.709139e+01	1.581695e+03
1.490000e-06	6.596979e-06	2.413121e-08	4.737782e+01	1.584799e+03
1.500000e-06	6.634554e-06	2.417615e-08	4.764767e+01	1.587660e+03
1.510000e-06	6.669916e-06	2.421625e-08	4.790163e+01	1.590276e+03
1.520000e-06	6.702874e-06	2.425329e-08	4.813833e+01	1.592645e+03
1.530000e-06	6.733401e-06	2.428599e-08	4.835756e+01	1.594768e+03
1.540000e-06	6.761698e-06	2.431309e-08	4.856079e+01	1.596647e+03
1.550000e-06	6.787544e-06	2.433543e-08	4.874641e+01	1.598289e+03
1.560000e-06	6.810791e-06	2.435556e-08	4.891336e+01	1.599703e+03
1.570000e-06	6.831697e-06	2.437478e-08	4.906351e+01	1.600903e+03
1.580000e-06	6.850261e-06	2.439118e-08	4.919682e+01	1.601905e+03
1.590000e-06	6.866239e-06	2.440491e-08	4.931158e+01	1.602722e+03
1.600000e-06	6.879637e-06	2.441610e-08	4.940780e+01	1.603367e+03
1.610000e-06	6.890321e-06	2.442527e-08	4.948453e+01	1.603850e+03
1.620000e-06	6.898259e-06	2.443080e-08	4.954153e+01	1.604177e+03
1.630000e-06	6.903760e-06	2.443307e-08	4.958104e+01	1.604348e+03
1.640000e-06	6.906930e-06	2.443506e-08	4.960381e+01	1.604362e+03
1.650000e-06	6.907639e-06	2.443442e-08	4.960890e+01	1.604214e+03
1.660000e-06	6.905910e-06	2.442798e-08	4.959648e+01	1.603898e+03
1.670000e-06	6.901971e-06	2.441843e-08	4.956819e+01	1.603409e+03
1.680000e-06	6.895682e-06	2.441068e-08	4.952303e+01	1.602742e+03
1.690000e-06	6.887067e-06	2.440107e-08	4.946116e+01	1.601891e+03
1.700000e-06	6.876278e-06	2.438769e-08	4.938367e+01	1.600857e+03
1.710000e-06	6.863077e-06	2.437242e-08	4.928887e+01	1.599642e+03
1.720000e-06	6.847447e-06	2.435606e-08	4.917661e+01	1.598253e+03
1.730000e-06	6.829727e-06	2.432919e-08	4.904935e+01	1.596705e+03
1.740000e-06	6.809909e-06	2.426173e-08	4.890703e+01	1.595016e+03
1.750000e-06	6.787160e-06	2.422316e-08	4.874365e+01	1.593213e+03
1.760000e-06	6.761114e-06	2.422665e-08	4.855659e+01	1.591319e+03
1.770000e-06	6.732316e-06	2.420143e-08	4.834978e+01	1.589359e+03
1.780000e-06	6.701216e-06	2.417748e-08	4.812642e+01	1.587344e+03
1.790000e-06	6.668326e-06	2.419787e-08	4.789021e+01	1.585277e+03
1.800000e-06	6.634072e-06	2.414126e-08	4.764421e+01	1.583138e+03
1.810000e-06	6.597926e-06	2.408771e-08	4.738462e+01	1.580896e+03
1.820000e-06	6.559159e-06	2.411791e-08	4.710621e+01	1.578501e+03
1.830000e-06	6.518143e-06	2.404483e-08	4.681164e+01	1.575900e+03
1.840000e-06	6.475017e-06	2.402893e-08	4.650192e+01	1.573037e+03
1.850000e-06	6.429546e-06	2.399201e-08	4.617536e+01	1.569869e+03
1.860000e-06	6.381771e-06	2.388831e-08	4.583225e+01	1.566368e+03
1.870000e-06	6.331525e-06	2.387042e-08	4.547140e+01	1.562529e+03
1.880000e-06	6.278893e-06	2.376544e-08	4.509341e+01	1.558367e+03
1.890000e-06	6.223693e-06	2.371386e-08	4.469697e+01	1.553915e+03
1.900000e-06	6.165929e-06	2.365912e-08	4.428213e+01	1.549211e+03
1.910000e-06	6.105968e-06	2.355192e-08	4.385151e+01	1.544294e+03
1.920000e-06	6.043590e-06	2.353070e-08	4.340352e+01	1.539190e+03
1.930000e-06	5.978938e-06	2.342941e-08	4.293921e+01	1.533910e+03
1.940000e-06	5.912201e-06	2.335423e-08	4.245991e+01	1.528445e+03
1.950000e-06	5.843203e-06	2.326415e-08	4.196439e+01	1.522772e+03
1.960000e-06	5.771850e-06	2.314525e-08	4.145196e+01	1.516857e+03
1.970000e-06	5.698186e-06	2.306998e-08	4.092291e+01	1.510667e+03
1.980000e-06	5.622384e-06	2.295568e-08	4.037852e+01	1.504172e+03
1.990000e-06	5.544260e-06	2.288167e-08	3.981746e+01	1.497355e+03
2.000000e-06	5.463993e-06	2.276297e-08	3.924100e+01	1.490213e+03
2.010000e-06	5.381907e-06	2.264287e-08	3.865148e+01	1.482749e+03
2.020000e-06	5.297980e-06	2.252572e-08	3.804874e+01	1.474973e+03
2.030000e-06	5.212138e-06	2.238658e-08	3.743224e+01	1.466892e+03
2.040000e-06	5.124245e-06	2.228127e-08	3.680102e+01	1.458505e+03
2.050000e-06	5.034544e-06	2.215005e-08	3.615681e+01	1.449802e+03
2.060000e-06	4.943260e-06	2.202093e-08	3.550123e+01	1.440760e+03
2.070000e-06	4.850372e-06	2.186415e-08	3.483413e+01	1.431353e+03
2.080000e-06	4.755671e-06	2.170960e-08	3.415401e+01	1.421552e+03
2.090000e-06	4.659172e-06	2.155661e-08	3.346098e+01	1.411333e+03
2.100000e-06	4.561179e-06	2.139710e-08	3.275722e+01	1.400682e+03
2.110000e-06	4.461710e-06	2.124019e-08	3.204286e+01	1.389591e+03
2.120000e-06	4.360681e-06	2.106224e-08	3.131730e+01	1.378056e+03
2.130000e-06	4.257949e-06	2.087700e-08	3.057950e+01	1.366076e+03
2.140000e-06	4.153566e-06	2.067707e-08	2.982985e+01	1.353641e+03
2.150000e-06	4.047703e-06	2.048274e-08	2.906957e+01	1.340730e+03
2.160000e-06	3.940495e-06	2.028183e-08	2.829963e+01	1.327308e+03
2.170000e-06	3.831966e-06	2.007386e-08	2.752020e+01	1.313328e+03
2.180000e-06	3.722072e-06	1.985587e-08	2.673097e+01	1.298738e+03
2.190000e-06	3.610730e-06	1.962550e-08	2.593134e+01	1.283488e+03
2.200000e-06	3.497932e-06	1.938152e-08	2.512125e+01	1.267532e+03
2.210000e-06	3.383789e-06	1.912578e-08	2.430151e+01	1.250838e+03
2.220000e-06	3.268210e-06	1.886207e-08	2.347145e+01	1.233381e+03
2.230000e-06	3.151215e-06	1.858495e-08	2.263122e+01	1.215144e+03
2.240000e-06	3.032918e-06	1.829568e-08	2.178165e+01	1.196103e+03
2.250000e-06	2.913373e-06	1.799181e-08	2.092310e+01	1.176225e+03
2.260000e-06	2.792715e-06	1.767646e-08	2.005657e+01	1.155452e+03
2.270000e-06	2.671075e-06	1.734469e-08	1.918298e+01	1.133705e+03
2.280000e-06	2.548541e-06	1.699709e-08	1.830297e+01	1.110884e+03
2.290000e-06	2.425139e-06	1.663085e-08	1.741673e+01	1.086872e+03
2.300000e-06	2.300843e-06	1.624523e-08	1.652407e+01	1.061550e+03
2.310000e-06	2.175771e-06	1.583686e-08	1.562583e+01	1.034800e+03
2.320000e-06	2.049991e-06	1.540733e-08	1.472251e+01	1.006517e+03
2.330000e-06	1.923484e-06	1.495347e-08	1.381397e+01	9.766026e+02
2.340000e-06	1.796203e-06	1.447347e-08	1.289987e+01	9.449635e+02
2.350000e-06	1.668188e-06	1.396598e-08	1.198050e+01	9.114989e+02
2.360000e-06	1.539621e-06	1.342636e-08	1.105716e+01	8.760922e+02
2.370000e-06	1.410580e-06	1.285302e-08	1.013042e+01	8.386060e+02
2.380000e-06	1.281139e-06	1.224308e-08	9.200812e+00	7.988879e+02
2.390000e-06	1.151352e-06	1.159737e-08	8.268714e+00	7.567866e+02
2.400000e-06	1.021249e-06	1.091357e-08	7.334349e+00	7.121799e+02
2.410000e-06	8.908168e-07	1.019460e-08	6.397619e+00	6.650083e+02
2.420000e-06	7.600631e-07	9.441093e-09	5.458579e+00	6.153068e+02
2.430000e-06	6.290098e-07	8.650677e-09	4.517387e+00	5.632282e+02
2.440000e-06	4.977802e-07	7.824486e-09	3.574930e+00	5.090467e+02
2.450000e-06	3.664825e-07	6.969153e-09	2.631984e+00	4.531403e+02
2.460000e-06	2.349956e-07	6.094109e-09	1.687678e+00	3.959497e+02
2.470000e-06	1.033400e-07	5.205827e-09	7.421612e-01	3.379200e+02
2.480000e-06	-2.837297e-08	4.310815e-09	-2.037674e-01	2.794344e+02
2.490000e-06	-1.600634e-07	3.413391e-09	-1.149534e+00	2.207543e+02
2.500000e-06	-2.916716e-07	2.512311e-09	-2.094711e+00	1.619774e+02
2.510000e-06	-4.231924e-07	1.606859e-09	-3.039260e+00	1.030264e+02
2.520000e-06	-5.545831e-07	6.961059e-10	-3.982874e+00	4.367074e+01
2.530000e-06	-6.858033e-07	-2.228923e-10	-4.925264e+00	-1.641762e+01
2.540000e-06	-8.168403e-07	-1.154354e-09	-5.866339e+00	-7.758513e+01
2.550000e-06	-9.476477e-07	-2.106525e-09	-6.805764e+00	-1.401074e+02
2.560000e-06	-1.078143e-06	-3.082391e-09	-7.742945e+00	-2.041068e+02
2.570000e-06	-1.208259e-06	-4.081389e-09	-8.677409e+00	-2.694927e+02
2.580000e-06	-1.337963e-06	-5.098224e-09	-9.608907e+00	-3.359367e+02
2.590000e-06	-1.467266e-06	-6.124440e-09	-1.053753e+01	-4.028871e+02
2.600000e-06	-1.596135e-06	-7.149213e-09	-1.146303e+01	-4.696209e+02
2.610000e-06	-1.724440e-06	-8.157719e-09	-1.238449e+01	-5.353234e+02
2.620000e-06	-1.852070e-06	-9.136918e-09	-1.330109e+01	-5.991809e+02
2.630000e-06	-1.978939e-06	-1.007449e-08	-1.421224e+01	-6.604698e+02
2.640000e-06	-2.105030e-06	-1.096395e-08	-1.511779e+01	-7.186278e+02
2.650000e-06	-2.230335e-06	-1.180054e-08	-1.601770e+01	-7.732958e+02
2.660000e-06	-2.354735e-06	-1.258192e-08	-1.691110e+01	-8.243271e+02
2.670000e-06	-2.478152e-06	-1.330771e-08	-1.779745e+01	-8.717651e+02
2.680000e-06	-2.600649e-06	-1.398242e-08	-1.867720e+01	-9.157990e+02
2.690000e-06	-2.722253e-06	-1.461190e-08	-1.955052e+01	-9.567067e+02
2.700000e-06	-2.842917e-06	-1.520009e-08	-2.041710e+01	-9.947988e+02
2.710000e-06	-2.962471e-06	-1.575248e-08	-2.127571e+01	-1.030373e+03
2.720000e-06	-3.080836e-06	-1.626443e-08	-2.212578e+01	-1.063685e+03
2.730000e-06	-3.197979e-06	-1.673732e-08	-2.296707e+01	-1.094936e+03
2.740000e-06	-3.313811e-06	-1.718007e-08	-2.379895e+01	-1.124280e+03
2.750000e-06	-3.428304e-06	-1.759785e-08	-2.462120e+01	-1.151840e+03
2.760000e-06	-3.541379e-06	-1.799334e-08	-2.543328e+01	-1.177720e+03
2.770000e-06	-3.652935e-06	-1.836746e-08	-2.623445e+01	-1.202027e+03
2.780000e-06	-3.763063e-06	-1.872075e-08	-2.702535e+01	-1.224877e+03
2.790000e-06	-3.871977e-06	-1.905203e-08	-2.780755e+01	-1.246395e+03
2.800000e-06	-3.979706e-06	-1.936254e-08	-2.858123e+01	-1.266707e+03
2.810000e-06	-4.086185e-06	-1.965554e-08	-2.934593e+01	-1.285936e+03
2.820000e-06	-4.191299e-06	-1.993385e-08	-3.010084e+01	-1.304182e+03
2.830000e-06	-4.294850e-06	-2.019865e-08	-3.084451e+01	-1.321526e+03
2.840000e-06	-4.396717e-06	-2.045068e-08	-3.157610e+01	-1.338024e+03
2.850000e-06	-4.496961e-06	-2.069042e-08	-3.229602e+01	-1.353710e+03
2.860000e-06	-4.595695e-06	-2.091773e-08	-3.300510e+01	-1.368610e+03
2.870000e-06	-4.692959e-06	-2.113405e-08	-3.370363e+01	-1.382748e+03
2.880000e-06	-4.788562e-06	-2.134205e-08	-3.439023e+01	-1.396154e+03
2.890000e-06	-4.882324e-06	-2.153958e-08	-3.506360e+01	-1.408867e+03
2.900000e-06	-4.974316e-06	-2.172548e-08	-3.572427e+01	-1.420939e+03
2.910000e-06	-5.064601e-06	-2.190284e-08	-3.637267e+01	-1.432422e+03
2.920000e-06	-5.153095e-06	-2.207105e-08	-3.700821e+01	-1.443369e+03
2.930000e-06	-5.239596e-06	-2.222833e-08	-3.762944e+01	-1.453821e+03
2.940000e-06	-5.324061e-06	-2.237762e-08	-3.823604e+01	-1.463808e+03
