# Temperatura_=_47.16
# Concentracion g/m^3_=_28200.0
# C_Vs_to_Am_M_A/Vsm_=_65563218390.804596
# pendiente_HvsI_1/m_=_3716.3
# ordenada_HvsI_A/m_=_1297.0
# frecuencia_Hz_=_302272.9187589686

Tiempo_(s)	Campo_(V.s)	Magnetizacion_(V.s)	Campo_(kA/m)	Magnetizacion_(A/m)
0.000000e+00	-6.841112e-06	-1.816649e-08	-4.952097e+01	-1.188609e+03
1.000000e-08	-6.837721e-06	-1.816157e-08	-4.949643e+01	-1.188288e+03
2.000000e-08	-6.832081e-06	-1.815204e-08	-4.945560e+01	-1.187831e+03
3.000000e-08	-6.824327e-06	-1.814458e-08	-4.939947e+01	-1.187234e+03
4.000000e-08	-6.814211e-06	-1.813328e-08	-4.932624e+01	-1.186493e+03
5.000000e-08	-6.801581e-06	-1.811765e-08	-4.923482e+01	-1.185611e+03
6.000000e-08	-6.786484e-06	-1.809687e-08	-4.912553e+01	-1.184594e+03
7.000000e-08	-6.769042e-06	-1.807276e-08	-4.899927e+01	-1.183455e+03
8.000000e-08	-6.749534e-06	-1.805930e-08	-4.885806e+01	-1.182209e+03
9.000000e-08	-6.727729e-06	-1.810244e-08	-4.870022e+01	-1.180879e+03
1.000000e-07	-6.703226e-06	-1.807461e-08	-4.852285e+01	-1.179484e+03
1.100000e-07	-6.675995e-06	-1.800174e-08	-4.832573e+01	-1.178043e+03
1.200000e-07	-6.646362e-06	-1.797015e-08	-4.811123e+01	-1.176565e+03
1.300000e-07	-6.614632e-06	-1.793448e-08	-4.788154e+01	-1.175048e+03
1.400000e-07	-6.580757e-06	-1.785079e-08	-4.763633e+01	-1.173478e+03
1.500000e-07	-6.545018e-06	-1.786807e-08	-4.737763e+01	-1.171830e+03
1.600000e-07	-6.507463e-06	-1.793779e-08	-4.710578e+01	-1.170066e+03
1.700000e-07	-6.467868e-06	-1.778438e-08	-4.681916e+01	-1.168148e+03
1.800000e-07	-6.426003e-06	-1.779326e-08	-4.651611e+01	-1.166037e+03
1.900000e-07	-6.381532e-06	-1.777156e-08	-4.619419e+01	-1.163702e+03
2.000000e-07	-6.334771e-06	-1.764126e-08	-4.585570e+01	-1.161125e+03
2.100000e-07	-6.285663e-06	-1.766810e-08	-4.550022e+01	-1.158305e+03
2.200000e-07	-6.233829e-06	-1.761086e-08	-4.512501e+01	-1.155252e+03
2.300000e-07	-6.179450e-06	-1.756586e-08	-4.473138e+01	-1.151991e+03
2.400000e-07	-6.122685e-06	-1.752270e-08	-4.432047e+01	-1.148547e+03
2.500000e-07	-6.063586e-06	-1.744676e-08	-4.389267e+01	-1.144948e+03
2.600000e-07	-6.002273e-06	-1.740866e-08	-4.344884e+01	-1.141209e+03
2.700000e-07	-5.938822e-06	-1.733908e-08	-4.298954e+01	-1.137336e+03
2.800000e-07	-5.873140e-06	-1.728035e-08	-4.251408e+01	-1.133323e+03
2.900000e-07	-5.805185e-06	-1.721782e-08	-4.202217e+01	-1.129149e+03
3.000000e-07	-5.735094e-06	-1.715201e-08	-4.151480e+01	-1.124790e+03
3.100000e-07	-5.662874e-06	-1.708583e-08	-4.099202e+01	-1.120219e+03
3.200000e-07	-5.588408e-06	-1.698751e-08	-4.045298e+01	-1.115415e+03
3.300000e-07	-5.511633e-06	-1.692765e-08	-3.989723e+01	-1.110363e+03
3.400000e-07	-5.432541e-06	-1.683261e-08	-3.932471e+01	-1.105058e+03
3.500000e-07	-5.351344e-06	-1.675267e-08	-3.873694e+01	-1.099503e+03
3.600000e-07	-5.268395e-06	-1.667805e-08	-3.813649e+01	-1.093706e+03
3.700000e-07	-5.183765e-06	-1.657583e-08	-3.752388e+01	-1.087672e+03
3.800000e-07	-5.097429e-06	-1.648773e-08	-3.689892e+01	-1.081404e+03
3.900000e-07	-5.009344e-06	-1.637586e-08	-3.626130e+01	-1.074894e+03
4.000000e-07	-4.919410e-06	-1.627326e-08	-3.561029e+01	-1.068129e+03
4.100000e-07	-4.827659e-06	-1.615997e-08	-3.494613e+01	-1.061088e+03
4.200000e-07	-4.734287e-06	-1.605648e-08	-3.427023e+01	-1.053749e+03
4.300000e-07	-4.639414e-06	-1.594197e-08	-3.358347e+01	-1.046089e+03
4.400000e-07	-4.542946e-06	-1.581308e-08	-3.288517e+01	-1.038090e+03
4.500000e-07	-4.444737e-06	-1.568829e-08	-3.217426e+01	-1.029742e+03
4.600000e-07	-4.344839e-06	-1.555520e-08	-3.145112e+01	-1.021039e+03
4.700000e-07	-4.243382e-06	-1.542265e-08	-3.071670e+01	-1.011975e+03
4.800000e-07	-4.140525e-06	-1.527691e-08	-2.997215e+01	-1.002546e+03
4.900000e-07	-4.036237e-06	-1.512917e-08	-2.921724e+01	-9.927424e+02
5.000000e-07	-3.930407e-06	-1.496593e-08	-2.845116e+01	-9.825448e+02
5.100000e-07	-3.823015e-06	-1.479770e-08	-2.767378e+01	-9.719265e+02
5.200000e-07	-3.714194e-06	-1.462705e-08	-2.688605e+01	-9.608533e+02
5.300000e-07	-3.604110e-06	-1.445203e-08	-2.608918e+01	-9.492867e+02
5.400000e-07	-3.492752e-06	-1.426957e-08	-2.528309e+01	-9.371878e+02
5.500000e-07	-3.380107e-06	-1.407457e-08	-2.446768e+01	-9.245205e+02
5.600000e-07	-3.266032e-06	-1.387383e-08	-2.364193e+01	-9.112535e+02
5.700000e-07	-3.150414e-06	-1.365864e-08	-2.280500e+01	-8.973592e+02
5.800000e-07	-3.033436e-06	-1.343404e-08	-2.195823e+01	-8.828119e+02
5.900000e-07	-2.915347e-06	-1.319846e-08	-2.110341e+01	-8.675836e+02
6.000000e-07	-2.796257e-06	-1.295533e-08	-2.024135e+01	-8.516401e+02
6.100000e-07	-2.676161e-06	-1.269895e-08	-1.937201e+01	-8.349386e+02
6.200000e-07	-2.555101e-06	-1.243126e-08	-1.849569e+01	-8.174261e+02
6.300000e-07	-2.433043e-06	-1.215095e-08	-1.761215e+01	-7.990412e+02
6.400000e-07	-2.309906e-06	-1.185285e-08	-1.672079e+01	-7.797166e+02
6.500000e-07	-2.185866e-06	-1.153855e-08	-1.582290e+01	-7.593825e+02
6.600000e-07	-2.061176e-06	-1.120925e-08	-1.492030e+01	-7.379691e+02
6.700000e-07	-1.935897e-06	-1.086607e-08	-1.401344e+01	-7.154078e+02
6.800000e-07	-1.809942e-06	-1.050249e-08	-1.310168e+01	-6.916304e+02
6.900000e-07	-1.683365e-06	-1.012024e-08	-1.218543e+01	-6.665668e+02
7.000000e-07	-1.556297e-06	-9.715193e-09	-1.126562e+01	-6.401432e+02
7.100000e-07	-1.428709e-06	-9.288999e-09	-1.034204e+01	-6.122826e+02
7.200000e-07	-1.300530e-06	-8.838644e-09	-9.414185e+00	-5.829086e+02
7.300000e-07	-1.171920e-06	-8.365798e-09	-8.483213e+00	-5.519548e+02
7.400000e-07	-1.043030e-06	-7.870443e-09	-7.550212e+00	-5.193781e+02
7.500000e-07	-9.138363e-07	-7.347772e-09	-6.615015e+00	-4.851745e+02
7.600000e-07	-7.843374e-07	-6.800936e-09	-5.677607e+00	-4.493946e+02
7.700000e-07	-6.545646e-07	-6.230271e-09	-4.738217e+00	-4.121534e+02
7.800000e-07	-5.246406e-07	-5.644432e-09	-3.797732e+00	-3.736320e+02
7.900000e-07	-3.945908e-07	-5.045905e-09	-2.856336e+00	-3.340681e+02
8.000000e-07	-2.643337e-07	-4.436043e-09	-1.913440e+00	-2.937341e+02
8.100000e-07	-1.338676e-07	-3.815474e-09	-9.690314e-01	-2.529068e+02
8.200000e-07	-3.341274e-09	-3.187009e-09	-2.418659e-02	-2.118315e+02
8.300000e-07	1.272015e-07	-2.555702e-09	9.207771e-01	-1.706875e+02
8.400000e-07	2.577478e-07	-1.925359e-09	1.865767e+00	-1.295623e+02
8.500000e-07	3.882219e-07	-1.299550e-09	2.810234e+00	-8.843928e+01
8.600000e-07	5.185947e-07	-6.748636e-10	3.753968e+00	-4.720405e+01
8.700000e-07	6.487986e-07	-4.520979e-11	4.696479e+00	-5.668054e+00
8.800000e-07	7.787504e-07	5.935623e-10	5.637165e+00	3.639220e+01
8.900000e-07	9.084687e-07	1.243723e-09	6.576161e+00	7.918711e+01
9.000000e-07	1.037971e-06	1.906225e-09	7.513590e+00	1.228651e+02
9.100000e-07	1.167102e-06	2.581602e-09	8.448335e+00	1.674717e+02
9.200000e-07	1.295828e-06	3.272181e-09	9.380151e+00	2.129229e+02
9.300000e-07	1.424085e-06	3.975647e-09	1.030857e+01	2.589990e+02
9.400000e-07	1.551759e-06	4.685833e-09	1.123276e+01	3.053583e+02
9.500000e-07	1.678883e-06	5.391801e-09	1.215298e+01	3.515688e+02
9.600000e-07	1.805435e-06	6.082053e-09	1.306906e+01	3.971531e+02
9.700000e-07	1.931261e-06	6.753216e-09	1.397988e+01	4.416364e+02
9.800000e-07	2.056445e-06	7.403025e-09	1.488605e+01	4.845933e+02
9.900000e-07	2.181058e-06	8.026152e-09	1.578809e+01	5.256830e+02
1.000000e-06	2.304756e-06	8.617473e-09	1.668351e+01	5.646713e+02
1.010000e-06	2.427431e-06	9.177229e-09	1.757152e+01	6.014360e+02
1.020000e-06	2.549213e-06	9.703068e-09	1.845306e+01	6.359577e+02
1.030000e-06	2.670127e-06	1.019481e-08	1.932833e+01	6.683003e+02
1.040000e-06	2.790051e-06	1.065211e-08	2.019643e+01	6.985848e+02
1.050000e-06	2.908876e-06	1.108069e-08	2.105657e+01	7.269629e+02
1.060000e-06	3.026604e-06	1.148341e-08	2.190878e+01	7.535937e+02
1.070000e-06	3.143217e-06	1.186239e-08	2.275290e+01	7.786273e+02
1.080000e-06	3.258599e-06	1.222026e-08	2.358812e+01	8.021956e+02
1.090000e-06	3.372660e-06	1.255829e-08	2.441378e+01	8.244096e+02
1.100000e-06	3.485381e-06	1.287866e-08	2.522973e+01	8.453620e+02
1.110000e-06	3.596772e-06	1.318138e-08	2.603607e+01	8.651328e+02
1.120000e-06	3.706908e-06	1.346530e-08	2.683331e+01	8.837941e+02
1.130000e-06	3.815893e-06	1.372995e-08	2.762222e+01	9.014153e+02
1.140000e-06	3.923672e-06	1.398248e-08	2.840241e+01	9.180649e+02
1.150000e-06	4.029995e-06	1.422198e-08	2.917205e+01	9.338109e+02
1.160000e-06	4.134826e-06	1.444789e-08	2.993089e+01	9.487198e+02
1.170000e-06	4.238158e-06	1.466064e-08	3.067888e+01	9.628543e+02
1.180000e-06	4.339952e-06	1.486053e-08	3.141575e+01	9.762720e+02
1.190000e-06	4.440209e-06	1.505154e-08	3.214148e+01	9.890235e+02
1.200000e-06	4.538830e-06	1.523573e-08	3.285537e+01	1.001152e+03
1.210000e-06	4.635738e-06	1.541095e-08	3.355686e+01	1.012696e+03
1.220000e-06	4.730973e-06	1.557909e-08	3.424624e+01	1.023683e+03
1.230000e-06	4.824590e-06	1.573930e-08	3.492391e+01	1.034139e+03
1.240000e-06	4.916560e-06	1.589132e-08	3.558966e+01	1.044085e+03
1.250000e-06	5.006770e-06	1.603473e-08	3.624266e+01	1.053535e+03
1.260000e-06	5.095026e-06	1.617040e-08	3.688152e+01	1.062504e+03
1.270000e-06	5.181361e-06	1.629891e-08	3.750648e+01	1.071002e+03
1.280000e-06	5.265973e-06	1.642090e-08	3.811896e+01	1.079041e+03
1.290000e-06	5.348741e-06	1.653708e-08	3.871810e+01	1.086634e+03
1.300000e-06	5.429528e-06	1.664732e-08	3.930289e+01	1.093797e+03
1.310000e-06	5.508355e-06	1.675151e-08	3.987350e+01	1.100551e+03
1.320000e-06	5.585143e-06	1.684878e-08	4.042935e+01	1.106922e+03
1.330000e-06	5.659775e-06	1.694076e-08	4.096959e+01	1.112941e+03
1.340000e-06	5.732188e-06	1.702731e-08	4.149377e+01	1.118640e+03
1.350000e-06	5.802452e-06	1.710954e-08	4.200239e+01	1.124051e+03
1.360000e-06	5.870720e-06	1.718911e-08	4.249656e+01	1.129204e+03
1.370000e-06	5.936907e-06	1.726451e-08	4.297567e+01	1.134121e+03
1.380000e-06	6.000880e-06	1.733468e-08	4.343876e+01	1.138820e+03
1.390000e-06	6.062765e-06	1.740206e-08	4.388673e+01	1.143307e+03
1.400000e-06	6.122668e-06	1.746654e-08	4.432035e+01	1.147585e+03
1.410000e-06	6.180426e-06	1.752705e-08	4.473844e+01	1.151649e+03
1.420000e-06	6.235927e-06	1.758437e-08	4.514020e+01	1.155494e+03
1.430000e-06	6.289128e-06	1.763921e-08	4.552530e+01	1.159113e+03
1.440000e-06	6.339731e-06	1.769145e-08	4.589161e+01	1.162504e+03
1.450000e-06	6.387736e-06	1.774014e-08	4.623910e+01	1.165665e+03
1.460000e-06	6.433479e-06	1.778336e-08	4.657022e+01	1.168599e+03
1.470000e-06	6.477066e-06	1.782250e-08	4.688574e+01	1.171312e+03
1.480000e-06	6.518279e-06	1.785925e-08	4.718407e+01	1.173813e+03
1.490000e-06	6.557093e-06	1.789312e-08	4.746503e+01	1.176110e+03
1.500000e-06	6.593739e-06	1.792452e-08	4.773030e+01	1.178209e+03
1.510000e-06	6.628089e-06	1.795309e-08	4.797896e+01	1.180118e+03
1.520000e-06	6.660012e-06	1.798002e-08	4.821004e+01	1.181844e+03
1.530000e-06	6.689643e-06	1.800456e-08	4.842453e+01	1.183390e+03
1.540000e-06	6.716998e-06	1.802323e-08	4.862254e+01	1.184762e+03
1.550000e-06	6.741835e-06	1.803843e-08	4.880233e+01	1.185967e+03
1.560000e-06	6.764115e-06	1.805313e-08	4.896361e+01	1.187010e+03
1.570000e-06	6.784143e-06	1.806668e-08	4.910859e+01	1.187901e+03
1.580000e-06	6.801787e-06	1.807760e-08	4.923631e+01	1.188646e+03
1.590000e-06	6.816826e-06	1.808748e-08	4.934517e+01	1.189253e+03
1.600000e-06	6.829235e-06	1.809720e-08	4.943500e+01	1.189729e+03
1.610000e-06	6.838897e-06	1.810568e-08	4.950494e+01	1.190080e+03
1.620000e-06	6.845974e-06	1.811008e-08	4.955617e+01	1.190308e+03
1.630000e-06	6.850797e-06	1.811167e-08	4.959108e+01	1.190415e+03
1.640000e-06	6.853259e-06	1.811326e-08	4.960890e+01	1.190400e+03
1.650000e-06	6.853188e-06	1.811361e-08	4.960839e+01	1.190260e+03
1.660000e-06	6.850832e-06	1.810565e-08	4.959133e+01	1.189992e+03
1.670000e-06	6.846275e-06	1.809970e-08	4.955834e+01	1.189589e+03
1.680000e-06	6.839322e-06	1.809431e-08	4.950801e+01	1.189046e+03
1.690000e-06	6.830106e-06	1.808523e-08	4.944130e+01	1.188362e+03
1.700000e-06	6.818678e-06	1.807532e-08	4.935858e+01	1.187535e+03
1.710000e-06	6.804756e-06	1.806801e-08	4.925780e+01	1.186569e+03
1.720000e-06	6.788519e-06	1.807040e-08	4.914027e+01	1.185476e+03
1.730000e-06	6.770344e-06	1.803468e-08	4.900870e+01	1.184270e+03
1.740000e-06	6.749934e-06	1.794747e-08	4.886096e+01	1.182970e+03
1.750000e-06	6.726415e-06	1.795250e-08	4.869071e+01	1.181598e+03
1.760000e-06	6.699698e-06	1.796360e-08	4.849732e+01	1.180173e+03
1.770000e-06	6.670311e-06	1.792613e-08	4.828459e+01	1.178708e+03
1.780000e-06	6.638747e-06	1.796823e-08	4.805610e+01	1.177207e+03
1.790000e-06	6.605634e-06	1.796597e-08	4.781641e+01	1.175660e+03
1.800000e-06	6.571127e-06	1.781968e-08	4.756662e+01	1.174047e+03
1.810000e-06	6.534464e-06	1.787766e-08	4.730123e+01	1.172333e+03
1.820000e-06	6.495284e-06	1.786080e-08	4.701761e+01	1.170480e+03
1.830000e-06	6.453941e-06	1.778819e-08	4.671834e+01	1.168449e+03
1.840000e-06	6.410402e-06	1.788763e-08	4.640318e+01	1.166204e+03
1.850000e-06	6.364562e-06	1.773890e-08	4.607135e+01	1.163723e+03
1.860000e-06	6.316383e-06	1.770653e-08	4.572260e+01	1.160998e+03
1.870000e-06	6.265836e-06	1.768436e-08	4.535670e+01	1.158034e+03
1.880000e-06	6.212821e-06	1.756767e-08	4.497294e+01	1.154851e+03
1.890000e-06	6.157160e-06	1.761237e-08	4.457003e+01	1.151476e+03
1.900000e-06	6.099132e-06	1.749844e-08	4.414998e+01	1.147934e+03
1.910000e-06	6.038896e-06	1.746182e-08	4.371395e+01	1.144249e+03
1.920000e-06	5.976271e-06	1.743633e-08	4.326062e+01	1.140428e+03
1.930000e-06	5.911487e-06	1.731257e-08	4.279166e+01	1.136472e+03
1.940000e-06	5.844573e-06	1.730518e-08	4.230729e+01	1.132363e+03
1.950000e-06	5.775392e-06	1.719621e-08	4.180651e+01	1.128080e+03
1.960000e-06	5.703851e-06	1.716889e-08	4.128865e+01	1.123595e+03
1.970000e-06	5.630135e-06	1.707981e-08	4.075503e+01	1.118885e+03
1.980000e-06	5.554346e-06	1.698609e-08	4.020642e+01	1.113931e+03
1.990000e-06	5.476133e-06	1.694829e-08	3.964025e+01	1.108725e+03
2.000000e-06	5.395813e-06	1.682313e-08	3.905884e+01	1.103267e+03
2.010000e-06	5.313746e-06	1.677165e-08	3.846478e+01	1.097564e+03
2.020000e-06	5.229971e-06	1.666015e-08	3.785835e+01	1.091623e+03
2.030000e-06	5.144255e-06	1.658242e-08	3.723788e+01	1.085446e+03
2.040000e-06	5.056445e-06	1.649085e-08	3.660225e+01	1.079032e+03
2.050000e-06	4.966926e-06	1.637534e-08	3.595424e+01	1.072369e+03
2.060000e-06	4.875877e-06	1.627868e-08	3.529517e+01	1.065439e+03
2.070000e-06	4.783168e-06	1.614923e-08	3.462407e+01	1.058220e+03
2.080000e-06	4.688575e-06	1.605231e-08	3.393933e+01	1.050688e+03
2.090000e-06	4.592265e-06	1.592237e-08	3.324217e+01	1.042824e+03
2.100000e-06	4.494475e-06	1.580957e-08	3.253430e+01	1.034614e+03
2.110000e-06	4.395248e-06	1.567943e-08	3.181602e+01	1.026050e+03
2.120000e-06	4.294521e-06	1.554149e-08	3.108688e+01	1.017128e+03
2.130000e-06	4.192116e-06	1.539716e-08	3.034560e+01	1.007844e+03
2.140000e-06	4.088074e-06	1.524585e-08	2.959247e+01	9.981886e+02
2.150000e-06	3.982595e-06	1.510256e-08	2.882894e+01	9.881482e+02
2.160000e-06	3.875822e-06	1.494159e-08	2.805603e+01	9.776987e+02
2.170000e-06	3.767720e-06	1.478057e-08	2.727351e+01	9.668084e+02
2.180000e-06	3.658218e-06	1.460365e-08	2.648086e+01	9.554400e+02
2.190000e-06	3.547243e-06	1.442768e-08	2.567754e+01	9.435544e+02
2.200000e-06	3.434885e-06	1.423514e-08	2.486421e+01	9.311142e+02
2.210000e-06	3.321161e-06	1.403915e-08	2.404099e+01	9.180860e+02
2.220000e-06	3.206081e-06	1.383167e-08	2.320796e+01	9.044410e+02
2.230000e-06	3.089731e-06	1.361687e-08	2.236573e+01	8.901531e+02
2.240000e-06	2.972077e-06	1.338992e-08	2.151406e+01	8.751957e+02
2.250000e-06	2.853133e-06	1.315211e-08	2.065306e+01	8.595375e+02
2.260000e-06	2.733032e-06	1.290399e-08	1.978368e+01	8.431393e+02
2.270000e-06	2.611987e-06	1.264058e-08	1.890747e+01	8.259520e+02
2.280000e-06	2.490113e-06	1.236875e-08	1.802526e+01	8.079174e+02
2.290000e-06	2.367449e-06	1.208072e-08	1.713732e+01	7.889700e+02
2.300000e-06	2.243952e-06	1.177838e-08	1.624336e+01	7.690406e+02
2.310000e-06	2.119648e-06	1.145753e-08	1.534356e+01	7.480591e+02
2.320000e-06	1.994621e-06	1.112389e-08	1.443852e+01	7.259567e+02
2.330000e-06	1.868909e-06	1.077146e-08	1.352853e+01	7.026650e+02
2.340000e-06	1.742500e-06	1.040112e-08	1.261349e+01	6.781150e+02
2.350000e-06	1.615365e-06	1.000889e-08	1.169319e+01	6.522344e+02
2.360000e-06	1.487573e-06	9.593721e-09	1.076814e+01	6.249474e+02
2.370000e-06	1.359240e-06	9.152690e-09	9.839172e+00	5.961764e+02
2.380000e-06	1.230536e-06	8.686317e-09	8.907517e+00	5.658498e+02
2.390000e-06	1.101575e-06	8.199416e-09	7.974002e+00	5.339134e+02
2.400000e-06	9.723053e-07	7.687808e-09	7.038257e+00	5.003459e+02
2.410000e-06	8.427490e-07	7.153620e-09	6.100434e+00	4.651750e+02
2.420000e-06	7.129437e-07	6.595848e-09	5.160808e+00	4.284896e+02
2.430000e-06	5.828768e-07	6.013545e-09	4.219288e+00	3.904454e+02
2.440000e-06	4.526393e-07	5.410968e-09	3.276534e+00	3.512596e+02
2.450000e-06	3.222631e-07	4.795535e-09	2.332776e+00	3.111943e+02
2.460000e-06	1.917337e-07	4.173662e-09	1.387909e+00	2.705287e+02
2.470000e-06	6.106174e-08	3.548139e-09	4.420095e-01	2.295249e+02
2.480000e-06	-6.970823e-08	2.920954e-09	-5.045992e-01	1.883916e+02
2.490000e-06	-2.004629e-07	2.293175e-09	-1.451097e+00	1.472549e+02
2.500000e-06	-3.311633e-07	1.664672e-09	-2.397202e+00	1.061393e+02
2.510000e-06	-4.617767e-07	1.034831e-09	-3.342678e+00	6.496705e+01
2.520000e-06	-5.922411e-07	4.016250e-10	-4.287074e+00	2.357468e+01
2.530000e-06	-7.224877e-07	-2.375974e-10	-5.229894e+00	-1.825295e+01
2.540000e-06	-8.525057e-07	-8.871466e-10	-6.171059e+00	-6.073733e+01
2.550000e-06	-9.822274e-07	-1.550905e-09	-7.110080e+00	-1.040568e+02
2.560000e-06	-1.111593e-06	-2.229213e-09	-8.046522e+00	-1.483013e+02
2.570000e-06	-1.240658e-06	-2.920207e-09	-8.980789e+00	-1.934397e+02
2.580000e-06	-1.369435e-06	-3.620867e-09	-9.912972e+00	-2.393051e+02
2.590000e-06	-1.497801e-06	-4.327618e-09	-1.084218e+01	-2.856008e+02
2.600000e-06	-1.625553e-06	-5.037181e-09	-1.176694e+01	-3.319256e+02
2.610000e-06	-1.752597e-06	-5.741596e-09	-1.268658e+01	-3.778140e+02
2.620000e-06	-1.878873e-06	-6.431527e-09	-1.360065e+01	-4.227845e+02
2.630000e-06	-2.004416e-06	-7.098595e-09	-1.450943e+01	-4.663873e+02
2.640000e-06	-2.129261e-06	-7.738819e-09	-1.541315e+01	-5.082449e+02
2.650000e-06	-2.253303e-06	-8.348505e-09	-1.631105e+01	-5.480797e+02
2.660000e-06	-2.376439e-06	-8.924715e-09	-1.720240e+01	-5.857259e+02
2.670000e-06	-2.498617e-06	-9.468204e-09	-1.808682e+01	-6.211255e+02
2.680000e-06	-2.619890e-06	-9.977625e-09	-1.896468e+01	-6.543125e+02
2.690000e-06	-2.740290e-06	-1.045397e-08	-1.983622e+01	-6.853889e+02
2.700000e-06	-2.859608e-06	-1.090071e-08	-2.069993e+01	-7.144972e+02
2.710000e-06	-2.977728e-06	-1.131925e-08	-2.155497e+01	-7.417960e+02
2.720000e-06	-3.094689e-06	-1.171063e-08	-2.240162e+01	-7.674405e+02
2.730000e-06	-3.210444e-06	-1.208031e-08	-2.323954e+01	-7.915704e+02
2.740000e-06	-3.324865e-06	-1.242907e-08	-2.406780e+01	-8.143047e+02
2.750000e-06	-3.437839e-06	-1.275576e-08	-2.488559e+01	-8.357429e+02
2.760000e-06	-3.549406e-06	-1.306373e-08	-2.569319e+01	-8.559692e+02
2.770000e-06	-3.659610e-06	-1.335627e-08	-2.649093e+01	-8.750583e+02
2.780000e-06	-3.768596e-06	-1.363339e-08	-2.727985e+01	-8.930802e+02
2.790000e-06	-3.876403e-06	-1.389303e-08	-2.806024e+01	-9.101036e+02
2.800000e-06	-3.982958e-06	-1.413737e-08	-2.883156e+01	-9.261968e+02
2.810000e-06	-4.088242e-06	-1.437094e-08	-2.959369e+01	-9.414270e+02
2.820000e-06	-4.192028e-06	-1.459372e-08	-3.034496e+01	-9.558589e+02
2.830000e-06	-4.294158e-06	-1.480619e-08	-3.108425e+01	-9.695520e+02
2.840000e-06	-4.394739e-06	-1.500962e-08	-3.181233e+01	-9.825599e+02
2.850000e-06	-4.493774e-06	-1.520183e-08	-3.252922e+01	-9.949289e+02
2.860000e-06	-4.591284e-06	-1.538173e-08	-3.323507e+01	-1.006698e+03
2.870000e-06	-4.687265e-06	-1.555071e-08	-3.392985e+01	-1.017901e+03
2.880000e-06	-4.781522e-06	-1.571243e-08	-3.461215e+01	-1.028564e+03
2.890000e-06	-4.873970e-06	-1.586531e-08	-3.528136e+01	-1.038708e+03
2.900000e-06	-4.964670e-06	-1.601087e-08	-3.593791e+01	-1.048352e+03
2.910000e-06	-5.053696e-06	-1.615234e-08	-3.658235e+01	-1.057509e+03
2.920000e-06	-5.140880e-06	-1.628717e-08	-3.721345e+01	-1.066191e+03
2.930000e-06	-5.226035e-06	-1.641560e-08	-3.782986e+01	-1.074409e+03
2.940000e-06	-5.309286e-06	-1.653577e-08	-3.843250e+01	-1.082175e+03
