# Temperatura_=_50.66
# Concentracion g/m^3_=_26700.0
# C_Vs_to_Am_M_A/Vsm_=_65563218390.804596
# pendiente_HvsI_1/m_=_3716.3
# ordenada_HvsI_A/m_=_1297.0
# frecuencia_Hz_=_302212.4823612409

Tiempo_(s)	Campo_(V.s)	Magnetizacion_(V.s)	Campo_(kA/m)	Magnetizacion_(A/m)
0.000000e+00	-6.619257e-06	-2.564084e-08	-4.770202e+01	-1.677919e+03
1.000000e-08	-6.617304e-06	-2.564480e-08	-4.768795e+01	-1.677948e+03
2.000000e-08	-6.613014e-06	-2.564355e-08	-4.765703e+01	-1.677804e+03
3.000000e-08	-6.606670e-06	-2.563708e-08	-4.761131e+01	-1.677468e+03
4.000000e-08	-6.598229e-06	-2.562591e-08	-4.755048e+01	-1.676922e+03
5.000000e-08	-6.587467e-06	-2.561046e-08	-4.747293e+01	-1.676154e+03
6.000000e-08	-6.574300e-06	-2.559500e-08	-4.737804e+01	-1.675166e+03
7.000000e-08	-6.558741e-06	-2.557412e-08	-4.726591e+01	-1.673974e+03
8.000000e-08	-6.540913e-06	-2.554756e-08	-4.713743e+01	-1.672608e+03
9.000000e-08	-6.521070e-06	-2.556407e-08	-4.699443e+01	-1.671110e+03
1.000000e-07	-6.498872e-06	-2.558012e-08	-4.683446e+01	-1.669522e+03
1.100000e-07	-6.473863e-06	-2.552600e-08	-4.665423e+01	-1.667883e+03
1.200000e-07	-6.446296e-06	-2.546811e-08	-4.645557e+01	-1.666217e+03
1.300000e-07	-6.416625e-06	-2.543091e-08	-4.624174e+01	-1.664530e+03
1.400000e-07	-6.385180e-06	-2.533773e-08	-4.601513e+01	-1.662803e+03
1.500000e-07	-6.351935e-06	-2.528779e-08	-4.577555e+01	-1.661002e+03
1.600000e-07	-6.316655e-06	-2.537502e-08	-4.552131e+01	-1.659077e+03
1.700000e-07	-6.279394e-06	-2.528975e-08	-4.525278e+01	-1.656974e+03
1.800000e-07	-6.240180e-06	-2.524851e-08	-4.497019e+01	-1.654643e+03
1.900000e-07	-6.198640e-06	-2.527315e-08	-4.467082e+01	-1.652048e+03
2.000000e-07	-6.154658e-06	-2.512163e-08	-4.435387e+01	-1.649171e+03
2.100000e-07	-6.108515e-06	-2.507947e-08	-4.402133e+01	-1.646017e+03
2.200000e-07	-6.059995e-06	-2.504121e-08	-4.367167e+01	-1.642607e+03
2.300000e-07	-6.008884e-06	-2.497751e-08	-4.330334e+01	-1.638978e+03
2.400000e-07	-5.955298e-06	-2.496029e-08	-4.291717e+01	-1.635171e+03
2.500000e-07	-5.899439e-06	-2.487800e-08	-4.251462e+01	-1.631224e+03
2.600000e-07	-5.841298e-06	-2.482145e-08	-4.209562e+01	-1.627163e+03
2.700000e-07	-5.780868e-06	-2.477209e-08	-4.166012e+01	-1.623002e+03
2.800000e-07	-5.718395e-06	-2.467796e-08	-4.120991e+01	-1.618737e+03
2.900000e-07	-5.653924e-06	-2.461483e-08	-4.074530e+01	-1.614351e+03
3.000000e-07	-5.587282e-06	-2.456902e-08	-4.026504e+01	-1.609819e+03
3.100000e-07	-5.518461e-06	-2.450182e-08	-3.976908e+01	-1.605114e+03
3.200000e-07	-5.447652e-06	-2.439743e-08	-3.925879e+01	-1.600214e+03
3.300000e-07	-5.374949e-06	-2.433706e-08	-3.873485e+01	-1.595105e+03
3.400000e-07	-5.300103e-06	-2.425119e-08	-3.819547e+01	-1.589783e+03
3.500000e-07	-5.223034e-06	-2.414154e-08	-3.764006e+01	-1.584256e+03
3.600000e-07	-5.143814e-06	-2.408175e-08	-3.706917e+01	-1.578537e+03
3.700000e-07	-5.062565e-06	-2.399369e-08	-3.648364e+01	-1.572642e+03
3.800000e-07	-4.979631e-06	-2.389487e-08	-3.588597e+01	-1.566586e+03
3.900000e-07	-4.895157e-06	-2.379465e-08	-3.527721e+01	-1.560375e+03
4.000000e-07	-4.809117e-06	-2.369415e-08	-3.465715e+01	-1.554010e+03
4.100000e-07	-4.721500e-06	-2.358675e-08	-3.402574e+01	-1.547481e+03
4.200000e-07	-4.632235e-06	-2.348249e-08	-3.338244e+01	-1.540775e+03
4.300000e-07	-4.541243e-06	-2.339172e-08	-3.272671e+01	-1.533876e+03
4.400000e-07	-4.448643e-06	-2.328803e-08	-3.205938e+01	-1.526767e+03
4.500000e-07	-4.354563e-06	-2.317391e-08	-3.138139e+01	-1.519438e+03
4.600000e-07	-4.258963e-06	-2.305081e-08	-3.069244e+01	-1.511885e+03
4.700000e-07	-4.161719e-06	-2.293032e-08	-2.999165e+01	-1.504107e+03
4.800000e-07	-4.062876e-06	-2.280595e-08	-2.927933e+01	-1.496108e+03
4.900000e-07	-3.962639e-06	-2.267877e-08	-2.855697e+01	-1.487893e+03
5.000000e-07	-3.861059e-06	-2.255492e-08	-2.782492e+01	-1.479463e+03
5.100000e-07	-3.758107e-06	-2.242293e-08	-2.708300e+01	-1.470815e+03
5.200000e-07	-3.653836e-06	-2.228075e-08	-2.633156e+01	-1.461940e+03
5.300000e-07	-3.548189e-06	-2.213664e-08	-2.557021e+01	-1.452824e+03
5.400000e-07	-3.441117e-06	-2.199648e-08	-2.479859e+01	-1.443450e+03
5.500000e-07	-3.332715e-06	-2.185029e-08	-2.401738e+01	-1.433802e+03
5.600000e-07	-3.223128e-06	-2.169907e-08	-2.322764e+01	-1.423865e+03
5.700000e-07	-3.112421e-06	-2.154049e-08	-2.242982e+01	-1.413628e+03
5.800000e-07	-3.000627e-06	-2.137297e-08	-2.162418e+01	-1.403088e+03
5.900000e-07	-2.887669e-06	-2.120117e-08	-2.081014e+01	-1.392243e+03
6.000000e-07	-2.773371e-06	-2.102892e-08	-1.998644e+01	-1.381096e+03
6.100000e-07	-2.657785e-06	-2.085467e-08	-1.915347e+01	-1.369647e+03
6.200000e-07	-2.541052e-06	-2.067672e-08	-1.831223e+01	-1.357894e+03
6.300000e-07	-2.423378e-06	-2.049465e-08	-1.746420e+01	-1.345829e+03
6.400000e-07	-2.304925e-06	-2.030576e-08	-1.661056e+01	-1.333440e+03
6.500000e-07	-2.185658e-06	-2.010699e-08	-1.575106e+01	-1.320709e+03
6.600000e-07	-2.065653e-06	-1.990318e-08	-1.488624e+01	-1.307617e+03
6.700000e-07	-1.945070e-06	-1.969758e-08	-1.401725e+01	-1.294147e+03
6.800000e-07	-1.823821e-06	-1.948656e-08	-1.314346e+01	-1.280284e+03
6.900000e-07	-1.701744e-06	-1.927115e-08	-1.226371e+01	-1.266015e+03
7.000000e-07	-1.578877e-06	-1.904944e-08	-1.137826e+01	-1.251333e+03
7.100000e-07	-1.455402e-06	-1.882114e-08	-1.048843e+01	-1.236229e+03
7.200000e-07	-1.331477e-06	-1.858413e-08	-9.595361e+00	-1.220693e+03
7.300000e-07	-1.207249e-06	-1.833985e-08	-8.700104e+00	-1.204711e+03
7.400000e-07	-1.082758e-06	-1.808894e-08	-7.802956e+00	-1.188260e+03
7.500000e-07	-9.579267e-07	-1.783032e-08	-6.903349e+00	-1.171307e+03
7.600000e-07	-8.327365e-07	-1.756563e-08	-6.001159e+00	-1.153814e+03
7.700000e-07	-7.072410e-07	-1.729011e-08	-5.096769e+00	-1.135737e+03
7.800000e-07	-5.815077e-07	-1.700140e-08	-4.190666e+00	-1.117032e+03
7.900000e-07	-4.556015e-07	-1.670284e-08	-3.283316e+00	-1.097656e+03
8.000000e-07	-3.295533e-07	-1.639749e-08	-2.374943e+00	-1.077572e+03
8.100000e-07	-2.033712e-07	-1.608232e-08	-1.465606e+00	-1.056746e+03
8.200000e-07	-7.711737e-08	-1.575439e-08	-5.557503e-01	-1.035143e+03
8.300000e-07	4.916687e-08	-1.541302e-08	3.543236e-01	-1.012727e+03
8.400000e-07	1.754719e-07	-1.505716e-08	1.264548e+00	-9.894525e+02
8.500000e-07	3.017213e-07	-1.468467e-08	2.174370e+00	-9.652565e+02
8.600000e-07	4.278759e-07	-1.429533e-08	3.083510e+00	-9.400586e+02
8.700000e-07	5.539595e-07	-1.389364e-08	3.992138e+00	-9.137574e+02
8.800000e-07	6.799463e-07	-1.347633e-08	4.900069e+00	-8.862325e+02
8.900000e-07	8.057084e-07	-1.303699e-08	5.806380e+00	-8.573485e+02
9.000000e-07	9.311569e-07	-1.257379e-08	6.710431e+00	-8.269588e+02
9.100000e-07	1.056227e-06	-1.208623e-08	7.611757e+00	-7.949098e+02
9.200000e-07	1.180887e-06	-1.156850e-08	8.510124e+00	-7.610413e+02
9.300000e-07	1.305234e-06	-1.101916e-08	9.406235e+00	-7.251842e+02
9.400000e-07	1.429334e-06	-1.043882e-08	1.030057e+01	-6.871550e+02
9.500000e-07	1.553052e-06	-9.823796e-09	1.119215e+01	-6.467476e+02
9.600000e-07	1.676089e-06	-9.168529e-09	1.207882e+01	-6.037269e+02
9.700000e-07	1.798307e-06	-8.468068e-09	1.295959e+01	-5.578257e+02
9.800000e-07	1.919695e-06	-7.717276e-09	1.383438e+01	-5.087496e+02
9.900000e-07	2.040334e-06	-6.911809e-09	1.470378e+01	-4.561906e+02
1.000000e-06	2.160280e-06	-6.050245e-09	1.556817e+01	-3.998523e+02
1.010000e-06	2.279409e-06	-5.127315e-09	1.642668e+01	-3.394830e+02
1.020000e-06	2.397744e-06	-4.141251e-09	1.727947e+01	-2.749151e+02
1.030000e-06	2.515251e-06	-3.090551e-09	1.812629e+01	-2.061053e+02
1.040000e-06	2.631773e-06	-1.975228e-09	1.896601e+01	-1.331685e+02
1.050000e-06	2.747174e-06	-8.024672e-10	1.979765e+01	-5.640094e+01
1.060000e-06	2.861263e-06	4.196106e-10	2.061984e+01	2.371327e+01
1.070000e-06	2.974080e-06	1.680768e-09	2.143286e+01	1.065140e+02
1.080000e-06	3.085802e-06	2.971467e-09	2.223799e+01	1.911953e+02
1.090000e-06	3.196528e-06	4.276915e-09	2.303595e+01	2.768509e+02
1.100000e-06	3.306221e-06	5.584165e-09	2.382646e+01	3.625295e+02
1.110000e-06	3.414837e-06	6.876646e-09	2.460920e+01	4.472934e+02
1.120000e-06	3.522358e-06	8.138965e-09	2.538405e+01	5.302729e+02
1.130000e-06	3.628525e-06	9.361701e-09	2.614916e+01	6.107104e+02
1.140000e-06	3.733239e-06	1.053612e-08	2.690378e+01	6.879907e+02
1.150000e-06	3.836598e-06	1.165374e-08	2.764865e+01	7.616543e+02
1.160000e-06	3.938622e-06	1.270979e-08	2.838389e+01	8.313956e+02
1.170000e-06	4.039423e-06	1.370527e-08	2.911031e+01	8.970483e+02
1.180000e-06	4.138918e-06	1.463957e-08	2.982733e+01	9.585624e+02
1.190000e-06	4.236721e-06	1.551200e-08	3.053215e+01	1.015978e+03
1.200000e-06	4.332774e-06	1.632300e-08	3.122436e+01	1.069397e+03
1.210000e-06	4.427303e-06	1.707399e-08	3.190559e+01	1.118967e+03
1.220000e-06	4.520415e-06	1.776699e-08	3.257661e+01	1.164857e+03
1.230000e-06	4.612065e-06	1.840871e-08	3.323709e+01	1.207253e+03
1.240000e-06	4.701980e-06	1.900165e-08	3.388506e+01	1.246351e+03
1.250000e-06	4.790078e-06	1.954680e-08	3.451995e+01	1.282353e+03
1.260000e-06	4.876492e-06	2.004708e-08	3.514269e+01	1.315466e+03
1.270000e-06	4.961324e-06	2.050529e-08	3.575404e+01	1.345902e+03
1.280000e-06	5.044475e-06	2.092655e-08	3.635327e+01	1.373872e+03
1.290000e-06	5.125709e-06	2.131692e-08	3.693869e+01	1.399586e+03
1.300000e-06	5.204959e-06	2.167733e-08	3.750981e+01	1.423243e+03
1.310000e-06	5.282295e-06	2.200903e-08	3.806713e+01	1.445030e+03
1.320000e-06	5.357616e-06	2.231348e-08	3.860994e+01	1.465117e+03
1.330000e-06	5.430755e-06	2.259248e-08	3.913702e+01	1.483657e+03
1.340000e-06	5.501843e-06	2.285030e-08	3.964932e+01	1.500782e+03
1.350000e-06	5.571029e-06	2.308984e-08	4.014791e+01	1.516609e+03
1.360000e-06	5.638269e-06	2.331198e-08	4.063248e+01	1.531242e+03
1.370000e-06	5.703411e-06	2.351598e-08	4.110193e+01	1.544771e+03
1.380000e-06	5.766447e-06	2.370228e-08	4.155620e+01	1.557278e+03
1.390000e-06	5.827596e-06	2.387562e-08	4.199687e+01	1.568840e+03
1.400000e-06	5.886766e-06	2.403777e-08	4.242329e+01	1.579523e+03
1.410000e-06	5.943716e-06	2.418974e-08	4.283370e+01	1.589389e+03
1.420000e-06	5.998516e-06	2.433165e-08	4.322862e+01	1.598491e+03
1.430000e-06	6.051089e-06	2.446084e-08	4.360749e+01	1.606880e+03
1.440000e-06	6.101153e-06	2.457875e-08	4.396828e+01	1.614597e+03
1.450000e-06	6.148756e-06	2.468708e-08	4.431133e+01	1.621683e+03
1.460000e-06	6.194235e-06	2.478541e-08	4.463908e+01	1.628176e+03
1.470000e-06	6.237651e-06	2.487469e-08	4.495196e+01	1.634117e+03
1.480000e-06	6.278748e-06	2.495572e-08	4.524812e+01	1.639545e+03
1.490000e-06	6.317573e-06	2.502961e-08	4.552792e+01	1.644502e+03
1.500000e-06	6.354385e-06	2.509744e-08	4.579321e+01	1.649027e+03
1.510000e-06	6.388989e-06	2.515947e-08	4.604258e+01	1.653158e+03
1.520000e-06	6.421173e-06	2.521706e-08	4.627452e+01	1.656927e+03
1.530000e-06	6.451132e-06	2.527046e-08	4.649042e+01	1.660355e+03
1.540000e-06	6.478978e-06	2.531800e-08	4.669109e+01	1.663458e+03
1.550000e-06	6.504404e-06	2.536088e-08	4.687433e+01	1.666243e+03
1.560000e-06	6.527283e-06	2.539967e-08	4.703920e+01	1.668711e+03
1.570000e-06	6.547959e-06	2.543290e-08	4.718821e+01	1.670865e+03
1.580000e-06	6.566428e-06	2.546137e-08	4.732130e+01	1.672708e+03
1.590000e-06	6.582431e-06	2.548366e-08	4.743664e+01	1.674252e+03
1.600000e-06	6.595935e-06	2.550000e-08	4.753395e+01	1.675515e+03
1.610000e-06	6.606807e-06	2.551285e-08	4.761230e+01	1.676523e+03
1.620000e-06	6.615077e-06	2.552454e-08	4.767190e+01	1.677307e+03
1.630000e-06	6.621006e-06	2.553548e-08	4.771463e+01	1.677895e+03
1.640000e-06	6.624706e-06	2.554425e-08	4.774129e+01	1.678311e+03
1.650000e-06	6.626019e-06	2.555320e-08	4.775075e+01	1.678570e+03
1.660000e-06	6.624941e-06	2.555630e-08	4.774299e+01	1.678673e+03
1.670000e-06	6.621767e-06	2.555249e-08	4.772011e+01	1.678611e+03
1.680000e-06	6.616401e-06	2.554911e-08	4.768144e+01	1.678367e+03
1.690000e-06	6.608757e-06	2.554125e-08	4.762635e+01	1.677921e+03
1.700000e-06	6.599017e-06	2.553071e-08	4.755616e+01	1.677257e+03
1.710000e-06	6.587137e-06	2.551927e-08	4.747054e+01	1.676370e+03
1.720000e-06	6.572867e-06	2.551201e-08	4.736771e+01	1.675270e+03
1.730000e-06	6.556393e-06	2.550466e-08	4.724899e+01	1.673980e+03
1.740000e-06	6.537990e-06	2.542628e-08	4.711636e+01	1.672538e+03
1.750000e-06	6.517052e-06	2.536952e-08	4.696548e+01	1.670986e+03
1.760000e-06	6.492930e-06	2.538792e-08	4.679164e+01	1.669367e+03
1.770000e-06	6.465980e-06	2.537633e-08	4.659742e+01	1.667712e+03
1.780000e-06	6.436722e-06	2.537919e-08	4.638658e+01	1.666035e+03
1.790000e-06	6.405582e-06	2.543477e-08	4.616216e+01	1.664330e+03
1.800000e-06	6.373108e-06	2.531529e-08	4.592814e+01	1.662570e+03
1.810000e-06	6.338912e-06	2.526686e-08	4.568170e+01	1.660709e+03
1.820000e-06	6.302309e-06	2.530498e-08	4.541792e+01	1.658695e+03
1.830000e-06	6.263479e-06	2.517272e-08	4.513809e+01	1.656476e+03
1.840000e-06	6.222492e-06	2.524567e-08	4.484271e+01	1.654007e+03
1.850000e-06	6.179412e-06	2.523984e-08	4.453225e+01	1.651261e+03
1.860000e-06	6.134311e-06	2.512133e-08	4.420723e+01	1.648234e+03
1.870000e-06	6.086791e-06	2.514807e-08	4.386478e+01	1.644939e+03
1.880000e-06	6.037030e-06	2.500038e-08	4.350617e+01	1.641407e+03
1.890000e-06	5.984910e-06	2.495616e-08	4.313057e+01	1.637678e+03
1.900000e-06	5.930155e-06	2.492816e-08	4.273597e+01	1.633792e+03
1.910000e-06	5.873110e-06	2.480779e-08	4.232487e+01	1.629781e+03
1.920000e-06	5.813938e-06	2.484756e-08	4.189845e+01	1.625666e+03
1.930000e-06	5.752670e-06	2.474541e-08	4.145691e+01	1.621451e+03
1.940000e-06	5.689177e-06	2.465831e-08	4.099935e+01	1.617124e+03
1.950000e-06	5.623476e-06	2.458822e-08	4.052587e+01	1.612663e+03
1.960000e-06	5.555739e-06	2.450095e-08	4.003772e+01	1.608042e+03
1.970000e-06	5.485777e-06	2.446701e-08	3.953354e+01	1.603235e+03
1.980000e-06	5.413660e-06	2.435094e-08	3.901383e+01	1.598224e+03
1.990000e-06	5.339586e-06	2.431754e-08	3.848001e+01	1.593000e+03
2.000000e-06	5.263508e-06	2.422208e-08	3.793174e+01	1.587567e+03
2.010000e-06	5.185377e-06	2.411408e-08	3.736869e+01	1.581935e+03
2.020000e-06	5.105245e-06	2.404397e-08	3.679121e+01	1.576120e+03
2.030000e-06	5.023298e-06	2.393225e-08	3.620066e+01	1.570138e+03
2.040000e-06	4.939629e-06	2.387314e-08	3.559769e+01	1.563999e+03
2.050000e-06	4.854203e-06	2.376999e-08	3.498207e+01	1.557706e+03
2.060000e-06	4.766976e-06	2.368220e-08	3.435346e+01	1.551255e+03
2.070000e-06	4.678080e-06	2.357105e-08	3.371283e+01	1.544633e+03
2.080000e-06	4.587672e-06	2.345470e-08	3.306129e+01	1.537825e+03
2.090000e-06	4.495756e-06	2.335409e-08	3.239890e+01	1.530815e+03
2.100000e-06	4.402155e-06	2.323322e-08	3.172436e+01	1.523590e+03
2.110000e-06	4.306884e-06	2.313366e-08	3.103778e+01	1.516141e+03
2.120000e-06	4.210194e-06	2.301678e-08	3.034098e+01	1.508467e+03
2.130000e-06	4.112114e-06	2.290646e-08	2.963417e+01	1.500571e+03
2.140000e-06	4.012626e-06	2.277363e-08	2.891720e+01	1.492456e+03
2.150000e-06	3.911571e-06	2.264491e-08	2.818894e+01	1.484125e+03
2.160000e-06	3.808822e-06	2.252344e-08	2.744847e+01	1.475579e+03
2.170000e-06	3.704627e-06	2.239070e-08	2.669758e+01	1.466811e+03
2.180000e-06	3.599238e-06	2.225351e-08	2.593810e+01	1.457809e+03
2.190000e-06	3.492688e-06	2.211226e-08	2.517024e+01	1.448558e+03
2.200000e-06	3.384933e-06	2.196935e-08	2.439370e+01	1.439039e+03
2.210000e-06	3.275969e-06	2.181474e-08	2.360845e+01	1.429237e+03
2.220000e-06	3.165667e-06	2.166280e-08	2.281355e+01	1.419141e+03
2.230000e-06	3.054104e-06	2.151102e-08	2.200956e+01	1.408742e+03
2.240000e-06	2.941349e-06	2.135831e-08	2.119698e+01	1.398038e+03
2.250000e-06	2.827476e-06	2.119293e-08	2.037636e+01	1.387032e+03
2.260000e-06	2.712583e-06	2.101975e-08	1.954837e+01	1.375723e+03
2.270000e-06	2.596625e-06	2.083780e-08	1.871272e+01	1.364112e+03
2.280000e-06	2.479563e-06	2.065366e-08	1.786910e+01	1.352193e+03
2.290000e-06	2.361254e-06	2.046976e-08	1.701650e+01	1.339956e+03
2.300000e-06	2.241926e-06	2.028293e-08	1.615656e+01	1.327386e+03
2.310000e-06	2.121912e-06	2.009169e-08	1.529167e+01	1.314465e+03
2.320000e-06	2.001278e-06	1.988879e-08	1.442232e+01	1.301173e+03
2.330000e-06	1.879965e-06	1.967667e-08	1.354807e+01	1.287493e+03
2.340000e-06	1.758030e-06	1.945744e-08	1.266934e+01	1.273414e+03
2.350000e-06	1.635541e-06	1.923601e-08	1.178661e+01	1.258925e+03
2.360000e-06	1.512430e-06	1.901064e-08	1.089940e+01	1.244017e+03
2.370000e-06	1.388806e-06	1.877865e-08	1.000850e+01	1.228684e+03
2.380000e-06	1.264803e-06	1.853536e-08	9.114872e+00	1.212912e+03
2.390000e-06	1.140445e-06	1.828514e-08	8.218674e+00	1.196682e+03
2.400000e-06	1.015762e-06	1.803020e-08	7.320143e+00	1.179966e+03
2.410000e-06	8.907884e-07	1.776885e-08	6.419513e+00	1.162729e+03
2.420000e-06	7.655098e-07	1.750017e-08	5.516687e+00	1.144929e+03
2.430000e-06	6.399379e-07	1.722010e-08	4.611746e+00	1.126521e+03
2.440000e-06	5.140740e-07	1.692812e-08	3.704701e+00	1.107462e+03
2.450000e-06	3.879194e-07	1.662379e-08	2.795562e+00	1.087712e+03
2.460000e-06	2.615622e-07	1.631062e-08	1.884962e+00	1.067234e+03
2.470000e-06	1.350246e-07	1.598675e-08	9.730620e-01	1.045996e+03
2.480000e-06	8.363348e-09	1.565161e-08	6.027091e-02	1.023963e+03
2.490000e-06	-1.183211e-07	1.530574e-08	-8.526875e-01	1.001093e+03
2.500000e-06	-2.449220e-07	1.494622e-08	-1.765043e+00	9.773341e+02
2.510000e-06	-3.714167e-07	1.457412e-08	-2.676634e+00	9.526128e+02
2.520000e-06	-4.977910e-07	1.418280e-08	-3.587357e+00	9.268378e+02
2.530000e-06	-6.239566e-07	1.376822e-08	-4.496576e+00	8.998971e+02
2.540000e-06	-7.498013e-07	1.333350e-08	-5.403482e+00	8.716619e+02
2.550000e-06	-8.752998e-07	1.287874e-08	-6.307893e+00	8.419901e+02
2.560000e-06	-1.000507e-06	1.240184e-08	-7.210206e+00	8.107310e+02
2.570000e-06	-1.125352e-06	1.190059e-08	-8.109907e+00	7.777277e+02
2.580000e-06	-1.249870e-06	1.137136e-08	-9.007251e+00	7.428158e+02
2.590000e-06	-1.374058e-06	1.080859e-08	-9.902224e+00	7.058193e+02
2.600000e-06	-1.497731e-06	1.021046e-08	-1.079348e+01	6.665434e+02
2.610000e-06	-1.620791e-06	9.574272e-09	-1.168032e+01	6.247674e+02
2.620000e-06	-1.743257e-06	8.895981e-09	-1.256287e+01	5.802388e+02
2.630000e-06	-1.865052e-06	8.170786e-09	-1.344060e+01	5.326748e+02
2.640000e-06	-1.986091e-06	7.394127e-09	-1.431287e+01	4.817712e+02
2.650000e-06	-2.106512e-06	6.561537e-09	-1.518069e+01	4.272226e+02
2.660000e-06	-2.226309e-06	5.669951e-09	-1.604401e+01	3.687518e+02
2.670000e-06	-2.345113e-06	4.717808e-09	-1.690018e+01	3.061471e+02
2.680000e-06	-2.462732e-06	3.703677e-09	-1.774780e+01	2.393028e+02
2.690000e-06	-2.579300e-06	2.626306e-09	-1.858786e+01	1.682567e+02
2.700000e-06	-2.694836e-06	1.484861e-09	-1.942048e+01	9.321899e+01
2.710000e-06	-2.809357e-06	2.853822e-10	-2.024578e+01	1.458675e+01
2.720000e-06	-2.922720e-06	-9.610793e-10	-2.106273e+01	-6.705888e+01
2.730000e-06	-3.034768e-06	-2.242939e-09	-2.187021e+01	-1.509748e+02
2.740000e-06	-3.145608e-06	-3.548485e-09	-2.266899e+01	-2.362949e+02
2.750000e-06	-3.255275e-06	-4.862200e-09	-2.345931e+01	-3.220815e+02
2.760000e-06	-3.363913e-06	-6.166658e-09	-2.424221e+01	-4.073835e+02
2.770000e-06	-3.471549e-06	-7.447455e-09	-2.501790e+01	-4.912933e+02
2.780000e-06	-3.578062e-06	-8.694090e-09	-2.578549e+01	-5.729966e+02
2.790000e-06	-3.683395e-06	-9.897348e-09	-2.654458e+01	-6.518094e+02
2.800000e-06	-3.787468e-06	-1.105012e-08	-2.729459e+01	-7.271992e+02
2.810000e-06	-3.890069e-06	-1.214743e-08	-2.803399e+01	-7.987902e+02
2.820000e-06	-3.991133e-06	-1.318614e-08	-2.876231e+01	-8.663537e+02
2.830000e-06	-4.090803e-06	-1.416189e-08	-2.948059e+01	-9.297891e+02
2.840000e-06	-4.189086e-06	-1.507243e-08	-3.018887e+01	-9.890977e+02
2.850000e-06	-4.286017e-06	-1.592188e-08	-3.088740e+01	-1.044356e+03
2.860000e-06	-4.381517e-06	-1.671075e-08	-3.157563e+01	-1.095693e+03
2.870000e-06	-4.475285e-06	-1.743978e-08	-3.225138e+01	-1.143269e+03
2.880000e-06	-4.567439e-06	-1.811320e-08	-3.291549e+01	-1.187264e+03
2.890000e-06	-4.658070e-06	-1.873468e-08	-3.356863e+01	-1.227868e+03
2.900000e-06	-4.747022e-06	-1.930943e-08	-3.420967e+01	-1.265282e+03
2.910000e-06	-4.834257e-06	-1.983917e-08	-3.483833e+01	-1.299710e+03
2.920000e-06	-4.919623e-06	-2.032560e-08	-3.545352e+01	-1.331362e+03
2.930000e-06	-5.003212e-06	-2.077402e-08	-3.605591e+01	-1.360451e+03
2.940000e-06	-5.085141e-06	-2.118705e-08	-3.664633e+01	-1.387187e+03
