# Temperatura_=_69.2
# Concentracion g/m^3_=_26700.0
# C_Vs_to_Am_M_A/Vsm_=_65563218390.804596
# pendiente_HvsI_1/m_=_3716.3
# ordenada_HvsI_A/m_=_1297.0
# frecuencia_Hz_=_302212.11173597485

Tiempo_(s)	Campo_(V.s)	Magnetizacion_(V.s)	Campo_(kA/m)	Magnetizacion_(A/m)
0.000000e+00	-6.657694e-06	-2.393449e-08	-4.769735e+01	-1.567215e+03
1.000000e-08	-6.655951e-06	-2.393673e-08	-4.768486e+01	-1.567157e+03
2.000000e-08	-6.651848e-06	-2.393379e-08	-4.765547e+01	-1.566935e+03
3.000000e-08	-6.645665e-06	-2.392545e-08	-4.761118e+01	-1.566536e+03
4.000000e-08	-6.637421e-06	-2.391585e-08	-4.755211e+01	-1.565955e+03
5.000000e-08	-6.626856e-06	-2.390170e-08	-4.747642e+01	-1.565194e+03
6.000000e-08	-6.613810e-06	-2.388680e-08	-4.738295e+01	-1.564271e+03
7.000000e-08	-6.598321e-06	-2.386758e-08	-4.727199e+01	-1.563209e+03
8.000000e-08	-6.580615e-06	-2.384288e-08	-4.714514e+01	-1.562037e+03
9.000000e-08	-6.560866e-06	-2.386001e-08	-4.700365e+01	-1.560786e+03
1.000000e-07	-6.538745e-06	-2.389730e-08	-4.684517e+01	-1.559478e+03
1.100000e-07	-6.513825e-06	-2.384019e-08	-4.666664e+01	-1.558126e+03
1.200000e-07	-6.486259e-06	-2.377141e-08	-4.646915e+01	-1.556731e+03
1.300000e-07	-6.456535e-06	-2.374603e-08	-4.625620e+01	-1.555278e+03
1.400000e-07	-6.424958e-06	-2.366497e-08	-4.602997e+01	-1.553739e+03
1.500000e-07	-6.391590e-06	-2.357714e-08	-4.579092e+01	-1.552077e+03
1.600000e-07	-6.356282e-06	-2.369573e-08	-4.553796e+01	-1.550254e+03
1.700000e-07	-6.318928e-06	-2.365205e-08	-4.527035e+01	-1.548233e+03
1.800000e-07	-6.279616e-06	-2.354981e-08	-4.498871e+01	-1.545986e+03
1.900000e-07	-6.238046e-06	-2.362687e-08	-4.469089e+01	-1.543499e+03
2.000000e-07	-6.194021e-06	-2.347235e-08	-4.437549e+01	-1.540773e+03
2.100000e-07	-6.147852e-06	-2.340249e-08	-4.404472e+01	-1.537825e+03
2.200000e-07	-6.099246e-06	-2.341083e-08	-4.369650e+01	-1.534684e+03
2.300000e-07	-6.047960e-06	-2.333392e-08	-4.332907e+01	-1.531386e+03
2.400000e-07	-5.994210e-06	-2.333245e-08	-4.294399e+01	-1.527966e+03
2.500000e-07	-5.938160e-06	-2.326440e-08	-4.254243e+01	-1.524456e+03
2.600000e-07	-5.879826e-06	-2.319782e-08	-4.212451e+01	-1.520874e+03
2.700000e-07	-5.819257e-06	-2.315748e-08	-4.169058e+01	-1.517224e+03
2.800000e-07	-5.756669e-06	-2.307766e-08	-4.124219e+01	-1.513496e+03
2.900000e-07	-5.692009e-06	-2.303054e-08	-4.077895e+01	-1.509668e+03
3.000000e-07	-5.625137e-06	-2.298533e-08	-4.029986e+01	-1.505708e+03
3.100000e-07	-5.556140e-06	-2.293602e-08	-3.980555e+01	-1.501586e+03
3.200000e-07	-5.485102e-06	-2.283404e-08	-3.929662e+01	-1.497275e+03
3.300000e-07	-5.412042e-06	-2.276979e-08	-3.877319e+01	-1.492761e+03
3.400000e-07	-5.336794e-06	-2.270901e-08	-3.823410e+01	-1.488039e+03
3.500000e-07	-5.259375e-06	-2.260495e-08	-3.767945e+01	-1.483120e+03
3.600000e-07	-5.179848e-06	-2.255685e-08	-3.710970e+01	-1.478021e+03
3.700000e-07	-5.098301e-06	-2.248064e-08	-3.652548e+01	-1.472763e+03
3.800000e-07	-5.015053e-06	-2.238453e-08	-3.592907e+01	-1.467367e+03
3.900000e-07	-4.930190e-06	-2.229310e-08	-3.532109e+01	-1.461844e+03
4.000000e-07	-4.843756e-06	-2.220715e-08	-3.470186e+01	-1.456197e+03
4.100000e-07	-4.755736e-06	-2.211655e-08	-3.407126e+01	-1.450414e+03
4.200000e-07	-4.666017e-06	-2.202224e-08	-3.342849e+01	-1.444479e+03
4.300000e-07	-4.574657e-06	-2.194305e-08	-3.277397e+01	-1.438370e+03
4.400000e-07	-4.481747e-06	-2.184961e-08	-3.210833e+01	-1.432066e+03
4.500000e-07	-4.387274e-06	-2.174751e-08	-3.143151e+01	-1.425552e+03
4.600000e-07	-4.291185e-06	-2.164179e-08	-3.074310e+01	-1.418821e+03
4.700000e-07	-4.193474e-06	-2.153379e-08	-3.004308e+01	-1.411876e+03
4.800000e-07	-4.094244e-06	-2.142381e-08	-2.933217e+01	-1.404725e+03
4.900000e-07	-3.993580e-06	-2.130723e-08	-2.861099e+01	-1.397379e+03
5.000000e-07	-3.891534e-06	-2.119389e-08	-2.787991e+01	-1.389846e+03
5.100000e-07	-3.788129e-06	-2.107560e-08	-2.713908e+01	-1.382127e+03
5.200000e-07	-3.683308e-06	-2.094840e-08	-2.638812e+01	-1.374215e+03
5.300000e-07	-3.577063e-06	-2.081979e-08	-2.562695e+01	-1.366092e+03
5.400000e-07	-3.469432e-06	-2.069362e-08	-2.485586e+01	-1.357735e+03
5.500000e-07	-3.360508e-06	-2.056511e-08	-2.407550e+01	-1.349122e+03
5.600000e-07	-3.250458e-06	-2.043123e-08	-2.328708e+01	-1.340231e+03
5.700000e-07	-3.139222e-06	-2.029184e-08	-2.249015e+01	-1.331047e+03
5.800000e-07	-3.026666e-06	-2.014136e-08	-2.168378e+01	-1.321565e+03
5.900000e-07	-2.912904e-06	-1.998431e-08	-2.086876e+01	-1.311787e+03
6.000000e-07	-2.797910e-06	-1.982765e-08	-2.004491e+01	-1.301719e+03
6.100000e-07	-2.681714e-06	-1.967021e-08	-1.921246e+01	-1.291367e+03
6.200000e-07	-2.564475e-06	-1.950892e-08	-1.837253e+01	-1.280733e+03
6.300000e-07	-2.446296e-06	-1.934289e-08	-1.752586e+01	-1.269812e+03
6.400000e-07	-2.327334e-06	-1.917102e-08	-1.667359e+01	-1.258590e+03
6.500000e-07	-2.207493e-06	-1.899133e-08	-1.581502e+01	-1.247046e+03
6.600000e-07	-2.086733e-06	-1.880911e-08	-1.494987e+01	-1.235156e+03
6.700000e-07	-1.965241e-06	-1.862372e-08	-1.407946e+01	-1.222898e+03
6.800000e-07	-1.843159e-06	-1.843156e-08	-1.320484e+01	-1.210253e+03
6.900000e-07	-1.720442e-06	-1.823271e-08	-1.232567e+01	-1.197209e+03
7.000000e-07	-1.597016e-06	-1.802715e-08	-1.144141e+01	-1.183759e+03
7.100000e-07	-1.472957e-06	-1.781556e-08	-1.055263e+01	-1.169900e+03
7.200000e-07	-1.348402e-06	-1.759674e-08	-9.660286e+00	-1.155624e+03
7.300000e-07	-1.223530e-06	-1.737378e-08	-8.765671e+00	-1.140917e+03
7.400000e-07	-1.098358e-06	-1.714368e-08	-7.868909e+00	-1.125755e+03
7.500000e-07	-9.727987e-07	-1.690527e-08	-6.969369e+00	-1.110102e+03
7.600000e-07	-8.469032e-07	-1.665888e-08	-6.067422e+00	-1.093915e+03
7.700000e-07	-7.207615e-07	-1.640391e-08	-5.163712e+00	-1.077143e+03
7.800000e-07	-5.944144e-07	-1.613784e-08	-4.258530e+00	-1.059737e+03
7.900000e-07	-4.679201e-07	-1.586043e-08	-3.352294e+00	-1.041655e+03
8.000000e-07	-3.413163e-07	-1.557404e-08	-2.445274e+00	-1.022856e+03
8.100000e-07	-2.146242e-07	-1.527600e-08	-1.537620e+00	-1.003310e+03
8.200000e-07	-8.785698e-08	-1.496682e-08	-6.294289e-01	-9.829823e+02
8.300000e-07	3.897842e-08	-1.464471e-08	2.792510e-01	-9.618311e+02
8.400000e-07	1.658965e-07	-1.430907e-08	1.188523e+00	-9.397986e+02
8.500000e-07	2.928203e-07	-1.395651e-08	2.097837e+00	-9.168038e+02
8.600000e-07	4.196288e-07	-1.358581e-08	3.006323e+00	-8.927395e+02
8.700000e-07	5.462850e-07	-1.319856e-08	3.913720e+00	-8.674737e+02
8.800000e-07	6.728039e-07	-1.279245e-08	4.820132e+00	-8.408533e+02
8.900000e-07	7.991606e-07	-1.236241e-08	5.725382e+00	-8.127112e+02
9.000000e-07	9.252707e-07	-1.190479e-08	6.628866e+00	-7.828715e+02
9.100000e-07	1.051129e-06	-1.142068e-08	7.530547e+00	-7.511509e+02
9.200000e-07	1.176688e-06	-1.090633e-08	8.430085e+00	-7.173565e+02
9.300000e-07	1.301836e-06	-1.035845e-08	9.326673e+00	-6.812763e+02
9.400000e-07	1.426552e-06	-9.771842e-09	1.022017e+01	-6.426682e+02
9.500000e-07	1.550757e-06	-9.140920e-09	1.111001e+01	-6.012486e+02
9.600000e-07	1.674366e-06	-8.458437e-09	1.199557e+01	-5.566875e+02
9.700000e-07	1.797311e-06	-7.720025e-09	1.287638e+01	-5.086131e+02
9.800000e-07	1.919555e-06	-6.923426e-09	1.375216e+01	-4.566316e+02
9.900000e-07	2.041176e-06	-6.062844e-09	1.462348e+01	-4.003620e+02
1.000000e-06	2.162032e-06	-5.133530e-09	1.548933e+01	-3.394833e+02
1.010000e-06	2.281975e-06	-4.130152e-09	1.634863e+01	-2.737902e+02
1.020000e-06	2.401003e-06	-3.052724e-09	1.720137e+01	-2.032470e+02
1.030000e-06	2.519112e-06	-1.903705e-09	1.804754e+01	-1.280327e+02
1.040000e-06	2.636306e-06	-6.887263e-10	1.888714e+01	-4.856689e+01
1.050000e-06	2.752453e-06	5.800211e-10	1.971925e+01	3.448870e+01
1.060000e-06	2.867486e-06	1.889637e-09	2.054337e+01	1.202557e+02
1.070000e-06	2.981374e-06	3.223841e-09	2.135929e+01	2.076897e+02
1.080000e-06	3.094045e-06	4.566228e-09	2.216650e+01	2.956498e+02
1.090000e-06	3.205497e-06	5.897953e-09	2.296497e+01	3.829781e+02
1.100000e-06	3.315837e-06	7.202473e-09	2.375547e+01	4.685776e+02
1.110000e-06	3.425156e-06	8.462555e-09	2.453866e+01	5.514796e+02
1.120000e-06	3.533312e-06	9.667334e-09	2.531351e+01	6.308923e+02
1.130000e-06	3.640207e-06	1.080944e-08	2.607933e+01	7.062258e+02
1.140000e-06	3.745857e-06	1.188352e-08	2.683624e+01	7.770942e+02
1.150000e-06	3.850022e-06	1.288723e-08	2.758250e+01	8.432984e+02
1.160000e-06	3.952700e-06	1.382097e-08	2.831811e+01	9.047944e+02
1.170000e-06	4.054141e-06	1.468526e-08	2.904486e+01	9.616562e+02
1.180000e-06	4.154216e-06	1.548063e-08	2.976182e+01	1.014039e+03
1.190000e-06	4.252773e-06	1.621060e-08	3.046791e+01	1.062147e+03
1.200000e-06	4.349741e-06	1.687743e-08	3.116261e+01	1.106213e+03
1.210000e-06	4.445022e-06	1.748575e-08	3.184522e+01	1.146484e+03
1.220000e-06	4.538740e-06	1.803886e-08	3.251664e+01	1.183215e+03
1.230000e-06	4.630940e-06	1.854431e-08	3.317719e+01	1.216666e+03
1.240000e-06	4.721596e-06	1.900519e-08	3.382667e+01	1.247103e+03
1.250000e-06	4.810479e-06	1.942244e-08	3.446345e+01	1.274794e+03
1.260000e-06	4.897504e-06	1.980318e-08	3.508692e+01	1.300005e+03
1.270000e-06	4.982858e-06	2.015400e-08	3.569841e+01	1.322993e+03
1.280000e-06	5.066542e-06	2.047556e-08	3.629795e+01	1.343999e+03
1.290000e-06	5.148426e-06	2.076883e-08	3.688459e+01	1.363237e+03
1.300000e-06	5.228310e-06	2.103473e-08	3.745689e+01	1.380894e+03
1.310000e-06	5.306207e-06	2.127838e-08	3.801497e+01	1.397126e+03
1.320000e-06	5.382106e-06	2.150394e-08	3.855873e+01	1.412063e+03
1.330000e-06	5.455852e-06	2.171141e-08	3.908706e+01	1.425810e+03
1.340000e-06	5.527524e-06	2.190095e-08	3.960054e+01	1.438459e+03
1.350000e-06	5.597273e-06	2.207492e-08	4.010023e+01	1.450093e+03
1.360000e-06	5.665078e-06	2.223739e-08	4.058601e+01	1.460791e+03
1.370000e-06	5.730774e-06	2.238817e-08	4.105667e+01	1.470629e+03
1.380000e-06	5.794347e-06	2.252747e-08	4.151212e+01	1.479683e+03
1.390000e-06	5.855999e-06	2.265832e-08	4.195381e+01	1.488024e+03
1.400000e-06	5.915760e-06	2.277848e-08	4.238195e+01	1.495715e+03
1.410000e-06	5.973410e-06	2.288738e-08	4.279498e+01	1.502813e+03
1.420000e-06	6.028856e-06	2.298536e-08	4.319220e+01	1.509365e+03
1.430000e-06	6.082099e-06	2.307448e-08	4.357365e+01	1.515409e+03
1.440000e-06	6.132802e-06	2.315767e-08	4.393690e+01	1.520980e+03
1.450000e-06	6.180947e-06	2.323498e-08	4.428182e+01	1.526108e+03
1.460000e-06	6.226890e-06	2.330763e-08	4.461097e+01	1.530824e+03
1.470000e-06	6.270786e-06	2.337478e-08	4.492545e+01	1.535161e+03
1.480000e-06	6.312445e-06	2.343784e-08	4.522391e+01	1.539149e+03
1.490000e-06	6.351743e-06	2.349568e-08	4.550544e+01	1.542819e+03
1.500000e-06	6.388888e-06	2.354701e-08	4.577156e+01	1.546199e+03
1.510000e-06	6.423867e-06	2.359154e-08	4.602216e+01	1.549308e+03
1.520000e-06	6.456470e-06	2.363239e-08	4.625574e+01	1.552157e+03
1.530000e-06	6.486771e-06	2.367149e-08	4.647282e+01	1.554750e+03
1.540000e-06	6.514982e-06	2.370657e-08	4.667493e+01	1.557086e+03
1.550000e-06	6.540795e-06	2.373912e-08	4.685986e+01	1.559160e+03
1.560000e-06	6.564001e-06	2.376943e-08	4.702611e+01	1.560971e+03
1.570000e-06	6.584926e-06	2.379524e-08	4.717602e+01	1.562522e+03
1.580000e-06	6.603660e-06	2.381594e-08	4.731024e+01	1.563826e+03
1.590000e-06	6.619965e-06	2.383160e-08	4.742705e+01	1.564902e+03
1.600000e-06	6.633773e-06	2.384289e-08	4.752598e+01	1.565774e+03
1.610000e-06	6.644968e-06	2.385179e-08	4.760618e+01	1.566471e+03
1.620000e-06	6.653508e-06	2.385965e-08	4.766736e+01	1.567017e+03
1.630000e-06	6.659659e-06	2.386709e-08	4.771143e+01	1.567427e+03
1.640000e-06	6.663589e-06	2.387366e-08	4.773959e+01	1.567711e+03
1.650000e-06	6.665147e-06	2.387998e-08	4.775075e+01	1.567864e+03
1.660000e-06	6.664289e-06	2.388347e-08	4.774460e+01	1.567877e+03
1.670000e-06	6.661290e-06	2.387755e-08	4.772312e+01	1.567733e+03
1.680000e-06	6.656031e-06	2.387439e-08	4.768544e+01	1.567418e+03
1.690000e-06	6.648475e-06	2.386764e-08	4.763131e+01	1.566921e+03
1.700000e-06	6.638822e-06	2.385602e-08	4.756215e+01	1.566242e+03
1.710000e-06	6.627048e-06	2.384477e-08	4.747780e+01	1.565392e+03
1.720000e-06	6.612848e-06	2.383709e-08	4.737606e+01	1.564391e+03
1.730000e-06	6.596351e-06	2.383854e-08	4.725787e+01	1.563267e+03
1.740000e-06	6.577993e-06	2.376445e-08	4.712635e+01	1.562049e+03
1.750000e-06	6.557262e-06	2.369001e-08	4.697783e+01	1.560765e+03
1.760000e-06	6.533305e-06	2.372694e-08	4.680620e+01	1.559433e+03
1.770000e-06	6.506421e-06	2.372835e-08	4.661359e+01	1.558059e+03
1.780000e-06	6.477202e-06	2.370267e-08	4.640426e+01	1.556635e+03
1.790000e-06	6.446037e-06	2.379725e-08	4.618099e+01	1.555140e+03
1.800000e-06	6.413499e-06	2.370142e-08	4.594788e+01	1.553540e+03
1.810000e-06	6.379309e-06	2.358573e-08	4.570293e+01	1.551797e+03
1.820000e-06	6.342664e-06	2.369575e-08	4.544040e+01	1.549872e+03
1.830000e-06	6.303683e-06	2.354571e-08	4.516113e+01	1.547732e+03
1.840000e-06	6.262560e-06	2.356436e-08	4.486652e+01	1.545358e+03
1.850000e-06	6.219326e-06	2.362026e-08	4.455677e+01	1.542741e+03
1.860000e-06	6.174057e-06	2.343701e-08	4.423246e+01	1.539894e+03
1.870000e-06	6.126374e-06	2.349886e-08	4.389085e+01	1.536838e+03
1.880000e-06	6.076491e-06	2.336800e-08	4.353347e+01	1.533608e+03
1.890000e-06	6.024257e-06	2.328880e-08	4.315925e+01	1.530241e+03
1.900000e-06	5.969280e-06	2.331868e-08	4.276539e+01	1.526770e+03
1.910000e-06	5.912013e-06	2.317460e-08	4.235511e+01	1.523220e+03
1.920000e-06	5.852667e-06	2.322363e-08	4.192994e+01	1.519602e+03
1.930000e-06	5.791182e-06	2.313263e-08	4.148945e+01	1.515912e+03
1.940000e-06	5.727491e-06	2.303931e-08	4.103315e+01	1.512134e+03
1.950000e-06	5.661636e-06	2.300102e-08	4.056135e+01	1.508239e+03
1.960000e-06	5.593746e-06	2.289521e-08	4.007497e+01	1.504196e+03
1.970000e-06	5.523570e-06	2.290184e-08	3.957221e+01	1.499976e+03
1.980000e-06	5.451228e-06	2.277699e-08	3.905393e+01	1.495557e+03
1.990000e-06	5.376941e-06	2.274274e-08	3.852172e+01	1.490931e+03
2.000000e-06	5.300554e-06	2.267204e-08	3.797447e+01	1.486102e+03
2.010000e-06	5.222065e-06	2.255975e-08	3.741215e+01	1.481084e+03
2.020000e-06	5.141590e-06	2.252334e-08	3.683561e+01	1.475897e+03
2.030000e-06	5.059351e-06	2.240981e-08	3.624643e+01	1.470564e+03
2.040000e-06	4.975353e-06	2.236267e-08	3.564465e+01	1.465099e+03
2.050000e-06	4.889520e-06	2.226355e-08	3.502972e+01	1.459510e+03
2.060000e-06	4.801853e-06	2.218316e-08	3.440165e+01	1.453792e+03
2.070000e-06	4.712557e-06	2.208869e-08	3.376192e+01	1.447930e+03
2.080000e-06	4.621817e-06	2.198213e-08	3.311183e+01	1.441905e+03
2.090000e-06	4.529481e-06	2.190107e-08	3.245031e+01	1.435694e+03
2.100000e-06	4.435437e-06	2.178596e-08	3.177656e+01	1.429278e+03
2.110000e-06	4.339712e-06	2.169892e-08	3.109076e+01	1.422648e+03
2.120000e-06	4.242546e-06	2.158995e-08	3.039464e+01	1.415802e+03
2.130000e-06	4.144075e-06	2.149490e-08	2.968917e+01	1.408745e+03
2.140000e-06	4.044184e-06	2.137998e-08	2.897352e+01	1.401489e+03
2.150000e-06	3.942730e-06	2.126571e-08	2.824668e+01	1.394042e+03
2.160000e-06	3.839644e-06	2.115758e-08	2.750815e+01	1.386410e+03
2.170000e-06	3.735062e-06	2.103957e-08	2.675890e+01	1.378589e+03
2.180000e-06	3.629197e-06	2.091847e-08	2.600046e+01	1.370566e+03
2.190000e-06	3.522161e-06	2.078854e-08	2.523362e+01	1.362321e+03
2.200000e-06	3.413921e-06	2.066214e-08	2.445817e+01	1.353830e+03
2.210000e-06	3.304411e-06	2.052271e-08	2.367361e+01	1.345070e+03
2.220000e-06	3.193522e-06	2.038674e-08	2.287917e+01	1.336023e+03
2.230000e-06	3.081383e-06	2.024900e-08	2.207578e+01	1.326680e+03
2.240000e-06	2.968072e-06	2.011320e-08	2.126399e+01	1.317039e+03
2.250000e-06	2.853618e-06	1.996370e-08	2.044402e+01	1.307104e+03
2.260000e-06	2.738096e-06	1.980754e-08	1.961639e+01	1.296884e+03
2.270000e-06	2.621416e-06	1.964465e-08	1.878047e+01	1.286381e+03
2.280000e-06	2.503622e-06	1.947882e-08	1.793656e+01	1.275595e+03
2.290000e-06	2.384800e-06	1.931270e-08	1.708529e+01	1.264515e+03
2.300000e-06	2.264976e-06	1.914092e-08	1.622684e+01	1.253123e+03
2.310000e-06	2.144298e-06	1.896533e-08	1.536228e+01	1.241397e+03
2.320000e-06	2.022985e-06	1.877809e-08	1.449316e+01	1.229312e+03
2.330000e-06	1.901067e-06	1.858584e-08	1.361971e+01	1.216848e+03
2.340000e-06	1.778551e-06	1.838857e-08	1.274197e+01	1.203991e+03
2.350000e-06	1.655438e-06	1.818869e-08	1.185996e+01	1.190730e+03
2.360000e-06	1.531743e-06	1.798253e-08	1.097378e+01	1.177062e+03
2.370000e-06	1.407513e-06	1.776871e-08	1.008377e+01	1.162980e+03
2.380000e-06	1.282757e-06	1.754526e-08	9.189988e+00	1.148476e+03
2.390000e-06	1.157527e-06	1.731544e-08	8.292808e+00	1.133529e+03
2.400000e-06	1.031936e-06	1.708163e-08	7.393045e+00	1.118109e+03
2.410000e-06	9.060347e-07	1.683826e-08	6.491055e+00	1.102176e+03
2.420000e-06	7.798708e-07	1.658747e-08	5.587185e+00	1.085682e+03
2.430000e-06	6.534883e-07	1.632518e-08	4.681750e+00	1.068577e+03
2.440000e-06	5.268809e-07	1.605049e-08	3.774704e+00	1.050813e+03
2.450000e-06	4.000983e-07	1.576614e-08	2.866402e+00	1.032352e+03
2.460000e-06	2.731385e-07	1.547467e-08	1.956831e+00	1.013157e+03
2.470000e-06	1.460729e-07	1.517463e-08	1.046502e+00	9.931964e+02
2.480000e-06	1.891242e-08	1.486046e-08	1.354932e-01	9.724335e+02
2.490000e-06	-1.083110e-07	1.453256e-08	-7.759663e-01	9.508187e+02
2.500000e-06	-2.355173e-07	1.418982e-08	-1.687304e+00	9.282824e+02
2.510000e-06	-3.626487e-07	1.383214e-08	-2.598104e+00	9.047297e+02
2.520000e-06	-4.896456e-07	1.345577e-08	-3.507941e+00	8.800397e+02
2.530000e-06	-6.165297e-07	1.305720e-08	-4.416970e+00	8.540683e+02
2.540000e-06	-7.432457e-07	1.263844e-08	-5.324795e+00	8.266542e+02
2.550000e-06	-8.697197e-07	1.219536e-08	-6.230885e+00	7.976251e+02
2.560000e-06	-9.958919e-07	1.172519e-08	-7.134814e+00	7.668011e+02
2.570000e-06	-1.121776e-06	1.122746e-08	-8.036676e+00	7.339945e+02
2.580000e-06	-1.247292e-06	1.069821e-08	-8.935908e+00	6.990036e+02
2.590000e-06	-1.372308e-06	1.013140e-08	-9.831554e+00	6.616017e+02
2.600000e-06	-1.496793e-06	9.521430e-09	-1.072339e+01	6.215257e+02
2.610000e-06	-1.620612e-06	8.864377e-09	-1.161046e+01	5.784672e+02
2.620000e-06	-1.743703e-06	8.154980e-09	-1.249232e+01	5.320723e+02
2.630000e-06	-1.866134e-06	7.387625e-09	-1.336944e+01	4.819540e+02
2.640000e-06	-1.987958e-06	6.558401e-09	-1.424222e+01	4.277201e+02
2.650000e-06	-2.109180e-06	5.663980e-09	-1.511069e+01	3.690152e+02
2.660000e-06	-2.229581e-06	4.701251e-09	-1.597327e+01	3.055734e+02
2.670000e-06	-2.348989e-06	3.667541e-09	-1.682873e+01	2.372736e+02
2.680000e-06	-2.467514e-06	2.561097e-09	-1.767787e+01	1.641909e+02
2.690000e-06	-2.585113e-06	1.383239e-09	-1.852038e+01	8.663115e+01
2.700000e-06	-2.701618e-06	1.407630e-10	-1.935505e+01	5.145272e+00
2.710000e-06	-2.816938e-06	-1.151992e-09	-2.018123e+01	-7.948406e+01
2.720000e-06	-2.931068e-06	-2.478466e-09	-2.099889e+01	-1.662818e+02
2.730000e-06	-3.044082e-06	-3.822042e-09	-2.180855e+01	-2.541425e+02
2.740000e-06	-3.155873e-06	-5.164982e-09	-2.260945e+01	-3.419060e+02
2.750000e-06	-3.266353e-06	-6.488825e-09	-2.340096e+01	-4.284377e+02
2.760000e-06	-3.375663e-06	-7.775984e-09	-2.418408e+01	-5.127022e+02
2.770000e-06	-3.483892e-06	-9.015044e-09	-2.495946e+01	-5.938209e+02
2.780000e-06	-3.591030e-06	-1.019594e-08	-2.572702e+01	-6.711084e+02
2.790000e-06	-3.697046e-06	-1.131028e-08	-2.648655e+01	-7.440853e+02
2.800000e-06	-3.801757e-06	-1.235645e-08	-2.723672e+01	-8.124690e+02
2.810000e-06	-3.905038e-06	-1.333415e-08	-2.797665e+01	-8.761480e+02
2.820000e-06	-4.006917e-06	-1.424357e-08	-2.870654e+01	-9.351462e+02
2.830000e-06	-4.107299e-06	-1.508450e-08	-2.942569e+01	-9.895853e+02
2.840000e-06	-4.206191e-06	-1.585606e-08	-3.013419e+01	-1.039650e+03
2.850000e-06	-4.303749e-06	-1.656167e-08	-3.083311e+01	-1.085563e+03
2.860000e-06	-4.399848e-06	-1.720493e-08	-3.152159e+01	-1.127565e+03
2.870000e-06	-4.494400e-06	-1.779141e-08	-3.219898e+01	-1.165907e+03
2.880000e-06	-4.587307e-06	-1.832636e-08	-3.286459e+01	-1.200848e+03
2.890000e-06	-4.678529e-06	-1.881292e-08	-3.351813e+01	-1.232651e+03
2.900000e-06	-4.768166e-06	-1.925601e-08	-3.416031e+01	-1.261583e+03
2.910000e-06	-4.856103e-06	-1.966032e-08	-3.479031e+01	-1.287913e+03
2.920000e-06	-4.942133e-06	-2.003068e-08	-3.540665e+01	-1.311902e+03
2.930000e-06	-5.026287e-06	-2.037049e-08	-3.600955e+01	-1.333800e+03
2.940000e-06	-5.108719e-06	-2.068135e-08	-3.660011e+01	-1.353834e+03
