# Temperatura_=_60.35
# Concentracion g/m^3_=_26700.0
# C_Vs_to_Am_M_A/Vsm_=_65563218390.804596
# pendiente_HvsI_1/m_=_3716.3
# ordenada_HvsI_A/m_=_1297.0
# frecuencia_Hz_=_302210.9731559694

Tiempo_(s)	Campo_(V.s)	Magnetizacion_(V.s)	Campo_(kA/m)	Magnetizacion_(A/m)
0.000000e+00	-6.635496e-06	-2.677555e-08	-4.768506e+01	-1.751738e+03
1.000000e-08	-6.631514e-06	-2.677290e-08	-4.765645e+01	-1.751543e+03
2.000000e-08	-6.625490e-06	-2.676405e-08	-4.761316e+01	-1.751165e+03
3.000000e-08	-6.617398e-06	-2.675076e-08	-4.755501e+01	-1.750588e+03
4.000000e-08	-6.607009e-06	-2.673321e-08	-4.748035e+01	-1.749801e+03
5.000000e-08	-6.594151e-06	-2.671523e-08	-4.738795e+01	-1.748801e+03
6.000000e-08	-6.578830e-06	-2.669687e-08	-4.727784e+01	-1.747598e+03
7.000000e-08	-6.561255e-06	-2.667644e-08	-4.715154e+01	-1.746218e+03
8.000000e-08	-6.541548e-06	-2.667331e-08	-4.700992e+01	-1.744695e+03
9.000000e-08	-6.519464e-06	-2.669599e-08	-4.685122e+01	-1.743069e+03
1.000000e-07	-6.494730e-06	-2.665572e-08	-4.667347e+01	-1.741378e+03
1.100000e-07	-6.467414e-06	-2.658615e-08	-4.647717e+01	-1.739649e+03
1.200000e-07	-6.437924e-06	-2.654443e-08	-4.626524e+01	-1.737896e+03
1.300000e-07	-6.406583e-06	-2.647547e-08	-4.604001e+01	-1.736110e+03
1.400000e-07	-6.373460e-06	-2.639547e-08	-4.580198e+01	-1.734264e+03
1.500000e-07	-6.338363e-06	-2.645610e-08	-4.554976e+01	-1.732313e+03
1.600000e-07	-6.301217e-06	-2.643857e-08	-4.528282e+01	-1.730206e+03
1.700000e-07	-6.262145e-06	-2.634625e-08	-4.500203e+01	-1.727890e+03
1.800000e-07	-6.220776e-06	-2.638477e-08	-4.470474e+01	-1.725321e+03
1.900000e-07	-6.176913e-06	-2.627578e-08	-4.438952e+01	-1.722472e+03
2.000000e-07	-6.130849e-06	-2.618162e-08	-4.405849e+01	-1.719335e+03
2.100000e-07	-6.082467e-06	-2.616387e-08	-4.371080e+01	-1.715926e+03
2.200000e-07	-6.031488e-06	-2.608098e-08	-4.334445e+01	-1.712274e+03
2.300000e-07	-5.977995e-06	-2.605188e-08	-4.296003e+01	-1.708420e+03
2.400000e-07	-5.922216e-06	-2.599552e-08	-4.255918e+01	-1.704405e+03
2.500000e-07	-5.864186e-06	-2.592739e-08	-4.214215e+01	-1.700265e+03
2.600000e-07	-5.803938e-06	-2.588825e-08	-4.170919e+01	-1.696020e+03
2.700000e-07	-5.741612e-06	-2.579832e-08	-4.126129e+01	-1.691674e+03
2.800000e-07	-5.677235e-06	-2.572666e-08	-4.079866e+01	-1.687215e+03
2.900000e-07	-5.610668e-06	-2.567310e-08	-4.032028e+01	-1.682617e+03
3.000000e-07	-5.541924e-06	-2.560846e-08	-3.982626e+01	-1.677850e+03
3.100000e-07	-5.471183e-06	-2.551481e-08	-3.931789e+01	-1.672885e+03
3.200000e-07	-5.398501e-06	-2.543778e-08	-3.879557e+01	-1.667701e+03
3.300000e-07	-5.323686e-06	-2.536169e-08	-3.825793e+01	-1.662286e+03
3.400000e-07	-5.246623e-06	-2.524348e-08	-3.770413e+01	-1.656645e+03
3.500000e-07	-5.167409e-06	-2.517298e-08	-3.713486e+01	-1.650791e+03
3.600000e-07	-5.086195e-06	-2.509462e-08	-3.655123e+01	-1.644741e+03
3.700000e-07	-5.003199e-06	-2.498986e-08	-3.595479e+01	-1.638516e+03
3.800000e-07	-4.918607e-06	-2.489206e-08	-3.534688e+01	-1.632130e+03
3.900000e-07	-4.832446e-06	-2.478660e-08	-3.472770e+01	-1.625588e+03
4.000000e-07	-4.744666e-06	-2.467757e-08	-3.409688e+01	-1.618886e+03
4.100000e-07	-4.655258e-06	-2.456727e-08	-3.345436e+01	-1.612012e+03
4.200000e-07	-4.564191e-06	-2.447211e-08	-3.279992e+01	-1.604948e+03
4.300000e-07	-4.471544e-06	-2.436865e-08	-3.213412e+01	-1.597676e+03
4.400000e-07	-4.377373e-06	-2.425266e-08	-3.145738e+01	-1.590180e+03
4.500000e-07	-4.281607e-06	-2.413478e-08	-3.076917e+01	-1.582452e+03
4.600000e-07	-4.184247e-06	-2.400984e-08	-3.006951e+01	-1.574488e+03
4.700000e-07	-4.085320e-06	-2.388289e-08	-2.935858e+01	-1.566291e+03
4.800000e-07	-3.984951e-06	-2.374992e-08	-2.863729e+01	-1.557866e+03
4.900000e-07	-3.883204e-06	-2.361953e-08	-2.790611e+01	-1.549215e+03
5.000000e-07	-3.780059e-06	-2.348216e-08	-2.716487e+01	-1.540335e+03
5.100000e-07	-3.675539e-06	-2.333552e-08	-2.641375e+01	-1.531219e+03
5.200000e-07	-3.569660e-06	-2.318866e-08	-2.565286e+01	-1.521851e+03
5.300000e-07	-3.462452e-06	-2.304285e-08	-2.488243e+01	-1.512214e+03
5.400000e-07	-3.353982e-06	-2.289435e-08	-2.410292e+01	-1.502287e+03
5.500000e-07	-3.244312e-06	-2.274112e-08	-2.331479e+01	-1.492056e+03
5.600000e-07	-3.133442e-06	-2.258430e-08	-2.251804e+01	-1.481508e+03
5.700000e-07	-3.021391e-06	-2.241546e-08	-2.171280e+01	-1.470640e+03
5.800000e-07	-2.908152e-06	-2.223747e-08	-2.089903e+01	-1.459452e+03
5.900000e-07	-2.793641e-06	-2.205498e-08	-2.007611e+01	-1.447946e+03
6.000000e-07	-2.677831e-06	-2.187006e-08	-1.924386e+01	-1.436126e+03
6.100000e-07	-2.560918e-06	-2.168345e-08	-1.840368e+01	-1.423989e+03
6.200000e-07	-2.443134e-06	-2.149557e-08	-1.755724e+01	-1.411528e+03
6.300000e-07	-2.324507e-06	-2.130360e-08	-1.670475e+01	-1.398728e+03
6.400000e-07	-2.205031e-06	-2.110167e-08	-1.584615e+01	-1.385571e+03
6.500000e-07	-2.084761e-06	-2.089298e-08	-1.498185e+01	-1.372036e+03
6.600000e-07	-1.963774e-06	-2.067881e-08	-1.411239e+01	-1.358103e+03
6.700000e-07	-1.842101e-06	-2.045880e-08	-1.323800e+01	-1.343758e+03
6.800000e-07	-1.719726e-06	-2.023413e-08	-1.235857e+01	-1.328990e+03
6.900000e-07	-1.596728e-06	-2.000396e-08	-1.147466e+01	-1.313792e+03
7.000000e-07	-1.473136e-06	-1.976787e-08	-1.058649e+01	-1.298160e+03
7.100000e-07	-1.349003e-06	-1.952400e-08	-9.694424e+00	-1.282084e+03
7.200000e-07	-1.224483e-06	-1.927206e-08	-8.799573e+00	-1.265545e+03
7.300000e-07	-1.099618e-06	-1.901154e-08	-7.902253e+00	-1.248516e+03
7.400000e-07	-9.744112e-07	-1.874346e-08	-7.002470e+00	-1.230957e+03
7.500000e-07	-8.488976e-07	-1.846744e-08	-6.100484e+00	-1.212820e+03
7.600000e-07	-7.231346e-07	-1.818302e-08	-5.196706e+00	-1.194054e+03
7.700000e-07	-5.972143e-07	-1.788611e-08	-4.291797e+00	-1.174606e+03
7.800000e-07	-4.711799e-07	-1.757492e-08	-3.386069e+00	-1.154430e+03
7.900000e-07	-3.449316e-07	-1.725252e-08	-2.478803e+00	-1.133487e+03
8.000000e-07	-2.184719e-07	-1.691945e-08	-1.570018e+00	-1.111747e+03
8.100000e-07	-9.194352e-08	-1.657692e-08	-6.607393e-01	-1.089180e+03
8.200000e-07	3.462375e-08	-1.622157e-08	2.488187e-01	-1.065750e+03
8.300000e-07	1.612351e-07	-1.585150e-08	1.158694e+00	-1.041412e+03
8.400000e-07	2.878472e-07	-1.546456e-08	2.068574e+00	-1.016098e+03
8.500000e-07	4.143586e-07	-1.506042e-08	2.977730e+00	-9.897154e+02
8.600000e-07	5.407210e-07	-1.463837e-08	3.885816e+00	-9.621469e+02
8.700000e-07	6.669273e-07	-1.419590e-08	4.792780e+00	-9.332530e+02
8.800000e-07	7.929411e-07	-1.373081e-08	5.698361e+00	-9.028783e+02
8.900000e-07	9.186820e-07	-1.324159e-08	6.601980e+00	-8.708576e+02
9.000000e-07	1.044115e-06	-1.272613e-08	7.503384e+00	-8.370210e+02
9.100000e-07	1.169254e-06	-1.217966e-08	8.402680e+00	-8.011941e+02
9.200000e-07	1.294037e-06	-1.160057e-08	9.299416e+00	-7.631942e+02
9.300000e-07	1.418442e-06	-1.098632e-08	1.019343e+01	-7.228209e+02
9.400000e-07	1.542437e-06	-1.033113e-08	1.108451e+01	-6.798455e+02
9.500000e-07	1.665837e-06	-9.628954e-09	1.197131e+01	-6.340017e+02
9.600000e-07	1.788474e-06	-8.875549e-09	1.285262e+01	-5.849822e+02
9.700000e-07	1.910367e-06	-8.068754e-09	1.372859e+01	-5.324459e+02
9.800000e-07	2.031555e-06	-7.205366e-09	1.459948e+01	-4.760367e+02
9.900000e-07	2.151972e-06	-6.279713e-09	1.546484e+01	-4.154162e+02
1.000000e-06	2.271583e-06	-5.285822e-09	1.632441e+01	-3.503061e+02
1.010000e-06	2.390330e-06	-4.220084e-09	1.717777e+01	-2.805361e+02
1.020000e-06	2.508138e-06	-3.080314e-09	1.802439e+01	-2.060903e+02
1.030000e-06	2.625020e-06	-1.870618e-09	1.886434e+01	-1.271446e+02
1.040000e-06	2.740869e-06	-5.996791e-10	1.969687e+01	-4.408809e+01
1.050000e-06	2.855463e-06	7.222024e-10	2.052039e+01	4.247608e+01
1.060000e-06	2.968817e-06	2.084737e-09	2.133499e+01	1.317525e+02
1.070000e-06	3.081051e-06	3.474080e-09	2.214154e+01	2.227956e+02
1.080000e-06	3.192184e-06	4.874064e-09	2.294019e+01	3.145672e+02
1.090000e-06	3.302210e-06	6.269032e-09	2.373087e+01	4.060031e+02
1.100000e-06	3.411187e-06	7.640339e-09	2.451402e+01	4.960792e+02
1.110000e-06	3.519103e-06	8.974432e-09	2.528954e+01	5.838697e+02
1.120000e-06	3.625708e-06	1.026007e-08	2.605564e+01	6.685909e+02
1.130000e-06	3.730910e-06	1.148803e-08	2.681166e+01	7.496277e+02
1.140000e-06	3.834725e-06	1.265253e-08	2.755772e+01	8.265411e+02
1.150000e-06	3.937180e-06	1.375223e-08	2.829399e+01	8.990590e+02
1.160000e-06	4.038389e-06	1.478430e-08	2.902132e+01	9.670556e+02
1.170000e-06	4.138338e-06	1.574771e-08	2.973959e+01	1.030523e+03
1.180000e-06	4.236702e-06	1.664187e-08	3.044646e+01	1.089541e+03
1.190000e-06	4.333319e-06	1.746978e-08	3.114079e+01	1.144251e+03
1.200000e-06	4.428337e-06	1.823463e-08	3.182362e+01	1.194834e+03
1.210000e-06	4.521863e-06	1.893778e-08	3.249573e+01	1.241495e+03
1.220000e-06	4.613995e-06	1.958575e-08	3.315783e+01	1.284452e+03
1.230000e-06	4.704483e-06	2.018258e-08	3.380811e+01	1.323935e+03
1.240000e-06	4.793069e-06	2.073108e-08	3.444472e+01	1.360178e+03
1.250000e-06	4.879847e-06	2.123344e-08	3.506834e+01	1.393418e+03
1.260000e-06	4.964965e-06	2.169390e-08	3.568003e+01	1.423896e+03
1.270000e-06	5.048517e-06	2.211651e-08	3.628046e+01	1.451846e+03
1.280000e-06	5.130268e-06	2.250392e-08	3.686795e+01	1.477494e+03
1.290000e-06	5.209941e-06	2.285940e-08	3.744051e+01	1.501052e+03
1.300000e-06	5.287669e-06	2.318673e-08	3.799909e+01	1.522716e+03
1.310000e-06	5.363476e-06	2.348943e-08	3.854387e+01	1.542660e+03
1.320000e-06	5.437100e-06	2.376819e-08	3.907296e+01	1.561039e+03
1.330000e-06	5.508620e-06	2.402380e-08	3.958693e+01	1.577988e+03
1.340000e-06	5.578188e-06	2.425917e-08	4.008687e+01	1.593629e+03
1.350000e-06	5.645831e-06	2.447617e-08	4.057297e+01	1.608068e+03
1.360000e-06	5.711398e-06	2.467623e-08	4.104417e+01	1.621403e+03
1.370000e-06	5.774802e-06	2.485981e-08	4.149980e+01	1.633721e+03
1.380000e-06	5.836282e-06	2.503022e-08	4.194162e+01	1.645101e+03
1.390000e-06	5.895859e-06	2.519064e-08	4.236977e+01	1.655616e+03
1.400000e-06	5.953326e-06	2.534116e-08	4.278275e+01	1.665329e+03
1.410000e-06	6.008622e-06	2.548047e-08	4.318012e+01	1.674293e+03
1.420000e-06	6.061701e-06	2.560749e-08	4.356156e+01	1.682556e+03
1.430000e-06	6.112231e-06	2.572441e-08	4.392470e+01	1.690159e+03
1.440000e-06	6.160243e-06	2.583215e-08	4.426973e+01	1.697140e+03
1.450000e-06	6.206086e-06	2.592988e-08	4.459917e+01	1.703535e+03
1.460000e-06	6.249880e-06	2.601794e-08	4.491389e+01	1.709385e+03
1.470000e-06	6.291442e-06	2.609725e-08	4.521257e+01	1.714728e+03
1.480000e-06	6.330667e-06	2.617010e-08	4.549446e+01	1.719607e+03
1.490000e-06	6.367800e-06	2.623675e-08	4.576131e+01	1.724064e+03
1.500000e-06	6.402757e-06	2.629745e-08	4.601252e+01	1.728135e+03
1.510000e-06	6.435337e-06	2.635516e-08	4.624665e+01	1.731855e+03
1.520000e-06	6.465634e-06	2.640875e-08	4.646438e+01	1.735245e+03
1.530000e-06	6.493794e-06	2.645658e-08	4.666674e+01	1.738320e+03
1.540000e-06	6.519586e-06	2.649948e-08	4.685209e+01	1.741088e+03
1.550000e-06	6.542862e-06	2.653903e-08	4.701936e+01	1.743549e+03
1.560000e-06	6.563905e-06	2.657305e-08	4.717059e+01	1.745701e+03
1.570000e-06	6.582697e-06	2.660095e-08	4.730563e+01	1.747547e+03
1.580000e-06	6.599014e-06	2.662323e-08	4.742289e+01	1.749093e+03
1.590000e-06	6.612838e-06	2.663950e-08	4.752223e+01	1.750354e+03
1.600000e-06	6.624136e-06	2.665296e-08	4.760343e+01	1.751353e+03
1.610000e-06	6.632806e-06	2.666409e-08	4.766573e+01	1.752115e+03
1.620000e-06	6.639024e-06	2.667469e-08	4.771042e+01	1.752668e+03
1.630000e-06	6.643045e-06	2.668544e-08	4.773931e+01	1.753038e+03
1.640000e-06	6.644636e-06	2.669371e-08	4.775075e+01	1.753241e+03
1.650000e-06	6.643766e-06	2.669737e-08	4.774449e+01	1.753284e+03
1.660000e-06	6.640792e-06	2.669151e-08	4.772312e+01	1.753163e+03
1.670000e-06	6.635665e-06	2.668533e-08	4.768628e+01	1.752865e+03
1.680000e-06	6.628303e-06	2.667644e-08	4.763337e+01	1.752376e+03
1.690000e-06	6.618791e-06	2.666386e-08	4.756501e+01	1.751679e+03
1.700000e-06	6.607103e-06	2.665255e-08	4.748102e+01	1.750770e+03
1.710000e-06	6.593061e-06	2.664265e-08	4.738011e+01	1.749652e+03
1.720000e-06	6.576809e-06	2.663748e-08	4.726332e+01	1.748345e+03
1.730000e-06	6.558630e-06	2.658661e-08	4.713267e+01	1.746878e+03
1.740000e-06	6.537990e-06	2.651035e-08	4.698435e+01	1.745291e+03
1.750000e-06	6.514109e-06	2.651588e-08	4.681273e+01	1.743623e+03
1.760000e-06	6.487320e-06	2.651687e-08	4.662022e+01	1.741908e+03
1.770000e-06	6.458316e-06	2.649314e-08	4.641179e+01	1.740165e+03
1.780000e-06	6.427331e-06	2.654942e-08	4.618911e+01	1.738396e+03
1.790000e-06	6.394900e-06	2.649167e-08	4.595606e+01	1.736580e+03
1.800000e-06	6.360889e-06	2.638144e-08	4.571164e+01	1.734680e+03
1.810000e-06	6.324479e-06	2.642977e-08	4.544999e+01	1.732647e+03
1.820000e-06	6.285766e-06	2.632946e-08	4.517178e+01	1.730427e+03
1.830000e-06	6.244916e-06	2.631703e-08	4.487822e+01	1.727970e+03
1.840000e-06	6.201877e-06	2.638718e-08	4.456892e+01	1.725243e+03
1.850000e-06	6.156768e-06	2.625488e-08	4.424476e+01	1.722229e+03
1.860000e-06	6.109367e-06	2.626970e-08	4.390412e+01	1.718934e+03
1.870000e-06	6.059712e-06	2.618718e-08	4.354728e+01	1.715381e+03
1.880000e-06	6.007739e-06	2.606764e-08	4.317378e+01	1.711608e+03
1.890000e-06	5.953078e-06	2.606061e-08	4.278097e+01	1.707658e+03
1.900000e-06	5.896064e-06	2.593144e-08	4.237124e+01	1.703568e+03
1.910000e-06	5.836916e-06	2.593595e-08	4.194618e+01	1.699367e+03
1.920000e-06	5.775709e-06	2.589373e-08	4.150632e+01	1.695064e+03
1.930000e-06	5.712392e-06	2.578564e-08	4.105131e+01	1.690656e+03
1.940000e-06	5.646861e-06	2.574004e-08	4.058038e+01	1.686121e+03
1.950000e-06	5.579250e-06	2.561575e-08	4.009450e+01	1.681430e+03
1.960000e-06	5.509350e-06	2.557609e-08	3.959217e+01	1.676553e+03
1.970000e-06	5.437258e-06	2.547661e-08	3.907409e+01	1.671465e+03
1.980000e-06	5.363224e-06	2.541312e-08	3.854206e+01	1.666149e+03
1.990000e-06	5.287226e-06	2.535964e-08	3.799591e+01	1.660604e+03
2.000000e-06	5.209121e-06	2.523140e-08	3.743462e+01	1.654839e+03
2.010000e-06	5.128964e-06	2.516725e-08	3.685858e+01	1.648871e+03
2.020000e-06	5.047026e-06	2.504774e-08	3.626975e+01	1.642719e+03
2.030000e-06	4.963346e-06	2.497272e-08	3.566839e+01	1.636400e+03
2.040000e-06	4.877808e-06	2.488353e-08	3.505369e+01	1.629925e+03
2.050000e-06	4.790386e-06	2.478070e-08	3.442544e+01	1.623293e+03
2.060000e-06	4.701331e-06	2.468138e-08	3.378546e+01	1.616495e+03
2.070000e-06	4.610832e-06	2.455073e-08	3.313510e+01	1.609514e+03
2.080000e-06	4.518776e-06	2.445044e-08	3.247355e+01	1.602333e+03
2.090000e-06	4.425120e-06	2.432162e-08	3.180051e+01	1.594935e+03
2.100000e-06	4.329847e-06	2.421475e-08	3.111584e+01	1.587307e+03
2.110000e-06	4.233050e-06	2.410048e-08	3.042022e+01	1.579444e+03
2.120000e-06	4.134880e-06	2.398520e-08	2.971474e+01	1.571346e+03
2.130000e-06	4.035291e-06	2.385862e-08	2.899905e+01	1.563019e+03
2.140000e-06	3.934186e-06	2.372045e-08	2.827248e+01	1.554464e+03
2.150000e-06	3.831458e-06	2.359700e-08	2.753424e+01	1.545683e+03
2.160000e-06	3.727168e-06	2.345881e-08	2.678477e+01	1.536670e+03
2.170000e-06	3.621601e-06	2.332015e-08	2.602613e+01	1.527412e+03
2.180000e-06	3.514906e-06	2.317146e-08	2.525938e+01	1.517892e+03
2.190000e-06	3.407041e-06	2.302510e-08	2.448423e+01	1.508092e+03
2.200000e-06	3.297965e-06	2.286498e-08	2.370036e+01	1.497993e+03
2.210000e-06	3.187551e-06	2.270465e-08	2.290689e+01	1.487582e+03
2.220000e-06	3.075844e-06	2.254604e-08	2.210412e+01	1.476851e+03
2.230000e-06	2.962911e-06	2.238731e-08	2.129254e+01	1.465799e+03
2.240000e-06	2.848835e-06	2.222071e-08	2.047276e+01	1.454429e+03
2.250000e-06	2.733731e-06	2.204311e-08	1.964558e+01	1.442744e+03
2.260000e-06	2.617475e-06	2.185830e-08	1.881012e+01	1.430743e+03
2.270000e-06	2.500061e-06	2.166594e-08	1.796634e+01	1.418422e+03
2.280000e-06	2.381590e-06	2.147524e-08	1.711496e+01	1.405770e+03
2.290000e-06	2.262179e-06	2.128044e-08	1.625684e+01	1.392769e+03
2.300000e-06	2.141932e-06	2.108252e-08	1.539269e+01	1.379398e+03
2.310000e-06	2.020941e-06	2.087274e-08	1.452321e+01	1.365637e+03
2.320000e-06	1.899351e-06	2.065468e-08	1.364942e+01	1.351470e+03
2.330000e-06	1.777206e-06	2.042705e-08	1.277164e+01	1.336884e+03
2.340000e-06	1.654475e-06	2.019507e-08	1.188966e+01	1.321872e+03
2.350000e-06	1.531175e-06	1.996084e-08	1.100357e+01	1.306427e+03
2.360000e-06	1.407422e-06	1.972154e-08	1.011424e+01	1.290542e+03
2.370000e-06	1.283225e-06	1.947232e-08	9.221717e+00	1.274204e+03
2.380000e-06	1.158568e-06	1.921224e-08	8.325889e+00	1.257389e+03
2.390000e-06	1.033465e-06	1.894700e-08	7.426850e+00	1.240063e+03
2.400000e-06	9.079879e-07	1.867357e-08	6.525128e+00	1.222180e+03
2.410000e-06	7.822738e-07	1.839337e-08	5.621701e+00	1.203690e+03
2.420000e-06	6.562908e-07	1.810302e-08	4.716342e+00	1.184540e+03
2.430000e-06	5.300572e-07	1.780062e-08	3.809182e+00	1.164681e+03
2.440000e-06	4.036260e-07	1.748491e-08	2.900602e+00	1.144071e+03
2.450000e-06	2.769993e-07	1.715754e-08	1.990617e+00	1.122677e+03
2.460000e-06	1.502418e-07	1.681933e-08	1.079692e+00	1.100468e+03
2.470000e-06	2.340292e-08	1.646854e-08	1.681818e-01	1.077412e+03
2.480000e-06	-1.034591e-07	1.610475e-08	-7.434947e-01	1.053471e+03
2.490000e-06	-2.303605e-07	1.572663e-08	-1.655454e+00	1.028585e+03
2.500000e-06	-3.572313e-07	1.533384e-08	-2.567193e+00	1.002673e+03
2.510000e-06	-4.839412e-07	1.492180e-08	-3.477776e+00	9.756284e+02
2.520000e-06	-6.105078e-07	1.448775e-08	-4.387329e+00	9.473207e+02
2.530000e-06	-7.368888e-07	1.403354e-08	-5.295549e+00	9.176004e+02
2.540000e-06	-8.630170e-07	1.355563e-08	-6.201951e+00	8.863057e+02
2.550000e-06	-9.888435e-07	1.304994e-08	-7.106185e+00	8.532683e+02
2.560000e-06	-1.114284e-06	1.251759e-08	-8.007643e+00	8.183161e+02
2.570000e-06	-1.239272e-06	1.195626e-08	-8.905852e+00	7.812708e+02
2.580000e-06	-1.363827e-06	1.135919e-08	-9.800952e+00	7.419407e+02
2.590000e-06	-1.487854e-06	1.072289e-08	-1.069226e+01	7.001107e+02
2.600000e-06	-1.611230e-06	1.004438e-08	-1.157888e+01	6.555314e+02
2.610000e-06	-1.733983e-06	9.318667e-09	-1.246103e+01	6.079130e+02
2.620000e-06	-1.856115e-06	8.540903e-09	-1.333871e+01	5.569272e+02
2.630000e-06	-1.977619e-06	7.705436e-09	-1.421188e+01	5.022211e+02
2.640000e-06	-2.098507e-06	6.807824e-09	-1.508063e+01	4.434441e+02
2.650000e-06	-2.218608e-06	5.845975e-09	-1.594372e+01	3.802864e+02
2.660000e-06	-2.337790e-06	4.818630e-09	-1.680020e+01	3.125254e+02
2.670000e-06	-2.455985e-06	3.721862e-09	-1.764959e+01	2.400738e+02
2.680000e-06	-2.573128e-06	2.552994e-09	-1.849143e+01	1.630216e+02
2.690000e-06	-2.689256e-06	1.315777e-09	-1.932596e+01	8.166524e+01
2.700000e-06	-2.804261e-06	1.744966e-11	-2.015243e+01	-3.482600e+00
2.710000e-06	-2.918072e-06	-1.329491e-09	-2.097031e+01	-9.170489e+01
2.720000e-06	-3.030645e-06	-2.710154e-09	-2.177931e+01	-1.821140e+02
2.730000e-06	-3.141989e-06	-4.109505e-09	-2.257947e+01	-2.737038e+02
2.740000e-06	-3.252199e-06	-5.511456e-09	-2.337148e+01	-3.654128e+02
2.750000e-06	-3.361281e-06	-6.899445e-09	-2.415538e+01	-4.561920e+02
2.760000e-06	-3.469286e-06	-8.257904e-09	-2.493154e+01	-5.450671e+02
2.770000e-06	-3.576181e-06	-9.573997e-09	-2.569972e+01	-6.311893e+02
2.780000e-06	-3.681860e-06	-1.083703e-08	-2.645918e+01	-7.138691e+02
2.790000e-06	-3.786268e-06	-1.204139e-08	-2.720949e+01	-7.925924e+02
2.800000e-06	-3.889309e-06	-1.318337e-08	-2.794997e+01	-8.670175e+02
2.810000e-06	-3.990901e-06	-1.425957e-08	-2.868005e+01	-9.369590e+02
2.820000e-06	-4.091021e-06	-1.526708e-08	-2.939955e+01	-1.002362e+03
2.830000e-06	-4.189720e-06	-1.620506e-08	-3.010884e+01	-1.063273e+03
2.840000e-06	-4.287062e-06	-1.707414e-08	-3.080837e+01	-1.119809e+03
2.850000e-06	-4.382999e-06	-1.787514e-08	-3.149781e+01	-1.172137e+03
2.860000e-06	-4.477338e-06	-1.861445e-08	-3.217577e+01	-1.220452e+03
2.870000e-06	-4.569980e-06	-1.929845e-08	-3.284152e+01	-1.264969e+03
2.880000e-06	-4.660988e-06	-1.992924e-08	-3.349554e+01	-1.305913e+03
2.890000e-06	-4.750381e-06	-2.050829e-08	-3.413795e+01	-1.343515e+03
2.900000e-06	-4.838095e-06	-2.103910e-08	-3.476829e+01	-1.378013e+03
2.910000e-06	-4.923913e-06	-2.152508e-08	-3.538501e+01	-1.409646e+03
2.920000e-06	-5.007897e-06	-2.197021e-08	-3.598856e+01	-1.438651e+03
2.930000e-06	-5.090225e-06	-2.238048e-08	-3.658019e+01	-1.465258e+03
2.940000e-06	-5.170866e-06	-2.275915e-08	-3.715971e+01	-1.489687e+03
