# Temperatura_=_69.91
# Concentracion g/m^3_=_26700.0
# C_Vs_to_Am_M_A/Vsm_=_65563218390.804596
# pendiente_HvsI_1/m_=_3716.3
# ordenada_HvsI_A/m_=_1297.0
# frecuencia_Hz_=_301828.7978855495

Tiempo_(s)	Campo_(V.s)	Magnetizacion_(V.s)	Campo_(kA/m)	Magnetizacion_(A/m)
0.000000e+00	-5.222572e-06	-2.120768e-08	-3.828607e+01	-1.385970e+03
1.000000e-08	-5.219947e-06	-2.120784e-08	-3.826683e+01	-1.385977e+03
2.000000e-08	-5.215536e-06	-2.120281e-08	-3.823449e+01	-1.385791e+03
3.000000e-08	-5.209572e-06	-2.119601e-08	-3.819077e+01	-1.385409e+03
4.000000e-08	-5.202078e-06	-2.118687e-08	-3.813583e+01	-1.384821e+03
5.000000e-08	-5.192815e-06	-2.117355e-08	-3.806793e+01	-1.384017e+03
6.000000e-08	-5.181565e-06	-2.115805e-08	-3.798545e+01	-1.382987e+03
7.000000e-08	-5.168484e-06	-2.113958e-08	-3.788956e+01	-1.381730e+03
8.000000e-08	-5.153434e-06	-2.112048e-08	-3.777923e+01	-1.380255e+03
9.000000e-08	-5.136214e-06	-2.111888e-08	-3.765299e+01	-1.378582e+03
1.000000e-07	-5.116957e-06	-2.109989e-08	-3.751182e+01	-1.376742e+03
1.100000e-07	-5.095819e-06	-2.104429e-08	-3.735686e+01	-1.374772e+03
1.200000e-07	-5.073023e-06	-2.099750e-08	-3.718974e+01	-1.372708e+03
1.300000e-07	-5.048806e-06	-2.093866e-08	-3.701221e+01	-1.370581e+03
1.400000e-07	-5.023111e-06	-2.088450e-08	-3.682385e+01	-1.368409e+03
1.500000e-07	-4.995752e-06	-2.090906e-08	-3.662328e+01	-1.366193e+03
1.600000e-07	-4.966801e-06	-2.085279e-08	-3.641105e+01	-1.363917e+03
1.700000e-07	-4.936482e-06	-2.077254e-08	-3.618878e+01	-1.361550e+03
1.800000e-07	-4.904419e-06	-2.078742e-08	-3.595373e+01	-1.359051e+03
1.900000e-07	-4.870255e-06	-2.069036e-08	-3.570328e+01	-1.356376e+03
2.000000e-07	-4.834446e-06	-2.060900e-08	-3.544076e+01	-1.353486e+03
2.100000e-07	-4.797103e-06	-2.063554e-08	-3.516701e+01	-1.350352e+03
2.200000e-07	-4.758099e-06	-2.057685e-08	-3.488107e+01	-1.346959e+03
2.300000e-07	-4.717340e-06	-2.050792e-08	-3.458227e+01	-1.343308e+03
2.400000e-07	-4.674616e-06	-2.044704e-08	-3.426907e+01	-1.339410e+03
2.500000e-07	-4.630099e-06	-2.033205e-08	-3.394272e+01	-1.335290e+03
2.600000e-07	-4.583910e-06	-2.027611e-08	-3.360411e+01	-1.330970e+03
2.700000e-07	-4.535899e-06	-2.023405e-08	-3.325215e+01	-1.326475e+03
2.800000e-07	-4.485859e-06	-2.016616e-08	-3.288532e+01	-1.321821e+03
2.900000e-07	-4.433790e-06	-2.008833e-08	-3.250361e+01	-1.317016e+03
3.000000e-07	-4.379990e-06	-1.998535e-08	-3.210920e+01	-1.312063e+03
3.100000e-07	-4.324695e-06	-1.990513e-08	-3.170384e+01	-1.306957e+03
3.200000e-07	-4.267719e-06	-1.984996e-08	-3.128616e+01	-1.301690e+03
3.300000e-07	-4.208976e-06	-1.976997e-08	-3.085552e+01	-1.296256e+03
3.400000e-07	-4.148740e-06	-1.966526e-08	-3.041393e+01	-1.290650e+03
3.500000e-07	-4.087120e-06	-1.957861e-08	-2.996221e+01	-1.284871e+03
3.600000e-07	-4.024225e-06	-1.949040e-08	-2.950113e+01	-1.278920e+03
3.700000e-07	-3.960022e-06	-1.938592e-08	-2.903046e+01	-1.272801e+03
3.800000e-07	-3.894119e-06	-1.931108e-08	-2.854734e+01	-1.266517e+03
3.900000e-07	-3.826566e-06	-1.922939e-08	-2.805211e+01	-1.260069e+03
4.000000e-07	-3.757714e-06	-1.910629e-08	-2.754737e+01	-1.253456e+03
4.100000e-07	-3.687666e-06	-1.898783e-08	-2.703385e+01	-1.246672e+03
4.200000e-07	-3.616528e-06	-1.888277e-08	-2.651235e+01	-1.239713e+03
4.300000e-07	-3.544228e-06	-1.877886e-08	-2.598233e+01	-1.232571e+03
4.400000e-07	-3.470403e-06	-1.866751e-08	-2.544112e+01	-1.225244e+03
4.500000e-07	-3.394999e-06	-1.855260e-08	-2.488834e+01	-1.217728e+03
4.600000e-07	-3.318300e-06	-1.842878e-08	-2.432608e+01	-1.210024e+03
4.700000e-07	-3.240372e-06	-1.829993e-08	-2.375479e+01	-1.202134e+03
4.800000e-07	-3.161063e-06	-1.818345e-08	-2.317338e+01	-1.194060e+03
4.900000e-07	-3.080418e-06	-1.806742e-08	-2.258219e+01	-1.185802e+03
5.000000e-07	-2.998665e-06	-1.793963e-08	-2.198287e+01	-1.177358e+03
5.100000e-07	-2.915934e-06	-1.779900e-08	-2.137638e+01	-1.168722e+03
5.200000e-07	-2.832378e-06	-1.765727e-08	-2.076383e+01	-1.159885e+03
5.300000e-07	-2.748072e-06	-1.751633e-08	-2.014580e+01	-1.150833e+03
5.400000e-07	-2.662864e-06	-1.737075e-08	-1.952115e+01	-1.141557e+03
5.500000e-07	-2.576671e-06	-1.722675e-08	-1.888928e+01	-1.132045e+03
5.600000e-07	-2.489607e-06	-1.707958e-08	-1.825102e+01	-1.122293e+03
5.700000e-07	-2.401687e-06	-1.692117e-08	-1.760649e+01	-1.112296e+03
5.800000e-07	-2.312762e-06	-1.675750e-08	-1.695459e+01	-1.102056e+03
5.900000e-07	-2.222765e-06	-1.659916e-08	-1.629483e+01	-1.091576e+03
6.000000e-07	-2.131832e-06	-1.644051e-08	-1.562822e+01	-1.080858e+03
6.100000e-07	-2.040164e-06	-1.627402e-08	-1.495621e+01	-1.069902e+03
6.200000e-07	-1.947846e-06	-1.610205e-08	-1.427943e+01	-1.058704e+03
6.300000e-07	-1.854861e-06	-1.592344e-08	-1.359777e+01	-1.047257e+03
6.400000e-07	-1.761213e-06	-1.574047e-08	-1.291125e+01	-1.035549e+03
6.500000e-07	-1.666948e-06	-1.555750e-08	-1.222021e+01	-1.023565e+03
6.600000e-07	-1.572175e-06	-1.537189e-08	-1.152543e+01	-1.011291e+03
6.700000e-07	-1.476927e-06	-1.517905e-08	-1.082718e+01	-9.987137e+02
6.800000e-07	-1.381186e-06	-1.497875e-08	-1.012532e+01	-9.858232e+02
6.900000e-07	-1.284933e-06	-1.477582e-08	-9.419694e+00	-9.726131e+02
7.000000e-07	-1.188136e-06	-1.457126e-08	-8.710087e+00	-9.590799e+02
7.100000e-07	-1.090864e-06	-1.436295e-08	-7.996997e+00	-9.452214e+02
7.200000e-07	-9.931333e-07	-1.414969e-08	-7.280546e+00	-9.310350e+02
7.300000e-07	-8.949086e-07	-1.392881e-08	-6.560471e+00	-9.165150e+02
7.400000e-07	-7.962760e-07	-1.369932e-08	-5.837407e+00	-9.016514e+02
7.500000e-07	-6.973487e-07	-1.346404e-08	-5.112183e+00	-8.864287e+02
7.600000e-07	-5.981942e-07	-1.322583e-08	-4.385292e+00	-8.708258e+02
7.700000e-07	-4.988370e-07	-1.298305e-08	-3.656917e+00	-8.548170e+02
7.800000e-07	-3.993231e-07	-1.273364e-08	-2.927392e+00	-8.383732e+02
7.900000e-07	-2.997350e-07	-1.247664e-08	-2.197323e+00	-8.214633e+02
8.000000e-07	-2.000825e-07	-1.221268e-08	-1.466781e+00	-8.040556e+02
8.100000e-07	-1.003683e-07	-1.194095e-08	-7.357883e-01	-7.861189e+02
8.200000e-07	-5.939011e-10	-1.165824e-08	-4.353821e-03	-7.676220e+02
8.300000e-07	9.919509e-08	-1.136490e-08	7.271878e-01	-7.485337e+02
8.400000e-07	1.989664e-07	-1.106330e-08	1.458600e+00	-7.288216e+02
8.500000e-07	2.987131e-07	-1.075281e-08	2.189832e+00	-7.084507e+02
8.600000e-07	3.983974e-07	-1.043231e-08	2.920606e+00	-6.873820e+02
8.700000e-07	4.980130e-07	-1.010152e-08	3.650876e+00	-6.655714e+02
8.800000e-07	5.975291e-07	-9.759225e-09	4.380417e+00	-6.429686e+02
8.900000e-07	6.969430e-07	-9.402362e-09	5.109208e+00	-6.195160e+02
9.000000e-07	7.961431e-07	-9.028318e-09	5.836433e+00	-5.951485e+02
9.100000e-07	8.950309e-07	-8.637323e-09	6.561368e+00	-5.697925e+02
9.200000e-07	9.935223e-07	-8.232177e-09	7.283397e+00	-5.433661e+02
9.300000e-07	1.091490e-06	-7.813056e-09	8.001586e+00	-5.157785e+02
9.400000e-07	1.188897e-06	-7.374174e-09	8.715668e+00	-4.869303e+02
9.500000e-07	1.285699e-06	-6.912471e-09	9.425308e+00	-4.567136e+02
9.600000e-07	1.381889e-06	-6.429540e-09	1.013047e+01	-4.250135e+02
9.700000e-07	1.477518e-06	-5.923803e-09	1.083152e+01	-3.917093e+02
9.800000e-07	1.572602e-06	-5.389946e-09	1.152856e+01	-3.566771e+02
9.900000e-07	1.667177e-06	-4.826192e-09	1.222188e+01	-3.197939e+02
1.000000e-06	1.761201e-06	-4.232548e-09	1.291116e+01	-2.809418e+02
1.010000e-06	1.854634e-06	-3.607553e-09	1.359611e+01	-2.400148e+02
1.020000e-06	1.947454e-06	-2.948754e-09	1.427656e+01	-1.969257e+02
1.030000e-06	2.039639e-06	-2.257871e-09	1.495235e+01	-1.516152e+02
1.040000e-06	2.131251e-06	-1.535318e-09	1.562395e+01	-1.040612e+02
1.050000e-06	2.222214e-06	-7.765631e-10	1.629080e+01	-5.428821e+01
1.060000e-06	2.312245e-06	1.744395e-11	1.695080e+01	-2.376697e+00
1.070000e-06	2.401101e-06	8.426263e-10	1.760219e+01	5.152990e+01
1.080000e-06	2.488922e-06	1.693829e-09	1.824600e+01	1.072207e+02
1.090000e-06	2.575968e-06	2.565353e-09	1.888413e+01	1.644169e+02
1.100000e-06	2.662230e-06	3.453211e-09	1.951650e+01	2.227761e+02
1.110000e-06	2.747590e-06	4.352547e-09	2.014227e+01	2.819017e+02
1.120000e-06	2.832063e-06	5.258469e-09	2.076152e+01	3.413568e+02
1.130000e-06	2.915742e-06	6.163449e-09	2.137497e+01	4.006823e+02
1.140000e-06	2.998549e-06	7.059071e-09	2.198202e+01	4.594170e+02
1.150000e-06	3.080194e-06	7.937475e-09	2.258055e+01	5.171181e+02
1.160000e-06	3.160651e-06	8.793606e-09	2.317037e+01	5.733798e+02
1.170000e-06	3.240045e-06	9.621900e-09	2.375240e+01	6.278486e+02
1.180000e-06	3.318250e-06	1.041702e-08	2.432571e+01	6.802338e+02
1.190000e-06	3.395234e-06	1.117622e-08	2.489007e+01	7.303123e+02
1.200000e-06	3.471033e-06	1.189842e-08	2.544574e+01	7.779283e+02
1.210000e-06	3.545499e-06	1.258273e-08	2.599164e+01	8.229883e+02
1.220000e-06	3.618360e-06	1.322677e-08	2.652578e+01	8.654535e+02
1.230000e-06	3.689782e-06	1.382983e-08	2.704937e+01	9.053303e+02
1.240000e-06	3.759971e-06	1.439306e-08	2.756391e+01	9.426609e+02
1.250000e-06	3.828846e-06	1.491740e-08	2.806883e+01	9.775149e+02
1.260000e-06	3.896529e-06	1.540443e-08	2.856501e+01	1.009982e+03
1.270000e-06	3.962863e-06	1.585906e-08	2.905129e+01	1.040169e+03
1.280000e-06	4.027515e-06	1.628310e-08	2.952525e+01	1.068194e+03
1.290000e-06	4.090604e-06	1.667653e-08	2.998775e+01	1.094181e+03
1.300000e-06	4.152340e-06	1.704110e-08	3.044032e+01	1.118264e+03
1.310000e-06	4.212765e-06	1.738007e-08	3.088329e+01	1.140578e+03
1.320000e-06	4.271897e-06	1.769579e-08	3.131678e+01	1.161257e+03
1.330000e-06	4.329338e-06	1.798612e-08	3.173788e+01	1.180429e+03
1.340000e-06	4.384949e-06	1.825110e-08	3.214555e+01	1.198218e+03
1.350000e-06	4.438986e-06	1.849738e-08	3.254169e+01	1.214731e+03
1.360000e-06	4.491431e-06	1.872874e-08	3.292616e+01	1.230069e+03
1.370000e-06	4.541974e-06	1.894310e-08	3.329669e+01	1.244317e+03
1.380000e-06	4.590507e-06	1.914088e-08	3.365248e+01	1.257548e+03
1.390000e-06	4.637387e-06	1.932515e-08	3.399615e+01	1.269829e+03
1.400000e-06	4.682716e-06	1.949742e-08	3.432845e+01	1.281218e+03
1.410000e-06	4.726535e-06	1.965903e-08	3.464969e+01	1.291770e+03
1.420000e-06	4.768693e-06	1.980938e-08	3.495874e+01	1.301536e+03
1.430000e-06	4.808974e-06	1.994824e-08	3.525403e+01	1.310566e+03
1.440000e-06	4.847568e-06	2.007629e-08	3.553696e+01	1.318911e+03
1.450000e-06	4.884574e-06	2.019289e-08	3.580825e+01	1.326617e+03
1.460000e-06	4.920045e-06	2.029895e-08	3.606828e+01	1.333728e+03
1.470000e-06	4.953730e-06	2.039599e-08	3.631522e+01	1.340285e+03
1.480000e-06	4.985465e-06	2.048553e-08	3.654787e+01	1.346327e+03
1.490000e-06	5.015508e-06	2.056900e-08	3.676811e+01	1.351887e+03
1.500000e-06	5.044002e-06	2.064678e-08	3.697700e+01	1.356994e+03
1.510000e-06	5.070759e-06	2.071996e-08	3.717315e+01	1.361677e+03
1.520000e-06	5.095489e-06	2.078789e-08	3.735444e+01	1.365959e+03
1.530000e-06	5.118274e-06	2.084847e-08	3.752147e+01	1.369863e+03
1.540000e-06	5.139354e-06	2.090258e-08	3.767601e+01	1.373406e+03
1.550000e-06	5.158789e-06	2.095051e-08	3.781849e+01	1.376603e+03
1.560000e-06	5.176340e-06	2.099218e-08	3.794715e+01	1.379467e+03
1.570000e-06	5.191878e-06	2.102847e-08	3.806106e+01	1.382006e+03
1.580000e-06	5.205560e-06	2.105965e-08	3.816136e+01	1.384228e+03
1.590000e-06	5.217263e-06	2.108718e-08	3.824715e+01	1.386139e+03
1.600000e-06	5.226750e-06	2.111112e-08	3.831670e+01	1.387749e+03
1.610000e-06	5.234255e-06	2.113135e-08	3.837172e+01	1.389069e+03
1.620000e-06	5.239991e-06	2.114802e-08	3.841377e+01	1.390114e+03
1.630000e-06	5.243984e-06	2.116167e-08	3.844304e+01	1.390903e+03
1.640000e-06	5.246132e-06	2.117274e-08	3.845879e+01	1.391456e+03
1.650000e-06	5.246297e-06	2.118015e-08	3.846000e+01	1.391792e+03
1.660000e-06	5.244674e-06	2.118040e-08	3.844810e+01	1.391924e+03
1.670000e-06	5.241486e-06	2.117498e-08	3.842473e+01	1.391863e+03
1.680000e-06	5.236670e-06	2.116953e-08	3.838942e+01	1.391608e+03
1.690000e-06	5.229953e-06	2.116232e-08	3.834018e+01	1.391154e+03
1.700000e-06	5.221457e-06	2.115271e-08	3.827790e+01	1.390491e+03
1.710000e-06	5.211460e-06	2.114322e-08	3.820461e+01	1.389608e+03
1.720000e-06	5.199839e-06	2.113324e-08	3.811942e+01	1.388497e+03
1.730000e-06	5.186356e-06	2.111630e-08	3.802058e+01	1.387161e+03
1.740000e-06	5.170903e-06	2.106031e-08	3.790729e+01	1.385613e+03
1.750000e-06	5.153272e-06	2.101847e-08	3.777804e+01	1.383877e+03
1.760000e-06	5.133180e-06	2.101792e-08	3.763075e+01	1.381987e+03
1.770000e-06	5.110695e-06	2.100067e-08	3.746592e+01	1.379980e+03
1.780000e-06	5.086580e-06	2.100847e-08	3.728913e+01	1.377891e+03
1.790000e-06	5.061697e-06	2.095529e-08	3.710672e+01	1.375747e+03
1.800000e-06	5.035757e-06	2.085613e-08	3.691655e+01	1.373560e+03
1.810000e-06	5.007942e-06	2.090427e-08	3.671264e+01	1.371326e+03
1.820000e-06	4.978350e-06	2.087125e-08	3.649571e+01	1.369022e+03
1.830000e-06	4.947058e-06	2.078292e-08	3.626631e+01	1.366614e+03
1.840000e-06	4.913786e-06	2.083634e-08	3.602240e+01	1.364058e+03
1.850000e-06	4.878892e-06	2.075166e-08	3.576660e+01	1.361311e+03
1.860000e-06	4.842347e-06	2.064099e-08	3.549869e+01	1.358337e+03
1.870000e-06	4.803783e-06	2.064534e-08	3.521598e+01	1.355112e+03
1.880000e-06	4.763512e-06	2.055371e-08	3.492076e+01	1.351627e+03
1.890000e-06	4.721578e-06	2.053546e-08	3.461334e+01	1.347886e+03
1.900000e-06	4.677976e-06	2.052647e-08	3.429370e+01	1.343907e+03
1.910000e-06	4.632802e-06	2.040839e-08	3.396254e+01	1.339713e+03
1.920000e-06	4.585876e-06	2.036176e-08	3.361853e+01	1.335328e+03
1.930000e-06	4.537274e-06	2.027441e-08	3.326223e+01	1.330775e+03
1.940000e-06	4.486951e-06	2.021429e-08	3.289332e+01	1.326067e+03
1.950000e-06	4.434766e-06	2.018161e-08	3.251076e+01	1.321211e+03
1.960000e-06	4.380686e-06	2.006467e-08	3.211430e+01	1.316204e+03
1.970000e-06	4.324782e-06	1.999386e-08	3.170448e+01	1.311042e+03
1.980000e-06	4.267342e-06	1.991186e-08	3.128339e+01	1.305717e+03
1.990000e-06	4.208461e-06	1.982060e-08	3.085174e+01	1.300222e+03
2.000000e-06	4.148156e-06	1.974776e-08	3.040965e+01	1.294555e+03
2.010000e-06	4.086361e-06	1.965661e-08	2.995664e+01	1.288715e+03
2.020000e-06	4.022900e-06	1.957857e-08	2.949142e+01	1.282704e+03
2.030000e-06	3.957922e-06	1.944731e-08	2.901507e+01	1.276526e+03
2.040000e-06	3.891576e-06	1.935070e-08	2.852870e+01	1.270185e+03
2.050000e-06	3.823949e-06	1.928356e-08	2.803293e+01	1.263678e+03
2.060000e-06	3.754979e-06	1.916953e-08	2.752732e+01	1.257005e+03
2.070000e-06	3.684477e-06	1.906872e-08	2.701048e+01	1.250160e+03
2.080000e-06	3.612588e-06	1.895738e-08	2.648347e+01	1.243137e+03
2.090000e-06	3.539462e-06	1.885328e-08	2.594738e+01	1.235930e+03
2.100000e-06	3.465115e-06	1.874303e-08	2.540236e+01	1.228536e+03
2.110000e-06	3.389589e-06	1.863050e-08	2.484868e+01	1.220953e+03
2.120000e-06	3.312688e-06	1.852277e-08	2.428493e+01	1.213183e+03
2.130000e-06	3.234298e-06	1.838720e-08	2.371026e+01	1.205227e+03
2.140000e-06	3.154585e-06	1.826044e-08	2.312590e+01	1.197088e+03
2.150000e-06	3.073724e-06	1.813559e-08	2.253311e+01	1.188765e+03
2.160000e-06	2.991829e-06	1.800723e-08	2.193275e+01	1.180255e+03
2.170000e-06	2.908955e-06	1.787348e-08	2.132521e+01	1.171548e+03
2.180000e-06	2.825188e-06	1.774535e-08	2.071112e+01	1.162636e+03
2.190000e-06	2.740451e-06	1.762017e-08	2.008993e+01	1.153506e+03
2.200000e-06	2.654541e-06	1.747189e-08	1.946013e+01	1.144148e+03
2.210000e-06	2.567437e-06	1.732420e-08	1.882158e+01	1.134551e+03
2.220000e-06	2.479315e-06	1.718043e-08	1.817557e+01	1.124712e+03
2.230000e-06	2.390350e-06	1.702958e-08	1.752338e+01	1.114629e+03
2.240000e-06	2.300665e-06	1.686716e-08	1.686591e+01	1.104303e+03
2.250000e-06	2.210261e-06	1.670589e-08	1.620317e+01	1.093738e+03
2.260000e-06	2.119121e-06	1.654616e-08	1.553503e+01	1.082936e+03
2.270000e-06	2.027310e-06	1.637604e-08	1.486198e+01	1.071895e+03
2.280000e-06	1.934802e-06	1.620516e-08	1.418381e+01	1.060610e+03
2.290000e-06	1.841551e-06	1.603432e-08	1.350020e+01	1.049072e+03
2.300000e-06	1.747561e-06	1.585920e-08	1.281117e+01	1.037268e+03
2.310000e-06	1.652838e-06	1.567460e-08	1.211677e+01	1.025182e+03
2.320000e-06	1.557423e-06	1.548085e-08	1.141729e+01	1.012802e+03
2.330000e-06	1.461471e-06	1.528462e-08	1.071388e+01	1.000114e+03
2.340000e-06	1.365089e-06	1.508743e-08	1.000731e+01	9.871105e+02
2.350000e-06	1.268347e-06	1.488603e-08	9.298107e+00	9.737859e+02
2.360000e-06	1.171316e-06	1.467825e-08	8.586780e+00	9.601373e+02
2.370000e-06	1.073900e-06	1.446439e-08	7.872635e+00	9.461626e+02
2.380000e-06	9.760612e-07	1.424667e-08	7.155392e+00	9.318585e+02
2.390000e-06	8.779022e-07	1.402668e-08	6.435800e+00	9.172177e+02
2.400000e-06	7.794663e-07	1.379890e-08	5.714177e+00	9.022285e+02
2.410000e-06	6.808363e-07	1.356296e-08	4.991132e+00	8.868733e+02
2.420000e-06	5.820491e-07	1.332182e-08	4.266935e+00	8.711292e+02
2.430000e-06	4.830804e-07	1.307266e-08	3.541406e+00	8.549691e+02
2.440000e-06	3.840140e-07	1.281674e-08	2.815162e+00	8.383630e+02
2.450000e-06	2.848071e-07	1.255651e-08	2.087888e+00	8.212795e+02
2.460000e-06	1.854478e-07	1.229027e-08	1.359497e+00	8.036870e+02
2.470000e-06	8.602347e-08	1.201356e-08	6.306281e-01	7.855544e+02
2.480000e-06	-1.342706e-08	1.172675e-08	-9.843219e-02	7.668505e+02
2.490000e-06	-1.128687e-07	1.143183e-08	-8.274275e-01	7.475438e+02
2.500000e-06	-2.122760e-07	1.112745e-08	-1.556171e+00	7.276011e+02
2.510000e-06	-3.116229e-07	1.081382e-08	-2.284471e+00	7.069862e+02
2.520000e-06	-4.108877e-07	1.048917e-08	-3.012170e+00	6.856585e+02
2.530000e-06	-5.100344e-07	1.015080e-08	-3.739003e+00	6.635717e+02
2.540000e-06	-6.090160e-07	9.799285e-09	-4.464626e+00	6.406730e+02
2.550000e-06	-7.078087e-07	9.435586e-09	-5.188864e+00	6.169021e+02
2.560000e-06	-8.064048e-07	9.058786e-09	-5.911661e+00	5.921910e+02
2.570000e-06	-9.047968e-07	8.667817e-09	-6.632961e+00	5.664632e+02
2.580000e-06	-1.002886e-06	8.261091e-09	-7.352045e+00	5.396335e+02
2.590000e-06	-1.100524e-06	7.836449e-09	-8.067814e+00	5.116081e+02
2.600000e-06	-1.197714e-06	7.391456e-09	-8.780301e+00	4.822845e+02
2.610000e-06	-1.294501e-06	6.924331e-09	-9.489835e+00	4.515521e+02
2.620000e-06	-1.390892e-06	6.432552e-09	-1.019647e+01	4.192937e+02
2.630000e-06	-1.486931e-06	5.912999e-09	-1.090052e+01	3.853872e+02
2.640000e-06	-1.582537e-06	5.365395e-09	-1.160140e+01	3.497085e+02
2.650000e-06	-1.677453e-06	4.788265e-09	-1.229722e+01	3.121357e+02
2.660000e-06	-1.771549e-06	4.182794e-09	-1.298702e+01	2.725545e+02
2.670000e-06	-1.864773e-06	3.548413e-09	-1.367044e+01	2.308646e+02
2.680000e-06	-1.957183e-06	2.880780e-09	-1.434788e+01	1.869878e+02
2.690000e-06	-2.048932e-06	2.180529e-09	-1.502048e+01	1.408770e+02
2.700000e-06	-2.140045e-06	1.446012e-09	-1.568842e+01	9.252550e+01
2.710000e-06	-2.230460e-06	6.767685e-10	-1.635124e+01	4.197696e+01
2.720000e-06	-2.320059e-06	-1.262661e-10	-1.700808e+01	-1.066644e+01
2.730000e-06	-2.408805e-06	-9.614373e-10	-1.765867e+01	-6.523746e+01
2.740000e-06	-2.496804e-06	-1.821774e-09	-1.830378e+01	-1.215008e+02
2.750000e-06	-2.584009e-06	-2.702499e-09	-1.894307e+01	-1.791541e+02
2.760000e-06	-2.670154e-06	-3.598779e-09	-1.957459e+01	-2.378344e+02
2.770000e-06	-2.755145e-06	-4.502814e-09	-2.019765e+01	-2.971288e+02
2.780000e-06	-2.839156e-06	-5.408752e-09	-2.081352e+01	-3.565904e+02
2.790000e-06	-2.922250e-06	-6.310214e-09	-2.142268e+01	-4.157568e+02
2.800000e-06	-3.004400e-06	-7.200663e-09	-2.202491e+01	-4.741711e+02
2.810000e-06	-3.085590e-06	-8.074700e-09	-2.262010e+01	-5.314016e+02
2.820000e-06	-3.165811e-06	-8.928479e-09	-2.320819e+01	-5.870599e+02
2.830000e-06	-3.244975e-06	-9.753981e-09	-2.378854e+01	-6.408139e+02
2.840000e-06	-3.322770e-06	-1.054329e-08	-2.435884e+01	-6.923968e+02
2.850000e-06	-3.399116e-06	-1.129652e-08	-2.491852e+01	-7.416098e+02
2.860000e-06	-3.474107e-06	-1.201271e-08	-2.546828e+01	-7.883201e+02
2.870000e-06	-3.547802e-06	-1.268894e-08	-2.600853e+01	-8.324547e+02
2.880000e-06	-3.620288e-06	-1.332560e-08	-2.653991e+01	-8.739921e+02
2.890000e-06	-3.691555e-06	-1.392519e-08	-2.706236e+01	-9.129526e+02
2.900000e-06	-3.761276e-06	-1.448822e-08	-2.757348e+01	-9.493889e+02
2.910000e-06	-3.829454e-06	-1.501262e-08	-2.807329e+01	-9.833788e+02
2.920000e-06	-3.896363e-06	-1.549831e-08	-2.856379e+01	-1.015019e+03
2.930000e-06	-3.961940e-06	-1.594990e-08	-2.904453e+01	-1.044418e+03
2.940000e-06	-4.026213e-06	-1.637013e-08	-2.951570e+01	-1.071700e+03
