# Temperatura_=_88.97
# Concentracion g/m^3_=_28200.0
# C_Vs_to_Am_M_A/Vsm_=_65563218390.804596
# pendiente_HvsI_1/m_=_3716.3
# ordenada_HvsI_A/m_=_1297.0
# frecuencia_Hz_=_302556.9088820029

Tiempo_(s)	Campo_(V.s)	Magnetizacion_(V.s)	Campo_(kA/m)	Magnetizacion_(A/m)
0.000000e+00	-7.873737e-06	-3.067920e-08	-5.683849e+01	-2.009257e+03
1.000000e-08	-7.870408e-06	-3.067646e-08	-5.681446e+01	-2.008559e+03
2.000000e-08	-7.864412e-06	-3.066704e-08	-5.677118e+01	-2.007725e+03
3.000000e-08	-7.855906e-06	-3.065755e-08	-5.670977e+01	-2.006806e+03
4.000000e-08	-7.844694e-06	-3.064604e-08	-5.662884e+01	-2.005820e+03
5.000000e-08	-7.830581e-06	-3.062919e-08	-5.652696e+01	-2.004744e+03
6.000000e-08	-7.813671e-06	-3.060205e-08	-5.640489e+01	-2.003522e+03
7.000000e-08	-7.794370e-06	-3.056932e-08	-5.626556e+01	-2.002081e+03
8.000000e-08	-7.772801e-06	-3.054747e-08	-5.610986e+01	-2.000357e+03
9.000000e-08	-7.748528e-06	-3.057501e-08	-5.593464e+01	-1.998320e+03
1.000000e-07	-7.721073e-06	-3.053820e-08	-5.573645e+01	-1.995989e+03
1.100000e-07	-7.690533e-06	-3.045107e-08	-5.551599e+01	-1.993434e+03
1.200000e-07	-7.657194e-06	-3.040807e-08	-5.527532e+01	-1.990763e+03
1.300000e-07	-7.621165e-06	-3.037512e-08	-5.501524e+01	-1.988091e+03
1.400000e-07	-7.582812e-06	-3.030832e-08	-5.473838e+01	-1.985508e+03
1.500000e-07	-7.542362e-06	-3.023123e-08	-5.444638e+01	-1.983055e+03
1.600000e-07	-7.499574e-06	-3.026760e-08	-5.413750e+01	-1.980701e+03
1.700000e-07	-7.454129e-06	-3.019539e-08	-5.380945e+01	-1.978347e+03
1.800000e-07	-7.405932e-06	-3.005572e-08	-5.346153e+01	-1.975847e+03
1.900000e-07	-7.354870e-06	-3.007577e-08	-5.309292e+01	-1.973039e+03
2.000000e-07	-7.300904e-06	-2.999341e-08	-5.270335e+01	-1.969781e+03
2.100000e-07	-7.244228e-06	-2.994346e-08	-5.229423e+01	-1.965983e+03
2.200000e-07	-7.184922e-06	-2.991164e-08	-5.186611e+01	-1.961624e+03
2.300000e-07	-7.123002e-06	-2.980008e-08	-5.141913e+01	-1.956752e+03
2.400000e-07	-7.058444e-06	-2.973372e-08	-5.095310e+01	-1.951462e+03
2.500000e-07	-6.991175e-06	-2.961670e-08	-5.046751e+01	-1.945868e+03
2.600000e-07	-6.921237e-06	-2.954248e-08	-4.996263e+01	-1.940067e+03
2.700000e-07	-6.848520e-06	-2.944671e-08	-4.943771e+01	-1.934116e+03
2.800000e-07	-6.773098e-06	-2.935490e-08	-4.889326e+01	-1.928018e+03
2.900000e-07	-6.695039e-06	-2.925120e-08	-4.832977e+01	-1.921725e+03
3.000000e-07	-6.614158e-06	-2.913363e-08	-4.774592e+01	-1.915161e+03
3.100000e-07	-6.530872e-06	-2.904377e-08	-4.714469e+01	-1.908245e+03
3.200000e-07	-6.445505e-06	-2.891789e-08	-4.652845e+01	-1.900919e+03
3.300000e-07	-6.357877e-06	-2.882863e-08	-4.589589e+01	-1.893165e+03
3.400000e-07	-6.267862e-06	-2.870561e-08	-4.524609e+01	-1.885005e+03
3.500000e-07	-6.175524e-06	-2.856646e-08	-4.457952e+01	-1.876489e+03
3.600000e-07	-6.081044e-06	-2.844072e-08	-4.389750e+01	-1.867675e+03
3.700000e-07	-5.984383e-06	-2.830454e-08	-4.319973e+01	-1.858603e+03
3.800000e-07	-5.885430e-06	-2.816285e-08	-4.248541e+01	-1.849272e+03
3.900000e-07	-5.784384e-06	-2.801387e-08	-4.175599e+01	-1.839639e+03
4.000000e-07	-5.681320e-06	-2.786583e-08	-4.101200e+01	-1.829627e+03
4.100000e-07	-5.576296e-06	-2.769070e-08	-4.025385e+01	-1.819142e+03
4.200000e-07	-5.469334e-06	-2.752093e-08	-3.948172e+01	-1.808103e+03
4.300000e-07	-5.360392e-06	-2.734879e-08	-3.869529e+01	-1.796462e+03
4.400000e-07	-5.249526e-06	-2.716585e-08	-3.789499e+01	-1.784219e+03
4.500000e-07	-5.136709e-06	-2.697110e-08	-3.708059e+01	-1.771417e+03
4.600000e-07	-5.021909e-06	-2.677572e-08	-3.625188e+01	-1.758122e+03
4.700000e-07	-4.905135e-06	-2.657139e-08	-3.540891e+01	-1.744395e+03
4.800000e-07	-4.786531e-06	-2.635323e-08	-3.455274e+01	-1.730265e+03
4.900000e-07	-4.666169e-06	-2.613032e-08	-3.368388e+01	-1.715705e+03
5.000000e-07	-4.544144e-06	-2.589591e-08	-3.280301e+01	-1.700632e+03
5.100000e-07	-4.420404e-06	-2.564932e-08	-3.190977e+01	-1.684920e+03
5.200000e-07	-4.295035e-06	-2.538696e-08	-3.100476e+01	-1.668425e+03
5.300000e-07	-4.168127e-06	-2.512202e-08	-3.008864e+01	-1.651025e+03
5.400000e-07	-4.039720e-06	-2.484631e-08	-2.916170e+01	-1.632644e+03
5.500000e-07	-3.909900e-06	-2.455518e-08	-2.822456e+01	-1.613270e+03
5.600000e-07	-3.778538e-06	-2.424447e-08	-2.727630e+01	-1.592942e+03
5.700000e-07	-3.645687e-06	-2.392264e-08	-2.631728e+01	-1.571728e+03
5.800000e-07	-3.511471e-06	-2.358915e-08	-2.534841e+01	-1.549685e+03
5.900000e-07	-3.375905e-06	-2.324070e-08	-2.436979e+01	-1.526814e+03
6.000000e-07	-3.239048e-06	-2.287510e-08	-2.338186e+01	-1.503039e+03
6.100000e-07	-3.100970e-06	-2.249070e-08	-2.238511e+01	-1.478195e+03
6.200000e-07	-2.961630e-06	-2.208656e-08	-2.137925e+01	-1.452047e+03
6.300000e-07	-2.820920e-06	-2.165533e-08	-2.036350e+01	-1.424333e+03
6.400000e-07	-2.679029e-06	-2.119934e-08	-1.933922e+01	-1.394807e+03
6.500000e-07	-2.536161e-06	-2.071823e-08	-1.830789e+01	-1.363282e+03
6.600000e-07	-2.392303e-06	-2.021275e-08	-1.726942e+01	-1.329645e+03
6.700000e-07	-2.247553e-06	-1.967419e-08	-1.622451e+01	-1.293849e+03
6.800000e-07	-2.102071e-06	-1.909892e-08	-1.517431e+01	-1.255872e+03
6.900000e-07	-1.955903e-06	-1.848688e-08	-1.411916e+01	-1.215651e+03
7.000000e-07	-1.809049e-06	-1.783483e-08	-1.305906e+01	-1.173025e+03
7.100000e-07	-1.661621e-06	-1.713748e-08	-1.199482e+01	-1.127692e+03
7.200000e-07	-1.513667e-06	-1.638784e-08	-1.092678e+01	-1.079207e+03
7.300000e-07	-1.365238e-06	-1.558182e-08	-9.855303e+00	-1.027025e+03
7.400000e-07	-1.216459e-06	-1.471253e-08	-8.781305e+00	-9.705938e+02
7.500000e-07	-1.067313e-06	-1.377869e-08	-7.704657e+00	-9.094627e+02
7.600000e-07	-9.177938e-07	-1.277776e-08	-6.625319e+00	-8.434020e+02
7.700000e-07	-7.680311e-07	-1.170969e-08	-5.544220e+00	-7.724842e+02
7.800000e-07	-6.180417e-07	-1.057171e-08	-4.461485e+00	-6.971104e+02
7.900000e-07	-4.678156e-07	-9.369575e-09	-3.377041e+00	-6.179669e+02
8.000000e-07	-3.173816e-07	-8.116530e-09	-2.291096e+00	-5.359151e+02
8.100000e-07	-1.667543e-07	-6.825776e-09	-1.203757e+00	-4.518353e+02
8.200000e-07	-1.604877e-08	-5.512193e-09	-1.158520e-01	-3.664610e+02
8.300000e-07	1.346429e-07	-4.186776e-09	9.719525e-01	-2.802405e+02
8.400000e-07	2.853181e-07	-2.856404e-09	2.059638e+00	-1.932655e+02
8.500000e-07	4.359101e-07	-1.516981e-09	3.146724e+00	-1.052847e+02
8.600000e-07	5.864075e-07	-1.641950e-10	4.233126e+00	-1.580851e+01
8.700000e-07	7.367665e-07	1.213153e-09	5.318528e+00	7.571741e+01
8.800000e-07	8.868453e-07	2.628196e-09	6.401910e+00	1.697053e+02
8.900000e-07	1.036614e-06	4.090669e-09	7.483048e+00	2.662323e+02
9.000000e-07	1.186075e-06	5.597030e-09	8.561974e+00	3.649059e+02
9.100000e-07	1.335200e-06	7.129721e-09	9.638470e+00	4.648217e+02
9.200000e-07	1.483899e-06	8.666671e-09	1.071189e+01	5.646251e+02
9.300000e-07	1.632058e-06	1.017376e-08	1.178141e+01	6.626682e+02
9.400000e-07	1.779594e-06	1.161481e-08	1.284643e+01	7.572282e+02
9.500000e-07	1.926505e-06	1.296341e-08	1.390695e+01	8.467441e+02
9.600000e-07	2.072750e-06	1.420791e-08	1.496265e+01	9.300228e+02
9.700000e-07	2.218198e-06	1.534508e-08	1.601261e+01	1.006375e+03
9.800000e-07	2.362806e-06	1.637960e-08	1.705650e+01	1.075655e+03
9.900000e-07	2.506526e-06	1.732246e-08	1.809397e+01	1.138210e+03
1.000000e-06	2.649243e-06	1.818544e-08	1.912420e+01	1.194746e+03
1.010000e-06	2.790895e-06	1.897942e-08	2.014676e+01	1.246157e+03
1.020000e-06	2.931445e-06	1.970858e-08	2.116135e+01	1.293346e+03
1.030000e-06	3.070760e-06	2.038140e-08	2.216703e+01	1.337084e+03
1.040000e-06	3.208811e-06	2.100354e-08	2.316359e+01	1.377929e+03
1.050000e-06	3.345646e-06	2.158037e-08	2.415136e+01	1.416209e+03
1.060000e-06	3.481192e-06	2.211459e-08	2.512983e+01	1.452063e+03
1.070000e-06	3.615435e-06	2.260870e-08	2.609890e+01	1.485527e+03
1.080000e-06	3.748436e-06	2.306918e-08	2.705900e+01	1.516616e+03
1.090000e-06	3.880107e-06	2.350138e-08	2.800950e+01	1.545405e+03
1.100000e-06	4.010344e-06	2.390982e-08	2.894965e+01	1.572057e+03
1.110000e-06	4.139160e-06	2.429479e-08	2.987954e+01	1.596828e+03
1.120000e-06	4.266532e-06	2.465762e-08	3.079900e+01	1.620024e+03
1.130000e-06	4.392455e-06	2.500043e-08	3.170801e+01	1.641950e+03
1.140000e-06	4.516884e-06	2.532456e-08	3.260623e+01	1.662851e+03
1.150000e-06	4.639720e-06	2.562923e-08	3.349295e+01	1.682878e+03
1.160000e-06	4.760948e-06	2.591478e-08	3.436806e+01	1.702078e+03
1.170000e-06	4.880459e-06	2.618190e-08	3.523078e+01	1.720415e+03
1.180000e-06	4.998134e-06	2.643413e-08	3.608025e+01	1.737812e+03
1.190000e-06	5.113891e-06	2.667604e-08	3.691587e+01	1.754199e+03
1.200000e-06	5.227683e-06	2.691076e-08	3.773731e+01	1.769555e+03
1.210000e-06	5.339524e-06	2.713657e-08	3.854466e+01	1.783928e+03
1.220000e-06	5.449473e-06	2.734867e-08	3.933835e+01	1.797434e+03
1.230000e-06	5.557488e-06	2.754849e-08	4.011808e+01	1.810233e+03
1.240000e-06	5.663484e-06	2.773647e-08	4.088324e+01	1.822486e+03
1.250000e-06	5.767421e-06	2.791323e-08	4.163354e+01	1.834322e+03
1.260000e-06	5.869279e-06	2.808370e-08	4.236882e+01	1.845808e+03
1.270000e-06	5.968988e-06	2.824852e-08	4.308859e+01	1.856941e+03
1.280000e-06	6.066398e-06	2.840853e-08	4.379177e+01	1.867663e+03
1.290000e-06	6.161514e-06	2.856278e-08	4.447839e+01	1.877884e+03
1.300000e-06	6.254482e-06	2.871058e-08	4.514951e+01	1.887524e+03
1.310000e-06	6.345273e-06	2.885016e-08	4.580490e+01	1.896536e+03
1.320000e-06	6.433708e-06	2.898100e-08	4.644329e+01	1.904928e+03
1.330000e-06	6.519833e-06	2.910430e-08	4.706500e+01	1.912759e+03
1.340000e-06	6.603695e-06	2.922191e-08	4.767039e+01	1.920125e+03
1.350000e-06	6.685209e-06	2.933250e-08	4.825881e+01	1.927129e+03
1.360000e-06	6.764258e-06	2.943733e-08	4.882944e+01	1.933854e+03
1.370000e-06	6.840822e-06	2.953691e-08	4.938214e+01	1.940346e+03
1.380000e-06	6.914816e-06	2.962981e-08	4.991629e+01	1.946602e+03
1.390000e-06	6.986234e-06	2.971904e-08	5.043183e+01	1.952586e+03
1.400000e-06	7.055260e-06	2.980222e-08	5.093012e+01	1.958241e+03
1.410000e-06	7.121774e-06	2.988052e-08	5.141026e+01	1.963523e+03
1.420000e-06	7.185623e-06	2.995394e-08	5.187117e+01	1.968415e+03
1.430000e-06	7.247021e-06	3.002408e-08	5.231439e+01	1.972941e+03
1.440000e-06	7.305947e-06	3.009112e-08	5.273976e+01	1.977160e+03
1.450000e-06	7.362272e-06	3.015460e-08	5.314636e+01	1.981150e+03
1.460000e-06	7.415924e-06	3.021770e-08	5.353366e+01	1.984986e+03
1.470000e-06	7.466593e-06	3.027946e-08	5.389943e+01	1.988714e+03
1.480000e-06	7.514221e-06	3.033779e-08	5.424324e+01	1.992339e+03
1.490000e-06	7.559197e-06	3.038985e-08	5.456791e+01	1.995823e+03
1.500000e-06	7.601537e-06	3.043473e-08	5.487355e+01	1.999095e+03
1.510000e-06	7.641054e-06	3.047618e-08	5.515881e+01	2.002073e+03
1.520000e-06	7.677931e-06	3.051359e-08	5.542502e+01	2.004690e+03
1.530000e-06	7.712082e-06	3.054639e-08	5.567155e+01	2.006914e+03
1.540000e-06	7.743419e-06	3.057593e-08	5.589776e+01	2.008756e+03
1.550000e-06	7.772117e-06	3.060234e-08	5.610492e+01	2.010268e+03
1.560000e-06	7.798072e-06	3.062752e-08	5.629228e+01	2.011527e+03
1.570000e-06	7.821123e-06	3.064844e-08	5.645869e+01	2.012610e+03
1.580000e-06	7.841442e-06	3.066525e-08	5.660536e+01	2.013575e+03
1.590000e-06	7.858967e-06	3.067855e-08	5.673187e+01	2.014441e+03
1.600000e-06	7.873503e-06	3.068751e-08	5.683680e+01	2.015192e+03
1.610000e-06	7.885049e-06	3.069353e-08	5.692015e+01	2.015779e+03
1.620000e-06	7.893525e-06	3.069628e-08	5.698133e+01	2.016147e+03
1.630000e-06	7.899088e-06	3.069858e-08	5.702149e+01	2.016249e+03
1.640000e-06	7.901859e-06	3.069892e-08	5.704150e+01	2.016069e+03
1.650000e-06	7.901829e-06	3.069540e-08	5.704128e+01	2.015625e+03
1.660000e-06	7.899182e-06	3.068328e-08	5.702218e+01	2.014969e+03
1.670000e-06	7.893939e-06	3.067271e-08	5.698432e+01	2.014161e+03
1.680000e-06	7.886024e-06	3.066380e-08	5.692719e+01	2.013259e+03
1.690000e-06	7.875458e-06	3.065005e-08	5.685091e+01	2.012288e+03
1.700000e-06	7.862077e-06	3.063420e-08	5.675432e+01	2.011237e+03
1.710000e-06	7.846019e-06	3.061904e-08	5.663840e+01	2.010056e+03
1.720000e-06	7.827656e-06	3.060195e-08	5.650584e+01	2.008675e+03
1.730000e-06	7.806957e-06	3.054890e-08	5.635643e+01	2.007025e+03
1.740000e-06	7.783443e-06	3.045256e-08	5.618668e+01	2.005064e+03
1.750000e-06	7.756466e-06	3.045285e-08	5.599194e+01	2.002801e+03
1.760000e-06	7.725889e-06	3.045711e-08	5.577121e+01	2.000291e+03
1.770000e-06	7.692406e-06	3.040625e-08	5.552951e+01	1.997637e+03
1.780000e-06	7.656673e-06	3.038019e-08	5.527156e+01	1.994953e+03
1.790000e-06	7.618637e-06	3.040219e-08	5.499699e+01	1.992340e+03
1.800000e-06	7.578577e-06	3.030403e-08	5.470780e+01	1.989853e+03
1.810000e-06	7.536513e-06	3.025396e-08	5.440416e+01	1.987479e+03
1.820000e-06	7.491762e-06	3.033878e-08	5.408111e+01	1.985136e+03
1.830000e-06	7.444317e-06	3.023389e-08	5.373862e+01	1.982686e+03
1.840000e-06	7.394104e-06	3.025310e-08	5.337615e+01	1.979968e+03
1.850000e-06	7.340874e-06	3.018278e-08	5.299189e+01	1.976831e+03
1.860000e-06	7.284861e-06	3.007872e-08	5.258754e+01	1.973171e+03
1.870000e-06	7.226197e-06	3.008758e-08	5.216407e+01	1.968949e+03
1.880000e-06	7.164959e-06	2.995847e-08	5.172200e+01	1.964196e+03
1.890000e-06	7.100981e-06	2.995290e-08	5.126016e+01	1.958998e+03
1.900000e-06	7.034228e-06	2.986241e-08	5.077829e+01	1.953468e+03
1.910000e-06	6.964800e-06	2.975659e-08	5.027711e+01	1.947710e+03
1.920000e-06	6.892620e-06	2.967832e-08	4.975606e+01	1.941793e+03
1.930000e-06	6.817819e-06	2.954768e-08	4.921609e+01	1.935732e+03
1.940000e-06	6.740276e-06	2.951024e-08	4.865633e+01	1.929493e+03
1.950000e-06	6.660081e-06	2.938044e-08	4.807742e+01	1.923003e+03
1.960000e-06	6.577448e-06	2.929368e-08	4.748091e+01	1.916180e+03
1.970000e-06	6.492350e-06	2.917054e-08	4.686661e+01	1.908958e+03
1.980000e-06	6.404822e-06	2.903328e-08	4.623477e+01	1.901309e+03
1.990000e-06	6.314982e-06	2.893376e-08	4.558624e+01	1.893244e+03
2.000000e-06	6.223020e-06	2.879046e-08	4.492239e+01	1.884810e+03
2.010000e-06	6.128851e-06	2.868918e-08	4.424261e+01	1.876064e+03
2.020000e-06	6.032524e-06	2.853870e-08	4.354724e+01	1.867053e+03
2.030000e-06	5.934077e-06	2.839630e-08	4.283658e+01	1.857787e+03
2.040000e-06	5.833516e-06	2.822812e-08	4.211066e+01	1.848234e+03
2.050000e-06	5.730809e-06	2.807767e-08	4.136924e+01	1.838324e+03
2.060000e-06	5.626015e-06	2.792394e-08	4.061276e+01	1.827964e+03
2.070000e-06	5.519362e-06	2.775104e-08	3.984286e+01	1.817068e+03
2.080000e-06	5.410835e-06	2.758130e-08	3.905943e+01	1.805577e+03
2.090000e-06	5.300352e-06	2.739528e-08	3.826189e+01	1.793481e+03
2.100000e-06	5.187835e-06	2.721554e-08	3.744965e+01	1.780811e+03
2.110000e-06	5.073390e-06	2.701313e-08	3.662350e+01	1.767631e+03
2.120000e-06	4.957094e-06	2.681354e-08	3.578399e+01	1.754006e+03
2.130000e-06	4.838909e-06	2.659477e-08	3.493085e+01	1.739975e+03
2.140000e-06	4.718828e-06	2.636896e-08	3.406401e+01	1.725527e+03
2.150000e-06	4.597016e-06	2.612972e-08	3.318468e+01	1.710591e+03
2.160000e-06	4.473583e-06	2.589357e-08	3.229365e+01	1.695050e+03
2.170000e-06	4.348470e-06	2.564825e-08	3.139049e+01	1.678762e+03
2.180000e-06	4.221735e-06	2.538710e-08	3.047562e+01	1.661596e+03
2.190000e-06	4.093412e-06	2.511473e-08	2.954930e+01	1.643462e+03
2.200000e-06	3.963623e-06	2.482931e-08	2.861238e+01	1.624333e+03
2.210000e-06	3.832339e-06	2.453010e-08	2.766467e+01	1.604235e+03
2.220000e-06	3.699612e-06	2.421338e-08	2.670655e+01	1.583235e+03
2.230000e-06	3.565566e-06	2.388561e-08	2.573891e+01	1.561394e+03
2.240000e-06	3.430115e-06	2.353600e-08	2.476112e+01	1.538733e+03
2.250000e-06	3.293349e-06	2.316923e-08	2.377384e+01	1.515195e+03
2.260000e-06	3.155376e-06	2.278683e-08	2.277785e+01	1.490636e+03
2.270000e-06	3.016168e-06	2.239356e-08	2.177294e+01	1.464836e+03
2.280000e-06	2.875761e-06	2.197915e-08	2.075938e+01	1.437537e+03
2.290000e-06	2.734275e-06	2.153990e-08	1.973803e+01	1.408483e+03
2.300000e-06	2.591764e-06	2.107045e-08	1.870928e+01	1.377469e+03
2.310000e-06	2.448280e-06	2.056909e-08	1.767351e+01	1.344364e+03
2.320000e-06	2.303942e-06	2.003779e-08	1.663157e+01	1.309109e+03
2.330000e-06	2.158818e-06	1.947482e-08	1.558395e+01	1.271678e+03
2.340000e-06	2.012990e-06	1.887579e-08	1.453126e+01	1.232027e+03
2.350000e-06	1.866484e-06	1.823468e-08	1.347367e+01	1.190023e+03
2.360000e-06	1.719310e-06	1.754810e-08	1.241126e+01	1.145401e+03
2.370000e-06	1.571552e-06	1.681250e-08	1.134463e+01	1.097751e+03
2.380000e-06	1.423261e-06	1.602325e-08	1.027416e+01	1.046545e+03
2.390000e-06	1.274546e-06	1.517643e-08	9.200622e+00	9.912228e+02
2.400000e-06	1.125514e-06	1.426604e-08	8.124795e+00	9.312967e+02
2.410000e-06	9.761966e-07	1.328435e-08	7.046913e+00	8.664727e+02
2.420000e-06	8.265809e-07	1.223128e-08	5.966876e+00	7.967425e+02
2.430000e-06	6.766351e-07	1.110812e-08	4.884455e+00	7.224264e+02
2.440000e-06	5.264448e-07	9.920248e-09	3.800270e+00	6.441473e+02
2.450000e-06	3.761107e-07	8.677815e-09	2.715047e+00	5.627361e+02
2.460000e-06	2.256290e-07	7.394870e-09	1.628758e+00	4.790844e+02
2.470000e-06	7.501848e-08	6.082686e-09	5.415392e-01	3.939770e+02
2.480000e-06	-7.568010e-08	4.754071e-09	-5.463153e-01	3.079434e+02
2.490000e-06	-2.263962e-07	3.419177e-09	-1.634296e+00	2.211665e+02
2.500000e-06	-3.770481e-07	2.078126e-09	-2.721814e+00	1.334746e+02
2.510000e-06	-5.275698e-07	7.273311e-10	-3.808391e+00	4.442343e+01
2.520000e-06	-6.778988e-07	-6.469444e-10	-4.893578e+00	-4.654399e+01
2.530000e-06	-8.280535e-07	-2.057755e-09	-5.977506e+00	-1.398949e+02
2.540000e-06	-9.779452e-07	-3.512602e-09	-7.059536e+00	-2.358058e+02
2.550000e-06	-1.127444e-06	-5.013907e-09	-8.138732e+00	-3.340095e+02
2.560000e-06	-1.276551e-06	-6.549736e-09	-9.215098e+00	-4.337278e+02
2.570000e-06	-1.425253e-06	-8.095956e-09	-1.028853e+01	-5.337075e+02
2.580000e-06	-1.573478e-06	-9.621617e-09	-1.135853e+01	-6.323551e+02
2.590000e-06	-1.721153e-06	-1.109489e-08	-1.242456e+01	-7.279442e+02
2.600000e-06	-1.868124e-06	-1.248702e-08	-1.348551e+01	-8.188520e+02
2.610000e-06	-2.014336e-06	-1.377811e-08	-1.454097e+01	-9.037775e+02
2.620000e-06	-2.159865e-06	-1.496139e-08	-1.559151e+01	-9.818974e+02
2.630000e-06	-2.304693e-06	-1.603909e-08	-1.663699e+01	-1.052932e+03
2.640000e-06	-2.448619e-06	-1.702095e-08	-1.767595e+01	-1.117115e+03
2.650000e-06	-2.591498e-06	-1.791807e-08	-1.870736e+01	-1.175079e+03
2.660000e-06	-2.733288e-06	-1.873856e-08	-1.973091e+01	-1.227685e+03
2.670000e-06	-2.873965e-06	-1.948888e-08	-2.074642e+01	-1.275852e+03
2.680000e-06	-3.013539e-06	-2.017831e-08	-2.175397e+01	-1.320393e+03
2.690000e-06	-3.151891e-06	-2.081606e-08	-2.275269e+01	-1.361924e+03
2.700000e-06	-3.289041e-06	-2.141066e-08	-2.374274e+01	-1.400827e+03
2.710000e-06	-3.424938e-06	-2.196544e-08	-2.472375e+01	-1.437284e+03
2.720000e-06	-3.559533e-06	-2.247986e-08	-2.569536e+01	-1.471346e+03
2.730000e-06	-3.692844e-06	-2.295688e-08	-2.665770e+01	-1.503027e+03
2.740000e-06	-3.824798e-06	-2.340282e-08	-2.761024e+01	-1.532381e+03
2.750000e-06	-3.955400e-06	-2.382200e-08	-2.855302e+01	-1.559548e+03
2.760000e-06	-4.084686e-06	-2.421413e-08	-2.948630e+01	-1.584763e+03
2.770000e-06	-4.212523e-06	-2.458238e-08	-3.040912e+01	-1.608325e+03
2.780000e-06	-4.338889e-06	-2.492779e-08	-3.132133e+01	-1.630544e+03
2.790000e-06	-4.463878e-06	-2.525233e-08	-3.222360e+01	-1.651685e+03
2.800000e-06	-4.587285e-06	-2.555967e-08	-3.311443e+01	-1.671924e+03
2.810000e-06	-4.709021e-06	-2.585400e-08	-3.399322e+01	-1.691333e+03
2.820000e-06	-4.828974e-06	-2.613707e-08	-3.485913e+01	-1.709894e+03
2.830000e-06	-4.947098e-06	-2.640455e-08	-3.571183e+01	-1.727536e+03
2.840000e-06	-5.063343e-06	-2.665420e-08	-3.655098e+01	-1.744181e+03
2.850000e-06	-5.177437e-06	-2.688887e-08	-3.737459e+01	-1.759795e+03
2.860000e-06	-5.289424e-06	-2.711378e-08	-3.818299e+01	-1.774407e+03
2.870000e-06	-5.399447e-06	-2.733029e-08	-3.897723e+01	-1.788118e+03
2.880000e-06	-5.507548e-06	-2.753716e-08	-3.975758e+01	-1.801079e+03
2.890000e-06	-5.613782e-06	-2.773401e-08	-4.052445e+01	-1.813456e+03
2.900000e-06	-5.718015e-06	-2.791986e-08	-4.127689e+01	-1.825389e+03
2.910000e-06	-5.820101e-06	-2.809548e-08	-4.201382e+01	-1.836962e+03
2.920000e-06	-5.920050e-06	-2.826282e-08	-4.273533e+01	-1.848189e+03
2.930000e-06	-6.017931e-06	-2.842408e-08	-4.344190e+01	-1.859023e+03
2.940000e-06	-6.113659e-06	-2.857910e-08	-4.413294e+01	-1.869380e+03
