# Temperatura_=_68.46
# Concentracion g/m^3_=_28200.0
# C_Vs_to_Am_M_A/Vsm_=_65563218390.804596
# pendiente_HvsI_1/m_=_3716.3
# ordenada_HvsI_A/m_=_1297.0
# frecuencia_Hz_=_302554.1666466847

Tiempo_(s)	Campo_(V.s)	Magnetizacion_(V.s)	Campo_(kA/m)	Magnetizacion_(A/m)
0.000000e+00	-7.876098e-06	-2.729314e-08	-5.682622e+01	-1.785584e+03
1.000000e-08	-7.872113e-06	-2.729155e-08	-5.679747e+01	-1.785010e+03
2.000000e-08	-7.865592e-06	-2.728050e-08	-5.675042e+01	-1.784317e+03
3.000000e-08	-7.856540e-06	-2.727004e-08	-5.668511e+01	-1.783540e+03
4.000000e-08	-7.844683e-06	-2.725724e-08	-5.659956e+01	-1.782686e+03
5.000000e-08	-7.829905e-06	-2.723763e-08	-5.649294e+01	-1.781735e+03
6.000000e-08	-7.812441e-06	-2.721083e-08	-5.636693e+01	-1.780648e+03
7.000000e-08	-7.792690e-06	-2.717515e-08	-5.622443e+01	-1.779375e+03
8.000000e-08	-7.770594e-06	-2.717823e-08	-5.606501e+01	-1.777883e+03
9.000000e-08	-7.745570e-06	-2.723908e-08	-5.588446e+01	-1.776169e+03
1.000000e-07	-7.717297e-06	-2.716683e-08	-5.568047e+01	-1.774268e+03
1.100000e-07	-7.686062e-06	-2.707861e-08	-5.545511e+01	-1.772251e+03
1.200000e-07	-7.652107e-06	-2.706504e-08	-5.521012e+01	-1.770207e+03
1.300000e-07	-7.615538e-06	-2.702953e-08	-5.494628e+01	-1.768218e+03
1.400000e-07	-7.576638e-06	-2.692396e-08	-5.466561e+01	-1.766335e+03
1.500000e-07	-7.535546e-06	-2.684336e-08	-5.436913e+01	-1.764554e+03
1.600000e-07	-7.492090e-06	-2.697574e-08	-5.405560e+01	-1.762813e+03
1.700000e-07	-7.446081e-06	-2.686947e-08	-5.372364e+01	-1.761000e+03
1.800000e-07	-7.397345e-06	-2.676296e-08	-5.337201e+01	-1.758972e+03
1.900000e-07	-7.345631e-06	-2.681502e-08	-5.299889e+01	-1.756589e+03
2.000000e-07	-7.291028e-06	-2.667420e-08	-5.260493e+01	-1.753744e+03
2.100000e-07	-7.233794e-06	-2.666054e-08	-5.219198e+01	-1.750389e+03
2.200000e-07	-7.173929e-06	-2.662130e-08	-5.176006e+01	-1.746539e+03
2.300000e-07	-7.111434e-06	-2.654383e-08	-5.130915e+01	-1.742267e+03
2.400000e-07	-7.046216e-06	-2.648446e-08	-5.083860e+01	-1.737680e+03
2.500000e-07	-6.978347e-06	-2.636817e-08	-5.034893e+01	-1.732887e+03
2.600000e-07	-6.907865e-06	-2.633387e-08	-4.984040e+01	-1.727971e+03
2.700000e-07	-6.834543e-06	-2.623897e-08	-4.931138e+01	-1.722968e+03
2.800000e-07	-6.758537e-06	-2.615694e-08	-4.876299e+01	-1.717858e+03
2.900000e-07	-6.679879e-06	-2.606714e-08	-4.819548e+01	-1.712579e+03
3.000000e-07	-6.598500e-06	-2.598130e-08	-4.760833e+01	-1.707047e+03
3.100000e-07	-6.514757e-06	-2.588762e-08	-4.700412e+01	-1.701181e+03
3.200000e-07	-6.428859e-06	-2.575523e-08	-4.638436e+01	-1.694930e+03
3.300000e-07	-6.340694e-06	-2.572319e-08	-4.574825e+01	-1.688285e+03
3.400000e-07	-6.250165e-06	-2.561564e-08	-4.509508e+01	-1.681276e+03
3.500000e-07	-6.157398e-06	-2.548228e-08	-4.442576e+01	-1.673959e+03
3.600000e-07	-6.062445e-06	-2.536846e-08	-4.374068e+01	-1.666393e+03
3.700000e-07	-5.965194e-06	-2.526099e-08	-4.303901e+01	-1.658613e+03
3.800000e-07	-5.865726e-06	-2.514102e-08	-4.232135e+01	-1.650616e+03
3.900000e-07	-5.764254e-06	-2.500696e-08	-4.158922e+01	-1.642356e+03
4.000000e-07	-5.660779e-06	-2.489276e-08	-4.084265e+01	-1.633753e+03
4.100000e-07	-5.555233e-06	-2.473135e-08	-4.008113e+01	-1.624717e+03
4.200000e-07	-5.447732e-06	-2.457671e-08	-3.930551e+01	-1.615171e+03
4.300000e-07	-5.338338e-06	-2.441740e-08	-3.851623e+01	-1.605072e+03
4.400000e-07	-5.226978e-06	-2.426958e-08	-3.771276e+01	-1.594425e+03
4.500000e-07	-5.113635e-06	-2.410340e-08	-3.689499e+01	-1.583274e+03
4.600000e-07	-4.998386e-06	-2.393133e-08	-3.606347e+01	-1.571683e+03
4.700000e-07	-4.881272e-06	-2.375017e-08	-3.521849e+01	-1.559710e+03
4.800000e-07	-4.762366e-06	-2.355293e-08	-3.436058e+01	-1.547380e+03
4.900000e-07	-4.641680e-06	-2.335683e-08	-3.348982e+01	-1.534666e+03
5.000000e-07	-4.519186e-06	-2.315759e-08	-3.260603e+01	-1.521486e+03
5.100000e-07	-4.395005e-06	-2.295606e-08	-3.171006e+01	-1.507718e+03
5.200000e-07	-4.269299e-06	-2.272285e-08	-3.080308e+01	-1.493227e+03
5.300000e-07	-4.142087e-06	-2.248166e-08	-2.988525e+01	-1.477895e+03
5.400000e-07	-4.013288e-06	-2.223009e-08	-2.895596e+01	-1.461654e+03
5.500000e-07	-3.882960e-06	-2.197180e-08	-2.801565e+01	-1.444489e+03
5.600000e-07	-3.751162e-06	-2.169795e-08	-2.706472e+01	-1.426438e+03
5.700000e-07	-3.617919e-06	-2.141340e-08	-2.610336e+01	-1.407566e+03
5.800000e-07	-3.483335e-06	-2.111818e-08	-2.513234e+01	-1.387923e+03
5.900000e-07	-3.347419e-06	-2.080457e-08	-2.415170e+01	-1.367514e+03
6.000000e-07	-3.210151e-06	-2.047604e-08	-2.316131e+01	-1.346271e+03
6.100000e-07	-3.071638e-06	-2.013005e-08	-2.216194e+01	-1.324045e+03
6.200000e-07	-2.931915e-06	-1.976809e-08	-2.115383e+01	-1.300626e+03
6.300000e-07	-2.790942e-06	-1.938066e-08	-2.013671e+01	-1.275776e+03
6.400000e-07	-2.648772e-06	-1.897067e-08	-1.911095e+01	-1.249270e+03
6.500000e-07	-2.505591e-06	-1.853564e-08	-1.807789e+01	-1.220932e+03
6.600000e-07	-2.361476e-06	-1.807980e-08	-1.703810e+01	-1.190650e+03
6.700000e-07	-2.216489e-06	-1.759624e-08	-1.599202e+01	-1.158367e+03
6.800000e-07	-2.070766e-06	-1.707723e-08	-1.494062e+01	-1.124043e+03
6.900000e-07	-1.924356e-06	-1.652502e-08	-1.388427e+01	-1.087601e+03
7.000000e-07	-1.777319e-06	-1.593201e-08	-1.282340e+01	-1.048881e+03
7.100000e-07	-1.629791e-06	-1.529896e-08	-1.175898e+01	-1.007600e+03
7.200000e-07	-1.481851e-06	-1.461692e-08	-1.069159e+01	-9.633629e+02
7.300000e-07	-1.333469e-06	-1.388293e-08	-9.621010e+00	-9.156985e+02
7.400000e-07	-1.184585e-06	-1.309032e-08	-8.546806e+00	-8.641459e+02
7.500000e-07	-1.035249e-06	-1.223692e-08	-7.469345e+00	-8.083544e+02
7.600000e-07	-8.855558e-07	-1.132414e-08	-6.389305e+00	-7.481823e+02
7.700000e-07	-7.355771e-07	-1.035217e-08	-5.307205e+00	-6.837650e+02
7.800000e-07	-5.854284e-07	-9.326175e-09	-4.223879e+00	-6.155308e+02
7.900000e-07	-4.351346e-07	-8.245953e-09	-3.139506e+00	-5.441539e+02
8.000000e-07	-2.846606e-07	-7.120863e-09	-2.053832e+00	-4.704491e+02
8.100000e-07	-1.340180e-07	-5.964726e-09	-9.669426e-01	-3.952279e+02
8.200000e-07	1.672206e-08	-4.793248e-09	1.206501e-01	-3.191485e+02
8.300000e-07	1.674890e-07	-3.615075e-09	1.208437e+00	-2.425945e+02
8.400000e-07	3.182284e-07	-2.437887e-09	2.296025e+00	-1.656136e+02
8.500000e-07	4.688960e-07	-1.257066e-09	3.383095e+00	-8.793640e+01
8.600000e-07	6.194236e-07	-6.581666e-11	4.469155e+00	-9.074493e+00
8.700000e-07	7.697566e-07	1.144711e-09	5.553811e+00	7.152002e+01
8.800000e-07	9.198923e-07	2.389084e-09	6.637043e+00	1.542666e+02
8.900000e-07	1.069751e-06	3.675386e-09	7.718274e+00	2.392824e+02
9.000000e-07	1.219231e-06	5.003508e-09	8.796778e+00	3.262619e+02
9.100000e-07	1.368298e-06	6.358953e-09	9.872297e+00	4.144389e+02
9.200000e-07	1.516832e-06	7.722766e-09	1.094398e+01	5.026414e+02
9.300000e-07	1.664792e-06	9.060531e-09	1.201151e+01	5.894302e+02
9.400000e-07	1.812215e-06	1.033870e-08	1.307517e+01	6.732914e+02
9.500000e-07	1.959032e-06	1.153547e-08	1.413446e+01	7.528449e+02
9.600000e-07	2.105166e-06	1.264017e-08	1.518882e+01	8.270256e+02
9.700000e-07	2.250493e-06	1.365386e-08	1.623736e+01	8.952028e+02
9.800000e-07	2.394888e-06	1.457968e-08	1.727917e+01	9.572179e+02
9.900000e-07	2.538462e-06	1.542960e-08	1.831506e+01	1.013339e+03
1.000000e-06	2.681107e-06	1.620955e-08	1.934424e+01	1.064148e+03
1.010000e-06	2.822625e-06	1.692501e-08	2.036530e+01	1.110395e+03
1.020000e-06	2.962950e-06	1.758054e-08	2.137775e+01	1.152844e+03
1.030000e-06	3.102064e-06	1.818336e-08	2.238146e+01	1.192153e+03
1.040000e-06	3.240047e-06	1.873952e-08	2.337701e+01	1.228806e+03
1.050000e-06	3.376676e-06	1.925331e-08	2.436279e+01	1.263093e+03
1.060000e-06	3.511943e-06	1.972699e-08	2.533874e+01	1.295154e+03
1.070000e-06	3.646024e-06	2.016608e-08	2.630615e+01	1.325038e+03
1.080000e-06	3.778800e-06	2.058073e-08	2.726412e+01	1.352785e+03
1.090000e-06	3.910224e-06	2.096930e-08	2.821235e+01	1.378476e+03
1.100000e-06	4.040282e-06	2.133610e-08	2.915072e+01	1.402271e+03
1.110000e-06	4.168826e-06	2.168050e-08	3.007817e+01	1.424399e+03
1.120000e-06	4.295869e-06	2.200518e-08	3.099479e+01	1.445130e+03
1.130000e-06	4.421483e-06	2.231045e-08	3.190110e+01	1.464725e+03
1.140000e-06	4.545601e-06	2.259617e-08	3.279661e+01	1.483390e+03
1.150000e-06	4.668198e-06	2.286293e-08	3.368115e+01	1.501252e+03
1.160000e-06	4.789124e-06	2.311265e-08	3.455363e+01	1.518348e+03
1.170000e-06	4.908315e-06	2.334957e-08	3.541360e+01	1.534649e+03
1.180000e-06	5.025734e-06	2.357566e-08	3.626078e+01	1.550093e+03
1.190000e-06	5.141235e-06	2.379463e-08	3.709413e+01	1.564627e+03
1.200000e-06	5.254684e-06	2.400687e-08	3.791266e+01	1.578239e+03
1.210000e-06	5.366149e-06	2.420685e-08	3.871688e+01	1.590980e+03
1.220000e-06	5.475761e-06	2.439077e-08	3.950774e+01	1.602952e+03
1.230000e-06	5.583488e-06	2.456366e-08	4.028499e+01	1.614291e+03
1.240000e-06	5.689214e-06	2.472850e-08	4.104780e+01	1.625133e+03
1.250000e-06	5.792797e-06	2.488636e-08	4.179516e+01	1.635579e+03
1.260000e-06	5.894245e-06	2.503718e-08	4.252711e+01	1.645679e+03
1.270000e-06	5.993543e-06	2.518239e-08	4.324355e+01	1.655423e+03
1.280000e-06	6.090537e-06	2.532251e-08	4.394336e+01	1.664754e+03
1.290000e-06	6.185183e-06	2.545547e-08	4.462623e+01	1.673597e+03
1.300000e-06	6.277682e-06	2.558307e-08	4.529361e+01	1.681884e+03
1.310000e-06	6.367985e-06	2.570337e-08	4.594515e+01	1.689585e+03
1.320000e-06	6.455948e-06	2.581356e-08	4.657981e+01	1.696719e+03
1.330000e-06	6.541624e-06	2.591576e-08	4.719796e+01	1.703349e+03
1.340000e-06	6.625069e-06	2.601311e-08	4.780002e+01	1.709573e+03
1.350000e-06	6.706155e-06	2.610560e-08	4.838506e+01	1.715494e+03
1.360000e-06	6.784759e-06	2.619224e-08	4.895219e+01	1.721193e+03
1.370000e-06	6.860868e-06	2.627515e-08	4.950131e+01	1.726720e+03
1.380000e-06	6.934278e-06	2.635428e-08	5.003097e+01	1.732079e+03
1.390000e-06	7.005115e-06	2.642948e-08	5.054206e+01	1.737238e+03
1.400000e-06	7.073586e-06	2.650083e-08	5.103608e+01	1.742148e+03
1.410000e-06	7.139493e-06	2.656964e-08	5.151160e+01	1.746765e+03
1.420000e-06	7.202828e-06	2.663620e-08	5.196856e+01	1.751063e+03
1.430000e-06	7.263772e-06	2.669802e-08	5.240828e+01	1.755051e+03
1.440000e-06	7.322155e-06	2.675525e-08	5.282951e+01	1.758764e+03
1.450000e-06	7.377878e-06	2.681026e-08	5.323155e+01	1.762257e+03
1.460000e-06	7.430883e-06	2.686448e-08	5.361398e+01	1.765582e+03
1.470000e-06	7.480852e-06	2.691682e-08	5.397451e+01	1.768774e+03
1.480000e-06	7.527843e-06	2.696468e-08	5.431355e+01	1.771837e+03
1.490000e-06	7.572226e-06	2.700648e-08	5.463378e+01	1.774744e+03
1.500000e-06	7.613975e-06	2.704173e-08	5.493500e+01	1.777446e+03
1.510000e-06	7.652938e-06	2.707304e-08	5.521612e+01	1.779887e+03
1.520000e-06	7.689249e-06	2.710329e-08	5.547810e+01	1.782025e+03
1.530000e-06	7.722804e-06	2.713313e-08	5.572020e+01	1.783843e+03
1.540000e-06	7.753578e-06	2.716119e-08	5.594223e+01	1.785358e+03
1.550000e-06	7.781706e-06	2.718400e-08	5.614519e+01	1.786616e+03
1.560000e-06	7.807032e-06	2.720242e-08	5.632791e+01	1.787680e+03
1.570000e-06	7.829495e-06	2.721752e-08	5.648998e+01	1.788608e+03
1.580000e-06	7.849256e-06	2.722974e-08	5.663256e+01	1.789440e+03
1.590000e-06	7.866181e-06	2.723957e-08	5.675467e+01	1.790187e+03
1.600000e-06	7.880100e-06	2.724720e-08	5.685510e+01	1.790831e+03
1.610000e-06	7.890921e-06	2.725246e-08	5.693317e+01	1.791330e+03
1.620000e-06	7.898685e-06	2.725504e-08	5.698919e+01	1.791641e+03
1.630000e-06	7.903704e-06	2.725755e-08	5.702540e+01	1.791729e+03
1.640000e-06	7.905935e-06	2.726035e-08	5.704150e+01	1.791583e+03
1.650000e-06	7.905358e-06	2.726004e-08	5.703734e+01	1.791222e+03
1.660000e-06	7.902185e-06	2.724627e-08	5.701444e+01	1.790684e+03
1.670000e-06	7.896340e-06	2.723903e-08	5.697227e+01	1.790015e+03
1.680000e-06	7.887812e-06	2.722881e-08	5.691074e+01	1.789256e+03
1.690000e-06	7.876632e-06	2.721322e-08	5.683008e+01	1.788420e+03
1.700000e-06	7.862631e-06	2.720115e-08	5.672906e+01	1.787496e+03
1.710000e-06	7.846009e-06	2.719573e-08	5.660913e+01	1.786446e+03
1.720000e-06	7.827141e-06	2.719726e-08	5.647300e+01	1.785222e+03
1.730000e-06	7.805889e-06	2.710457e-08	5.631966e+01	1.783785e+03
1.740000e-06	7.781637e-06	2.702298e-08	5.614468e+01	1.782123e+03
1.750000e-06	7.753795e-06	2.707968e-08	5.594381e+01	1.780262e+03
1.760000e-06	7.722437e-06	2.706348e-08	5.571755e+01	1.778265e+03
1.770000e-06	7.688385e-06	2.699094e-08	5.547187e+01	1.776218e+03
1.780000e-06	7.652196e-06	2.701829e-08	5.521076e+01	1.774207e+03
1.790000e-06	7.613779e-06	2.709506e-08	5.493358e+01	1.772294e+03
1.800000e-06	7.573307e-06	2.690644e-08	5.464157e+01	1.770490e+03
1.810000e-06	7.530655e-06	2.696639e-08	5.433384e+01	1.768747e+03
1.820000e-06	7.485297e-06	2.702368e-08	5.400658e+01	1.766963e+03
1.830000e-06	7.437308e-06	2.685572e-08	5.366034e+01	1.765001e+03
1.840000e-06	7.386443e-06	2.699180e-08	5.329335e+01	1.762717e+03
1.850000e-06	7.332520e-06	2.684379e-08	5.290430e+01	1.759993e+03
1.860000e-06	7.275899e-06	2.684685e-08	5.249577e+01	1.756765e+03
1.870000e-06	7.216724e-06	2.680181e-08	5.206882e+01	1.753033e+03
1.880000e-06	7.154895e-06	2.662011e-08	5.162273e+01	1.748856e+03
1.890000e-06	7.090221e-06	2.669503e-08	5.115610e+01	1.744336e+03
1.900000e-06	7.022864e-06	2.654044e-08	5.067012e+01	1.739583e+03
1.910000e-06	6.952823e-06	2.652682e-08	5.016477e+01	1.734691e+03
1.920000e-06	6.880014e-06	2.644233e-08	4.963945e+01	1.729708e+03
1.930000e-06	6.804579e-06	2.634860e-08	4.909519e+01	1.724628e+03
1.940000e-06	6.726414e-06	2.631054e-08	4.853123e+01	1.719398e+03
1.950000e-06	6.645652e-06	2.616355e-08	4.794853e+01	1.713935e+03
1.960000e-06	6.562478e-06	2.615849e-08	4.734843e+01	1.708158e+03
1.970000e-06	6.476844e-06	2.598201e-08	4.673057e+01	1.702004e+03
1.980000e-06	6.388840e-06	2.589448e-08	4.609562e+01	1.695455e+03
1.990000e-06	6.298655e-06	2.579748e-08	4.544493e+01	1.688531e+03
2.000000e-06	6.206305e-06	2.568571e-08	4.477863e+01	1.681284e+03
2.010000e-06	6.111642e-06	2.559969e-08	4.409563e+01	1.673774e+03
2.020000e-06	6.014752e-06	2.546274e-08	4.339657e+01	1.666045e+03
2.030000e-06	5.915751e-06	2.535993e-08	4.268228e+01	1.658103e+03
2.040000e-06	5.814652e-06	2.518076e-08	4.195284e+01	1.649914e+03
2.050000e-06	5.711416e-06	2.507098e-08	4.120800e+01	1.641404e+03
2.060000e-06	5.606177e-06	2.493662e-08	4.044869e+01	1.632483e+03
2.070000e-06	5.499111e-06	2.481358e-08	3.967621e+01	1.623068e+03
2.080000e-06	5.390168e-06	2.465120e-08	3.889018e+01	1.613108e+03
2.090000e-06	5.279250e-06	2.448338e-08	3.808990e+01	1.602594e+03
2.100000e-06	5.166352e-06	2.431988e-08	3.727535e+01	1.591562e+03
2.110000e-06	5.051503e-06	2.414168e-08	3.644670e+01	1.580073e+03
2.120000e-06	4.934631e-06	2.398125e-08	3.560347e+01	1.568190e+03
2.130000e-06	4.815797e-06	2.380046e-08	3.474608e+01	1.555948e+03
2.140000e-06	4.695165e-06	2.360791e-08	3.387572e+01	1.543335e+03
2.150000e-06	4.572885e-06	2.337962e-08	3.299347e+01	1.530280e+03
2.160000e-06	4.448911e-06	2.316859e-08	3.209899e+01	1.516670e+03
2.170000e-06	4.323283e-06	2.295147e-08	3.119258e+01	1.502370e+03
2.180000e-06	4.196162e-06	2.273426e-08	3.027540e+01	1.487256e+03
2.190000e-06	4.067473e-06	2.249337e-08	2.934691e+01	1.471244e+03
2.200000e-06	3.937314e-06	2.224046e-08	2.840781e+01	1.454307e+03
2.210000e-06	3.805693e-06	2.196675e-08	2.745816e+01	1.436471e+03
2.220000e-06	3.672521e-06	2.168318e-08	2.649732e+01	1.417797e+03
2.230000e-06	3.538001e-06	2.139436e-08	2.552675e+01	1.398342e+03
2.240000e-06	3.402270e-06	2.109247e-08	2.454745e+01	1.378127e+03
2.250000e-06	3.265269e-06	2.077427e-08	2.355899e+01	1.357102e+03
2.260000e-06	3.126990e-06	2.043124e-08	2.256130e+01	1.335138e+03
2.270000e-06	2.987446e-06	2.007246e-08	2.155449e+01	1.312038e+03
2.280000e-06	2.846676e-06	1.969303e-08	2.053883e+01	1.287567e+03
2.290000e-06	2.704783e-06	1.929985e-08	1.951507e+01	1.261492e+03
2.300000e-06	2.561893e-06	1.887984e-08	1.848412e+01	1.233623e+03
2.310000e-06	2.418121e-06	1.843601e-08	1.744680e+01	1.203833e+03
2.320000e-06	2.273572e-06	1.795984e-08	1.640388e+01	1.172053e+03
2.330000e-06	2.128246e-06	1.745011e-08	1.535534e+01	1.138242e+03
2.340000e-06	1.982212e-06	1.690437e-08	1.430170e+01	1.102339e+03
2.350000e-06	1.835614e-06	1.631936e-08	1.324399e+01	1.064209e+03
2.360000e-06	1.688420e-06	1.569583e-08	1.218199e+01	1.023600e+03
2.370000e-06	1.540667e-06	1.502500e-08	1.111595e+01	9.801428e+02
2.380000e-06	1.392350e-06	1.430332e-08	1.004584e+01	9.333790e+02
2.390000e-06	1.243526e-06	1.352869e-08	8.972064e+00	8.828360e+02
2.400000e-06	1.094257e-06	1.269711e-08	7.895089e+00	8.281258e+02
2.410000e-06	9.445685e-07	1.180201e-08	6.815083e+00	7.690463e+02
2.420000e-06	7.945422e-07	1.084195e-08	5.732640e+00	7.056599e+02
2.430000e-06	6.442386e-07	9.823961e-09	4.648195e+00	6.383235e+02
2.440000e-06	4.937289e-07	8.753418e-09	3.562265e+00	5.676578e+02
2.450000e-06	3.430919e-07	7.638049e-09	2.475416e+00	4.944547e+02
2.460000e-06	1.923416e-07	6.488070e-09	1.387749e+00	4.195411e+02
2.470000e-06	4.149598e-08	5.316219e-09	2.993945e-01	3.436266e+02
2.480000e-06	-1.093838e-07	4.135451e-09	-7.892066e-01	2.671719e+02
2.490000e-06	-2.602437e-07	2.951298e-09	-1.877664e+00	1.903102e+02
2.500000e-06	-4.109689e-07	1.767322e-09	-2.965150e+00	1.128454e+02
2.510000e-06	-5.615501e-07	5.779927e-10	-4.051596e+00	3.433042e+01
2.520000e-06	-7.120250e-07	-6.340392e-10	-5.137276e+00	-4.578477e+01
2.530000e-06	-8.623465e-07	-1.877917e-09	-6.221849e+00	-1.279694e+02
2.540000e-06	-1.012389e-06	-3.160494e-09	-7.304408e+00	-2.124300e+02
2.550000e-06	-1.162044e-06	-4.483909e-09	-8.384177e+00	-2.989741e+02
2.560000e-06	-1.311256e-06	-5.836193e-09	-9.460741e+00	-3.869489e+02
2.570000e-06	-1.459945e-06	-7.198493e-09	-1.053353e+01	-4.752739e+02
2.580000e-06	-1.608109e-06	-8.546472e-09	-1.160254e+01	-5.625602e+02
2.590000e-06	-1.755654e-06	-9.853353e-09	-1.266708e+01	-6.472927e+02
2.600000e-06	-1.902459e-06	-1.109145e-08	-1.372629e+01	-7.280393e+02
2.610000e-06	-2.048627e-06	-1.224188e-08	-1.478089e+01	-8.036420e+02
2.620000e-06	-2.194125e-06	-1.329793e-08	-1.583066e+01	-8.733546e+02
2.630000e-06	-2.338761e-06	-1.426221e-08	-1.687421e+01	-9.369017e+02
2.640000e-06	-2.482423e-06	-1.514302e-08	-1.791074e+01	-9.944528e+02
2.650000e-06	-2.625173e-06	-1.594837e-08	-1.894068e+01	-1.046525e+03
2.660000e-06	-2.766971e-06	-1.668633e-08	-1.996376e+01	-1.093841e+03
2.670000e-06	-2.907516e-06	-1.736348e-08	-2.097779e+01	-1.137173e+03
2.680000e-06	-3.046743e-06	-1.798469e-08	-2.198232e+01	-1.177216e+03
2.690000e-06	-3.184801e-06	-1.855767e-08	-2.297841e+01	-1.214499e+03
2.700000e-06	-3.321687e-06	-1.908932e-08	-2.396605e+01	-1.249361e+03
2.710000e-06	-3.457321e-06	-1.958151e-08	-2.494465e+01	-1.281973e+03
2.720000e-06	-3.591748e-06	-2.003958e-08	-2.591454e+01	-1.312400e+03
2.730000e-06	-3.724845e-06	-2.046706e-08	-2.687484e+01	-1.340677e+03
2.740000e-06	-3.856532e-06	-2.086712e-08	-2.782496e+01	-1.366872e+03
2.750000e-06	-3.986884e-06	-2.124448e-08	-2.876546e+01	-1.391123e+03
2.760000e-06	-4.115854e-06	-2.159536e-08	-2.969598e+01	-1.413645e+03
2.770000e-06	-4.243439e-06	-2.192186e-08	-3.061651e+01	-1.434701e+03
2.780000e-06	-4.369604e-06	-2.223005e-08	-3.152679e+01	-1.454559e+03
2.790000e-06	-4.494221e-06	-2.252144e-08	-3.242591e+01	-1.473443e+03
2.800000e-06	-4.617294e-06	-2.279778e-08	-3.331388e+01	-1.491500e+03
2.810000e-06	-4.738790e-06	-2.306094e-08	-3.419048e+01	-1.508790e+03
2.820000e-06	-4.858529e-06	-2.331037e-08	-3.505439e+01	-1.525297e+03
2.830000e-06	-4.976365e-06	-2.354629e-08	-3.590458e+01	-1.540962e+03
2.840000e-06	-5.092184e-06	-2.377006e-08	-3.674022e+01	-1.555727e+03
2.850000e-06	-5.205891e-06	-2.398184e-08	-3.756062e+01	-1.569570e+03
2.860000e-06	-5.317468e-06	-2.418379e-08	-3.836565e+01	-1.582522e+03
2.870000e-06	-5.427051e-06	-2.437483e-08	-3.915629e+01	-1.594676e+03
2.880000e-06	-5.534807e-06	-2.455570e-08	-3.993375e+01	-1.606161e+03
2.890000e-06	-5.640711e-06	-2.472785e-08	-4.069785e+01	-1.617117e+03
2.900000e-06	-5.744540e-06	-2.488966e-08	-4.144698e+01	-1.627657e+03
2.910000e-06	-5.846148e-06	-2.504268e-08	-4.218008e+01	-1.637844e+03
2.920000e-06	-5.945620e-06	-2.519056e-08	-4.289778e+01	-1.647681e+03
2.930000e-06	-6.043023e-06	-2.533343e-08	-4.360054e+01	-1.657124e+03
2.940000e-06	-6.138292e-06	-2.546929e-08	-4.428791e+01	-1.666097e+03
