# Temperatura_=_52.82
# Concentracion g/m^3_=_28200.0
# C_Vs_to_Am_M_A/Vsm_=_65563218390.804596
# pendiente_HvsI_1/m_=_3716.3
# ordenada_HvsI_A/m_=_1297.0
# frecuencia_Hz_=_302548.79310379975

Tiempo_(s)	Campo_(V.s)	Magnetizacion_(V.s)	Campo_(kA/m)	Magnetizacion_(A/m)
0.000000e+00	-7.886723e-06	-2.565612e-08	-5.684050e+01	-1.678759e+03
1.000000e-08	-7.883205e-06	-2.565256e-08	-5.681514e+01	-1.678298e+03
2.000000e-08	-7.877142e-06	-2.564303e-08	-5.677144e+01	-1.677722e+03
3.000000e-08	-7.868512e-06	-2.563422e-08	-5.670925e+01	-1.677065e+03
4.000000e-08	-7.857094e-06	-2.562573e-08	-5.662695e+01	-1.676339e+03
5.000000e-08	-7.842720e-06	-2.561216e-08	-5.652336e+01	-1.675531e+03
6.000000e-08	-7.825535e-06	-2.559274e-08	-5.639951e+01	-1.674608e+03
7.000000e-08	-7.806009e-06	-2.557126e-08	-5.625878e+01	-1.673527e+03
8.000000e-08	-7.784218e-06	-2.556322e-08	-5.610173e+01	-1.672252e+03
9.000000e-08	-7.759633e-06	-2.558445e-08	-5.592455e+01	-1.670772e+03
1.000000e-07	-7.731868e-06	-2.554912e-08	-5.572444e+01	-1.669109e+03
1.100000e-07	-7.701080e-06	-2.548766e-08	-5.550254e+01	-1.667317e+03
1.200000e-07	-7.667525e-06	-2.545514e-08	-5.526071e+01	-1.665468e+03
1.300000e-07	-7.631329e-06	-2.542569e-08	-5.499985e+01	-1.663636e+03
1.400000e-07	-7.592746e-06	-2.536982e-08	-5.472177e+01	-1.661872e+03
1.500000e-07	-7.551995e-06	-2.530611e-08	-5.442808e+01	-1.660184e+03
1.600000e-07	-7.508873e-06	-2.534476e-08	-5.411729e+01	-1.658529e+03
1.700000e-07	-7.463161e-06	-2.530047e-08	-5.378783e+01	-1.656818e+03
1.800000e-07	-7.414811e-06	-2.520583e-08	-5.343938e+01	-1.654934e+03
1.900000e-07	-7.363550e-06	-2.521907e-08	-5.306993e+01	-1.652758e+03
2.000000e-07	-7.309337e-06	-2.515729e-08	-5.267921e+01	-1.650196e+03
2.100000e-07	-7.252431e-06	-2.510008e-08	-5.226908e+01	-1.647201e+03
2.200000e-07	-7.192888e-06	-2.504327e-08	-5.183995e+01	-1.643783e+03
2.300000e-07	-7.130733e-06	-2.497481e-08	-5.139199e+01	-1.640002e+03
2.400000e-07	-7.065922e-06	-2.493749e-08	-5.092489e+01	-1.635949e+03
2.500000e-07	-6.998355e-06	-2.485569e-08	-5.043793e+01	-1.631719e+03
2.600000e-07	-6.928090e-06	-2.480612e-08	-4.993152e+01	-1.627384e+03
2.700000e-07	-6.855153e-06	-2.473870e-08	-4.940585e+01	-1.622974e+03
2.800000e-07	-6.779521e-06	-2.466237e-08	-4.886077e+01	-1.618467e+03
2.900000e-07	-6.701128e-06	-2.457380e-08	-4.829578e+01	-1.613801e+03
3.000000e-07	-6.620032e-06	-2.449208e-08	-4.771131e+01	-1.608892e+03
3.100000e-07	-6.536560e-06	-2.442465e-08	-4.710972e+01	-1.603659e+03
3.200000e-07	-6.450924e-06	-2.432853e-08	-4.649254e+01	-1.598047e+03
3.300000e-07	-6.363053e-06	-2.425530e-08	-4.585923e+01	-1.592043e+03
3.400000e-07	-6.272801e-06	-2.415019e-08	-4.520878e+01	-1.585676e+03
3.500000e-07	-6.180267e-06	-2.404417e-08	-4.454188e+01	-1.579005e+03
3.600000e-07	-6.085523e-06	-2.394893e-08	-4.385905e+01	-1.572093e+03
3.700000e-07	-5.988489e-06	-2.384294e-08	-4.315971e+01	-1.564990e+03
3.800000e-07	-5.889264e-06	-2.373055e-08	-4.244459e+01	-1.557707e+03
3.900000e-07	-5.787995e-06	-2.361406e-08	-4.171473e+01	-1.550213e+03
4.000000e-07	-5.684675e-06	-2.349522e-08	-4.097009e+01	-1.542438e+03
4.100000e-07	-5.579367e-06	-2.335493e-08	-4.021112e+01	-1.534294e+03
4.200000e-07	-5.472147e-06	-2.322421e-08	-3.943838e+01	-1.525695e+03
4.300000e-07	-5.363027e-06	-2.308906e-08	-3.865194e+01	-1.516585e+03
4.400000e-07	-5.251897e-06	-2.294762e-08	-3.785101e+01	-1.506944e+03
4.500000e-07	-5.138748e-06	-2.279667e-08	-3.703553e+01	-1.496799e+03
4.600000e-07	-5.023655e-06	-2.264283e-08	-3.620604e+01	-1.486199e+03
4.700000e-07	-4.906628e-06	-2.247610e-08	-3.536262e+01	-1.475199e+03
4.800000e-07	-4.787752e-06	-2.229596e-08	-3.450587e+01	-1.463835e+03
4.900000e-07	-4.667177e-06	-2.211494e-08	-3.363687e+01	-1.452097e+03
5.000000e-07	-4.544838e-06	-2.192656e-08	-3.275516e+01	-1.439930e+03
5.100000e-07	-4.420773e-06	-2.172655e-08	-3.186101e+01	-1.427236e+03
5.200000e-07	-4.295181e-06	-2.151332e-08	-3.095585e+01	-1.413896e+03
5.300000e-07	-4.168041e-06	-2.129852e-08	-3.003954e+01	-1.399800e+03
5.400000e-07	-4.039382e-06	-2.107004e-08	-2.911227e+01	-1.384869e+03
5.500000e-07	-3.909203e-06	-2.082834e-08	-2.817406e+01	-1.369071e+03
5.600000e-07	-3.777524e-06	-2.057605e-08	-2.722504e+01	-1.352421e+03
5.700000e-07	-3.644445e-06	-2.031517e-08	-2.626592e+01	-1.334960e+03
5.800000e-07	-3.509956e-06	-2.003854e-08	-2.529664e+01	-1.316730e+03
5.900000e-07	-3.374086e-06	-1.974442e-08	-2.431742e+01	-1.297737e+03
6.000000e-07	-3.236929e-06	-1.943621e-08	-2.332891e+01	-1.277930e+03
6.100000e-07	-3.098506e-06	-1.911297e-08	-2.233128e+01	-1.257189e+03
6.200000e-07	-2.958802e-06	-1.877422e-08	-2.132442e+01	-1.235335e+03
6.300000e-07	-2.817847e-06	-1.841313e-08	-2.030854e+01	-1.212158e+03
6.400000e-07	-2.675752e-06	-1.803255e-08	-1.928445e+01	-1.187452e+03
6.500000e-07	-2.532593e-06	-1.762968e-08	-1.825268e+01	-1.161044e+03
6.600000e-07	-2.388513e-06	-1.720143e-08	-1.721428e+01	-1.132814e+03
6.700000e-07	-2.243661e-06	-1.674435e-08	-1.617032e+01	-1.102687e+03
6.800000e-07	-2.097997e-06	-1.625861e-08	-1.512050e+01	-1.070609e+03
6.900000e-07	-1.951547e-06	-1.574266e-08	-1.406502e+01	-1.036501e+03
7.000000e-07	-1.804462e-06	-1.518946e-08	-1.300496e+01	-1.000212e+03
7.100000e-07	-1.656836e-06	-1.459409e-08	-1.194100e+01	-9.614921e+02
7.200000e-07	-1.508710e-06	-1.395139e-08	-1.087344e+01	-9.199896e+02
7.300000e-07	-1.360104e-06	-1.326034e-08	-9.802425e+00	-8.752846e+02
7.400000e-07	-1.211111e-06	-1.251520e-08	-8.728612e+00	-8.269598e+02
7.500000e-07	-1.061766e-06	-1.171677e-08	-7.652266e+00	-7.746909e+02
7.600000e-07	-9.120785e-07	-1.086397e-08	-6.573452e+00	-7.183381e+02
7.700000e-07	-7.621001e-07	-9.954127e-09	-5.492541e+00	-6.580132e+02
7.800000e-07	-6.117969e-07	-8.986673e-09	-4.409289e+00	-5.941025e+02
7.900000e-07	-4.612196e-07	-7.969573e-09	-3.324061e+00	-5.272312e+02
8.000000e-07	-3.103976e-07	-6.917432e-09	-2.237070e+00	-4.581739e+02
8.100000e-07	-1.594207e-07	-5.839318e-09	-1.148963e+00	-3.877242e+02
8.200000e-07	-8.378416e-09	-4.746743e-09	-6.038418e-02	-3.165522e+02
8.300000e-07	1.426683e-07	-3.650630e-09	1.028227e+00	-2.450824e+02
8.400000e-07	2.936287e-07	-2.556103e-09	2.116215e+00	-1.734219e+02
8.500000e-07	4.445180e-07	-1.459033e-09	3.203691e+00	-1.013597e+02
8.600000e-07	5.952232e-07	-3.540689e-10	4.289840e+00	-2.844193e+01
8.700000e-07	7.457195e-07	7.683526e-10	5.374484e+00	4.588996e+01
8.800000e-07	8.960096e-07	1.918848e-09	6.457642e+00	1.221263e+02
8.900000e-07	1.045979e-06	3.106489e-09	7.538491e+00	2.005183e+02
9.000000e-07	1.195596e-06	4.331952e-09	8.616792e+00	2.809476e+02
9.100000e-07	1.344884e-06	5.585864e-09	9.692732e+00	3.628660e+02
9.200000e-07	1.493751e-06	6.854156e-09	1.076563e+01	4.453189e+02
9.300000e-07	1.642032e-06	8.110881e-09	1.183431e+01	5.270508e+02
9.400000e-07	1.789741e-06	9.328480e-09	1.289886e+01	6.066694e+02
9.500000e-07	1.936855e-06	1.048178e-08	1.395913e+01	6.828360e+02
9.600000e-07	2.083246e-06	1.155426e-08	1.501419e+01	7.544419e+02
9.700000e-07	2.228889e-06	1.254250e-08	1.606385e+01	8.207398e+02
9.800000e-07	2.373695e-06	1.344880e-08	1.710749e+01	8.814034e+02
9.900000e-07	2.517608e-06	1.428113e-08	1.814468e+01	9.365135e+02
1.000000e-06	2.660572e-06	1.504350e-08	1.917504e+01	9.864766e+02
1.010000e-06	2.802455e-06	1.574041e-08	2.019761e+01	1.031902e+03
1.020000e-06	2.943169e-06	1.637865e-08	2.121175e+01	1.073468e+03
1.030000e-06	3.082653e-06	1.696538e-08	2.221702e+01	1.111803e+03
1.040000e-06	3.220900e-06	1.750729e-08	2.321339e+01	1.147404e+03
1.050000e-06	3.357850e-06	1.800816e-08	2.420040e+01	1.180612e+03
1.060000e-06	3.493493e-06	1.847125e-08	2.517799e+01	1.211622e+03
1.070000e-06	3.627847e-06	1.889988e-08	2.614630e+01	1.240536e+03
1.080000e-06	3.760929e-06	1.929975e-08	2.710544e+01	1.267418e+03
1.090000e-06	3.892689e-06	1.967362e-08	2.805505e+01	1.292352e+03
1.100000e-06	4.023065e-06	2.002818e-08	2.899468e+01	1.315475e+03
1.110000e-06	4.152057e-06	2.036351e-08	2.992434e+01	1.336979e+03
1.120000e-06	4.279531e-06	2.067746e-08	3.084306e+01	1.357092e+03
1.130000e-06	4.405547e-06	2.097030e-08	3.175127e+01	1.376040e+03
1.140000e-06	4.530150e-06	2.124380e-08	3.264930e+01	1.394016e+03
1.150000e-06	4.653165e-06	2.150095e-08	3.353588e+01	1.411146e+03
1.160000e-06	4.774480e-06	2.174283e-08	3.441021e+01	1.427485e+03
1.170000e-06	4.893989e-06	2.197174e-08	3.527152e+01	1.443030e+03
1.180000e-06	5.011744e-06	2.218858e-08	3.612020e+01	1.457744e+03
1.190000e-06	5.127684e-06	2.239544e-08	3.695580e+01	1.471593e+03
1.200000e-06	5.241613e-06	2.259225e-08	3.777689e+01	1.484576e+03
1.210000e-06	5.353509e-06	2.277834e-08	3.858334e+01	1.496735e+03
1.220000e-06	5.463491e-06	2.295407e-08	3.937599e+01	1.508160e+03
1.230000e-06	5.571605e-06	2.312033e-08	4.015518e+01	1.518966e+03
1.240000e-06	5.677721e-06	2.327909e-08	4.091997e+01	1.529271e+03
1.250000e-06	5.781712e-06	2.343098e-08	4.166944e+01	1.539166e+03
1.260000e-06	5.883601e-06	2.357576e-08	4.240377e+01	1.548695e+03
1.270000e-06	5.983357e-06	2.371297e-08	4.312272e+01	1.557854e+03
1.280000e-06	6.080804e-06	2.384233e-08	4.382504e+01	1.566597e+03
1.290000e-06	6.175971e-06	2.396592e-08	4.451091e+01	1.574861e+03
1.300000e-06	6.268977e-06	2.408483e-08	4.518122e+01	1.582591e+03
1.310000e-06	6.359745e-06	2.419563e-08	4.583540e+01	1.589764e+03
1.320000e-06	6.448178e-06	2.429672e-08	4.647274e+01	1.596399e+03
1.330000e-06	6.534332e-06	2.439131e-08	4.709366e+01	1.602561e+03
1.340000e-06	6.618220e-06	2.448220e-08	4.769825e+01	1.608342e+03
1.350000e-06	6.699695e-06	2.456803e-08	4.828545e+01	1.613839e+03
1.360000e-06	6.778722e-06	2.464868e-08	4.885501e+01	1.619136e+03
1.370000e-06	6.855325e-06	2.472547e-08	4.940710e+01	1.624278e+03
1.380000e-06	6.929339e-06	2.479832e-08	4.994052e+01	1.629273e+03
1.390000e-06	7.000746e-06	2.486784e-08	5.045516e+01	1.634090e+03
1.400000e-06	7.069712e-06	2.493373e-08	5.095221e+01	1.638682e+03
1.410000e-06	7.136132e-06	2.499777e-08	5.143090e+01	1.643000e+03
1.420000e-06	7.199947e-06	2.505925e-08	5.189082e+01	1.647014e+03
1.430000e-06	7.261337e-06	2.511657e-08	5.233327e+01	1.650724e+03
1.440000e-06	7.320234e-06	2.517030e-08	5.275775e+01	1.654161e+03
1.450000e-06	7.376522e-06	2.522155e-08	5.316342e+01	1.657374e+03
1.460000e-06	7.430119e-06	2.527195e-08	5.354970e+01	1.660414e+03
1.470000e-06	7.480731e-06	2.532022e-08	5.391446e+01	1.663322e+03
1.480000e-06	7.528314e-06	2.536329e-08	5.425740e+01	1.666109e+03
1.490000e-06	7.573190e-06	2.540091e-08	5.458083e+01	1.668758e+03
1.500000e-06	7.615446e-06	2.543391e-08	5.488537e+01	1.671228e+03
1.510000e-06	7.654951e-06	2.546428e-08	5.517009e+01	1.673467e+03
1.520000e-06	7.691777e-06	2.549234e-08	5.543550e+01	1.675434e+03
1.530000e-06	7.725920e-06	2.551671e-08	5.568157e+01	1.677107e+03
1.540000e-06	7.757259e-06	2.553901e-08	5.590743e+01	1.678497e+03
1.550000e-06	7.785929e-06	2.555915e-08	5.611406e+01	1.679641e+03
1.560000e-06	7.811751e-06	2.557595e-08	5.630017e+01	1.680596e+03
1.570000e-06	7.834621e-06	2.559055e-08	5.646499e+01	1.681420e+03
1.580000e-06	7.854813e-06	2.560328e-08	5.661051e+01	1.682156e+03
1.590000e-06	7.872228e-06	2.561397e-08	5.673603e+01	1.682822e+03
1.600000e-06	7.886696e-06	2.562271e-08	5.684030e+01	1.683410e+03
1.610000e-06	7.898102e-06	2.562837e-08	5.692250e+01	1.683886e+03
1.620000e-06	7.906413e-06	2.563150e-08	5.698241e+01	1.684210e+03
1.630000e-06	7.911901e-06	2.563437e-08	5.702196e+01	1.684347e+03
1.640000e-06	7.914613e-06	2.563480e-08	5.704150e+01	1.684281e+03
1.650000e-06	7.914455e-06	2.563203e-08	5.704037e+01	1.684019e+03
1.660000e-06	7.911653e-06	2.562289e-08	5.702017e+01	1.683593e+03
1.670000e-06	7.906252e-06	2.561593e-08	5.698124e+01	1.683041e+03
1.680000e-06	7.898185e-06	2.560860e-08	5.692310e+01	1.682401e+03
1.690000e-06	7.887514e-06	2.559744e-08	5.684620e+01	1.681691e+03
1.700000e-06	7.874006e-06	2.558594e-08	5.674884e+01	1.680905e+03
1.710000e-06	7.857753e-06	2.557447e-08	5.663170e+01	1.680014e+03
1.720000e-06	7.839210e-06	2.556287e-08	5.649806e+01	1.678975e+03
1.730000e-06	7.818418e-06	2.551463e-08	5.634822e+01	1.677750e+03
1.740000e-06	7.794797e-06	2.545335e-08	5.617798e+01	1.676320e+03
1.750000e-06	7.767651e-06	2.546159e-08	5.598233e+01	1.674698e+03
1.760000e-06	7.736910e-06	2.545941e-08	5.576078e+01	1.672930e+03
1.770000e-06	7.703224e-06	2.542156e-08	5.551800e+01	1.671086e+03
1.780000e-06	7.667233e-06	2.540883e-08	5.525861e+01	1.669244e+03
1.790000e-06	7.629021e-06	2.543676e-08	5.498321e+01	1.667459e+03
1.800000e-06	7.588833e-06	2.534824e-08	5.469357e+01	1.665753e+03
1.810000e-06	7.546572e-06	2.532437e-08	5.438899e+01	1.664095e+03
1.820000e-06	7.501674e-06	2.538418e-08	5.406541e+01	1.662407e+03
1.830000e-06	7.454101e-06	2.530303e-08	5.372254e+01	1.660577e+03
1.840000e-06	7.403695e-06	2.532110e-08	5.335926e+01	1.658483e+03
1.850000e-06	7.350311e-06	2.525896e-08	5.297451e+01	1.656023e+03
1.860000e-06	7.294144e-06	2.521938e-08	5.256972e+01	1.653136e+03
1.870000e-06	7.235309e-06	2.520416e-08	5.214568e+01	1.649820e+03
1.880000e-06	7.173912e-06	2.507935e-08	5.170319e+01	1.646121e+03
1.890000e-06	7.109702e-06	2.507033e-08	5.124042e+01	1.642125e+03
1.900000e-06	7.042683e-06	2.499541e-08	5.075740e+01	1.637930e+03
1.910000e-06	6.973058e-06	2.493228e-08	5.025561e+01	1.633616e+03
1.920000e-06	6.900674e-06	2.487865e-08	4.973393e+01	1.629223e+03
1.930000e-06	6.825602e-06	2.480821e-08	4.919288e+01	1.624744e+03
1.940000e-06	6.747837e-06	2.476599e-08	4.863242e+01	1.620124e+03
1.950000e-06	6.667435e-06	2.465139e-08	4.805295e+01	1.615283e+03
1.960000e-06	6.584586e-06	2.457656e-08	4.745585e+01	1.610137e+03
1.970000e-06	6.499289e-06	2.447697e-08	4.684110e+01	1.604621e+03
1.980000e-06	6.411600e-06	2.439860e-08	4.620912e+01	1.598713e+03
1.990000e-06	6.321609e-06	2.431883e-08	4.556054e+01	1.592431e+03
2.000000e-06	6.229423e-06	2.421378e-08	4.489615e+01	1.585829e+03
2.010000e-06	6.135006e-06	2.412572e-08	4.421567e+01	1.578970e+03
2.020000e-06	6.038381e-06	2.401060e-08	4.351929e+01	1.571911e+03
2.030000e-06	5.939622e-06	2.389913e-08	4.280752e+01	1.564673e+03
2.040000e-06	5.838763e-06	2.377095e-08	4.208062e+01	1.557236e+03
2.050000e-06	5.735844e-06	2.366327e-08	4.133887e+01	1.549539e+03
2.060000e-06	5.630861e-06	2.353782e-08	4.058225e+01	1.541494e+03
2.070000e-06	5.523918e-06	2.340382e-08	3.981149e+01	1.533015e+03
2.080000e-06	5.415084e-06	2.326346e-08	3.902711e+01	1.524034e+03
2.090000e-06	5.304314e-06	2.311912e-08	3.822878e+01	1.514525e+03
2.100000e-06	5.191585e-06	2.297074e-08	3.741633e+01	1.504500e+03
2.110000e-06	5.076952e-06	2.281175e-08	3.659016e+01	1.494007e+03
2.120000e-06	4.960344e-06	2.265521e-08	3.574975e+01	1.483102e+03
2.130000e-06	4.841751e-06	2.248444e-08	3.489504e+01	1.471827e+03
2.140000e-06	4.721313e-06	2.230408e-08	3.402703e+01	1.460185e+03
2.150000e-06	4.599165e-06	2.211322e-08	3.314670e+01	1.448132e+03
2.160000e-06	4.475374e-06	2.192447e-08	3.225452e+01	1.435579e+03
2.170000e-06	4.349959e-06	2.172263e-08	3.135064e+01	1.422411e+03
2.180000e-06	4.222924e-06	2.151414e-08	3.043508e+01	1.408512e+03
2.190000e-06	4.094373e-06	2.129588e-08	2.950861e+01	1.393794e+03
2.200000e-06	3.964377e-06	2.106379e-08	2.857171e+01	1.378212e+03
2.210000e-06	3.832813e-06	2.081304e-08	2.762351e+01	1.361770e+03
2.220000e-06	3.699785e-06	2.055061e-08	2.666476e+01	1.344506e+03
2.230000e-06	3.565396e-06	2.028070e-08	2.569621e+01	1.326465e+03
2.240000e-06	3.429637e-06	1.999805e-08	2.471778e+01	1.307664e+03
2.250000e-06	3.292624e-06	1.970232e-08	2.373031e+01	1.288068e+03
2.260000e-06	3.154391e-06	1.939081e-08	2.273405e+01	1.267574e+03
2.270000e-06	3.014886e-06	1.906108e-08	2.172862e+01	1.246016e+03
2.280000e-06	2.874174e-06	1.870802e-08	2.071450e+01	1.223189e+03
2.290000e-06	2.732317e-06	1.833585e-08	1.969212e+01	1.198882e+03
2.300000e-06	2.589435e-06	1.794230e-08	1.866235e+01	1.172912e+03
2.310000e-06	2.445678e-06	1.752673e-08	1.762628e+01	1.145145e+03
2.320000e-06	2.301068e-06	1.708309e-08	1.658405e+01	1.115496e+03
2.330000e-06	2.155712e-06	1.660802e-08	1.553646e+01	1.083911e+03
2.340000e-06	2.009714e-06	1.609932e-08	1.448424e+01	1.050319e+03
2.350000e-06	1.863013e-06	1.555325e-08	1.342694e+01	1.014594e+03
2.360000e-06	1.715583e-06	1.496831e-08	1.236440e+01	9.765100e+02
2.370000e-06	1.567551e-06	1.434147e-08	1.129751e+01	9.357398e+02
2.380000e-06	1.419091e-06	1.366939e-08	1.022754e+01	8.918751e+02
2.390000e-06	1.270277e-06	1.294546e-08	9.155025e+00	8.444898e+02
2.400000e-06	1.121035e-06	1.216337e-08	8.079423e+00	7.932276e+02
2.410000e-06	9.713754e-07	1.132213e-08	7.000812e+00	7.378948e+02
2.420000e-06	8.213194e-07	1.042342e-08	5.919341e+00	6.785363e+02
2.430000e-06	6.709616e-07	9.470024e-09	4.835695e+00	6.154705e+02
2.440000e-06	5.203921e-07	8.467651e-09	3.750524e+00	5.492695e+02
2.450000e-06	3.695789e-07	7.424261e-09	2.663596e+00	4.806815e+02
2.460000e-06	2.186067e-07	6.348238e-09	1.575523e+00	4.105088e+02
2.470000e-06	6.754900e-08	5.250814e-09	4.868332e-01	3.394653e+02
2.480000e-06	-8.352353e-08	4.146530e-09	-6.019634e-01	2.680459e+02
2.490000e-06	-2.346008e-07	3.044446e-09	-1.690795e+00	1.964400e+02
2.500000e-06	-3.856404e-07	1.944684e-09	-2.779353e+00	1.245122e+02
2.510000e-06	-5.365478e-07	8.407505e-10	-3.866960e+00	5.185830e+01
2.520000e-06	-6.872936e-07	-2.788250e-10	-4.953402e+00	-2.206941e+01
2.530000e-06	-8.378160e-07	-1.424049e-09	-6.038234e+00	-9.779513e+01
2.540000e-06	-9.880222e-07	-2.604330e-09	-7.120786e+00	-1.756443e+02
2.550000e-06	-1.137811e-06	-3.824465e-09	-8.200331e+00	-2.555997e+02
2.560000e-06	-1.287151e-06	-5.077220e-09	-9.276640e+00	-3.372218e+02
2.570000e-06	-1.436019e-06	-6.346746e-09	-1.034955e+01	-4.196505e+02
2.580000e-06	-1.584376e-06	-7.612279e-09	-1.141877e+01	-5.016921e+02
2.590000e-06	-1.732207e-06	-8.850230e-09	-1.248421e+01	-5.819710e+02
2.600000e-06	-1.879439e-06	-1.003375e-08	-1.354532e+01	-6.591172e+02
2.610000e-06	-2.025963e-06	-1.114446e-08	-1.460134e+01	-7.319502e+02
2.620000e-06	-2.171763e-06	-1.217248e-08	-1.565214e+01	-7.996235e+02
2.630000e-06	-2.316723e-06	-1.311548e-08	-1.669688e+01	-8.617041e+02
2.640000e-06	-2.460713e-06	-1.397722e-08	-1.773463e+01	-9.181764e+02
2.650000e-06	-2.603768e-06	-1.476416e-08	-1.876565e+01	-9.693758e+02
2.660000e-06	-2.745780e-06	-1.548567e-08	-1.978914e+01	-1.015874e+03
2.670000e-06	-2.886646e-06	-1.614864e-08	-2.080438e+01	-1.058343e+03
2.680000e-06	-3.026320e-06	-1.675814e-08	-2.181102e+01	-1.097434e+03
2.690000e-06	-3.164795e-06	-1.731850e-08	-2.280903e+01	-1.133681e+03
2.700000e-06	-3.302073e-06	-1.783491e-08	-2.379841e+01	-1.167465e+03
2.710000e-06	-3.438056e-06	-1.831237e-08	-2.477846e+01	-1.199014e+03
2.720000e-06	-3.572801e-06	-1.875642e-08	-2.574958e+01	-1.228447e+03
2.730000e-06	-3.706309e-06	-1.917033e-08	-2.671179e+01	-1.255831e+03
2.740000e-06	-3.838454e-06	-1.955840e-08	-2.766417e+01	-1.281243e+03
2.750000e-06	-3.969231e-06	-1.992216e-08	-2.860669e+01	-1.304804e+03
2.760000e-06	-4.098657e-06	-2.026037e-08	-2.953948e+01	-1.326693e+03
2.770000e-06	-4.226640e-06	-2.057611e-08	-3.046187e+01	-1.347133e+03
2.780000e-06	-4.353219e-06	-2.087464e-08	-3.137414e+01	-1.366353e+03
2.790000e-06	-4.478318e-06	-2.115775e-08	-3.227574e+01	-1.384559e+03
2.800000e-06	-4.601730e-06	-2.142367e-08	-3.316518e+01	-1.401894e+03
2.810000e-06	-4.723544e-06	-2.167516e-08	-3.404311e+01	-1.418430e+03
2.820000e-06	-4.843697e-06	-2.191413e-08	-3.490907e+01	-1.434177e+03
2.830000e-06	-4.961948e-06	-2.214058e-08	-3.576131e+01	-1.449103e+03
2.840000e-06	-5.078218e-06	-2.235468e-08	-3.659929e+01	-1.463172e+03
2.850000e-06	-5.192465e-06	-2.255719e-08	-3.742268e+01	-1.476370e+03
2.860000e-06	-5.304602e-06	-2.274886e-08	-3.823086e+01	-1.488729e+03
2.870000e-06	-5.414674e-06	-2.293007e-08	-3.902416e+01	-1.500328e+03
2.880000e-06	-5.522855e-06	-2.310139e-08	-3.980383e+01	-1.511279e+03
2.890000e-06	-5.629188e-06	-2.326333e-08	-4.057019e+01	-1.521701e+03
2.900000e-06	-5.733487e-06	-2.341683e-08	-4.132188e+01	-1.531693e+03
2.910000e-06	-5.835588e-06	-2.356236e-08	-4.205774e+01	-1.541313e+03
2.920000e-06	-5.935548e-06	-2.370178e-08	-4.277816e+01	-1.550569e+03
2.930000e-06	-6.033407e-06	-2.383623e-08	-4.348344e+01	-1.559422e+03
2.940000e-06	-6.129087e-06	-2.396374e-08	-4.417302e+01	-1.567813e+03
