# Temperatura_=_87.15
# Concentracion g/m^3_=_28200.0
# C_Vs_to_Am_M_A/Vsm_=_65563218390.804596
# pendiente_HvsI_1/m_=_3716.3
# ordenada_HvsI_A/m_=_1297.0
# frecuencia_Hz_=_302557.77911154076

Tiempo_(s)	Campo_(V.s)	Magnetizacion_(V.s)	Campo_(kA/m)	Magnetizacion_(A/m)
0.000000e+00	-7.877666e-06	-3.043875e-08	-5.683125e+01	-1.993825e+03
1.000000e-08	-7.873899e-06	-3.043337e-08	-5.680408e+01	-1.993107e+03
2.000000e-08	-7.867576e-06	-3.041840e-08	-5.675846e+01	-1.992255e+03
3.000000e-08	-7.858633e-06	-3.040732e-08	-5.669395e+01	-1.991317e+03
4.000000e-08	-7.846856e-06	-3.039571e-08	-5.660898e+01	-1.990309e+03
5.000000e-08	-7.832125e-06	-3.037551e-08	-5.650271e+01	-1.989211e+03
6.000000e-08	-7.814646e-06	-3.034562e-08	-5.637661e+01	-1.987971e+03
7.000000e-08	-7.794887e-06	-3.030998e-08	-5.623407e+01	-1.986523e+03
8.000000e-08	-7.772862e-06	-3.030388e-08	-5.607517e+01	-1.984811e+03
9.000000e-08	-7.747988e-06	-3.035470e-08	-5.589573e+01	-1.982807e+03
1.000000e-07	-7.719892e-06	-3.029196e-08	-5.569304e+01	-1.980528e+03
1.100000e-07	-7.688843e-06	-3.019262e-08	-5.546904e+01	-1.978030e+03
1.200000e-07	-7.655038e-06	-3.015897e-08	-5.522516e+01	-1.975400e+03
1.300000e-07	-7.618606e-06	-3.012390e-08	-5.496234e+01	-1.972728e+03
1.400000e-07	-7.579883e-06	-3.003568e-08	-5.468297e+01	-1.970076e+03
1.500000e-07	-7.538981e-06	-2.995498e-08	-5.438790e+01	-1.967464e+03
1.600000e-07	-7.495681e-06	-3.005666e-08	-5.407552e+01	-1.964853e+03
1.700000e-07	-7.449740e-06	-2.993967e-08	-5.374410e+01	-1.962152e+03
1.800000e-07	-7.401131e-06	-2.979761e-08	-5.339342e+01	-1.959238e+03
1.900000e-07	-7.349566e-06	-2.984901e-08	-5.302142e+01	-1.955990e+03
2.000000e-07	-7.295068e-06	-2.972228e-08	-5.262826e+01	-1.952311e+03
2.100000e-07	-7.237969e-06	-2.968358e-08	-5.221633e+01	-1.948157e+03
2.200000e-07	-7.178243e-06	-2.963422e-08	-5.178546e+01	-1.943545e+03
2.300000e-07	-7.115904e-06	-2.953962e-08	-5.133573e+01	-1.938540e+03
2.400000e-07	-7.050881e-06	-2.949029e-08	-5.086664e+01	-1.933237e+03
2.500000e-07	-6.983127e-06	-2.936552e-08	-5.037784e+01	-1.927729e+03
2.600000e-07	-6.912726e-06	-2.929628e-08	-4.986996e+01	-1.922079e+03
2.700000e-07	-6.839614e-06	-2.918985e-08	-4.934251e+01	-1.916302e+03
2.800000e-07	-6.763765e-06	-2.910894e-08	-4.879532e+01	-1.910363e+03
2.900000e-07	-6.685227e-06	-2.900271e-08	-4.822873e+01	-1.904187e+03
3.000000e-07	-6.604009e-06	-2.888776e-08	-4.764280e+01	-1.897684e+03
3.100000e-07	-6.520371e-06	-2.880466e-08	-4.703942e+01	-1.890778e+03
3.200000e-07	-6.434595e-06	-2.867426e-08	-4.642061e+01	-1.883427e+03
3.300000e-07	-6.346589e-06	-2.858496e-08	-4.578572e+01	-1.875636e+03
3.400000e-07	-6.256139e-06	-2.844103e-08	-4.513319e+01	-1.867451e+03
3.500000e-07	-6.163401e-06	-2.831376e-08	-4.446416e+01	-1.858941e+03
3.600000e-07	-6.068523e-06	-2.819794e-08	-4.377969e+01	-1.850170e+03
3.700000e-07	-5.971382e-06	-2.805728e-08	-4.307889e+01	-1.841174e+03
3.800000e-07	-5.872035e-06	-2.791267e-08	-4.236218e+01	-1.831942e+03
3.900000e-07	-5.770659e-06	-2.776209e-08	-4.163083e+01	-1.822414e+03
4.000000e-07	-5.667269e-06	-2.761414e-08	-4.088495e+01	-1.812497e+03
4.100000e-07	-5.561849e-06	-2.743101e-08	-4.012443e+01	-1.802091e+03
4.200000e-07	-5.454454e-06	-2.727034e-08	-3.934966e+01	-1.791110e+03
4.300000e-07	-5.345156e-06	-2.709950e-08	-3.856115e+01	-1.779515e+03
4.400000e-07	-5.233934e-06	-2.691902e-08	-3.775877e+01	-1.767315e+03
4.500000e-07	-5.120693e-06	-2.672464e-08	-3.694183e+01	-1.754564e+03
4.600000e-07	-5.005423e-06	-2.653065e-08	-3.611024e+01	-1.741333e+03
4.700000e-07	-4.888218e-06	-2.632486e-08	-3.526470e+01	-1.727686e+03
4.800000e-07	-4.769285e-06	-2.610556e-08	-3.440670e+01	-1.713645e+03
4.900000e-07	-4.648714e-06	-2.588764e-08	-3.353687e+01	-1.699174e+03
5.000000e-07	-4.526373e-06	-2.565487e-08	-3.265427e+01	-1.684178e+03
5.100000e-07	-4.402325e-06	-2.541061e-08	-3.175936e+01	-1.668522e+03
5.200000e-07	-4.276755e-06	-2.514674e-08	-3.085347e+01	-1.652062e+03
5.300000e-07	-4.149627e-06	-2.488114e-08	-2.993634e+01	-1.634679e+03
5.400000e-07	-4.020990e-06	-2.460005e-08	-2.900832e+01	-1.616308e+03
5.500000e-07	-3.890768e-06	-2.430806e-08	-2.806888e+01	-1.596948e+03
5.600000e-07	-3.758951e-06	-2.400175e-08	-2.711791e+01	-1.576650e+03
5.700000e-07	-3.625783e-06	-2.368398e-08	-2.615721e+01	-1.555488e+03
5.800000e-07	-3.491291e-06	-2.335092e-08	-2.518696e+01	-1.533516e+03
5.900000e-07	-3.355494e-06	-2.299843e-08	-2.420729e+01	-1.510727e+03
6.000000e-07	-3.218468e-06	-2.263203e-08	-2.321875e+01	-1.487031e+03
6.100000e-07	-3.080092e-06	-2.224641e-08	-2.222047e+01	-1.462247e+03
6.200000e-07	-2.940287e-06	-2.184197e-08	-2.121189e+01	-1.436132e+03
6.300000e-07	-2.799262e-06	-2.141146e-08	-2.019450e+01	-1.408417e+03
6.400000e-07	-2.657169e-06	-2.095719e-08	-1.916941e+01	-1.378862e+03
6.500000e-07	-2.514037e-06	-2.047678e-08	-1.813683e+01	-1.347288e+03
6.600000e-07	-2.369991e-06	-1.997029e-08	-1.709764e+01	-1.313593e+03
6.700000e-07	-2.225078e-06	-1.943023e-08	-1.605221e+01	-1.277740e+03
6.800000e-07	-2.079382e-06	-1.885453e-08	-1.500113e+01	-1.239704e+03
6.900000e-07	-1.933048e-06	-1.824171e-08	-1.394544e+01	-1.199414e+03
7.000000e-07	-1.786040e-06	-1.758516e-08	-1.288489e+01	-1.156694e+03
7.100000e-07	-1.638366e-06	-1.688336e-08	-1.181954e+01	-1.111219e+03
7.200000e-07	-1.490252e-06	-1.612903e-08	-1.075101e+01	-1.062530e+03
7.300000e-07	-1.341792e-06	-1.531992e-08	-9.679986e+00	-1.010075e+03
7.400000e-07	-1.192961e-06	-1.444751e-08	-8.606287e+00	-9.533136e+02
7.500000e-07	-1.043733e-06	-1.351134e-08	-7.529726e+00	-8.918249e+02
7.600000e-07	-8.941040e-07	-1.250932e-08	-6.450267e+00	-8.254244e+02
7.700000e-07	-7.441568e-07	-1.143723e-08	-5.368514e+00	-7.542375e+02
7.800000e-07	-5.939638e-07	-1.029261e-08	-4.284989e+00	-6.787160e+02
7.900000e-07	-4.435768e-07	-9.083870e-09	-3.200063e+00	-5.995833e+02
8.000000e-07	-2.929938e-07	-7.831013e-09	-2.113723e+00	-5.177156e+02
8.100000e-07	-1.422181e-07	-6.546085e-09	-1.025993e+00	-4.339822e+02
8.200000e-07	8.627607e-09	-5.243109e-09	6.224149e-02	-3.490811e+02
8.300000e-07	1.594944e-07	-3.929881e-09	1.150628e+00	-2.634098e+02
8.400000e-07	3.103739e-07	-2.610428e-09	2.239107e+00	-1.770047e+02
8.500000e-07	4.611615e-07	-1.280406e-09	3.326923e+00	-8.956973e+01
8.600000e-07	6.118177e-07	6.439050e-11	4.413790e+00	-5.920365e-01
8.700000e-07	7.622432e-07	1.434932e-09	5.498993e+00	9.047764e+01
8.800000e-07	9.123342e-07	2.846150e-09	6.581784e+00	1.840179e+02
8.900000e-07	1.062114e-06	4.303201e-09	7.662333e+00	2.800503e+02
9.000000e-07	1.211575e-06	5.801388e-09	8.740573e+00	3.781175e+02
9.100000e-07	1.360679e-06	7.322757e-09	9.816246e+00	4.772555e+02
9.200000e-07	1.509367e-06	8.843771e-09	1.088891e+01	5.760700e+02
9.300000e-07	1.657510e-06	1.033025e-08	1.195765e+01	6.729025e+02
9.400000e-07	1.805034e-06	1.174747e-08	1.302192e+01	7.660526e+02
9.500000e-07	1.951928e-06	1.307067e-08	1.408165e+01	8.540119e+02
9.600000e-07	2.098086e-06	1.428988e-08	1.513606e+01	9.356599e+02
9.700000e-07	2.243440e-06	1.540368e-08	1.618468e+01	1.010387e+03
9.800000e-07	2.388030e-06	1.641823e-08	1.722779e+01	1.078121e+03
9.900000e-07	2.531741e-06	1.734585e-08	1.826455e+01	1.139264e+03
1.000000e-06	2.674407e-06	1.819342e-08	1.929378e+01	1.194552e+03
1.010000e-06	2.816032e-06	1.896940e-08	2.031549e+01	1.244883e+03
1.020000e-06	2.956502e-06	1.968051e-08	2.132887e+01	1.291145e+03
1.030000e-06	3.095699e-06	2.033697e-08	2.233306e+01	1.334077e+03
1.040000e-06	3.233648e-06	2.094624e-08	2.332826e+01	1.374205e+03
1.050000e-06	3.370406e-06	2.151373e-08	2.431487e+01	1.411827e+03
1.060000e-06	3.505860e-06	2.204110e-08	2.529206e+01	1.447064e+03
1.070000e-06	3.639954e-06	2.252983e-08	2.625945e+01	1.479941e+03
1.080000e-06	3.772875e-06	2.298507e-08	2.721837e+01	1.510478e+03
1.090000e-06	3.904474e-06	2.341079e-08	2.816775e+01	1.538752e+03
1.100000e-06	4.034582e-06	2.381276e-08	2.910638e+01	1.564934e+03
1.110000e-06	4.163275e-06	2.419118e-08	3.003480e+01	1.589280e+03
1.120000e-06	4.290497e-06	2.454728e-08	3.095261e+01	1.612092e+03
1.130000e-06	4.416260e-06	2.488349e-08	3.185989e+01	1.633665e+03
1.140000e-06	4.540570e-06	2.520200e-08	3.275669e+01	1.654232e+03
1.150000e-06	4.663278e-06	2.550117e-08	3.364194e+01	1.673930e+03
1.160000e-06	4.784296e-06	2.578126e-08	3.451498e+01	1.692800e+03
1.170000e-06	4.903547e-06	2.604443e-08	3.537529e+01	1.710806e+03
1.180000e-06	5.020974e-06	2.629277e-08	3.622244e+01	1.727874e+03
1.190000e-06	5.136514e-06	2.653167e-08	3.705597e+01	1.743945e+03
1.200000e-06	5.250068e-06	2.676332e-08	3.787517e+01	1.759008e+03
1.210000e-06	5.361638e-06	2.698368e-08	3.868006e+01	1.773119e+03
1.220000e-06	5.471358e-06	2.718981e-08	3.947160e+01	1.786397e+03
1.230000e-06	5.579201e-06	2.738375e-08	4.024961e+01	1.798996e+03
1.240000e-06	5.685010e-06	2.756828e-08	4.101294e+01	1.811070e+03
1.250000e-06	5.788662e-06	2.774542e-08	4.176071e+01	1.822734e+03
1.260000e-06	5.890164e-06	2.791536e-08	4.249296e+01	1.834046e+03
1.270000e-06	5.989507e-06	2.807780e-08	4.320965e+01	1.844995e+03
1.280000e-06	6.086536e-06	2.823431e-08	4.390964e+01	1.855521e+03
1.290000e-06	6.181305e-06	2.838359e-08	4.459332e+01	1.865539e+03
1.300000e-06	6.273945e-06	2.852655e-08	4.526165e+01	1.874975e+03
1.310000e-06	6.364373e-06	2.866343e-08	4.591402e+01	1.883794e+03
1.320000e-06	6.452461e-06	2.879319e-08	4.654950e+01	1.892009e+03
1.330000e-06	6.538240e-06	2.891603e-08	4.716834e+01	1.899685e+03
1.340000e-06	6.621750e-06	2.903290e-08	4.777079e+01	1.906916e+03
1.350000e-06	6.702876e-06	2.914201e-08	4.835605e+01	1.913800e+03
1.360000e-06	6.781497e-06	2.924376e-08	4.892324e+01	1.920413e+03
1.370000e-06	6.857601e-06	2.934089e-08	4.947227e+01	1.926795e+03
1.380000e-06	6.931102e-06	2.943297e-08	5.000253e+01	1.932939e+03
1.390000e-06	7.002094e-06	2.951922e-08	5.051468e+01	1.938806e+03
1.400000e-06	7.070718e-06	2.959914e-08	5.100975e+01	1.944348e+03
1.410000e-06	7.136789e-06	2.967425e-08	5.148640e+01	1.949523e+03
1.420000e-06	7.200230e-06	2.974652e-08	5.194408e+01	1.954322e+03
1.430000e-06	7.261231e-06	2.981678e-08	5.238415e+01	1.958772e+03
1.440000e-06	7.319805e-06	2.988520e-08	5.280671e+01	1.962930e+03
1.450000e-06	7.375796e-06	2.995142e-08	5.321065e+01	1.966869e+03
1.460000e-06	7.428994e-06	3.001437e-08	5.359443e+01	1.970655e+03
1.470000e-06	7.479097e-06	3.007318e-08	5.395588e+01	1.974324e+03
1.480000e-06	7.526244e-06	3.012710e-08	5.429601e+01	1.977874e+03
1.490000e-06	7.570824e-06	3.017640e-08	5.461762e+01	1.981261e+03
1.500000e-06	7.612720e-06	3.022034e-08	5.491987e+01	1.984417e+03
1.510000e-06	7.651794e-06	3.026005e-08	5.520176e+01	1.987267e+03
1.520000e-06	7.688245e-06	3.029685e-08	5.546472e+01	1.989755e+03
1.530000e-06	7.722038e-06	3.033104e-08	5.570852e+01	1.991859e+03
1.540000e-06	7.753017e-06	3.036191e-08	5.593201e+01	1.993601e+03
1.550000e-06	7.781317e-06	3.038893e-08	5.613617e+01	1.995039e+03
1.560000e-06	7.806767e-06	3.041287e-08	5.631977e+01	1.996248e+03
1.570000e-06	7.829298e-06	3.043225e-08	5.648231e+01	1.997302e+03
1.580000e-06	7.849159e-06	3.044639e-08	5.662560e+01	1.998250e+03
1.590000e-06	7.866186e-06	3.045723e-08	5.674843e+01	1.999105e+03
1.600000e-06	7.880259e-06	3.046657e-08	5.684995e+01	1.999842e+03
1.610000e-06	7.891302e-06	3.047312e-08	5.692963e+01	2.000411e+03
1.620000e-06	7.899261e-06	3.047622e-08	5.698704e+01	2.000755e+03
1.630000e-06	7.904417e-06	3.047784e-08	5.702424e+01	2.000830e+03
1.640000e-06	7.906810e-06	3.047825e-08	5.704150e+01	2.000624e+03
1.650000e-06	7.906363e-06	3.047648e-08	5.703828e+01	2.000157e+03
1.660000e-06	7.903335e-06	3.046272e-08	5.701644e+01	1.999480e+03
1.670000e-06	7.897665e-06	3.045459e-08	5.697553e+01	1.998655e+03
1.680000e-06	7.889250e-06	3.044559e-08	5.691482e+01	1.997733e+03
1.690000e-06	7.878220e-06	3.043004e-08	5.683525e+01	1.996741e+03
1.700000e-06	7.864432e-06	3.041397e-08	5.673578e+01	1.995668e+03
1.710000e-06	7.847980e-06	3.040161e-08	5.661709e+01	1.994467e+03
1.720000e-06	7.829216e-06	3.039269e-08	5.648173e+01	1.993076e+03
1.730000e-06	7.808109e-06	3.031058e-08	5.632945e+01	1.991432e+03
1.740000e-06	7.784097e-06	3.021108e-08	5.615623e+01	1.989500e+03
1.750000e-06	7.756523e-06	3.024503e-08	5.595730e+01	1.987284e+03
1.760000e-06	7.725376e-06	3.024211e-08	5.573260e+01	1.984832e+03
1.770000e-06	7.691426e-06	3.017757e-08	5.548767e+01	1.982224e+03
1.780000e-06	7.655256e-06	3.017507e-08	5.522673e+01	1.979553e+03
1.790000e-06	7.616850e-06	3.022198e-08	5.494967e+01	1.976891e+03
1.800000e-06	7.576458e-06	3.003143e-08	5.465827e+01	1.974269e+03
1.810000e-06	7.533906e-06	3.001723e-08	5.435129e+01	1.971662e+03
1.820000e-06	7.488614e-06	3.010649e-08	5.402455e+01	1.968992e+03
1.830000e-06	7.440698e-06	2.994564e-08	5.367887e+01	1.966142e+03
1.840000e-06	7.389958e-06	3.002228e-08	5.331282e+01	1.962986e+03
1.850000e-06	7.336165e-06	2.988287e-08	5.292474e+01	1.959419e+03
1.860000e-06	7.279691e-06	2.982051e-08	5.251732e+01	1.955383e+03
1.870000e-06	7.220680e-06	2.980974e-08	5.209161e+01	1.950880e+03
1.880000e-06	7.159073e-06	2.962303e-08	5.164716e+01	1.945963e+03
1.890000e-06	7.094603e-06	2.965835e-08	5.118206e+01	1.940724e+03
1.900000e-06	7.027340e-06	2.953566e-08	5.069681e+01	1.935257e+03
1.910000e-06	6.957457e-06	2.947727e-08	5.019265e+01	1.929637e+03
1.920000e-06	6.884809e-06	2.938923e-08	4.966856e+01	1.923892e+03
1.930000e-06	6.809528e-06	2.926904e-08	4.912546e+01	1.917998e+03
1.940000e-06	6.731590e-06	2.923379e-08	4.856320e+01	1.911887e+03
1.950000e-06	6.651023e-06	2.906272e-08	4.798197e+01	1.905472e+03
1.960000e-06	6.568015e-06	2.899831e-08	4.738314e+01	1.898671e+03
1.970000e-06	6.482571e-06	2.886002e-08	4.676672e+01	1.891430e+03
1.980000e-06	6.394681e-06	2.876292e-08	4.613266e+01	1.883745e+03
1.990000e-06	6.304480e-06	2.865370e-08	4.548193e+01	1.875651e+03
2.000000e-06	6.212105e-06	2.850321e-08	4.481552e+01	1.867213e+03
2.010000e-06	6.117427e-06	2.840227e-08	4.413249e+01	1.858501e+03
2.020000e-06	6.020534e-06	2.824513e-08	4.343348e+01	1.849559e+03
2.030000e-06	5.921557e-06	2.811346e-08	4.271944e+01	1.840388e+03
2.040000e-06	5.820504e-06	2.794134e-08	4.199042e+01	1.830939e+03
2.050000e-06	5.717357e-06	2.780911e-08	4.124630e+01	1.821128e+03
2.060000e-06	5.612153e-06	2.764304e-08	4.048733e+01	1.810851e+03
2.070000e-06	5.505078e-06	2.747422e-08	3.971487e+01	1.800018e+03
2.080000e-06	5.396171e-06	2.730627e-08	3.892919e+01	1.788576e+03
2.090000e-06	5.285302e-06	2.712869e-08	3.812936e+01	1.776522e+03
2.100000e-06	5.172424e-06	2.694824e-08	3.731503e+01	1.763900e+03
2.110000e-06	5.057668e-06	2.674382e-08	3.648716e+01	1.750780e+03
2.120000e-06	4.941024e-06	2.654518e-08	3.564566e+01	1.737232e+03
2.130000e-06	4.822434e-06	2.632278e-08	3.479013e+01	1.723288e+03
2.140000e-06	4.701965e-06	2.609819e-08	3.392103e+01	1.708929e+03
2.150000e-06	4.579731e-06	2.585898e-08	3.303921e+01	1.694075e+03
2.160000e-06	4.455837e-06	2.562961e-08	3.214541e+01	1.678596e+03
2.170000e-06	4.330325e-06	2.538393e-08	3.123994e+01	1.662348e+03
2.180000e-06	4.203188e-06	2.512808e-08	3.032274e+01	1.645203e+03
2.190000e-06	4.074483e-06	2.485576e-08	2.939424e+01	1.627079e+03
2.200000e-06	3.944318e-06	2.457053e-08	2.845520e+01	1.607961e+03
2.210000e-06	3.812672e-06	2.426869e-08	2.750547e+01	1.587889e+03
2.220000e-06	3.679617e-06	2.395367e-08	2.654558e+01	1.566935e+03
2.230000e-06	3.545188e-06	2.362902e-08	2.557578e+01	1.545161e+03
2.240000e-06	3.409355e-06	2.328174e-08	2.459585e+01	1.522580e+03
2.250000e-06	3.272263e-06	2.291811e-08	2.360684e+01	1.499122e+03
2.260000e-06	3.133933e-06	2.253656e-08	2.260890e+01	1.474630e+03
2.270000e-06	2.994390e-06	2.214319e-08	2.160220e+01	1.448870e+03
2.280000e-06	2.853714e-06	2.172795e-08	2.058733e+01	1.421579e+03
2.290000e-06	2.711953e-06	2.129079e-08	1.956464e+01	1.392502e+03
2.300000e-06	2.569169e-06	2.082117e-08	1.853456e+01	1.361443e+03
2.310000e-06	2.425400e-06	2.032166e-08	1.749738e+01	1.328282e+03
2.320000e-06	2.280824e-06	1.978860e-08	1.645438e+01	1.292968e+03
2.330000e-06	2.135566e-06	1.921991e-08	1.540645e+01	1.255480e+03
2.340000e-06	1.989596e-06	1.861815e-08	1.435339e+01	1.215763e+03
2.350000e-06	1.842939e-06	1.797762e-08	1.329538e+01	1.173673e+03
2.360000e-06	1.695637e-06	1.729296e-08	1.223271e+01	1.128924e+03
2.370000e-06	1.547745e-06	1.655676e-08	1.116578e+01	1.081085e+03
2.380000e-06	1.399341e-06	1.576434e-08	1.009516e+01	1.029624e+03
2.390000e-06	1.250547e-06	1.491053e-08	9.021724e+00	9.739831e+02
2.400000e-06	1.101403e-06	1.399173e-08	7.945769e+00	9.137025e+02
2.410000e-06	9.519284e-07	1.300541e-08	6.867425e+00	8.485293e+02
2.420000e-06	8.021693e-07	1.195031e-08	5.787030e+00	7.785072e+02
2.430000e-06	6.521097e-07	1.082623e-08	4.704465e+00	7.040088e+02
2.440000e-06	5.018030e-07	9.638436e-09	3.620119e+00	6.256984e+02
2.450000e-06	3.512725e-07	8.396929e-09	2.534159e+00	5.444280e+02
2.460000e-06	2.005787e-07	7.115159e-09	1.447020e+00	4.610845e+02
2.470000e-06	4.976251e-08	5.808317e-09	3.589979e-01	3.764229e+02
2.480000e-06	-1.011626e-07	4.490003e-09	-7.298094e-01	2.909246e+02
2.490000e-06	-2.520670e-07	3.167065e-09	-1.818468e+00	2.047173e+02
2.500000e-06	-4.029035e-07	1.836082e-09	-2.906636e+00	1.175803e+02
2.510000e-06	-5.536056e-07	4.919926e-10	-3.993835e+00	2.904013e+01
2.520000e-06	-7.040547e-07	-8.769321e-10	-5.079209e+00	-6.146266e+01
2.530000e-06	-8.542065e-07	-2.282673e-09	-6.162438e+00	-1.543683e+02
2.540000e-06	-1.004017e-06	-3.732461e-09	-7.243206e+00	-2.498024e+02
2.550000e-06	-1.153464e-06	-5.226553e-09	-8.321349e+00	-3.474337e+02
2.560000e-06	-1.302557e-06	-6.749173e-09	-9.396936e+00	-4.464220e+02
2.570000e-06	-1.451263e-06	-8.277959e-09	-1.046974e+01	-5.454679e+02
2.580000e-06	-1.599535e-06	-9.785462e-09	-1.153940e+01	-6.429594e+02
2.590000e-06	-1.747237e-06	-1.123868e-08	-1.260496e+01	-7.371846e+02
2.600000e-06	-1.894160e-06	-1.260651e-08	-1.366490e+01	-8.265664e+02
2.610000e-06	-2.040293e-06	-1.387349e-08	-1.471913e+01	-9.098724e+02
2.620000e-06	-2.185737e-06	-1.503428e-08	-1.576840e+01	-9.863586e+02
2.630000e-06	-2.330505e-06	-1.609022e-08	-1.681278e+01	-1.055822e+03
2.640000e-06	-2.474433e-06	-1.705061e-08	-1.785112e+01	-1.118555e+03
2.650000e-06	-2.617281e-06	-1.792676e-08	-1.888165e+01	-1.175228e+03
2.660000e-06	-2.758959e-06	-1.872845e-08	-1.990375e+01	-1.226714e+03
2.670000e-06	-2.899552e-06	-1.946290e-08	-2.091802e+01	-1.273918e+03
2.680000e-06	-3.038968e-06	-2.013956e-08	-2.192380e+01	-1.317626e+03
2.690000e-06	-3.177110e-06	-2.076683e-08	-2.292039e+01	-1.358421e+03
2.700000e-06	-3.314089e-06	-2.135109e-08	-2.390858e+01	-1.396654e+03
2.710000e-06	-3.449812e-06	-2.189474e-08	-2.488772e+01	-1.432484e+03
2.720000e-06	-3.584240e-06	-2.239977e-08	-2.585751e+01	-1.465952e+03
2.730000e-06	-3.717453e-06	-2.286898e-08	-2.681854e+01	-1.497072e+03
2.740000e-06	-3.849363e-06	-2.330596e-08	-2.777017e+01	-1.525901e+03
2.750000e-06	-3.979837e-06	-2.371534e-08	-2.871144e+01	-1.552586e+03
2.760000e-06	-4.108935e-06	-2.409985e-08	-2.964278e+01	-1.577366e+03
2.770000e-06	-4.236625e-06	-2.446096e-08	-3.056397e+01	-1.600535e+03
2.780000e-06	-4.362824e-06	-2.480003e-08	-3.147439e+01	-1.622395e+03
2.790000e-06	-4.487538e-06	-2.512056e-08	-3.237411e+01	-1.643197e+03
2.800000e-06	-4.610719e-06	-2.542359e-08	-3.326276e+01	-1.663107e+03
2.810000e-06	-4.732297e-06	-2.571252e-08	-3.413985e+01	-1.682187e+03
2.820000e-06	-4.852115e-06	-2.598922e-08	-3.500425e+01	-1.700417e+03
2.830000e-06	-4.970035e-06	-2.625058e-08	-3.585495e+01	-1.717728e+03
2.840000e-06	-5.085991e-06	-2.649659e-08	-3.669148e+01	-1.734054e+03
2.850000e-06	-5.199951e-06	-2.672823e-08	-3.751361e+01	-1.749368e+03
2.860000e-06	-5.311804e-06	-2.694905e-08	-3.832054e+01	-1.763710e+03
2.870000e-06	-5.421564e-06	-2.716105e-08	-3.911238e+01	-1.777184e+03
2.880000e-06	-5.529434e-06	-2.736371e-08	-3.989058e+01	-1.789939e+03
2.890000e-06	-5.635466e-06	-2.755647e-08	-4.065552e+01	-1.802133e+03
2.900000e-06	-5.739489e-06	-2.773874e-08	-4.140596e+01	-1.813894e+03
2.910000e-06	-5.841289e-06	-2.791265e-08	-4.214037e+01	-1.825294e+03
2.920000e-06	-5.940913e-06	-2.807915e-08	-4.285908e+01	-1.836340e+03
2.930000e-06	-6.038466e-06	-2.823802e-08	-4.356285e+01	-1.846980e+03
2.940000e-06	-6.133870e-06	-2.838890e-08	-4.425112e+01	-1.857135e+03
