# Temperatura_=_26.64
# Concentracion g/m^3_=_28200.0
# C_Vs_to_Am_M_A/Vsm_=_65563218390.804596
# pendiente_HvsI_1/m_=_3716.3
# ordenada_HvsI_A/m_=_1297.0
# frecuencia_Hz_=_302545.9729389582

Tiempo_(s)	Campo_(V.s)	Magnetizacion_(V.s)	Campo_(kA/m)	Magnetizacion_(A/m)
0.000000e+00	-7.897366e-06	-1.996725e-08	-5.683618e+01	-1.306294e+03
1.000000e-08	-7.893770e-06	-1.996864e-08	-5.681030e+01	-1.305967e+03
2.000000e-08	-7.887604e-06	-1.996016e-08	-5.676593e+01	-1.305530e+03
3.000000e-08	-7.878778e-06	-1.995317e-08	-5.670240e+01	-1.304998e+03
4.000000e-08	-7.867099e-06	-1.994580e-08	-5.661836e+01	-1.304379e+03
5.000000e-08	-7.852471e-06	-1.993142e-08	-5.651308e+01	-1.303669e+03
6.000000e-08	-7.835121e-06	-1.990812e-08	-5.638821e+01	-1.302855e+03
7.000000e-08	-7.815517e-06	-1.988265e-08	-5.624713e+01	-1.301923e+03
8.000000e-08	-7.793635e-06	-1.987040e-08	-5.608965e+01	-1.300862e+03
9.000000e-08	-7.768954e-06	-1.993101e-08	-5.591202e+01	-1.299672e+03
1.000000e-07	-7.741110e-06	-1.991181e-08	-5.571163e+01	-1.298369e+03
1.100000e-07	-7.710236e-06	-1.982620e-08	-5.548944e+01	-1.296986e+03
1.200000e-07	-7.676550e-06	-1.979928e-08	-5.524700e+01	-1.295562e+03
1.300000e-07	-7.640212e-06	-1.978701e-08	-5.498548e+01	-1.294134e+03
1.400000e-07	-7.601478e-06	-1.973500e-08	-5.470672e+01	-1.292725e+03
1.500000e-07	-7.560507e-06	-1.965521e-08	-5.441186e+01	-1.291335e+03
1.600000e-07	-7.517247e-06	-1.972112e-08	-5.410053e+01	-1.289934e+03
1.700000e-07	-7.471414e-06	-1.971362e-08	-5.377067e+01	-1.288467e+03
1.800000e-07	-7.422882e-06	-1.956188e-08	-5.342139e+01	-1.286861e+03
1.900000e-07	-7.371406e-06	-1.961044e-08	-5.305092e+01	-1.285045e+03
2.000000e-07	-7.316978e-06	-1.957112e-08	-5.265921e+01	-1.282959e+03
2.100000e-07	-7.259872e-06	-1.950599e-08	-5.224823e+01	-1.280570e+03
2.200000e-07	-7.200110e-06	-1.949610e-08	-5.181813e+01	-1.277877e+03
2.300000e-07	-7.137797e-06	-1.942252e-08	-5.136967e+01	-1.274910e+03
2.400000e-07	-7.072829e-06	-1.941411e-08	-5.090211e+01	-1.271717e+03
2.500000e-07	-7.005092e-06	-1.931893e-08	-5.041462e+01	-1.268354e+03
2.600000e-07	-6.934667e-06	-1.928088e-08	-4.990778e+01	-1.264864e+03
2.700000e-07	-6.861498e-06	-1.922412e-08	-4.938120e+01	-1.261272e+03
2.800000e-07	-6.785625e-06	-1.916104e-08	-4.883514e+01	-1.257573e+03
2.900000e-07	-6.707107e-06	-1.910866e-08	-4.827007e+01	-1.253738e+03
3.000000e-07	-6.625899e-06	-1.903893e-08	-4.768562e+01	-1.249724e+03
3.100000e-07	-6.542285e-06	-1.898997e-08	-4.708386e+01	-1.245487e+03
3.200000e-07	-6.456463e-06	-1.889369e-08	-4.646621e+01	-1.240989e+03
3.300000e-07	-6.368263e-06	-1.884078e-08	-4.583145e+01	-1.236217e+03
3.400000e-07	-6.277690e-06	-1.875751e-08	-4.517961e+01	-1.231175e+03
3.500000e-07	-6.184958e-06	-1.866694e-08	-4.451223e+01	-1.225884e+03
3.600000e-07	-6.090045e-06	-1.860397e-08	-4.382916e+01	-1.220373e+03
3.700000e-07	-5.992851e-06	-1.851953e-08	-4.312967e+01	-1.214661e+03
3.800000e-07	-5.893439e-06	-1.841932e-08	-4.241421e+01	-1.208752e+03
3.900000e-07	-5.791916e-06	-1.831969e-08	-4.168357e+01	-1.202630e+03
4.000000e-07	-5.688317e-06	-1.822987e-08	-4.093799e+01	-1.196258e+03
4.100000e-07	-5.582692e-06	-1.811474e-08	-4.017781e+01	-1.189588e+03
4.200000e-07	-5.475130e-06	-1.800751e-08	-3.940371e+01	-1.182575e+03
4.300000e-07	-5.365655e-06	-1.790279e-08	-3.861583e+01	-1.175184e+03
4.400000e-07	-5.254258e-06	-1.778571e-08	-3.781412e+01	-1.167402e+03
4.500000e-07	-5.140908e-06	-1.765394e-08	-3.699836e+01	-1.159233e+03
4.600000e-07	-5.025571e-06	-1.752644e-08	-3.616830e+01	-1.150697e+03
4.700000e-07	-4.908303e-06	-1.739571e-08	-3.532434e+01	-1.141815e+03
4.800000e-07	-4.789233e-06	-1.725324e-08	-3.446740e+01	-1.132596e+03
4.900000e-07	-4.668444e-06	-1.710791e-08	-3.359811e+01	-1.123030e+03
5.000000e-07	-4.545861e-06	-1.695560e-08	-3.271589e+01	-1.113078e+03
5.100000e-07	-4.421534e-06	-1.679242e-08	-3.182113e+01	-1.102681e+03
5.200000e-07	-4.295679e-06	-1.661474e-08	-3.091537e+01	-1.091769e+03
5.300000e-07	-4.168320e-06	-1.643659e-08	-2.999879e+01	-1.080272e+03
5.400000e-07	-4.039446e-06	-1.624910e-08	-2.907130e+01	-1.068139e+03
5.500000e-07	-3.908985e-06	-1.605248e-08	-2.813239e+01	-1.055340e+03
5.600000e-07	-3.776964e-06	-1.584592e-08	-2.718226e+01	-1.041869e+03
5.700000e-07	-3.643560e-06	-1.563308e-08	-2.622217e+01	-1.027734e+03
5.800000e-07	-3.508818e-06	-1.540742e-08	-2.525245e+01	-1.012940e+03
5.900000e-07	-3.372803e-06	-1.517122e-08	-2.427357e+01	-9.974754e+02
6.000000e-07	-3.235486e-06	-1.492417e-08	-2.328532e+01	-9.812948e+02
6.100000e-07	-3.096846e-06	-1.466368e-08	-2.228755e+01	-9.643159e+02
6.200000e-07	-2.956859e-06	-1.438841e-08	-2.128008e+01	-9.464238e+02
6.300000e-07	-2.815601e-06	-1.409275e-08	-2.026347e+01	-9.274852e+02
6.400000e-07	-2.673263e-06	-1.377991e-08	-1.923908e+01	-9.073658e+02
6.500000e-07	-2.529799e-06	-1.344793e-08	-1.820659e+01	-8.859481e+02
6.600000e-07	-2.385422e-06	-1.309996e-08	-1.716753e+01	-8.631393e+02
6.700000e-07	-2.240337e-06	-1.273118e-08	-1.612337e+01	-8.388690e+02
6.800000e-07	-2.094391e-06	-1.234118e-08	-1.507303e+01	-8.130742e+02
6.900000e-07	-1.947637e-06	-1.192753e-08	-1.401686e+01	-7.856770e+02
7.000000e-07	-1.800287e-06	-1.148356e-08	-1.295640e+01	-7.565612e+02
7.100000e-07	-1.652449e-06	-1.100577e-08	-1.189243e+01	-7.255588e+02
7.200000e-07	-1.504168e-06	-1.049202e-08	-1.082527e+01	-6.924523e+02
7.300000e-07	-1.355431e-06	-9.945920e-09	-9.754840e+00	-6.569989e+02
7.400000e-07	-1.206293e-06	-9.363862e-09	-8.681515e+00	-6.189736e+02
7.500000e-07	-1.056763e-06	-8.742923e-09	-7.605371e+00	-5.782242e+02
7.600000e-07	-9.068081e-07	-8.082307e-09	-6.526164e+00	-5.347261e+02
7.700000e-07	-7.565089e-07	-7.384341e-09	-5.444483e+00	-4.886214e+02
7.800000e-07	-6.059024e-07	-6.649931e-09	-4.360591e+00	-4.402305e+02
7.900000e-07	-4.550550e-07	-5.885730e-09	-3.274964e+00	-3.900277e+02
8.000000e-07	-3.040687e-07	-5.101198e-09	-2.188338e+00	-3.385822e+02
8.100000e-07	-1.529705e-07	-4.304529e-09	-1.100906e+00	-2.864729e+02
8.200000e-07	-1.800989e-09	-3.504343e-09	-1.296145e-02	-2.341932e+02
8.300000e-07	1.494266e-07	-2.705045e-09	1.075401e+00	-1.820668e+02
8.400000e-07	3.006216e-07	-1.911870e-09	2.163530e+00	-1.301926e+02
8.500000e-07	4.517156e-07	-1.122962e-09	3.250931e+00	-7.843521e+01
8.600000e-07	6.027325e-07	-3.352525e-10	4.337777e+00	-2.646346e+01
8.700000e-07	7.535857e-07	4.601972e-10	5.423446e+00	2.616598e+01
8.800000e-07	9.041201e-07	1.272793e-09	6.506819e+00	7.989729e+01
8.900000e-07	1.054317e-06	2.110583e-09	7.587768e+00	1.350576e+02
9.000000e-07	1.204169e-06	2.974263e-09	8.666227e+00	1.917570e+02
9.100000e-07	1.353584e-06	3.858610e-09	9.741544e+00	2.498273e+02
9.200000e-07	1.502546e-06	4.761114e-09	1.081360e+01	3.088115e+02
9.300000e-07	1.651024e-06	5.669255e-09	1.188218e+01	3.680076e+02
9.400000e-07	1.798898e-06	6.563559e-09	1.294640e+01	4.265555e+02
9.500000e-07	1.946089e-06	7.427375e-09	1.400572e+01	4.835506e+02
9.600000e-07	2.092641e-06	8.250708e-09	1.506043e+01	5.381616e+02
9.700000e-07	2.238457e-06	9.025001e-09	1.610985e+01	5.897291e+02
9.800000e-07	2.383401e-06	9.746766e-09	1.715299e+01	6.378295e+02
9.900000e-07	2.527440e-06	1.041626e-08	1.818961e+01	6.822944e+02
1.000000e-06	2.670484e-06	1.103444e-08	1.921908e+01	7.231875e+02
1.010000e-06	2.812420e-06	1.160632e-08	2.024057e+01	7.607488e+02
1.020000e-06	2.953208e-06	1.213574e-08	2.125380e+01	7.953209e+02
1.030000e-06	3.092847e-06	1.262751e-08	2.225876e+01	8.272749e+02
1.040000e-06	3.231339e-06	1.307990e-08	2.325547e+01	8.569515e+02
1.050000e-06	3.368599e-06	1.350016e-08	2.424331e+01	8.846244e+02
1.060000e-06	3.504515e-06	1.388715e-08	2.522148e+01	9.104911e+02
1.070000e-06	3.639108e-06	1.424552e-08	2.619012e+01	9.346840e+02
1.080000e-06	3.772393e-06	1.458334e-08	2.714935e+01	9.572962e+02
1.090000e-06	3.904339e-06	1.490171e-08	2.809895e+01	9.784095e+02
1.100000e-06	4.034889e-06	1.520509e-08	2.903850e+01	9.981161e+02
1.110000e-06	4.163997e-06	1.548855e-08	2.996767e+01	1.016529e+03
1.120000e-06	4.291577e-06	1.575370e-08	3.088585e+01	1.033781e+03
1.130000e-06	4.417652e-06	1.600123e-08	3.179319e+01	1.050009e+03
1.140000e-06	4.542299e-06	1.623530e-08	3.269026e+01	1.065340e+03
1.150000e-06	4.665422e-06	1.645617e-08	3.357636e+01	1.079876e+03
1.160000e-06	4.786926e-06	1.666270e-08	3.445080e+01	1.093687e+03
1.170000e-06	4.906693e-06	1.685599e-08	3.531275e+01	1.106809e+03
1.180000e-06	5.024630e-06	1.703661e-08	3.616153e+01	1.119257e+03
1.190000e-06	5.140665e-06	1.721038e-08	3.699661e+01	1.131036e+03
1.200000e-06	5.254704e-06	1.738235e-08	3.781733e+01	1.142156e+03
1.210000e-06	5.366704e-06	1.754783e-08	3.862338e+01	1.152642e+03
1.220000e-06	5.476755e-06	1.770197e-08	3.941540e+01	1.162532e+03
1.230000e-06	5.584941e-06	1.784542e-08	4.019400e+01	1.171880e+03
1.240000e-06	5.691179e-06	1.797964e-08	4.095858e+01	1.180739e+03
1.250000e-06	5.795277e-06	1.810592e-08	4.170776e+01	1.189155e+03
1.260000e-06	5.897167e-06	1.822518e-08	4.244104e+01	1.197160e+03
1.270000e-06	5.996903e-06	1.833956e-08	4.315883e+01	1.204764e+03
1.280000e-06	6.094435e-06	1.844880e-08	4.386076e+01	1.211963e+03
1.290000e-06	6.189671e-06	1.855163e-08	4.454615e+01	1.218750e+03
1.300000e-06	6.282677e-06	1.864920e-08	4.521550e+01	1.225119e+03
1.310000e-06	6.373508e-06	1.874018e-08	4.586920e+01	1.231080e+03
1.320000e-06	6.461988e-06	1.882437e-08	4.650597e+01	1.236662e+03
1.330000e-06	6.548192e-06	1.890231e-08	4.712638e+01	1.241912e+03
1.340000e-06	6.632172e-06	1.897639e-08	4.773077e+01	1.246886e+03
1.350000e-06	6.713768e-06	1.904701e-08	4.831800e+01	1.251639e+03
1.360000e-06	6.792806e-06	1.911566e-08	4.888683e+01	1.256217e+03
1.370000e-06	6.869279e-06	1.918325e-08	4.943719e+01	1.260641e+03
1.380000e-06	6.943209e-06	1.924816e-08	4.996926e+01	1.264911e+03
1.390000e-06	7.014567e-06	1.931053e-08	5.048281e+01	1.269010e+03
1.400000e-06	7.083453e-06	1.936717e-08	5.097857e+01	1.272908e+03
1.410000e-06	7.149824e-06	1.941919e-08	5.145623e+01	1.276576e+03
1.420000e-06	7.213619e-06	1.946858e-08	5.191536e+01	1.279996e+03
1.430000e-06	7.274991e-06	1.951616e-08	5.235704e+01	1.283167e+03
1.440000e-06	7.333885e-06	1.956175e-08	5.278089e+01	1.286103e+03
1.450000e-06	7.390112e-06	1.960501e-08	5.318555e+01	1.288833e+03
1.460000e-06	7.443594e-06	1.964764e-08	5.357045e+01	1.291387e+03
1.470000e-06	7.494067e-06	1.968805e-08	5.393370e+01	1.293790e+03
1.480000e-06	7.541528e-06	1.972347e-08	5.427527e+01	1.296053e+03
1.490000e-06	7.586297e-06	1.975381e-08	5.459746e+01	1.298172e+03
1.500000e-06	7.628408e-06	1.978085e-08	5.490053e+01	1.300130e+03
1.510000e-06	7.667763e-06	1.980561e-08	5.518376e+01	1.301902e+03
1.520000e-06	7.704489e-06	1.982754e-08	5.544807e+01	1.303466e+03
1.530000e-06	7.738555e-06	1.984717e-08	5.569324e+01	1.304815e+03
1.540000e-06	7.769795e-06	1.986461e-08	5.591807e+01	1.305952e+03
1.550000e-06	7.798317e-06	1.987999e-08	5.612334e+01	1.306901e+03
1.560000e-06	7.824018e-06	1.989432e-08	5.630831e+01	1.307693e+03
1.570000e-06	7.846814e-06	1.990692e-08	5.647237e+01	1.308363e+03
1.580000e-06	7.866922e-06	1.991678e-08	5.661708e+01	1.308942e+03
1.590000e-06	7.884210e-06	1.992467e-08	5.674150e+01	1.309446e+03
1.600000e-06	7.898509e-06	1.993005e-08	5.684441e+01	1.309875e+03
1.610000e-06	7.909747e-06	1.993289e-08	5.692529e+01	1.310217e+03
1.620000e-06	7.917922e-06	1.993531e-08	5.698412e+01	1.310453e+03
1.630000e-06	7.923288e-06	1.993802e-08	5.702274e+01	1.310563e+03
1.640000e-06	7.925895e-06	1.994004e-08	5.704150e+01	1.310535e+03
1.650000e-06	7.925658e-06	1.994162e-08	5.703980e+01	1.310368e+03
1.660000e-06	7.922763e-06	1.993213e-08	5.701896e+01	1.310071e+03
1.670000e-06	7.917260e-06	1.992714e-08	5.697936e+01	1.309659e+03
1.680000e-06	7.909038e-06	1.992353e-08	5.692019e+01	1.309149e+03
1.690000e-06	7.898192e-06	1.991482e-08	5.684212e+01	1.308551e+03
1.700000e-06	7.884559e-06	1.990677e-08	5.674401e+01	1.307863e+03
1.710000e-06	7.868230e-06	1.990272e-08	5.662649e+01	1.307076e+03
1.720000e-06	7.849592e-06	1.990409e-08	5.649236e+01	1.306175e+03
1.730000e-06	7.828597e-06	1.985899e-08	5.634126e+01	1.305146e+03
1.740000e-06	7.804745e-06	1.975571e-08	5.616960e+01	1.303986e+03
1.750000e-06	7.777433e-06	1.978896e-08	5.597305e+01	1.302708e+03
1.760000e-06	7.746511e-06	1.981437e-08	5.575050e+01	1.301341e+03
1.770000e-06	7.712638e-06	1.976477e-08	5.550672e+01	1.299923e+03
1.780000e-06	7.676530e-06	1.975363e-08	5.524686e+01	1.298492e+03
1.790000e-06	7.638186e-06	1.982896e-08	5.497090e+01	1.297077e+03
1.800000e-06	7.597830e-06	1.972216e-08	5.468047e+01	1.295683e+03
1.810000e-06	7.555356e-06	1.963683e-08	5.437479e+01	1.294289e+03
1.820000e-06	7.510141e-06	1.978415e-08	5.404938e+01	1.292843e+03
1.830000e-06	7.462308e-06	1.965097e-08	5.370514e+01	1.291279e+03
1.840000e-06	7.411727e-06	1.969356e-08	5.334111e+01	1.289521e+03
1.850000e-06	7.358085e-06	1.966069e-08	5.295505e+01	1.287506e+03
1.860000e-06	7.301663e-06	1.956385e-08	5.254899e+01	1.285193e+03
1.870000e-06	7.242623e-06	1.961508e-08	5.212410e+01	1.282574e+03
1.880000e-06	7.180971e-06	1.945444e-08	5.168039e+01	1.279670e+03
1.890000e-06	7.116508e-06	1.948756e-08	5.121646e+01	1.276528e+03
1.900000e-06	7.049268e-06	1.943562e-08	5.073255e+01	1.273202e+03
1.910000e-06	6.979374e-06	1.936961e-08	5.022953e+01	1.269740e+03
1.920000e-06	6.906721e-06	1.935371e-08	4.970665e+01	1.266172e+03
1.930000e-06	6.831450e-06	1.924199e-08	4.916494e+01	1.262500e+03
1.940000e-06	6.753466e-06	1.924453e-08	4.860371e+01	1.258703e+03
1.950000e-06	6.672832e-06	1.913062e-08	4.802339e+01	1.254738e+03
1.960000e-06	6.589791e-06	1.908839e-08	4.742576e+01	1.250559e+03
1.970000e-06	6.504297e-06	1.901871e-08	4.681047e+01	1.246128e+03
1.980000e-06	6.416331e-06	1.893838e-08	4.617739e+01	1.241424e+03
1.990000e-06	6.326086e-06	1.889397e-08	4.552791e+01	1.236447e+03
2.000000e-06	6.233741e-06	1.877339e-08	4.486332e+01	1.231215e+03
2.010000e-06	6.139142e-06	1.871837e-08	4.418250e+01	1.225756e+03
2.020000e-06	6.042274e-06	1.862020e-08	4.348536e+01	1.220092e+03
2.030000e-06	5.943273e-06	1.854732e-08	4.277286e+01	1.214233e+03
2.040000e-06	5.842205e-06	1.843894e-08	4.204549e+01	1.208166e+03
2.050000e-06	5.738992e-06	1.835192e-08	4.130268e+01	1.201860e+03
2.060000e-06	5.633713e-06	1.825461e-08	4.054500e+01	1.195268e+03
2.070000e-06	5.526577e-06	1.813125e-08	3.977397e+01	1.188344e+03
2.080000e-06	5.417543e-06	1.802175e-08	3.898926e+01	1.181049e+03
2.090000e-06	5.306535e-06	1.790349e-08	3.819035e+01	1.173364e+03
2.100000e-06	5.193544e-06	1.779794e-08	3.737718e+01	1.165290e+03
2.110000e-06	5.078596e-06	1.766322e-08	3.654991e+01	1.156843e+03
2.120000e-06	4.961660e-06	1.753837e-08	3.570834e+01	1.148045e+03
2.130000e-06	4.842802e-06	1.739416e-08	3.485293e+01	1.138910e+03
2.140000e-06	4.722118e-06	1.724742e-08	3.398439e+01	1.129432e+03
2.150000e-06	4.599751e-06	1.708893e-08	3.310373e+01	1.119581e+03
2.160000e-06	4.475750e-06	1.693873e-08	3.221131e+01	1.109301e+03
2.170000e-06	4.350031e-06	1.677881e-08	3.130653e+01	1.098524e+03
2.180000e-06	4.222684e-06	1.660730e-08	3.039003e+01	1.087179e+03
2.190000e-06	4.093826e-06	1.642856e-08	2.946266e+01	1.075207e+03
2.200000e-06	3.963504e-06	1.623981e-08	2.852475e+01	1.062575e+03
2.210000e-06	3.831749e-06	1.604349e-08	2.757653e+01	1.049271e+03
2.220000e-06	3.698540e-06	1.583409e-08	2.661785e+01	1.035300e+03
2.230000e-06	3.563910e-06	1.561814e-08	2.564893e+01	1.020671e+03
2.240000e-06	3.427998e-06	1.538089e-08	2.467080e+01	1.005376e+03
2.250000e-06	3.290802e-06	1.513137e-08	2.368342e+01	9.893799e+02
2.260000e-06	3.152326e-06	1.486995e-08	2.268683e+01	9.726095e+02
2.270000e-06	3.012630e-06	1.460211e-08	2.168145e+01	9.549572e+02
2.280000e-06	2.871692e-06	1.432052e-08	2.066715e+01	9.362923e+02
2.290000e-06	2.729520e-06	1.402454e-08	1.964395e+01	9.164793e+02
2.300000e-06	2.586345e-06	1.370744e-08	1.861354e+01	8.953952e+02
2.310000e-06	2.442359e-06	1.336762e-08	1.757730e+01	8.729407e+02
2.320000e-06	2.297524e-06	1.300617e-08	1.653495e+01	8.490409e+02
2.330000e-06	2.151956e-06	1.262297e-08	1.548731e+01	8.236329e+02
2.340000e-06	2.005645e-06	1.221649e-08	1.443433e+01	7.966446e+02
2.350000e-06	1.858591e-06	1.178047e-08	1.337600e+01	7.679714e+02
2.360000e-06	1.710956e-06	1.131403e-08	1.231350e+01	7.374586e+02
2.370000e-06	1.562816e-06	1.081415e-08	1.124736e+01	7.048998e+02
2.380000e-06	1.414242e-06	1.027804e-08	1.017809e+01	6.700551e+02
2.390000e-06	1.265206e-06	9.706448e-09	9.105500e+00	6.326901e+02
2.400000e-06	1.115676e-06	9.096756e-09	8.029355e+00	5.926292e+02
2.410000e-06	9.657380e-07	8.448076e-09	6.950274e+00	5.498112e+02
2.420000e-06	8.154368e-07	7.760921e-09	5.868579e+00	5.043343e+02
2.430000e-06	6.647957e-07	7.035598e-09	4.784437e+00	4.564750e+02
2.440000e-06	5.139113e-07	6.275795e-09	3.698544e+00	4.066734e+02
2.450000e-06	3.628804e-07	5.491730e-09	2.611597e+00	3.554824e+02
2.460000e-06	2.117391e-07	4.695897e-09	1.523855e+00	3.034871e+02
2.470000e-06	6.054214e-08	3.892904e-09	4.357129e-01	2.512112e+02
2.480000e-06	-9.070138e-08	3.092711e-09	-6.527645e-01	1.990271e+02
2.490000e-06	-2.419582e-07	2.300902e-09	-1.741338e+00	1.470930e+02
2.500000e-06	-3.931157e-07	1.511741e-09	-2.829196e+00	9.533020e+01
2.510000e-06	-5.441440e-07	7.203291e-10	-3.916125e+00	4.345025e+01
2.520000e-06	-6.950500e-07	-8.104704e-11	-5.002173e+00	-8.971818e+00
2.530000e-06	-8.457787e-07	-8.950658e-10	-6.086945e+00	-6.239121e+01
2.540000e-06	-9.962610e-07	-1.729112e-09	-7.169944e+00	-1.171748e+02
2.550000e-06	-1.146372e-06	-2.590291e-09	-8.250269e+00	-1.734944e+02
2.560000e-06	-1.296034e-06	-3.473398e-09	-9.327364e+00	-2.312546e+02
2.570000e-06	-1.445186e-06	-4.372380e-09	-1.040079e+01	-2.900685e+02
2.580000e-06	-1.593771e-06	-5.280436e-09	-1.147014e+01	-3.492887e+02
2.590000e-06	-1.741768e-06	-6.185850e-09	-1.253525e+01	-4.080844e+02
2.600000e-06	-1.889089e-06	-7.070283e-09	-1.359550e+01	-4.655511e+02
2.610000e-06	-2.035704e-06	-7.918876e-09	-1.465067e+01	-5.208288e+02
2.620000e-06	-2.181559e-06	-8.720724e-09	-1.570036e+01	-5.732075e+02
2.630000e-06	-2.326583e-06	-9.468287e-09	-1.674408e+01	-6.222010e+02
2.640000e-06	-2.470704e-06	-1.016124e-08	-1.778129e+01	-6.675778e+02
2.650000e-06	-2.613869e-06	-1.080207e-08	-1.881163e+01	-7.093478e+02
2.660000e-06	-2.756040e-06	-1.139386e-08	-1.983481e+01	-7.477134e+02
2.670000e-06	-2.897125e-06	-1.194031e-08	-2.085018e+01	-7.829986e+02
2.680000e-06	-3.036992e-06	-1.244242e-08	-2.185678e+01	-8.155739e+02
2.690000e-06	-3.175616e-06	-1.290542e-08	-2.285444e+01	-8.457919e+02
2.700000e-06	-3.313023e-06	-1.333675e-08	-2.384334e+01	-8.739451e+02
2.710000e-06	-3.449150e-06	-1.373917e-08	-2.482303e+01	-9.002494e+02
2.720000e-06	-3.584043e-06	-1.411634e-08	-2.579383e+01	-9.248517e+02
2.730000e-06	-3.717706e-06	-1.446865e-08	-2.675579e+01	-9.478522e+02
2.740000e-06	-3.849992e-06	-1.479668e-08	-2.770783e+01	-9.693329e+02
2.750000e-06	-3.980871e-06	-1.510411e-08	-2.864975e+01	-9.893822e+02
2.760000e-06	-4.110397e-06	-1.539160e-08	-2.958192e+01	-1.008108e+03
2.770000e-06	-4.238506e-06	-1.566004e-08	-3.050390e+01	-1.025637e+03
2.780000e-06	-4.365169e-06	-1.591243e-08	-3.141548e+01	-1.042109e+03
2.790000e-06	-4.490283e-06	-1.615209e-08	-3.231590e+01	-1.057654e+03
2.800000e-06	-4.613756e-06	-1.638015e-08	-3.320453e+01	-1.072383e+03
2.810000e-06	-4.735697e-06	-1.659796e-08	-3.408211e+01	-1.086371e+03
2.820000e-06	-4.855952e-06	-1.680466e-08	-3.494757e+01	-1.099664e+03
2.830000e-06	-4.974354e-06	-1.699838e-08	-3.579969e+01	-1.112280e+03
2.840000e-06	-5.090779e-06	-1.717931e-08	-3.663759e+01	-1.124227e+03
2.850000e-06	-5.205136e-06	-1.734915e-08	-3.746060e+01	-1.135511e+03
2.860000e-06	-5.317434e-06	-1.751078e-08	-3.826879e+01	-1.146152e+03
2.870000e-06	-5.427634e-06	-1.766333e-08	-3.906188e+01	-1.156188e+03
2.880000e-06	-5.535854e-06	-1.780829e-08	-3.984073e+01	-1.165666e+03
2.890000e-06	-5.642198e-06	-1.794769e-08	-4.060607e+01	-1.174644e+03
2.900000e-06	-5.746548e-06	-1.808074e-08	-4.135706e+01	-1.183168e+03
2.910000e-06	-5.848759e-06	-1.820676e-08	-4.209266e+01	-1.191275e+03
2.920000e-06	-5.948755e-06	-1.832536e-08	-4.281232e+01	-1.198979e+03
2.930000e-06	-6.046615e-06	-1.843746e-08	-4.351660e+01	-1.206281e+03
2.940000e-06	-6.142391e-06	-1.854318e-08	-4.420589e+01	-1.213173e+03
