# Temperatura_=_27.97
# Concentracion g/m^3_=_28200.0
# C_Vs_to_Am_M_A/Vsm_=_65563218390.804596
# pendiente_HvsI_1/m_=_3716.3
# ordenada_HvsI_A/m_=_1297.0
# frecuencia_Hz_=_302548.97053741576

Tiempo_(s)	Campo_(V.s)	Magnetizacion_(V.s)	Campo_(kA/m)	Magnetizacion_(A/m)
0.000000e+00	-7.910148e-06	-1.988121e-08	-5.683757e+01	-1.300256e+03
1.000000e-08	-7.906921e-06	-1.988251e-08	-5.681438e+01	-1.299898e+03
2.000000e-08	-7.901101e-06	-1.987521e-08	-5.677257e+01	-1.299446e+03
3.000000e-08	-7.892688e-06	-1.986679e-08	-5.671211e+01	-1.298919e+03
4.000000e-08	-7.881478e-06	-1.985939e-08	-5.663156e+01	-1.298325e+03
5.000000e-08	-7.867351e-06	-1.984813e-08	-5.653006e+01	-1.297656e+03
6.000000e-08	-7.850392e-06	-1.982967e-08	-5.640820e+01	-1.296894e+03
7.000000e-08	-7.831005e-06	-1.980897e-08	-5.626889e+01	-1.296011e+03
8.000000e-08	-7.809321e-06	-1.979258e-08	-5.611309e+01	-1.294990e+03
9.000000e-08	-7.784884e-06	-1.982953e-08	-5.593750e+01	-1.293826e+03
1.000000e-07	-7.757305e-06	-1.982287e-08	-5.573933e+01	-1.292535e+03
1.100000e-07	-7.726763e-06	-1.974695e-08	-5.551987e+01	-1.291154e+03
1.200000e-07	-7.693396e-06	-1.971372e-08	-5.528012e+01	-1.289737e+03
1.300000e-07	-7.657268e-06	-1.970523e-08	-5.502053e+01	-1.288332e+03
1.400000e-07	-7.618733e-06	-1.966509e-08	-5.474364e+01	-1.286979e+03
1.500000e-07	-7.578000e-06	-1.958893e-08	-5.445096e+01	-1.285686e+03
1.600000e-07	-7.534990e-06	-1.961511e-08	-5.414191e+01	-1.284426e+03
1.700000e-07	-7.489390e-06	-1.964144e-08	-5.381425e+01	-1.283142e+03
1.800000e-07	-7.441123e-06	-1.950359e-08	-5.346744e+01	-1.281750e+03
1.900000e-07	-7.389962e-06	-1.951397e-08	-5.309982e+01	-1.280161e+03
2.000000e-07	-7.335845e-06	-1.950479e-08	-5.271097e+01	-1.278299e+03
2.100000e-07	-7.279054e-06	-1.943218e-08	-5.230291e+01	-1.276113e+03
2.200000e-07	-7.219598e-06	-1.942430e-08	-5.187569e+01	-1.273592e+03
2.300000e-07	-7.157502e-06	-1.935480e-08	-5.142951e+01	-1.270760e+03
2.400000e-07	-7.092700e-06	-1.932883e-08	-5.096388e+01	-1.267671e+03
2.500000e-07	-7.025156e-06	-1.925493e-08	-5.047855e+01	-1.264387e+03
2.600000e-07	-6.955014e-06	-1.921158e-08	-4.997455e+01	-1.260965e+03
2.700000e-07	-6.882142e-06	-1.916061e-08	-4.945094e+01	-1.257443e+03
2.800000e-07	-6.806467e-06	-1.909652e-08	-4.890718e+01	-1.253825e+03
2.900000e-07	-6.728072e-06	-1.904465e-08	-4.834388e+01	-1.250090e+03
3.000000e-07	-6.647039e-06	-1.896876e-08	-4.776163e+01	-1.246194e+03
3.100000e-07	-6.563615e-06	-1.891366e-08	-4.716219e+01	-1.242088e+03
3.200000e-07	-6.477997e-06	-1.883809e-08	-4.654700e+01	-1.237731e+03
3.300000e-07	-6.390117e-06	-1.878330e-08	-4.591554e+01	-1.233101e+03
3.400000e-07	-6.299844e-06	-1.871318e-08	-4.526689e+01	-1.228198e+03
3.500000e-07	-6.207303e-06	-1.862136e-08	-4.460195e+01	-1.223043e+03
3.600000e-07	-6.112559e-06	-1.855179e-08	-4.392118e+01	-1.217662e+03
3.700000e-07	-6.015506e-06	-1.846947e-08	-4.322381e+01	-1.212080e+03
3.800000e-07	-5.916189e-06	-1.837483e-08	-4.251018e+01	-1.206306e+03
3.900000e-07	-5.814836e-06	-1.828035e-08	-4.178191e+01	-1.200325e+03
4.000000e-07	-5.711466e-06	-1.818845e-08	-4.103916e+01	-1.194105e+03
4.100000e-07	-5.605998e-06	-1.808048e-08	-4.028133e+01	-1.187598e+03
4.200000e-07	-5.498535e-06	-1.796965e-08	-3.950917e+01	-1.180756e+03
4.300000e-07	-5.389206e-06	-1.786761e-08	-3.872360e+01	-1.173543e+03
4.400000e-07	-5.277939e-06	-1.775570e-08	-3.792410e+01	-1.165941e+03
4.500000e-07	-5.164631e-06	-1.763312e-08	-3.710994e+01	-1.157957e+03
4.600000e-07	-5.049321e-06	-1.750788e-08	-3.628138e+01	-1.149610e+03
4.700000e-07	-4.932124e-06	-1.737581e-08	-3.543928e+01	-1.140922e+03
4.800000e-07	-4.813126e-06	-1.723376e-08	-3.458423e+01	-1.131907e+03
4.900000e-07	-4.692337e-06	-1.708940e-08	-3.371632e+01	-1.122554e+03
5.000000e-07	-4.569832e-06	-1.694366e-08	-3.283607e+01	-1.112828e+03
5.100000e-07	-4.445621e-06	-1.678637e-08	-3.194356e+01	-1.102668e+03
5.200000e-07	-4.319803e-06	-1.661616e-08	-3.103951e+01	-1.092000e+03
5.300000e-07	-4.192437e-06	-1.644128e-08	-3.012433e+01	-1.080752e+03
5.400000e-07	-4.063536e-06	-1.625974e-08	-2.919813e+01	-1.068869e+03
5.500000e-07	-3.933137e-06	-1.606625e-08	-2.826116e+01	-1.056320e+03
5.600000e-07	-3.801205e-06	-1.586074e-08	-2.731317e+01	-1.043101e+03
5.700000e-07	-3.667787e-06	-1.564918e-08	-2.635451e+01	-1.029221e+03
5.800000e-07	-3.532961e-06	-1.542703e-08	-2.538573e+01	-1.014693e+03
5.900000e-07	-3.396759e-06	-1.519495e-08	-2.440707e+01	-9.995086e+02
6.000000e-07	-3.259280e-06	-1.495173e-08	-2.341923e+01	-9.836271e+02
6.100000e-07	-3.120539e-06	-1.469768e-08	-2.242232e+01	-9.669677e+02
6.200000e-07	-2.980467e-06	-1.442812e-08	-2.141584e+01	-9.494144e+02
6.300000e-07	-2.839123e-06	-1.413863e-08	-2.040023e+01	-9.308305e+02
6.400000e-07	-2.696626e-06	-1.383163e-08	-1.937633e+01	-9.110778e+02
6.500000e-07	-2.553090e-06	-1.350600e-08	-1.834497e+01	-8.900359e+02
6.600000e-07	-2.408572e-06	-1.316276e-08	-1.730655e+01	-8.676117e+02
6.700000e-07	-2.263273e-06	-1.279891e-08	-1.626252e+01	-8.437381e+02
6.800000e-07	-2.117302e-06	-1.241419e-08	-1.521366e+01	-8.183579e+02
6.900000e-07	-1.970556e-06	-1.200656e-08	-1.415923e+01	-7.913995e+02
7.000000e-07	-1.823081e-06	-1.157282e-08	-1.309956e+01	-7.627513e+02
7.100000e-07	-1.675056e-06	-1.110525e-08	-1.203595e+01	-7.322436e+02
7.200000e-07	-1.526611e-06	-1.060043e-08	-1.096931e+01	-6.996493e+02
7.300000e-07	-1.377771e-06	-1.005902e-08	-9.899831e+00	-6.647061e+02
7.400000e-07	-1.228455e-06	-9.480424e-09	-8.826941e+00	-6.271605e+02
7.500000e-07	-1.078651e-06	-8.865617e-09	-7.750535e+00	-5.868252e+02
7.600000e-07	-9.284661e-07	-8.211199e-09	-6.671400e+00	-5.436382e+02
7.700000e-07	-7.780228e-07	-7.517869e-09	-5.590404e+00	-4.977063e+02
7.800000e-07	-6.272718e-07	-6.784723e-09	-4.507198e+00	-4.493216e+02
7.900000e-07	-4.762024e-07	-6.018494e-09	-3.421704e+00	-3.989400e+02
8.000000e-07	-3.250076e-07	-5.229323e-09	-2.335309e+00	-3.471233e+02
8.100000e-07	-1.737587e-07	-4.426341e-09	-1.248525e+00	-2.944534e+02
8.200000e-07	-2.240499e-08	-3.616809e-09	-1.609888e-01	-2.414342e+02
8.300000e-07	1.290485e-07	-2.804794e-09	9.272652e-01	-1.884050e+02
8.400000e-07	2.804790e-07	-1.994388e-09	2.015353e+00	-1.354823e+02
8.500000e-07	4.317709e-07	-1.186075e-09	3.102446e+00	-8.254870e+01
8.600000e-07	5.829315e-07	-3.797193e-10	4.188595e+00	-2.929244e+01
8.700000e-07	7.339379e-07	4.343007e-10	5.273637e+00	2.470798e+01
8.800000e-07	8.847644e-07	1.265770e-09	6.357385e+00	7.986925e+01
8.900000e-07	1.035358e-06	2.122801e-09	7.439461e+00	1.364829e+02
9.000000e-07	1.185583e-06	3.006896e-09	8.518886e+00	1.946141e+02
9.100000e-07	1.335372e-06	3.913406e-09	9.595183e+00	2.540416e+02
9.200000e-07	1.484689e-06	4.837779e-09	1.066808e+01	3.142509e+02
9.300000e-07	1.633451e-06	5.763980e-09	1.173700e+01	3.744841e+02
9.400000e-07	1.781662e-06	6.670953e-09	1.280195e+01	4.338343e+02
9.500000e-07	1.929278e-06	7.542132e-09	1.386263e+01	4.913662e+02
9.600000e-07	2.076134e-06	8.368062e-09	1.491785e+01	5.462393e+02
9.700000e-07	2.222225e-06	9.140820e-09	1.596757e+01	5.978081e+02
9.800000e-07	2.367518e-06	9.856357e-09	1.701156e+01	6.456847e+02
9.900000e-07	2.511824e-06	1.051877e-08	1.804846e+01	6.897525e+02
1.000000e-06	2.655165e-06	1.113213e-08	1.907842e+01	7.301350e+02
1.010000e-06	2.797533e-06	1.169858e-08	2.010139e+01	7.671307e+02
1.020000e-06	2.938783e-06	1.221882e-08	2.111633e+01	8.011316e+02
1.030000e-06	3.078810e-06	1.270004e-08	2.212248e+01	8.325427e+02
1.040000e-06	3.217610e-06	1.314708e-08	2.311981e+01	8.617208e+02
1.050000e-06	3.355233e-06	1.356117e-08	2.410869e+01	8.889400e+02
1.060000e-06	3.491477e-06	1.394335e-08	2.508766e+01	9.143858e+02
1.070000e-06	3.626352e-06	1.429697e-08	2.605679e+01	9.381734e+02
1.080000e-06	3.759987e-06	1.462805e-08	2.701701e+01	9.603798e+02
1.090000e-06	3.892275e-06	1.493950e-08	2.796755e+01	9.810764e+02
1.100000e-06	4.023170e-06	1.523343e-08	2.890808e+01	1.000354e+03
1.110000e-06	4.152677e-06	1.551027e-08	2.983864e+01	1.018333e+03
1.120000e-06	4.280690e-06	1.576913e-08	3.075847e+01	1.035158e+03
1.130000e-06	4.407228e-06	1.601150e-08	3.166769e+01	1.050982e+03
1.140000e-06	4.532330e-06	1.624003e-08	3.256660e+01	1.065942e+03
1.150000e-06	4.655846e-06	1.645629e-08	3.345411e+01	1.080147e+03
1.160000e-06	4.777701e-06	1.665931e-08	3.432969e+01	1.093665e+03
1.170000e-06	4.897844e-06	1.684669e-08	3.519297e+01	1.106521e+03
1.180000e-06	5.016226e-06	1.702229e-08	3.604358e+01	1.118719e+03
1.190000e-06	5.132729e-06	1.719141e-08	3.688070e+01	1.130248e+03
1.200000e-06	5.247243e-06	1.735698e-08	3.770354e+01	1.141108e+03
1.210000e-06	5.359719e-06	1.751796e-08	3.851172e+01	1.151316e+03
1.220000e-06	5.470198e-06	1.766955e-08	3.930555e+01	1.160913e+03
1.230000e-06	5.578823e-06	1.780970e-08	4.008607e+01	1.169957e+03
1.240000e-06	5.685504e-06	1.794147e-08	4.085262e+01	1.178515e+03
1.250000e-06	5.790043e-06	1.806525e-08	4.160377e+01	1.186644e+03
1.260000e-06	5.892418e-06	1.818088e-08	4.233937e+01	1.194383e+03
1.270000e-06	5.992653e-06	1.828952e-08	4.305960e+01	1.201749e+03
1.280000e-06	6.090615e-06	1.839152e-08	4.376350e+01	1.208741e+03
1.290000e-06	6.186242e-06	1.848965e-08	4.445062e+01	1.215345e+03
1.300000e-06	6.279676e-06	1.858417e-08	4.512198e+01	1.221550e+03
1.310000e-06	6.370896e-06	1.867413e-08	4.577743e+01	1.227360e+03
1.320000e-06	6.459793e-06	1.875936e-08	4.641619e+01	1.232796e+03
1.330000e-06	6.546386e-06	1.883836e-08	4.703839e+01	1.237904e+03
1.340000e-06	6.630741e-06	1.891260e-08	4.764452e+01	1.242738e+03
1.350000e-06	6.712744e-06	1.898063e-08	4.823374e+01	1.247356e+03
1.360000e-06	6.792283e-06	1.904502e-08	4.880526e+01	1.251804e+03
1.370000e-06	6.869405e-06	1.910931e-08	4.935941e+01	1.256108e+03
1.380000e-06	6.943917e-06	1.917179e-08	4.989482e+01	1.260268e+03
1.390000e-06	7.015762e-06	1.923158e-08	5.041105e+01	1.264265e+03
1.400000e-06	7.085128e-06	1.928679e-08	5.090947e+01	1.268065e+03
1.410000e-06	7.151967e-06	1.933894e-08	5.138974e+01	1.271635e+03
1.420000e-06	7.216182e-06	1.938741e-08	5.185115e+01	1.274955e+03
1.430000e-06	7.277889e-06	1.943288e-08	5.229454e+01	1.278019e+03
1.440000e-06	7.337132e-06	1.947614e-08	5.272022e+01	1.280845e+03
1.450000e-06	7.393812e-06	1.951768e-08	5.312749e+01	1.283461e+03
1.460000e-06	7.447841e-06	1.955870e-08	5.351571e+01	1.285903e+03
1.470000e-06	7.498877e-06	1.959576e-08	5.388243e+01	1.288201e+03
1.480000e-06	7.546818e-06	1.962800e-08	5.422690e+01	1.290370e+03
1.490000e-06	7.592061e-06	1.965724e-08	5.455199e+01	1.292410e+03
1.500000e-06	7.634652e-06	1.968374e-08	5.485802e+01	1.294305e+03
1.510000e-06	7.674449e-06	1.970818e-08	5.514398e+01	1.296030e+03
1.520000e-06	7.711623e-06	1.973037e-08	5.541109e+01	1.297565e+03
1.530000e-06	7.746123e-06	1.974978e-08	5.565898e+01	1.298896e+03
1.540000e-06	7.777810e-06	1.976680e-08	5.588667e+01	1.300028e+03
1.550000e-06	7.806809e-06	1.978276e-08	5.609504e+01	1.300980e+03
1.560000e-06	7.833013e-06	1.979734e-08	5.628333e+01	1.301781e+03
1.570000e-06	7.856287e-06	1.980932e-08	5.645055e+01	1.302464e+03
1.580000e-06	7.876800e-06	1.981915e-08	5.659795e+01	1.303055e+03
1.590000e-06	7.894558e-06	1.982816e-08	5.672555e+01	1.303566e+03
1.600000e-06	7.909336e-06	1.983600e-08	5.683173e+01	1.303994e+03
1.610000e-06	7.921028e-06	1.983973e-08	5.691575e+01	1.304325e+03
1.620000e-06	7.929653e-06	1.984016e-08	5.697772e+01	1.304537e+03
1.630000e-06	7.935380e-06	1.984082e-08	5.701887e+01	1.304612e+03
1.640000e-06	7.938367e-06	1.984000e-08	5.704033e+01	1.304542e+03
1.650000e-06	7.938529e-06	1.983858e-08	5.704150e+01	1.304332e+03
1.660000e-06	7.935995e-06	1.983079e-08	5.702329e+01	1.304000e+03
1.670000e-06	7.930891e-06	1.982526e-08	5.698661e+01	1.303568e+03
1.680000e-06	7.923063e-06	1.982395e-08	5.693037e+01	1.303058e+03
1.690000e-06	7.912574e-06	1.981720e-08	5.685500e+01	1.302480e+03
1.700000e-06	7.899268e-06	1.980847e-08	5.675940e+01	1.301831e+03
1.710000e-06	7.883173e-06	1.980086e-08	5.664375e+01	1.301093e+03
1.720000e-06	7.864749e-06	1.979393e-08	5.651136e+01	1.300242e+03
1.730000e-06	7.844059e-06	1.976082e-08	5.636270e+01	1.299256e+03
1.740000e-06	7.820538e-06	1.967122e-08	5.619368e+01	1.298126e+03
1.750000e-06	7.793563e-06	1.968270e-08	5.599986e+01	1.296863e+03
1.760000e-06	7.763008e-06	1.971411e-08	5.578031e+01	1.295500e+03
1.770000e-06	7.729435e-06	1.967525e-08	5.553908e+01	1.294085e+03
1.780000e-06	7.693619e-06	1.965108e-08	5.528172e+01	1.292673e+03
1.790000e-06	7.655589e-06	1.970988e-08	5.500846e+01	1.291304e+03
1.800000e-06	7.615472e-06	1.965632e-08	5.472020e+01	1.289995e+03
1.810000e-06	7.573325e-06	1.955197e-08	5.441736e+01	1.288731e+03
1.820000e-06	7.528542e-06	1.968326e-08	5.409558e+01	1.287459e+03
1.830000e-06	7.481022e-06	1.961377e-08	5.375413e+01	1.286102e+03
1.840000e-06	7.430652e-06	1.959611e-08	5.339220e+01	1.284569e+03
1.850000e-06	7.377184e-06	1.959748e-08	5.300801e+01	1.282780e+03
1.860000e-06	7.320982e-06	1.950133e-08	5.260417e+01	1.280677e+03
1.870000e-06	7.262201e-06	1.954579e-08	5.218181e+01	1.278238e+03
1.880000e-06	7.200846e-06	1.943313e-08	5.174095e+01	1.275479e+03
1.890000e-06	7.136769e-06	1.942732e-08	5.128054e+01	1.272448e+03
1.900000e-06	7.069842e-06	1.940191e-08	5.079964e+01	1.269205e+03
1.910000e-06	7.000190e-06	1.931160e-08	5.029916e+01	1.265813e+03
1.920000e-06	6.927767e-06	1.929441e-08	4.977877e+01	1.262313e+03
1.930000e-06	6.852682e-06	1.919501e-08	4.923926e+01	1.258720e+03
1.940000e-06	6.774928e-06	1.918490e-08	4.868056e+01	1.255016e+03
1.950000e-06	6.694504e-06	1.910879e-08	4.810268e+01	1.251164e+03
1.960000e-06	6.611569e-06	1.904302e-08	4.750676e+01	1.247115e+03
1.970000e-06	6.526190e-06	1.898440e-08	4.689328e+01	1.242823e+03
1.980000e-06	6.438445e-06	1.889427e-08	4.626280e+01	1.238261e+03
1.990000e-06	6.348438e-06	1.885248e-08	4.561606e+01	1.233424e+03
2.000000e-06	6.256209e-06	1.874947e-08	4.495336e+01	1.228328e+03
2.010000e-06	6.161711e-06	1.868807e-08	4.427435e+01	1.223000e+03
2.020000e-06	6.065014e-06	1.859769e-08	4.357955e+01	1.217466e+03
2.030000e-06	5.966193e-06	1.850939e-08	4.286948e+01	1.211739e+03
2.040000e-06	5.865196e-06	1.840864e-08	4.214377e+01	1.205812e+03
2.050000e-06	5.762025e-06	1.831738e-08	4.140245e+01	1.199655e+03
2.060000e-06	5.656866e-06	1.823376e-08	4.064684e+01	1.193224e+03
2.070000e-06	5.549833e-06	1.811944e-08	3.987776e+01	1.186469e+03
2.080000e-06	5.440879e-06	1.801385e-08	3.909489e+01	1.179350e+03
2.090000e-06	5.329970e-06	1.789485e-08	3.829796e+01	1.171845e+03
2.100000e-06	5.217081e-06	1.778315e-08	3.748681e+01	1.163954e+03
2.110000e-06	5.102255e-06	1.765235e-08	3.666174e+01	1.155695e+03
2.120000e-06	4.985438e-06	1.752861e-08	3.582236e+01	1.147089e+03
2.130000e-06	4.866684e-06	1.739262e-08	3.496906e+01	1.138155e+03
2.140000e-06	4.746099e-06	1.724831e-08	3.410261e+01	1.128888e+03
2.150000e-06	4.623796e-06	1.709740e-08	3.322382e+01	1.119260e+03
2.160000e-06	4.499838e-06	1.694719e-08	3.233313e+01	1.109214e+03
2.170000e-06	4.374173e-06	1.679083e-08	3.143018e+01	1.098679e+03
2.180000e-06	4.246902e-06	1.662223e-08	3.051568e+01	1.087581e+03
2.190000e-06	4.118099e-06	1.644925e-08	2.959018e+01	1.075860e+03
2.200000e-06	3.987788e-06	1.626351e-08	2.865385e+01	1.063478e+03
2.210000e-06	3.855937e-06	1.606869e-08	2.770644e+01	1.050425e+03
2.220000e-06	3.722627e-06	1.586132e-08	2.674856e+01	1.036708e+03
2.230000e-06	3.587936e-06	1.564802e-08	2.578075e+01	1.022341e+03
2.240000e-06	3.451920e-06	1.541921e-08	2.480342e+01	1.007322e+03
2.250000e-06	3.314637e-06	1.517832e-08	2.381699e+01	9.916202e+02
2.260000e-06	3.176067e-06	1.492608e-08	2.282131e+01	9.751641e+02
2.270000e-06	3.036232e-06	1.466314e-08	2.181654e+01	9.578458e+02
2.280000e-06	2.895191e-06	1.438368e-08	2.080310e+01	9.395319e+02
2.290000e-06	2.753043e-06	1.408840e-08	1.978171e+01	9.200828e+02
2.300000e-06	2.609873e-06	1.377606e-08	1.875298e+01	8.993722e+02
2.310000e-06	2.465788e-06	1.344232e-08	1.771767e+01	8.772999e+02
2.320000e-06	2.320850e-06	1.308846e-08	1.667623e+01	8.537932e+02
2.330000e-06	2.175101e-06	1.271221e-08	1.562897e+01	8.287945e+02
2.340000e-06	2.028631e-06	1.231183e-08	1.457652e+01	8.022383e+02
2.350000e-06	1.881506e-06	1.188302e-08	1.351937e+01	7.740252e+02
2.360000e-06	1.733747e-06	1.142471e-08	1.245766e+01	7.440008e+02
2.370000e-06	1.585387e-06	1.093375e-08	1.139164e+01	7.119511e+02
2.380000e-06	1.436517e-06	1.040622e-08	1.032194e+01	6.776193e+02
2.390000e-06	1.287226e-06	9.841273e-09	9.249232e+00	6.407447e+02
2.400000e-06	1.137549e-06	9.235817e-09	8.173745e+00	6.011176e+02
2.410000e-06	9.875107e-07	8.589166e-09	7.095658e+00	5.586398e+02
2.420000e-06	8.371074e-07	7.903544e-09	6.014951e+00	5.133731e+02
2.430000e-06	6.863558e-07	7.180472e-09	4.931741e+00	4.655637e+02
2.440000e-06	5.353448e-07	6.422485e-09	3.846666e+00	4.156306e+02
2.450000e-06	3.841468e-07	5.635728e-09	2.760248e+00	3.641165e+02
2.460000e-06	2.328409e-07	4.830120e-09	1.673055e+00	3.116071e+02
2.470000e-06	8.142584e-08	4.013486e-09	5.850772e-01	2.586349e+02
2.480000e-06	-7.007303e-08	3.195999e-09	-5.035027e-01	2.055871e+02
2.490000e-06	-2.215741e-07	2.384421e-09	-1.592099e+00	1.526391e+02
2.500000e-06	-3.730723e-07	1.575960e-09	-2.680674e+00	9.973016e+01
2.510000e-06	-5.244652e-07	7.658823e-10	-3.768492e+00	4.659077e+01
2.520000e-06	-6.756250e-07	-5.468627e-11	-4.854635e+00	-7.183095e+00
2.530000e-06	-8.265100e-07	-8.899617e-10	-5.938804e+00	-6.202081e+01
2.540000e-06	-9.771016e-07	-1.745598e-09	-7.020865e+00	-1.182558e+02
2.550000e-06	-1.127342e-06	-2.627123e-09	-8.100402e+00	-1.760175e+02
2.560000e-06	-1.277204e-06	-3.532045e-09	-9.177219e+00	-2.351590e+02
2.570000e-06	-1.426617e-06	-4.453582e-09	-1.025081e+01	-2.952365e+02
2.580000e-06	-1.575541e-06	-5.381246e-09	-1.132089e+01	-3.555458e+02
2.590000e-06	-1.723908e-06	-6.300521e-09	-1.238697e+01	-4.152062e+02
2.600000e-06	-1.871574e-06	-7.193364e-09	-1.344801e+01	-4.732781e+02
2.610000e-06	-2.018525e-06	-8.046254e-09	-1.450391e+01	-5.288862e+02
2.620000e-06	-2.164768e-06	-8.847783e-09	-1.555472e+01	-5.813289e+02
2.630000e-06	-2.310188e-06	-9.591581e-09	-1.659962e+01	-6.301508e+02
2.640000e-06	-2.454720e-06	-1.027865e-08	-1.763814e+01	-6.751685e+02
2.650000e-06	-2.598289e-06	-1.091200e-08	-1.866974e+01	-7.164506e+02
2.660000e-06	-2.740795e-06	-1.149596e-08	-1.969370e+01	-7.542594e+02
2.670000e-06	-2.882215e-06	-1.203458e-08	-2.070986e+01	-7.889711e+02
2.680000e-06	-3.022451e-06	-1.252988e-08	-2.171752e+01	-8.209943e+02
2.690000e-06	-3.161455e-06	-1.298600e-08	-2.271632e+01	-8.507023e+02
2.700000e-06	-3.299232e-06	-1.340947e-08	-2.370629e+01	-8.783914e+02
2.710000e-06	-3.435771e-06	-1.380399e-08	-2.468739e+01	-9.042683e+02
2.720000e-06	-3.571047e-06	-1.417236e-08	-2.565940e+01	-9.284631e+02
2.730000e-06	-3.705029e-06	-1.451638e-08	-2.662211e+01	-9.510593e+02
2.740000e-06	-3.837685e-06	-1.483792e-08	-2.757529e+01	-9.721267e+02
2.750000e-06	-3.968966e-06	-1.513872e-08	-2.851860e+01	-9.917499e+02
2.760000e-06	-4.098897e-06	-1.541973e-08	-2.945221e+01	-1.010042e+03
2.770000e-06	-4.227436e-06	-1.568189e-08	-3.037582e+01	-1.027142e+03
2.780000e-06	-4.354520e-06	-1.592916e-08	-3.128897e+01	-1.043202e+03
2.790000e-06	-4.480113e-06	-1.616378e-08	-3.219140e+01	-1.058368e+03
2.800000e-06	-4.604127e-06	-1.638620e-08	-3.308249e+01	-1.072755e+03
2.810000e-06	-4.726546e-06	-1.660041e-08	-3.396212e+01	-1.086441e+03
2.820000e-06	-4.847297e-06	-1.680434e-08	-3.482977e+01	-1.099463e+03
2.830000e-06	-4.966179e-06	-1.699446e-08	-3.568397e+01	-1.111827e+03
2.840000e-06	-5.083051e-06	-1.717105e-08	-3.652375e+01	-1.123525e+03
2.850000e-06	-5.197841e-06	-1.733547e-08	-3.734856e+01	-1.134552e+03
2.860000e-06	-5.310505e-06	-1.749166e-08	-3.815810e+01	-1.144920e+03
2.870000e-06	-5.421115e-06	-1.764076e-08	-3.895288e+01	-1.154666e+03
2.880000e-06	-5.529825e-06	-1.778219e-08	-3.973400e+01	-1.163843e+03
2.890000e-06	-5.636673e-06	-1.791747e-08	-4.050175e+01	-1.172518e+03
2.900000e-06	-5.741473e-06	-1.804534e-08	-4.125477e+01	-1.180750e+03
2.910000e-06	-5.844114e-06	-1.816622e-08	-4.199229e+01	-1.188585e+03
2.920000e-06	-5.944585e-06	-1.828207e-08	-4.271422e+01	-1.196045e+03
2.930000e-06	-6.042931e-06	-1.839212e-08	-4.342087e+01	-1.203132e+03
2.940000e-06	-6.139171e-06	-1.849521e-08	-4.411239e+01	-1.209835e+03
