# Temperatura_=_84.9
# Concentracion g/m^3_=_28200.0
# C_Vs_to_Am_M_A/Vsm_=_65563218390.804596
# pendiente_HvsI_1/m_=_3716.3
# ordenada_HvsI_A/m_=_1297.0
# frecuencia_Hz_=_302555.00246060675

Tiempo_(s)	Campo_(V.s)	Magnetizacion_(V.s)	Campo_(kA/m)	Magnetizacion_(A/m)
0.000000e+00	-7.862869e-06	-2.990706e-08	-5.683285e+01	-1.957995e+03
1.000000e-08	-7.859807e-06	-2.990368e-08	-5.681072e+01	-1.957364e+03
2.000000e-08	-7.854153e-06	-2.989336e-08	-5.676985e+01	-1.956582e+03
3.000000e-08	-7.845971e-06	-2.987998e-08	-5.671071e+01	-1.955701e+03
4.000000e-08	-7.835007e-06	-2.986651e-08	-5.663146e+01	-1.954747e+03
5.000000e-08	-7.821128e-06	-2.985028e-08	-5.653115e+01	-1.953709e+03
6.000000e-08	-7.804481e-06	-2.982687e-08	-5.641082e+01	-1.952545e+03
7.000000e-08	-7.785432e-06	-2.980144e-08	-5.627313e+01	-1.951196e+03
8.000000e-08	-7.764183e-06	-2.978057e-08	-5.611954e+01	-1.949603e+03
9.000000e-08	-7.740208e-06	-2.979481e-08	-5.594625e+01	-1.947737e+03
1.000000e-07	-7.713017e-06	-2.977971e-08	-5.574972e+01	-1.945604e+03
1.100000e-07	-7.682808e-06	-2.970177e-08	-5.553137e+01	-1.943258e+03
1.200000e-07	-7.649757e-06	-2.964350e-08	-5.529247e+01	-1.940782e+03
1.300000e-07	-7.613985e-06	-2.960740e-08	-5.503391e+01	-1.938268e+03
1.400000e-07	-7.575857e-06	-2.955207e-08	-5.475832e+01	-1.935788e+03
1.500000e-07	-7.535522e-06	-2.947980e-08	-5.446679e+01	-1.933370e+03
1.600000e-07	-7.492897e-06	-2.948234e-08	-5.415869e+01	-1.930984e+03
1.700000e-07	-7.447781e-06	-2.946416e-08	-5.383259e+01	-1.928541e+03
1.800000e-07	-7.400036e-06	-2.932967e-08	-5.348749e+01	-1.925916e+03
1.900000e-07	-7.349421e-06	-2.930758e-08	-5.312165e+01	-1.922973e+03
2.000000e-07	-7.295779e-06	-2.925483e-08	-5.273392e+01	-1.919599e+03
2.100000e-07	-7.239401e-06	-2.917195e-08	-5.232642e+01	-1.915732e+03
2.200000e-07	-7.180414e-06	-2.914304e-08	-5.190006e+01	-1.911370e+03
2.300000e-07	-7.118781e-06	-2.905900e-08	-5.145458e+01	-1.906574e+03
2.400000e-07	-7.054496e-06	-2.900098e-08	-5.098993e+01	-1.901442e+03
2.500000e-07	-6.987555e-06	-2.889891e-08	-5.050608e+01	-1.896081e+03
2.600000e-07	-6.917964e-06	-2.880967e-08	-5.000307e+01	-1.890575e+03
2.700000e-07	-6.845653e-06	-2.872173e-08	-4.948041e+01	-1.884964e+03
2.800000e-07	-6.770651e-06	-2.862545e-08	-4.893829e+01	-1.879228e+03
2.900000e-07	-6.692998e-06	-2.853151e-08	-4.837702e+01	-1.873302e+03
3.000000e-07	-6.612602e-06	-2.842878e-08	-4.779591e+01	-1.867093e+03
3.100000e-07	-6.529711e-06	-2.834217e-08	-4.719678e+01	-1.860511e+03
3.200000e-07	-6.444644e-06	-2.822646e-08	-4.658191e+01	-1.853497e+03
3.300000e-07	-6.357334e-06	-2.811907e-08	-4.595084e+01	-1.846035e+03
3.400000e-07	-6.267698e-06	-2.800409e-08	-4.530295e+01	-1.838159e+03
3.500000e-07	-6.175806e-06	-2.786893e-08	-4.463875e+01	-1.829934e+03
3.600000e-07	-6.081737e-06	-2.775018e-08	-4.395882e+01	-1.821435e+03
3.700000e-07	-5.985409e-06	-2.762316e-08	-4.326256e+01	-1.812713e+03
3.800000e-07	-5.886816e-06	-2.748432e-08	-4.254993e+01	-1.803781e+03
3.900000e-07	-5.786152e-06	-2.734071e-08	-4.182233e+01	-1.794595e+03
4.000000e-07	-5.683450e-06	-2.719365e-08	-4.108000e+01	-1.785074e+03
4.100000e-07	-5.578685e-06	-2.703177e-08	-4.032276e+01	-1.775109e+03
4.200000e-07	-5.471983e-06	-2.686479e-08	-3.955152e+01	-1.764603e+03
4.300000e-07	-5.363389e-06	-2.670236e-08	-3.876660e+01	-1.753490e+03
4.400000e-07	-5.252835e-06	-2.652510e-08	-3.796752e+01	-1.741755e+03
4.500000e-07	-5.140328e-06	-2.633659e-08	-3.715431e+01	-1.729432e+03
4.600000e-07	-5.025880e-06	-2.614463e-08	-3.632708e+01	-1.716589e+03
4.700000e-07	-4.909439e-06	-2.594636e-08	-3.548545e+01	-1.703298e+03
4.800000e-07	-4.791189e-06	-2.573753e-08	-3.463074e+01	-1.689602e+03
4.900000e-07	-4.671256e-06	-2.552211e-08	-3.376386e+01	-1.675496e+03
5.000000e-07	-4.549641e-06	-2.529951e-08	-3.288483e+01	-1.660915e+03
5.100000e-07	-4.426312e-06	-2.506095e-08	-3.199340e+01	-1.645745e+03
5.200000e-07	-4.301318e-06	-2.480721e-08	-3.108995e+01	-1.629847e+03
5.300000e-07	-4.174808e-06	-2.454539e-08	-3.017553e+01	-1.613094e+03
5.400000e-07	-4.046760e-06	-2.427545e-08	-2.925000e+01	-1.595397e+03
5.500000e-07	-3.917255e-06	-2.399182e-08	-2.831394e+01	-1.576727e+03
5.600000e-07	-3.786264e-06	-2.369423e-08	-2.736713e+01	-1.557112e+03
5.700000e-07	-3.653705e-06	-2.338622e-08	-2.640899e+01	-1.536611e+03
5.800000e-07	-3.519722e-06	-2.306401e-08	-2.544057e+01	-1.515281e+03
5.900000e-07	-3.384462e-06	-2.272575e-08	-2.446291e+01	-1.493136e+03
6.000000e-07	-3.247951e-06	-2.236942e-08	-2.347621e+01	-1.470115e+03
6.100000e-07	-3.110173e-06	-2.199693e-08	-2.248035e+01	-1.446072e+03
6.200000e-07	-2.971087e-06	-2.160425e-08	-2.147503e+01	-1.420792e+03
6.300000e-07	-2.830697e-06	-2.118696e-08	-2.046029e+01	-1.394020e+03
6.400000e-07	-2.689111e-06	-2.074509e-08	-1.943691e+01	-1.365511e+03
6.500000e-07	-2.546501e-06	-2.027969e-08	-1.840612e+01	-1.335069e+03
6.600000e-07	-2.402965e-06	-1.978956e-08	-1.736864e+01	-1.302567e+03
6.700000e-07	-2.258576e-06	-1.926812e-08	-1.632500e+01	-1.267946e+03
6.800000e-07	-2.113390e-06	-1.871429e-08	-1.527559e+01	-1.231174e+03
6.900000e-07	-1.967427e-06	-1.812357e-08	-1.422057e+01	-1.192192e+03
7.000000e-07	-1.820807e-06	-1.749127e-08	-1.316080e+01	-1.150854e+03
7.100000e-07	-1.673688e-06	-1.681242e-08	-1.209742e+01	-1.106885e+03
7.200000e-07	-1.526067e-06	-1.608373e-08	-1.103042e+01	-1.059868e+03
7.300000e-07	-1.377958e-06	-1.530101e-08	-9.959883e+00	-1.009289e+03
7.400000e-07	-1.229402e-06	-1.445867e-08	-8.886122e+00	-9.546095e+02
7.500000e-07	-1.080404e-06	-1.355378e-08	-7.809167e+00	-8.953815e+02
7.600000e-07	-9.310978e-07	-1.258385e-08	-6.729979e+00	-8.313579e+02
7.700000e-07	-7.815470e-07	-1.154757e-08	-5.649025e+00	-7.625798e+02
7.800000e-07	-6.317496e-07	-1.044198e-08	-4.566289e+00	-6.894093e+02
7.900000e-07	-4.817444e-07	-9.273505e-09	-3.482051e+00	-6.124966e+02
8.000000e-07	-3.315797e-07	-8.054860e-09	-2.396659e+00	-5.326800e+02
8.100000e-07	-1.813046e-07	-6.799919e-09	-1.310470e+00	-4.508368e+02
8.200000e-07	-3.091860e-08	-5.521145e-09	-2.234798e-01	-3.677198e+02
8.300000e-07	1.195202e-07	-4.230665e-09	8.638925e-01	-2.838153e+02
8.400000e-07	2.699224e-07	-2.936161e-09	1.951001e+00	-1.992615e+02
8.500000e-07	4.202983e-07	-1.635122e-09	3.037918e+00	-1.138492e+02
8.600000e-07	5.706465e-07	-3.226964e-10	4.124635e+00	-2.711129e+01
8.700000e-07	7.208616e-07	1.011686e-09	5.210391e+00	6.151460e+01
8.800000e-07	8.708403e-07	2.379619e-09	6.294438e+00	1.524854e+02
8.900000e-07	1.020545e-06	3.793196e-09	7.376502e+00	2.459576e+02
9.000000e-07	1.169909e-06	5.251214e-09	8.456108e+00	3.416433e+02
9.100000e-07	1.318883e-06	6.740573e-09	9.532891e+00	4.387521e+02
9.200000e-07	1.467402e-06	8.240718e-09	1.060639e+01	5.360351e+02
9.300000e-07	1.615406e-06	9.716680e-09	1.167616e+01	6.319232e+02
9.400000e-07	1.762882e-06	1.113249e-08	1.274212e+01	7.247337e+02
9.500000e-07	1.909743e-06	1.246135e-08	1.380363e+01	8.129013e+02
9.600000e-07	2.055865e-06	1.369123e-08	1.485980e+01	8.951871e+02
9.700000e-07	2.201158e-06	1.481678e-08	1.590998e+01	9.708245e+02
9.800000e-07	2.345601e-06	1.584204e-08	1.695401e+01	1.039576e+03
9.900000e-07	2.489133e-06	1.677919e-08	1.799146e+01	1.101697e+03
1.000000e-06	2.631733e-06	1.763705e-08	1.902218e+01	1.157818e+03
1.010000e-06	2.773346e-06	1.842261e-08	2.004576e+01	1.208783e+03
1.020000e-06	2.913794e-06	1.914196e-08	2.106092e+01	1.255473e+03
1.030000e-06	3.053045e-06	1.980495e-08	2.206742e+01	1.298667e+03
1.040000e-06	3.191081e-06	2.041823e-08	2.306515e+01	1.338944e+03
1.050000e-06	3.327810e-06	2.098608e-08	2.405343e+01	1.376660e+03
1.060000e-06	3.463257e-06	2.151155e-08	2.503243e+01	1.411984e+03
1.070000e-06	3.597482e-06	2.199909e-08	2.600261e+01	1.444965e+03
1.080000e-06	3.730474e-06	2.245486e-08	2.696388e+01	1.475622e+03
1.090000e-06	3.862171e-06	2.288385e-08	2.791579e+01	1.504018e+03
1.100000e-06	3.992395e-06	2.328880e-08	2.885705e+01	1.530301e+03
1.110000e-06	4.121122e-06	2.366880e-08	2.978749e+01	1.554707e+03
1.120000e-06	4.248453e-06	2.402395e-08	3.070784e+01	1.577529e+03
1.130000e-06	4.374354e-06	2.435705e-08	3.161785e+01	1.599066e+03
1.140000e-06	4.498832e-06	2.467216e-08	3.251757e+01	1.619568e+03
1.150000e-06	4.621790e-06	2.496991e-08	3.340632e+01	1.639197e+03
1.160000e-06	4.743016e-06	2.525035e-08	3.428254e+01	1.658016e+03
1.170000e-06	4.862498e-06	2.551338e-08	3.514616e+01	1.675999e+03
1.180000e-06	4.980252e-06	2.576275e-08	3.599728e+01	1.693078e+03
1.190000e-06	5.096135e-06	2.600285e-08	3.683488e+01	1.709179e+03
1.200000e-06	5.209985e-06	2.623598e-08	3.765779e+01	1.724275e+03
1.210000e-06	5.321839e-06	2.645823e-08	3.846627e+01	1.738399e+03
1.220000e-06	5.431810e-06	2.666432e-08	3.926115e+01	1.751655e+03
1.230000e-06	5.539898e-06	2.685649e-08	4.004240e+01	1.764190e+03
1.240000e-06	5.645939e-06	2.703782e-08	4.080887e+01	1.776161e+03
1.250000e-06	5.749868e-06	2.721171e-08	4.156007e+01	1.787700e+03
1.260000e-06	5.851765e-06	2.737948e-08	4.229658e+01	1.798881e+03
1.270000e-06	5.951568e-06	2.754133e-08	4.301796e+01	1.809712e+03
1.280000e-06	6.049103e-06	2.769764e-08	4.372294e+01	1.820143e+03
1.290000e-06	6.144341e-06	2.784843e-08	4.441132e+01	1.830091e+03
1.300000e-06	6.237436e-06	2.799363e-08	4.508421e+01	1.839476e+03
1.310000e-06	6.328284e-06	2.812866e-08	4.574086e+01	1.848247e+03
1.320000e-06	6.416784e-06	2.825483e-08	4.638054e+01	1.856404e+03
1.330000e-06	6.503006e-06	2.837362e-08	4.700375e+01	1.864001e+03
1.340000e-06	6.586971e-06	2.848661e-08	4.761066e+01	1.871127e+03
1.350000e-06	6.668587e-06	2.859313e-08	4.820057e+01	1.877888e+03
1.360000e-06	6.747783e-06	2.869383e-08	4.877300e+01	1.884372e+03
1.370000e-06	6.824525e-06	2.879126e-08	4.932770e+01	1.890635e+03
1.380000e-06	6.898658e-06	2.888225e-08	4.986353e+01	1.896686e+03
1.390000e-06	6.970183e-06	2.896840e-08	5.038051e+01	1.902495e+03
1.400000e-06	7.039260e-06	2.904823e-08	5.087980e+01	1.908011e+03
1.410000e-06	7.105891e-06	2.912277e-08	5.136141e+01	1.913187e+03
1.420000e-06	7.169965e-06	2.919430e-08	5.182454e+01	1.917997e+03
1.430000e-06	7.231548e-06	2.926221e-08	5.226966e+01	1.922453e+03
1.440000e-06	7.290641e-06	2.932785e-08	5.269678e+01	1.926599e+03
1.450000e-06	7.347139e-06	2.939087e-08	5.310515e+01	1.930504e+03
1.460000e-06	7.400974e-06	2.945137e-08	5.349427e+01	1.934234e+03
1.470000e-06	7.451859e-06	2.950986e-08	5.386207e+01	1.937836e+03
1.480000e-06	7.499678e-06	2.956451e-08	5.420771e+01	1.941322e+03
1.490000e-06	7.544818e-06	2.961403e-08	5.453398e+01	1.944661e+03
1.500000e-06	7.587393e-06	2.965883e-08	5.484171e+01	1.947793e+03
1.510000e-06	7.627168e-06	2.969885e-08	5.512920e+01	1.950646e+03
1.520000e-06	7.664262e-06	2.973442e-08	5.539732e+01	1.953159e+03
1.530000e-06	7.698712e-06	2.976609e-08	5.564632e+01	1.955301e+03
1.540000e-06	7.730388e-06	2.979442e-08	5.587528e+01	1.957080e+03
1.550000e-06	7.759370e-06	2.982070e-08	5.608476e+01	1.958546e+03
1.560000e-06	7.785545e-06	2.984427e-08	5.627395e+01	1.959770e+03
1.570000e-06	7.808783e-06	2.986440e-08	5.644191e+01	1.960828e+03
1.580000e-06	7.829275e-06	2.988143e-08	5.659004e+01	1.961777e+03
1.590000e-06	7.847050e-06	2.989567e-08	5.671851e+01	1.962642e+03
1.600000e-06	7.861886e-06	2.990650e-08	5.682574e+01	1.963409e+03
1.610000e-06	7.873670e-06	2.991236e-08	5.691092e+01	1.964033e+03
1.620000e-06	7.882383e-06	2.991513e-08	5.697390e+01	1.964457e+03
1.630000e-06	7.888247e-06	2.991745e-08	5.701628e+01	1.964631e+03
1.640000e-06	7.891416e-06	2.991806e-08	5.703919e+01	1.964532e+03
1.650000e-06	7.891736e-06	2.991661e-08	5.704150e+01	1.964170e+03
1.660000e-06	7.889345e-06	2.990887e-08	5.702422e+01	1.963584e+03
1.670000e-06	7.884325e-06	2.989885e-08	5.698794e+01	1.962833e+03
1.680000e-06	7.876603e-06	2.989074e-08	5.693212e+01	1.961972e+03
1.690000e-06	7.866285e-06	2.987919e-08	5.685754e+01	1.961033e+03
1.700000e-06	7.853185e-06	2.986317e-08	5.676286e+01	1.960017e+03
1.710000e-06	7.837351e-06	2.984631e-08	5.664841e+01	1.958889e+03
1.720000e-06	7.819165e-06	2.982897e-08	5.651696e+01	1.957590e+03
1.730000e-06	7.798697e-06	2.979193e-08	5.636901e+01	1.956062e+03
1.740000e-06	7.775524e-06	2.970289e-08	5.620152e+01	1.954263e+03
1.750000e-06	7.748948e-06	2.968138e-08	5.600943e+01	1.952192e+03
1.760000e-06	7.718685e-06	2.969585e-08	5.579069e+01	1.949892e+03
1.770000e-06	7.685375e-06	2.966017e-08	5.554992e+01	1.947438e+03
1.780000e-06	7.649841e-06	2.962549e-08	5.529308e+01	1.944924e+03
1.790000e-06	7.612094e-06	2.963462e-08	5.502025e+01	1.942429e+03
1.800000e-06	7.572273e-06	2.957706e-08	5.473242e+01	1.939995e+03
1.810000e-06	7.530441e-06	2.948173e-08	5.443006e+01	1.937605e+03
1.820000e-06	7.485981e-06	2.955101e-08	5.410870e+01	1.935185e+03
1.830000e-06	7.438845e-06	2.949117e-08	5.376800e+01	1.932618e+03
1.840000e-06	7.388944e-06	2.945624e-08	5.340732e+01	1.929765e+03
1.850000e-06	7.335993e-06	2.944008e-08	5.302459e+01	1.926505e+03
1.860000e-06	7.280262e-06	2.931352e-08	5.262177e+01	1.922762e+03
1.870000e-06	7.221958e-06	2.929719e-08	5.220034e+01	1.918519e+03
1.880000e-06	7.161117e-06	2.917655e-08	5.176058e+01	1.913822e+03
1.890000e-06	7.097498e-06	2.911736e-08	5.130074e+01	1.908762e+03
1.900000e-06	7.031058e-06	2.908198e-08	5.082052e+01	1.903447e+03
1.910000e-06	6.961993e-06	2.897530e-08	5.032132e+01	1.897971e+03
1.920000e-06	6.890178e-06	2.891863e-08	4.980224e+01	1.892384e+03
1.930000e-06	6.815706e-06	2.880221e-08	4.926395e+01	1.886682e+03
1.940000e-06	6.738527e-06	2.873356e-08	4.870610e+01	1.880810e+03
1.950000e-06	6.658683e-06	2.861880e-08	4.812899e+01	1.874680e+03
1.960000e-06	6.576432e-06	2.851072e-08	4.753448e+01	1.868197e+03
1.970000e-06	6.491752e-06	2.842618e-08	4.692241e+01	1.861292e+03
1.980000e-06	6.404642e-06	2.829568e-08	4.629278e+01	1.853939e+03
1.990000e-06	6.315186e-06	2.820459e-08	4.564619e+01	1.846160e+03
2.000000e-06	6.223561e-06	2.806600e-08	4.498393e+01	1.838014e+03
2.010000e-06	6.129761e-06	2.794681e-08	4.430594e+01	1.829576e+03
2.020000e-06	6.033723e-06	2.781007e-08	4.361177e+01	1.820906e+03
2.030000e-06	5.935544e-06	2.767118e-08	4.290214e+01	1.812026e+03
2.040000e-06	5.835302e-06	2.753000e-08	4.217759e+01	1.802909e+03
2.050000e-06	5.732958e-06	2.738201e-08	4.143784e+01	1.793479e+03
2.060000e-06	5.628500e-06	2.723841e-08	4.068282e+01	1.783634e+03
2.070000e-06	5.522151e-06	2.706584e-08	3.991413e+01	1.773270e+03
2.080000e-06	5.413915e-06	2.690208e-08	3.913180e+01	1.762310e+03
2.090000e-06	5.303723e-06	2.672743e-08	3.833533e+01	1.750728e+03
2.100000e-06	5.191636e-06	2.655529e-08	3.752517e+01	1.738545e+03
2.110000e-06	5.077648e-06	2.636462e-08	3.670126e+01	1.725824e+03
2.120000e-06	4.961684e-06	2.616769e-08	3.586307e+01	1.712637e+03
2.130000e-06	4.843745e-06	2.595853e-08	3.501061e+01	1.699039e+03
2.140000e-06	4.723939e-06	2.573681e-08	3.414465e+01	1.685038e+03
2.150000e-06	4.602418e-06	2.550814e-08	3.326629e+01	1.670583e+03
2.160000e-06	4.479274e-06	2.527751e-08	3.237621e+01	1.655572e+03
2.170000e-06	4.354477e-06	2.504343e-08	3.147418e+01	1.639868e+03
2.180000e-06	4.228077e-06	2.479286e-08	3.056056e+01	1.623337e+03
2.190000e-06	4.100038e-06	2.453218e-08	2.963509e+01	1.605879e+03
2.200000e-06	3.970511e-06	2.425519e-08	2.869887e+01	1.587451e+03
2.210000e-06	3.839577e-06	2.396590e-08	2.775248e+01	1.568066e+03
2.220000e-06	3.707165e-06	2.366268e-08	2.679541e+01	1.547778e+03
2.230000e-06	3.573378e-06	2.334831e-08	2.582839e+01	1.526651e+03
2.240000e-06	3.438341e-06	2.301389e-08	2.485234e+01	1.504710e+03
2.250000e-06	3.301947e-06	2.266088e-08	2.386649e+01	1.481917e+03
2.260000e-06	3.164223e-06	2.229218e-08	2.287102e+01	1.458147e+03
2.270000e-06	3.025351e-06	2.190775e-08	2.186725e+01	1.433197e+03
2.280000e-06	2.885315e-06	2.150365e-08	2.085507e+01	1.406821e+03
2.290000e-06	2.744157e-06	2.107785e-08	1.983478e+01	1.378766e+03
2.300000e-06	2.601974e-06	2.062872e-08	1.880708e+01	1.348820e+03
2.310000e-06	2.458792e-06	2.014861e-08	1.777216e+01	1.316840e+03
2.320000e-06	2.314618e-06	1.963597e-08	1.673007e+01	1.282750e+03
2.330000e-06	2.169635e-06	1.908862e-08	1.568213e+01	1.246517e+03
2.340000e-06	2.024023e-06	1.850760e-08	1.462965e+01	1.208096e+03
2.350000e-06	1.877778e-06	1.788837e-08	1.357259e+01	1.167366e+03
2.360000e-06	1.730928e-06	1.722422e-08	1.251115e+01	1.124086e+03
2.370000e-06	1.583501e-06	1.651239e-08	1.144555e+01	1.077876e+03
2.380000e-06	1.435564e-06	1.574788e-08	1.037626e+01	1.028237e+03
2.390000e-06	1.287171e-06	1.492492e-08	9.303677e+00	9.746288e+02
2.400000e-06	1.138318e-06	1.403989e-08	8.227765e+00	9.165692e+02
2.410000e-06	9.890716e-07	1.308985e-08	7.149014e+00	8.537515e+02
2.420000e-06	8.395648e-07	1.207158e-08	6.068378e+00	7.861391e+02
2.430000e-06	6.898538e-07	1.098512e-08	4.986266e+00	7.140142e+02
2.440000e-06	5.399015e-07	9.833253e-09	3.902410e+00	6.379622e+02
2.450000e-06	3.897338e-07	8.623817e-09	2.816997e+00	5.587865e+02
2.460000e-06	2.394728e-07	7.371377e-09	1.730910e+00	4.773703e+02
2.470000e-06	8.912491e-08	6.091734e-09	6.441953e-01	3.945123e+02
2.480000e-06	-6.139234e-08	4.800500e-09	-4.437441e-01	3.107760e+02
2.490000e-06	-2.119298e-07	3.505436e-09	-1.531829e+00	2.263900e+02
2.500000e-06	-3.623632e-07	2.204992e-09	-2.619163e+00	1.412268e+02
2.510000e-06	-5.126989e-07	8.935305e-10	-3.705790e+00	5.487113e+01
2.520000e-06	-6.629035e-07	-4.413677e-10	-4.791469e+00	-3.323374e+01
2.530000e-06	-8.128843e-07	-1.809503e-09	-5.875531e+00	-1.235904e+02
2.540000e-06	-9.625731e-07	-3.218023e-09	-6.957482e+00	-2.164466e+02
2.550000e-06	-1.111967e-06	-4.669835e-09	-8.037301e+00	-3.116348e+02
2.560000e-06	-1.260995e-06	-6.157744e-09	-9.114479e+00	-4.084902e+02
2.570000e-06	-1.409560e-06	-7.662536e-09	-1.018831e+01	-5.058688e+02
2.580000e-06	-1.557588e-06	-9.155664e-09	-1.125825e+01	-6.022644e+02
2.590000e-06	-1.705038e-06	-1.060228e-08	-1.232402e+01	-6.960010e+02
2.600000e-06	-1.851877e-06	-1.197207e-08	-1.338538e+01	-7.854628e+02
2.610000e-06	-1.998065e-06	-1.324790e-08	-1.444203e+01	-8.693126e+02
2.620000e-06	-2.143504e-06	-1.442094e-08	-1.549326e+01	-9.466566e+02
2.630000e-06	-2.288153e-06	-1.549099e-08	-1.653878e+01	-1.017125e+03
2.640000e-06	-2.431968e-06	-1.646561e-08	-1.757827e+01	-1.080858e+03
2.650000e-06	-2.574762e-06	-1.735564e-08	-1.861039e+01	-1.138407e+03
2.660000e-06	-2.716452e-06	-1.816814e-08	-1.963452e+01	-1.190578e+03
2.670000e-06	-2.857024e-06	-1.891108e-08	-2.065058e+01	-1.238259e+03
2.680000e-06	-2.996442e-06	-1.959464e-08	-2.165829e+01	-1.282266e+03
2.690000e-06	-3.134703e-06	-2.022557e-08	-2.265765e+01	-1.323231e+03
2.700000e-06	-3.271799e-06	-2.081169e-08	-2.364858e+01	-1.361567e+03
2.710000e-06	-3.407643e-06	-2.135804e-08	-2.463046e+01	-1.397483e+03
2.720000e-06	-3.542216e-06	-2.186482e-08	-2.560315e+01	-1.431049e+03
2.730000e-06	-3.675482e-06	-2.233426e-08	-2.656640e+01	-1.462286e+03
2.740000e-06	-3.807392e-06	-2.277220e-08	-2.751984e+01	-1.491239e+03
2.750000e-06	-3.937959e-06	-2.318419e-08	-2.846359e+01	-1.518032e+03
2.760000e-06	-4.067225e-06	-2.357276e-08	-2.939792e+01	-1.542883e+03
2.770000e-06	-4.195165e-06	-2.393764e-08	-3.032267e+01	-1.566073e+03
2.780000e-06	-4.321601e-06	-2.427739e-08	-3.123655e+01	-1.587907e+03
2.790000e-06	-4.446476e-06	-2.459583e-08	-3.213915e+01	-1.608650e+03
2.800000e-06	-4.569846e-06	-2.489728e-08	-3.303086e+01	-1.628490e+03
2.810000e-06	-4.691608e-06	-2.518575e-08	-3.391096e+01	-1.647511e+03
2.820000e-06	-4.811614e-06	-2.546217e-08	-3.477836e+01	-1.665711e+03
2.830000e-06	-4.929727e-06	-2.572426e-08	-3.563209e+01	-1.683024e+03
2.840000e-06	-5.045872e-06	-2.597040e-08	-3.647159e+01	-1.699377e+03
2.850000e-06	-5.160017e-06	-2.620220e-08	-3.729663e+01	-1.714725e+03
2.860000e-06	-5.272048e-06	-2.642418e-08	-3.810639e+01	-1.729086e+03
2.870000e-06	-5.382077e-06	-2.663642e-08	-3.890167e+01	-1.742548e+03
2.880000e-06	-5.490265e-06	-2.683787e-08	-3.968366e+01	-1.755249e+03
2.890000e-06	-5.596585e-06	-2.702730e-08	-4.045214e+01	-1.767349e+03
2.900000e-06	-5.700901e-06	-2.720681e-08	-4.120613e+01	-1.778988e+03
2.910000e-06	-5.802982e-06	-2.737772e-08	-4.194398e+01	-1.790257e+03
2.920000e-06	-5.902860e-06	-2.754249e-08	-4.266590e+01	-1.801180e+03
2.930000e-06	-6.000731e-06	-2.770166e-08	-4.337331e+01	-1.811719e+03
2.940000e-06	-6.096508e-06	-2.785352e-08	-4.406559e+01	-1.821798e+03
