# Temperatura_=_33.4
# Concentracion g/m^3_=_26700.0
# C_Vs_to_Am_M_A/Vsm_=_65563218390.804596
# pendiente_HvsI_1/m_=_3716.3
# ordenada_HvsI_A/m_=_1297.0
# frecuencia_Hz_=_302525.308180864

Tiempo_(s)	Campo_(V.s)	Magnetizacion_(V.s)	Campo_(kA/m)	Magnetizacion_(A/m)
0.000000e+00	-7.907801e-06	-2.714350e-08	-5.684979e+01	-1.776864e+03
1.000000e-08	-7.903797e-06	-2.713999e-08	-5.682101e+01	-1.776593e+03
2.000000e-08	-7.897192e-06	-2.713310e-08	-5.677352e+01	-1.776170e+03
3.000000e-08	-7.887971e-06	-2.712422e-08	-5.670723e+01	-1.775583e+03
4.000000e-08	-7.875933e-06	-2.711073e-08	-5.662069e+01	-1.774822e+03
5.000000e-08	-7.860846e-06	-2.709341e-08	-5.651223e+01	-1.773880e+03
6.000000e-08	-7.843025e-06	-2.707597e-08	-5.638411e+01	-1.772757e+03
7.000000e-08	-7.822972e-06	-2.705489e-08	-5.623995e+01	-1.771466e+03
8.000000e-08	-7.800571e-06	-2.705010e-08	-5.607891e+01	-1.770030e+03
9.000000e-08	-7.775236e-06	-2.705734e-08	-5.589677e+01	-1.768483e+03
1.000000e-07	-7.746680e-06	-2.703284e-08	-5.569148e+01	-1.766862e+03
1.100000e-07	-7.715197e-06	-2.698492e-08	-5.546515e+01	-1.765205e+03
1.200000e-07	-7.680959e-06	-2.693637e-08	-5.521901e+01	-1.763538e+03
1.300000e-07	-7.644146e-06	-2.688437e-08	-5.495435e+01	-1.761867e+03
1.400000e-07	-7.605103e-06	-2.682549e-08	-5.467368e+01	-1.760177e+03
1.500000e-07	-7.563775e-06	-2.681495e-08	-5.437656e+01	-1.758429e+03
1.600000e-07	-7.519991e-06	-2.683460e-08	-5.406179e+01	-1.756567e+03
1.700000e-07	-7.473620e-06	-2.676041e-08	-5.372843e+01	-1.754526e+03
1.800000e-07	-7.424482e-06	-2.672714e-08	-5.337517e+01	-1.752246e+03
1.900000e-07	-7.372406e-06	-2.669745e-08	-5.300079e+01	-1.749682e+03
2.000000e-07	-7.317476e-06	-2.660742e-08	-5.260590e+01	-1.746817e+03
2.100000e-07	-7.259844e-06	-2.655523e-08	-5.219158e+01	-1.743658e+03
2.200000e-07	-7.199518e-06	-2.651069e-08	-5.175789e+01	-1.740243e+03
2.300000e-07	-7.136623e-06	-2.648182e-08	-5.130574e+01	-1.736622e+03
2.400000e-07	-7.071036e-06	-2.641637e-08	-5.083422e+01	-1.732852e+03
2.500000e-07	-7.002691e-06	-2.634562e-08	-5.034288e+01	-1.728977e+03
2.600000e-07	-6.931691e-06	-2.629688e-08	-4.983246e+01	-1.725025e+03
2.700000e-07	-6.857935e-06	-2.625169e-08	-4.930222e+01	-1.720993e+03
2.800000e-07	-6.781529e-06	-2.618870e-08	-4.875293e+01	-1.716858e+03
2.900000e-07	-6.702369e-06	-2.611102e-08	-4.818384e+01	-1.712577e+03
3.000000e-07	-6.620492e-06	-2.605179e-08	-4.759523e+01	-1.708103e+03
3.100000e-07	-6.536391e-06	-2.598190e-08	-4.699062e+01	-1.703398e+03
3.200000e-07	-6.450140e-06	-2.588652e-08	-4.637055e+01	-1.698441e+03
3.300000e-07	-6.361631e-06	-2.579610e-08	-4.573426e+01	-1.693234e+03
3.400000e-07	-6.270783e-06	-2.571945e-08	-4.508114e+01	-1.687800e+03
3.500000e-07	-6.177656e-06	-2.564697e-08	-4.441165e+01	-1.682177e+03
3.600000e-07	-6.082321e-06	-2.555851e-08	-4.372627e+01	-1.676406e+03
3.700000e-07	-5.984615e-06	-2.546238e-08	-4.302386e+01	-1.670515e+03
3.800000e-07	-5.884640e-06	-2.537269e-08	-4.230513e+01	-1.664515e+03
3.900000e-07	-5.782682e-06	-2.527948e-08	-4.157215e+01	-1.658393e+03
4.000000e-07	-5.678738e-06	-2.518060e-08	-4.082489e+01	-1.652116e+03
4.100000e-07	-5.572706e-06	-2.507960e-08	-4.006261e+01	-1.645638e+03
4.200000e-07	-5.464694e-06	-2.498423e-08	-3.928611e+01	-1.638911e+03
4.300000e-07	-5.354789e-06	-2.488138e-08	-3.849599e+01	-1.631901e+03
4.400000e-07	-5.243005e-06	-2.476793e-08	-3.769237e+01	-1.624589e+03
4.500000e-07	-5.129218e-06	-2.464981e-08	-3.687435e+01	-1.616980e+03
4.600000e-07	-5.013335e-06	-2.452850e-08	-3.604125e+01	-1.609096e+03
4.700000e-07	-4.895593e-06	-2.440319e-08	-3.519480e+01	-1.600971e+03
4.800000e-07	-4.776167e-06	-2.427256e-08	-3.433623e+01	-1.592633e+03
4.900000e-07	-4.655003e-06	-2.414090e-08	-3.346518e+01	-1.584102e+03
5.000000e-07	-4.531979e-06	-2.400462e-08	-3.258075e+01	-1.575376e+03
5.100000e-07	-4.407225e-06	-2.386584e-08	-3.168388e+01	-1.566433e+03
5.200000e-07	-4.280941e-06	-2.372733e-08	-3.077602e+01	-1.557237e+03
5.300000e-07	-4.153182e-06	-2.358734e-08	-2.985755e+01	-1.547741e+03
5.400000e-07	-4.023913e-06	-2.344109e-08	-2.892822e+01	-1.537905e+03
5.500000e-07	-3.893052e-06	-2.328504e-08	-2.798745e+01	-1.527702e+03
5.600000e-07	-3.760678e-06	-2.311939e-08	-2.703580e+01	-1.517119e+03
5.700000e-07	-3.626910e-06	-2.294473e-08	-2.607414e+01	-1.506165e+03
5.800000e-07	-3.491845e-06	-2.276525e-08	-2.510314e+01	-1.494856e+03
5.900000e-07	-3.355547e-06	-2.258366e-08	-2.412329e+01	-1.483212e+03
6.000000e-07	-3.217911e-06	-2.240330e-08	-2.313381e+01	-1.471247e+03
6.100000e-07	-3.078832e-06	-2.221749e-08	-2.213396e+01	-1.458959e+03
6.200000e-07	-2.938392e-06	-2.202209e-08	-2.112433e+01	-1.446327e+03
6.300000e-07	-2.796773e-06	-2.181897e-08	-2.010622e+01	-1.433319e+03
6.400000e-07	-2.654061e-06	-2.161303e-08	-1.908025e+01	-1.419893e+03
6.500000e-07	-2.510269e-06	-2.140390e-08	-1.804652e+01	-1.406009e+03
6.600000e-07	-2.365457e-06	-2.118553e-08	-1.700545e+01	-1.391635e+03
6.700000e-07	-2.219758e-06	-2.095852e-08	-1.595801e+01	-1.376756e+03
6.800000e-07	-2.073334e-06	-2.072263e-08	-1.490535e+01	-1.361366e+03
6.900000e-07	-1.926328e-06	-2.048045e-08	-1.384852e+01	-1.345472e+03
7.000000e-07	-1.778778e-06	-2.023032e-08	-1.278777e+01	-1.329078e+03
7.100000e-07	-1.630684e-06	-1.997172e-08	-1.172311e+01	-1.312176e+03
7.200000e-07	-1.482075e-06	-1.970665e-08	-1.065475e+01	-1.294744e+03
7.300000e-07	-1.332981e-06	-1.943343e-08	-9.582905e+00	-1.276741e+03
7.400000e-07	-1.183496e-06	-1.914886e-08	-8.508247e+00	-1.258108e+03
7.500000e-07	-1.033680e-06	-1.885199e-08	-7.431203e+00	-1.238778e+03
7.600000e-07	-8.835243e-07	-1.854402e-08	-6.351725e+00	-1.218688e+03
7.700000e-07	-7.330977e-07	-1.822342e-08	-5.270296e+00	-1.197782e+03
7.800000e-07	-5.824423e-07	-1.789057e-08	-4.187223e+00	-1.176017e+03
7.900000e-07	-4.315682e-07	-1.754501e-08	-3.102577e+00	-1.153362e+03
8.000000e-07	-2.805263e-07	-1.718794e-08	-2.016725e+00	-1.129788e+03
8.100000e-07	-1.294043e-07	-1.681664e-08	-9.302977e-01	-1.105258e+03
8.200000e-07	2.176970e-08	-1.642753e-08	1.565041e-01	-1.079710e+03
8.300000e-07	1.730025e-07	-1.602179e-08	1.243729e+00	-1.053052e+03
8.400000e-07	3.242174e-07	-1.559752e-08	2.330824e+00	-1.025156e+03
8.500000e-07	4.753360e-07	-1.515060e-08	3.417227e+00	-9.958622e+02
8.600000e-07	6.262773e-07	-1.467741e-08	4.502356e+00	-9.649883e+02
8.700000e-07	7.770665e-07	-1.417831e-08	5.586391e+00	-9.323396e+02
8.800000e-07	9.276853e-07	-1.365131e-08	6.669201e+00	-8.977167e+02
8.900000e-07	1.077996e-06	-1.309235e-08	7.749795e+00	-8.609164e+02
9.000000e-07	1.227954e-06	-1.249829e-08	8.827853e+00	-8.217217e+02
9.100000e-07	1.377538e-06	-1.186590e-08	9.903224e+00	-7.798837e+02
9.200000e-07	1.526706e-06	-1.118837e-08	1.097561e+01	-7.350987e+02
9.300000e-07	1.675379e-06	-1.045521e-08	1.204443e+01	-6.869882e+02
9.400000e-07	1.823396e-06	-9.658599e-09	1.310853e+01	-6.350901e+02
9.500000e-07	1.970747e-06	-8.795606e-09	1.416785e+01	-5.788701e+02
9.600000e-07	2.117466e-06	-7.860210e-09	1.522263e+01	-5.177567e+02
9.700000e-07	2.263398e-06	-6.842674e-09	1.627174e+01	-4.512009e+02
9.800000e-07	2.408379e-06	-5.738230e-09	1.731402e+01	-3.787551e+02
9.900000e-07	2.552422e-06	-4.540685e-09	1.834956e+01	-3.001587e+02
1.000000e-06	2.695532e-06	-3.248578e-09	1.937839e+01	-2.154192e+02
1.010000e-06	2.837571e-06	-1.866302e-09	2.039952e+01	-1.248699e+02
1.020000e-06	2.978470e-06	-4.057238e-10	2.141245e+01	-2.919630e+01
1.030000e-06	3.118157e-06	1.116226e-09	2.241667e+01	7.058055e+01
1.040000e-06	3.256601e-06	2.680143e-09	2.341196e+01	1.731607e+02
1.050000e-06	3.393722e-06	4.262942e-09	2.439773e+01	2.770574e+02
1.060000e-06	3.529494e-06	5.841652e-09	2.537380e+01	3.807115e+02
1.070000e-06	3.664014e-06	7.393061e-09	2.634088e+01	4.826106e+02
1.080000e-06	3.797238e-06	8.895141e-09	2.729864e+01	5.813982e+02
1.090000e-06	3.929043e-06	1.033167e-08	2.824619e+01	6.759572e+02
1.100000e-06	4.059449e-06	1.169022e-08	2.918369e+01	7.654580e+02
1.110000e-06	4.188396e-06	1.296346e-08	3.011070e+01	8.493713e+02
1.120000e-06	4.315826e-06	1.414809e-08	3.102681e+01	9.274461e+02
1.130000e-06	4.441848e-06	1.524279e-08	3.193279e+01	9.996635e+02
1.140000e-06	4.566335e-06	1.625206e-08	3.282773e+01	1.066177e+03
1.150000e-06	4.689267e-06	1.717963e-08	3.371150e+01	1.127254e+03
1.160000e-06	4.810619e-06	1.802990e-08	3.458391e+01	1.183217e+03
1.170000e-06	4.930250e-06	1.880690e-08	3.544395e+01	1.234412e+03
1.180000e-06	5.048056e-06	1.951263e-08	3.629086e+01	1.281180e+03
1.190000e-06	5.163902e-06	2.015557e-08	3.712369e+01	1.323852e+03
1.200000e-06	5.277723e-06	2.074325e-08	3.794196e+01	1.362744e+03
1.210000e-06	5.389533e-06	2.127944e-08	3.874577e+01	1.398164e+03
1.220000e-06	5.499415e-06	2.176872e-08	3.953572e+01	1.430417e+03
1.230000e-06	5.607351e-06	2.221296e-08	4.031168e+01	1.459801e+03
1.240000e-06	5.713267e-06	2.261781e-08	4.107312e+01	1.486608e+03
1.250000e-06	5.817087e-06	2.298907e-08	4.181949e+01	1.511111e+03
1.260000e-06	5.918779e-06	2.333151e-08	4.255056e+01	1.533563e+03
1.270000e-06	6.018352e-06	2.364768e-08	4.326640e+01	1.554183e+03
1.280000e-06	6.115654e-06	2.393838e-08	4.396591e+01	1.573161e+03
1.290000e-06	6.210615e-06	2.420283e-08	4.464859e+01	1.590656e+03
1.300000e-06	6.303340e-06	2.444475e-08	4.531520e+01	1.606798e+03
1.310000e-06	6.393877e-06	2.466894e-08	4.596608e+01	1.621700e+03
1.320000e-06	6.482168e-06	2.487569e-08	4.660081e+01	1.635463e+03
1.330000e-06	6.568137e-06	2.506787e-08	4.721884e+01	1.648177e+03
1.340000e-06	6.651795e-06	2.524604e-08	4.782027e+01	1.659931e+03
1.350000e-06	6.733048e-06	2.541163e-08	4.840440e+01	1.670806e+03
1.360000e-06	6.811805e-06	2.556646e-08	4.897059e+01	1.680874e+03
1.370000e-06	6.888071e-06	2.571287e-08	4.951887e+01	1.690200e+03
1.380000e-06	6.961706e-06	2.584886e-08	5.004824e+01	1.698837e+03
1.390000e-06	7.032759e-06	2.597131e-08	5.055905e+01	1.706830e+03
1.400000e-06	7.101411e-06	2.608244e-08	5.105259e+01	1.714215e+03
1.410000e-06	7.167521e-06	2.618614e-08	5.152786e+01	1.721026e+03
1.420000e-06	7.230993e-06	2.628218e-08	5.198416e+01	1.727297e+03
1.430000e-06	7.291994e-06	2.636931e-08	5.242270e+01	1.733067e+03
1.440000e-06	7.350521e-06	2.645222e-08	5.284346e+01	1.738376e+03
1.450000e-06	7.406413e-06	2.653044e-08	5.324528e+01	1.743270e+03
1.460000e-06	7.459516e-06	2.660057e-08	5.362703e+01	1.747791e+03
1.470000e-06	7.509633e-06	2.666156e-08	5.398733e+01	1.751977e+03
1.480000e-06	7.556835e-06	2.671882e-08	5.432667e+01	1.755857e+03
1.490000e-06	7.601308e-06	2.677452e-08	5.464639e+01	1.759450e+03
1.500000e-06	7.643053e-06	2.682722e-08	5.494650e+01	1.762763e+03
1.510000e-06	7.682077e-06	2.687694e-08	5.522704e+01	1.765794e+03
1.520000e-06	7.718449e-06	2.692082e-08	5.548853e+01	1.768539e+03
1.530000e-06	7.752065e-06	2.695822e-08	5.573019e+01	1.770990e+03
1.540000e-06	7.782880e-06	2.699025e-08	5.595173e+01	1.773148e+03
1.550000e-06	7.811008e-06	2.701734e-08	5.615394e+01	1.775015e+03
1.560000e-06	7.836280e-06	2.704074e-08	5.633562e+01	1.776604e+03
1.570000e-06	7.858653e-06	2.706062e-08	5.649646e+01	1.777930e+03
1.580000e-06	7.878327e-06	2.707639e-08	5.663790e+01	1.779017e+03
1.590000e-06	7.895191e-06	2.709043e-08	5.675914e+01	1.779887e+03
1.600000e-06	7.909045e-06	2.710341e-08	5.685874e+01	1.780562e+03
1.610000e-06	7.919775e-06	2.711490e-08	5.693587e+01	1.781061e+03
1.620000e-06	7.927445e-06	2.712334e-08	5.699101e+01	1.781401e+03
1.630000e-06	7.932345e-06	2.712729e-08	5.702624e+01	1.781593e+03
1.640000e-06	7.934468e-06	2.712900e-08	5.704150e+01	1.781644e+03
1.650000e-06	7.933798e-06	2.712559e-08	5.703669e+01	1.781556e+03
1.660000e-06	7.930507e-06	2.711663e-08	5.701303e+01	1.781326e+03
1.670000e-06	7.924546e-06	2.710841e-08	5.697017e+01	1.780947e+03
1.680000e-06	7.915914e-06	2.710169e-08	5.690811e+01	1.780408e+03
1.690000e-06	7.904601e-06	2.709531e-08	5.682679e+01	1.779697e+03
1.700000e-06	7.890515e-06	2.708935e-08	5.672552e+01	1.778807e+03
1.710000e-06	7.873819e-06	2.708297e-08	5.660549e+01	1.777735e+03
1.720000e-06	7.854802e-06	2.706988e-08	5.646877e+01	1.776490e+03
1.730000e-06	7.833354e-06	2.701210e-08	5.631458e+01	1.775091e+03
1.740000e-06	7.808884e-06	2.695522e-08	5.613867e+01	1.773571e+03
1.750000e-06	7.780837e-06	2.694123e-08	5.593704e+01	1.771967e+03
1.760000e-06	7.749362e-06	2.693651e-08	5.571076e+01	1.770317e+03
1.770000e-06	7.715205e-06	2.692924e-08	5.546520e+01	1.768651e+03
1.780000e-06	7.678744e-06	2.694854e-08	5.520308e+01	1.766981e+03
1.790000e-06	7.640013e-06	2.692235e-08	5.492465e+01	1.765299e+03
1.800000e-06	7.599265e-06	2.685004e-08	5.463170e+01	1.763572e+03
1.810000e-06	7.556326e-06	2.687247e-08	5.432301e+01	1.761749e+03
1.820000e-06	7.510741e-06	2.684393e-08	5.399529e+01	1.759765e+03
1.830000e-06	7.462514e-06	2.681331e-08	5.364859e+01	1.757558e+03
1.840000e-06	7.411389e-06	2.681912e-08	5.328105e+01	1.755078e+03
1.850000e-06	7.357209e-06	2.675893e-08	5.289154e+01	1.752299e+03
1.860000e-06	7.300260e-06	2.671937e-08	5.248213e+01	1.749222e+03
1.870000e-06	7.240784e-06	2.663722e-08	5.205455e+01	1.745874e+03
1.880000e-06	7.178698e-06	2.657400e-08	5.160821e+01	1.742306e+03
1.890000e-06	7.113722e-06	2.654856e-08	5.114110e+01	1.738573e+03
1.900000e-06	7.046039e-06	2.648119e-08	5.065452e+01	1.734724e+03
1.910000e-06	6.975605e-06	2.642764e-08	5.014816e+01	1.730792e+03
1.920000e-06	6.902384e-06	2.635956e-08	4.962177e+01	1.726784e+03
1.930000e-06	6.826519e-06	2.629820e-08	4.907637e+01	1.722682e+03
1.940000e-06	6.747907e-06	2.622219e-08	4.851122e+01	1.718447e+03
1.950000e-06	6.666770e-06	2.613563e-08	4.792792e+01	1.714033e+03
1.960000e-06	6.583295e-06	2.609420e-08	4.732782e+01	1.709396e+03
1.970000e-06	6.497372e-06	2.603148e-08	4.671011e+01	1.704512e+03
1.980000e-06	6.408991e-06	2.595175e-08	4.607473e+01	1.699374e+03
1.990000e-06	6.318406e-06	2.585790e-08	4.542351e+01	1.694001e+03
2.000000e-06	6.225659e-06	2.577340e-08	4.475674e+01	1.688427e+03
2.010000e-06	6.130530e-06	2.569368e-08	4.407286e+01	1.682694e+03
2.020000e-06	6.033175e-06	2.560432e-08	4.337296e+01	1.676835e+03
2.030000e-06	5.933818e-06	2.552340e-08	4.265867e+01	1.670866e+03
2.040000e-06	5.832357e-06	2.543661e-08	4.192926e+01	1.664781e+03
2.050000e-06	5.728699e-06	2.533807e-08	4.118406e+01	1.658553e+03
2.060000e-06	5.623055e-06	2.522244e-08	4.042458e+01	1.652136e+03
2.070000e-06	5.515603e-06	2.511451e-08	3.965210e+01	1.645485e+03
2.080000e-06	5.406250e-06	2.501136e-08	3.886595e+01	1.638558e+03
2.090000e-06	5.294882e-06	2.490565e-08	3.806532e+01	1.631332e+03
2.100000e-06	5.181479e-06	2.479455e-08	3.725005e+01	1.623806e+03
2.110000e-06	5.066176e-06	2.467992e-08	3.642113e+01	1.615997e+03
2.120000e-06	4.948925e-06	2.456165e-08	3.557820e+01	1.607937e+03
2.130000e-06	4.829666e-06	2.443444e-08	3.472084e+01	1.599657e+03
2.140000e-06	4.708555e-06	2.430630e-08	3.385017e+01	1.591180e+03
2.150000e-06	4.585759e-06	2.417711e-08	3.296738e+01	1.582511e+03
2.160000e-06	4.461384e-06	2.404616e-08	3.207323e+01	1.573633e+03
2.170000e-06	4.335391e-06	2.390537e-08	3.116746e+01	1.564513e+03
2.180000e-06	4.207697e-06	2.375663e-08	3.024946e+01	1.555107e+03
2.190000e-06	4.078448e-06	2.360354e-08	2.932027e+01	1.545371e+03
2.200000e-06	3.947794e-06	2.344914e-08	2.838100e+01	1.535274e+03
2.210000e-06	3.815730e-06	2.329301e-08	2.743157e+01	1.524800e+03
2.220000e-06	3.682214e-06	2.313614e-08	2.647172e+01	1.513950e+03
2.230000e-06	3.547176e-06	2.297438e-08	2.550092e+01	1.502739e+03
2.240000e-06	3.410781e-06	2.280160e-08	2.452037e+01	1.491189e+03
2.250000e-06	3.273207e-06	2.262104e-08	2.353134e+01	1.479315e+03
2.260000e-06	3.134495e-06	2.243537e-08	2.253412e+01	1.467120e+03
2.270000e-06	2.994574e-06	2.224578e-08	2.152822e+01	1.454589e+03
2.280000e-06	2.853371e-06	2.204806e-08	2.051311e+01	1.441692e+03
2.290000e-06	2.711007e-06	2.184385e-08	1.948964e+01	1.428390e+03
2.300000e-06	2.567625e-06	2.163330e-08	1.845885e+01	1.414640e+03
2.310000e-06	2.423295e-06	2.141414e-08	1.742126e+01	1.400408e+03
2.320000e-06	2.278127e-06	2.118757e-08	1.637763e+01	1.385673e+03
2.330000e-06	2.132174e-06	2.095810e-08	1.532836e+01	1.370429e+03
2.340000e-06	1.985477e-06	2.072482e-08	1.427375e+01	1.354678e+03
2.350000e-06	1.838229e-06	2.048096e-08	1.321517e+01	1.338426e+03
2.360000e-06	1.690503e-06	2.022423e-08	1.215315e+01	1.321670e+03
2.370000e-06	1.542249e-06	1.995569e-08	1.108734e+01	1.304393e+03
2.380000e-06	1.393451e-06	1.967806e-08	1.001762e+01	1.286558e+03
2.390000e-06	1.244140e-06	1.939390e-08	8.944217e+00	1.268111e+03
2.400000e-06	1.094367e-06	1.910501e-08	7.867488e+00	1.248987e+03
2.410000e-06	9.441583e-07	1.880818e-08	6.787627e+00	1.229120e+03
2.420000e-06	7.936607e-07	1.849742e-08	5.705688e+00	1.208451e+03
2.430000e-06	6.430121e-07	1.816957e-08	4.622664e+00	1.186934e+03
2.440000e-06	4.922216e-07	1.782370e-08	3.538619e+00	1.164536e+03
2.450000e-06	3.412686e-07	1.746276e-08	2.453406e+00	1.141228e+03
2.460000e-06	1.901068e-07	1.709096e-08	1.366692e+00	1.116975e+03
2.470000e-06	3.879025e-08	1.670751e-08	2.788661e-01	1.091726e+03
2.480000e-06	-1.125808e-07	1.630798e-08	-8.093519e-01	1.065396e+03
2.490000e-06	-2.639217e-07	1.588639e-08	-1.897353e+00	1.037868e+03
2.500000e-06	-4.151611e-07	1.544245e-08	-2.984625e+00	1.008991e+03
2.510000e-06	-5.662484e-07	1.497725e-08	-4.070803e+00	9.785880e+02
2.520000e-06	-7.171089e-07	1.448569e-08	-5.155351e+00	9.464662e+02
2.530000e-06	-8.678276e-07	1.396509e-08	-6.238879e+00	9.124274e+02
2.540000e-06	-1.018384e-06	1.341383e-08	-7.321241e+00	8.762701e+02
2.550000e-06	-1.168589e-06	1.282533e-08	-8.401075e+00	8.377827e+02
2.560000e-06	-1.318356e-06	1.219709e-08	-9.477761e+00	7.967277e+02
2.570000e-06	-1.467480e-06	1.152736e-08	-1.054982e+01	7.528193e+02
2.580000e-06	-1.615946e-06	1.080952e-08	-1.161716e+01	7.057021e+02
2.590000e-06	-1.763920e-06	1.003578e-08	-1.268095e+01	6.549375e+02
2.600000e-06	-1.911327e-06	9.196564e-09	-1.374068e+01	6.000096e+02
2.610000e-06	-2.058063e-06	8.285527e-09	-1.479557e+01	5.403522e+02
2.620000e-06	-2.204050e-06	7.295967e-09	-1.584509e+01	4.754027e+02
2.630000e-06	-2.349191e-06	6.218797e-09	-1.688852e+01	4.046757e+02
2.640000e-06	-2.493395e-06	5.048066e-09	-1.792521e+01	3.278486e+02
2.650000e-06	-2.636622e-06	3.784852e-09	-1.895488e+01	2.448448e+02
2.660000e-06	-2.778820e-06	2.433747e-09	-1.997715e+01	1.559006e+02
2.670000e-06	-2.919821e-06	9.991540e-10	-2.099082e+01	6.160045e+01
2.680000e-06	-3.059576e-06	-5.068765e-10	-2.199553e+01	-3.712638e+01
2.690000e-06	-3.198224e-06	-2.064116e-09	-2.299228e+01	-1.390515e+02
2.700000e-06	-3.335696e-06	-3.650842e-09	-2.398058e+01	-2.427307e+02
2.710000e-06	-3.471824e-06	-5.240796e-09	-2.495921e+01	-3.466131e+02
2.720000e-06	-3.606720e-06	-6.808873e-09	-2.592898e+01	-4.491610e+02
2.730000e-06	-3.740337e-06	-8.335330e-09	-2.688957e+01	-5.489638e+02
2.740000e-06	-3.872549e-06	-9.801755e-09	-2.784005e+01	-6.448291e+02
2.750000e-06	-4.003427e-06	-1.119563e-08	-2.878094e+01	-7.358425e+02
2.760000e-06	-4.132973e-06	-1.250676e-08	-2.971226e+01	-8.213897e+02
2.770000e-06	-4.261062e-06	-1.372817e-08	-3.063310e+01	-9.011441e+02
2.780000e-06	-4.387662e-06	-1.485981e-08	-3.154324e+01	-9.750262e+02
2.790000e-06	-4.512716e-06	-1.590292e-08	-3.244226e+01	-1.043147e+03
2.800000e-06	-4.636189e-06	-1.686295e-08	-3.332992e+01	-1.105745e+03
2.810000e-06	-4.758067e-06	-1.774515e-08	-3.420611e+01	-1.163135e+03
2.820000e-06	-4.878174e-06	-1.855341e-08	-3.506957e+01	-1.215657e+03
2.830000e-06	-4.996386e-06	-1.929379e-08	-3.591940e+01	-1.263657e+03
2.840000e-06	-5.112631e-06	-1.996949e-08	-3.675510e+01	-1.307467e+03
2.850000e-06	-5.226853e-06	-2.058441e-08	-3.757625e+01	-1.347407e+03
2.860000e-06	-5.338925e-06	-2.114346e-08	-3.838194e+01	-1.383788e+03
2.870000e-06	-5.448928e-06	-2.165065e-08	-3.917276e+01	-1.416916e+03
2.880000e-06	-5.557048e-06	-2.211262e-08	-3.995005e+01	-1.447090e+03
2.890000e-06	-5.663324e-06	-2.253380e-08	-4.071407e+01	-1.474605e+03
2.900000e-06	-5.767608e-06	-2.291993e-08	-4.146378e+01	-1.499740e+03
2.910000e-06	-5.869680e-06	-2.327457e-08	-4.219759e+01	-1.522754e+03
2.920000e-06	-5.969571e-06	-2.359935e-08	-4.291570e+01	-1.543877e+03
2.930000e-06	-6.067334e-06	-2.389850e-08	-4.361853e+01	-1.563308e+03
2.940000e-06	-6.162932e-06	-2.417391e-08	-4.430579e+01	-1.581212e+03
