# Temperatura_=_80.16
# Concentracion g/m^3_=_26700.0
# C_Vs_to_Am_M_A/Vsm_=_65563218390.804596
# pendiente_HvsI_1/m_=_3716.3
# ordenada_HvsI_A/m_=_1297.0
# frecuencia_Hz_=_302523.3090213512

Tiempo_(s)	Campo_(V.s)	Magnetizacion_(V.s)	Campo_(kA/m)	Magnetizacion_(A/m)
0.000000e+00	-7.939946e-06	-2.712317e-08	-5.685330e+01	-1.775935e+03
1.000000e-08	-7.936264e-06	-2.712537e-08	-5.682695e+01	-1.775529e+03
2.000000e-08	-7.930048e-06	-2.711749e-08	-5.678243e+01	-1.775029e+03
3.000000e-08	-7.921212e-06	-2.710628e-08	-5.671916e+01	-1.774444e+03
4.000000e-08	-7.909540e-06	-2.709281e-08	-5.663559e+01	-1.773769e+03
5.000000e-08	-7.894888e-06	-2.707574e-08	-5.653067e+01	-1.772983e+03
6.000000e-08	-7.877468e-06	-2.705688e-08	-5.640594e+01	-1.772059e+03
7.000000e-08	-7.857761e-06	-2.703337e-08	-5.626483e+01	-1.770980e+03
8.000000e-08	-7.835725e-06	-2.701515e-08	-5.610704e+01	-1.769739e+03
9.000000e-08	-7.810785e-06	-2.707377e-08	-5.592846e+01	-1.768352e+03
1.000000e-07	-7.782613e-06	-2.706361e-08	-5.572673e+01	-1.766855e+03
1.100000e-07	-7.751466e-06	-2.697583e-08	-5.550371e+01	-1.765291e+03
1.200000e-07	-7.717505e-06	-2.693219e-08	-5.526053e+01	-1.763703e+03
1.300000e-07	-7.680915e-06	-2.690100e-08	-5.499854e+01	-1.762115e+03
1.400000e-07	-7.642036e-06	-2.684005e-08	-5.472015e+01	-1.760527e+03
1.500000e-07	-7.600934e-06	-2.677684e-08	-5.442584e+01	-1.758903e+03
1.600000e-07	-7.557425e-06	-2.686406e-08	-5.411430e+01	-1.757186e+03
1.700000e-07	-7.511301e-06	-2.683404e-08	-5.378403e+01	-1.755305e+03
1.800000e-07	-7.462414e-06	-2.669263e-08	-5.343398e+01	-1.753191e+03
1.900000e-07	-7.410568e-06	-2.673535e-08	-5.306274e+01	-1.750801e+03
2.000000e-07	-7.355843e-06	-2.664527e-08	-5.267089e+01	-1.748120e+03
2.100000e-07	-7.298410e-06	-2.655750e-08	-5.225964e+01	-1.745173e+03
2.200000e-07	-7.238283e-06	-2.656194e-08	-5.182911e+01	-1.742013e+03
2.300000e-07	-7.175600e-06	-2.651116e-08	-5.138027e+01	-1.738708e+03
2.400000e-07	-7.110254e-06	-2.649906e-08	-5.091237e+01	-1.735322e+03
2.500000e-07	-7.042199e-06	-2.641128e-08	-5.042507e+01	-1.731896e+03
2.600000e-07	-6.971426e-06	-2.636114e-08	-4.991830e+01	-1.728438e+03
2.700000e-07	-6.897804e-06	-2.630424e-08	-4.939114e+01	-1.724920e+03
2.800000e-07	-6.821462e-06	-2.625918e-08	-4.884450e+01	-1.721289e+03
2.900000e-07	-6.742356e-06	-2.620749e-08	-4.827807e+01	-1.717479e+03
3.000000e-07	-6.660568e-06	-2.613015e-08	-4.769243e+01	-1.713433e+03
3.100000e-07	-6.576471e-06	-2.609268e-08	-4.709026e+01	-1.709117e+03
3.200000e-07	-6.490174e-06	-2.599362e-08	-4.647234e+01	-1.704534e+03
3.300000e-07	-6.401562e-06	-2.591015e-08	-4.583784e+01	-1.699714e+03
3.400000e-07	-6.310524e-06	-2.582962e-08	-4.518597e+01	-1.694714e+03
3.500000e-07	-6.217220e-06	-2.576383e-08	-4.451787e+01	-1.689592e+03
3.600000e-07	-6.121765e-06	-2.569745e-08	-4.383438e+01	-1.684395e+03
3.700000e-07	-6.023987e-06	-2.560588e-08	-4.313425e+01	-1.679143e+03
3.800000e-07	-5.923989e-06	-2.552184e-08	-4.241822e+01	-1.673819e+03
3.900000e-07	-5.821952e-06	-2.543664e-08	-4.168759e+01	-1.668378e+03
4.000000e-07	-5.717838e-06	-2.535760e-08	-4.094209e+01	-1.662759e+03
4.100000e-07	-5.611711e-06	-2.525902e-08	-4.018218e+01	-1.656899e+03
4.200000e-07	-5.503654e-06	-2.517053e-08	-3.940844e+01	-1.650753e+03
4.300000e-07	-5.393684e-06	-2.507735e-08	-3.862101e+01	-1.644304e+03
4.400000e-07	-5.281682e-06	-2.497332e-08	-3.781904e+01	-1.637567e+03
4.500000e-07	-5.167605e-06	-2.486104e-08	-3.700219e+01	-1.630581e+03
4.600000e-07	-5.051519e-06	-2.475228e-08	-3.617097e+01	-1.623395e+03
4.700000e-07	-4.933580e-06	-2.464258e-08	-3.532648e+01	-1.616051e+03
4.800000e-07	-4.813836e-06	-2.452555e-08	-3.446906e+01	-1.608568e+03
4.900000e-07	-4.692378e-06	-2.440863e-08	-3.359937e+01	-1.600936e+03
5.000000e-07	-4.569211e-06	-2.428520e-08	-3.271745e+01	-1.593117e+03
5.100000e-07	-4.444330e-06	-2.415934e-08	-3.182324e+01	-1.585053e+03
5.200000e-07	-4.317882e-06	-2.402699e-08	-3.091782e+01	-1.576685e+03
5.300000e-07	-4.189785e-06	-2.389602e-08	-3.000060e+01	-1.567967e+03
5.400000e-07	-4.060188e-06	-2.375910e-08	-2.907263e+01	-1.558878e+03
5.500000e-07	-3.929105e-06	-2.361925e-08	-2.813402e+01	-1.549425e+03
5.600000e-07	-3.796457e-06	-2.346930e-08	-2.718421e+01	-1.539639e+03
5.700000e-07	-3.662386e-06	-2.331116e-08	-2.622420e+01	-1.529558e+03
5.800000e-07	-3.526915e-06	-2.314717e-08	-2.525417e+01	-1.519211e+03
5.900000e-07	-3.390039e-06	-2.298142e-08	-2.427408e+01	-1.508608e+03
6.000000e-07	-3.251933e-06	-2.281628e-08	-2.328519e+01	-1.497728e+03
6.100000e-07	-3.112545e-06	-2.264356e-08	-2.228711e+01	-1.486523e+03
6.200000e-07	-2.971692e-06	-2.246346e-08	-2.127854e+01	-1.474927e+03
6.300000e-07	-2.829579e-06	-2.227374e-08	-2.026096e+01	-1.462877e+03
6.400000e-07	-2.686367e-06	-2.208153e-08	-1.923550e+01	-1.450326e+03
6.500000e-07	-2.542169e-06	-2.188486e-08	-1.820299e+01	-1.437255e+03
6.600000e-07	-2.397114e-06	-2.168213e-08	-1.716433e+01	-1.423676e+03
6.700000e-07	-2.251175e-06	-2.147076e-08	-1.611935e+01	-1.409623e+03
6.800000e-07	-2.104465e-06	-2.125124e-08	-1.506884e+01	-1.395136e+03
6.900000e-07	-1.957116e-06	-2.102390e-08	-1.401376e+01	-1.380237e+03
7.000000e-07	-1.809124e-06	-2.078715e-08	-1.295408e+01	-1.364922e+03
7.100000e-07	-1.660552e-06	-2.054030e-08	-1.189024e+01	-1.349142e+03
7.200000e-07	-1.511536e-06	-2.028512e-08	-1.082323e+01	-1.332816e+03
7.300000e-07	-1.362086e-06	-2.002669e-08	-9.753104e+00	-1.315840e+03
7.400000e-07	-1.212151e-06	-1.975703e-08	-8.679505e+00	-1.298111e+03
7.500000e-07	-1.061778e-06	-1.947581e-08	-7.602770e+00	-1.279543e+03
7.600000e-07	-9.110239e-07	-1.918034e-08	-6.523309e+00	-1.260089e+03
7.700000e-07	-7.599436e-07	-1.886885e-08	-5.441511e+00	-1.239733e+03
7.800000e-07	-6.086322e-07	-1.854342e-08	-4.358059e+00	-1.218485e+03
7.900000e-07	-4.570998e-07	-1.820486e-08	-3.273024e+00	-1.196350e+03
8.000000e-07	-3.053156e-07	-1.785493e-08	-2.186186e+00	-1.173307e+03
8.100000e-07	-1.533632e-07	-1.748958e-08	-1.098144e+00	-1.149276e+03
8.200000e-07	-1.370660e-09	-1.710369e-08	-9.814496e-03	-1.124115e+03
8.300000e-07	1.506534e-07	-1.669626e-08	1.078740e+00	-1.097618e+03
8.400000e-07	3.026313e-07	-1.626694e-08	2.166965e+00	-1.069534e+03
8.500000e-07	4.545229e-07	-1.580973e-08	3.254573e+00	-1.039601e+03
8.600000e-07	6.062752e-07	-1.532154e-08	4.341182e+00	-1.007565e+03
8.700000e-07	7.578027e-07	-1.480027e-08	5.426182e+00	-9.732001e+02
8.800000e-07	9.091399e-07	-1.424333e-08	6.509819e+00	-9.362934e+02
8.900000e-07	1.060221e-06	-1.364289e-08	7.591620e+00	-8.966159e+02
9.000000e-07	1.210933e-06	-1.299210e-08	8.670783e+00	-8.538671e+02
9.100000e-07	1.361246e-06	-1.228571e-08	9.747089e+00	-8.076155e+02
9.200000e-07	1.511055e-06	-1.151258e-08	1.081978e+01	-7.572506e+02
9.300000e-07	1.660268e-06	-1.066295e-08	1.188821e+01	-7.019668e+02
9.400000e-07	1.808920e-06	-9.723149e-09	1.295262e+01	-6.407950e+02
9.500000e-07	1.956990e-06	-8.679698e-09	1.401286e+01	-5.726885e+02
9.600000e-07	2.104288e-06	-7.518865e-09	1.506758e+01	-4.966576e+02
9.700000e-07	2.250751e-06	-6.226722e-09	1.611631e+01	-4.119363e+02
9.800000e-07	2.396428e-06	-4.796957e-09	1.715942e+01	-3.181532e+02
9.900000e-07	2.541163e-06	-3.233526e-09	1.819578e+01	-2.154746e+02
1.000000e-06	2.684948e-06	-1.545854e-09	1.922534e+01	-1.046899e+02
1.010000e-06	2.827789e-06	2.500282e-10	2.024814e+01	1.278142e+01
1.020000e-06	2.969484e-06	2.119503e-09	2.126273e+01	1.349692e+02
1.030000e-06	3.109953e-06	4.026020e-09	2.226855e+01	2.595101e+02
1.040000e-06	3.249150e-06	5.923550e-09	2.326526e+01	3.838597e+02
1.050000e-06	3.387035e-06	7.773456e-09	2.425257e+01	5.055270e+02
1.060000e-06	3.523602e-06	9.542795e-09	2.523045e+01	6.222941e+02
1.070000e-06	3.658848e-06	1.120735e-08	2.619887e+01	7.323879e+02
1.080000e-06	3.792720e-06	1.275146e-08	2.715745e+01	8.345814e+02
1.090000e-06	3.925234e-06	1.416898e-08	2.810630e+01	9.282163e+02
1.100000e-06	4.056354e-06	1.545969e-08	2.904517e+01	1.013152e+03
1.110000e-06	4.185999e-06	1.662349e-08	2.997349e+01	1.089658e+03
1.120000e-06	4.314227e-06	1.766832e-08	3.089165e+01	1.158285e+03
1.130000e-06	4.441002e-06	1.860361e-08	3.179941e+01	1.219721e+03
1.140000e-06	4.566305e-06	1.944076e-08	3.269664e+01	1.274687e+03
1.150000e-06	4.690073e-06	2.018467e-08	3.358287e+01	1.323853e+03
1.160000e-06	4.812081e-06	2.084326e-08	3.445650e+01	1.367809e+03
1.170000e-06	4.932355e-06	2.142860e-08	3.531771e+01	1.407060e+03
1.180000e-06	5.050865e-06	2.195280e-08	3.616629e+01	1.442049e+03
1.190000e-06	5.167437e-06	2.242186e-08	3.700099e+01	1.473191e+03
1.200000e-06	5.282025e-06	2.284195e-08	3.782149e+01	1.500892e+03
1.210000e-06	5.394632e-06	2.321917e-08	3.862780e+01	1.525565e+03
1.220000e-06	5.505299e-06	2.355867e-08	3.942022e+01	1.547621e+03
1.230000e-06	5.614041e-06	2.386283e-08	4.019886e+01	1.567455e+03
1.240000e-06	5.720753e-06	2.413425e-08	4.096296e+01	1.585418e+03
1.250000e-06	5.825322e-06	2.437931e-08	4.171172e+01	1.601801e+03
1.260000e-06	5.927760e-06	2.460454e-08	4.244522e+01	1.616820e+03
1.270000e-06	6.028076e-06	2.481216e-08	4.316352e+01	1.630626e+03
1.280000e-06	6.126165e-06	2.500347e-08	4.386588e+01	1.643313e+03
1.290000e-06	6.221855e-06	2.517847e-08	4.455106e+01	1.654944e+03
1.300000e-06	6.315293e-06	2.533900e-08	4.522012e+01	1.665574e+03
1.310000e-06	6.406482e-06	2.548659e-08	4.587307e+01	1.675270e+03
1.320000e-06	6.495325e-06	2.562373e-08	4.650922e+01	1.684113e+03
1.330000e-06	6.581845e-06	2.575128e-08	4.712874e+01	1.692205e+03
1.340000e-06	6.666100e-06	2.586914e-08	4.773204e+01	1.699652e+03
1.350000e-06	6.748039e-06	2.597685e-08	4.831876e+01	1.706554e+03
1.360000e-06	6.827476e-06	2.607462e-08	4.888756e+01	1.712992e+03
1.370000e-06	6.904417e-06	2.616555e-08	4.943849e+01	1.719021e+03
1.380000e-06	6.978748e-06	2.625144e-08	4.997073e+01	1.724669e+03
1.390000e-06	7.050423e-06	2.633209e-08	5.048395e+01	1.729949e+03
1.400000e-06	7.119637e-06	2.640619e-08	5.097955e+01	1.734864e+03
1.410000e-06	7.186328e-06	2.647375e-08	5.145709e+01	1.739420e+03
1.420000e-06	7.250411e-06	2.653753e-08	5.191595e+01	1.743637e+03
1.430000e-06	7.312014e-06	2.659853e-08	5.235705e+01	1.747545e+03
1.440000e-06	7.371124e-06	2.665527e-08	5.278031e+01	1.751182e+03
1.450000e-06	7.427631e-06	2.670878e-08	5.318492e+01	1.754585e+03
1.460000e-06	7.481395e-06	2.675947e-08	5.356989e+01	1.757780e+03
1.470000e-06	7.532128e-06	2.680652e-08	5.393316e+01	1.760778e+03
1.480000e-06	7.579863e-06	2.684923e-08	5.427496e+01	1.763571e+03
1.490000e-06	7.624938e-06	2.688691e-08	5.459772e+01	1.766140e+03
1.500000e-06	7.667371e-06	2.692093e-08	5.490156e+01	1.768460e+03
1.510000e-06	7.706981e-06	2.695100e-08	5.518518e+01	1.770514e+03
1.520000e-06	7.743849e-06	2.697778e-08	5.544917e+01	1.772299e+03
1.530000e-06	7.778047e-06	2.700245e-08	5.569404e+01	1.773832e+03
1.540000e-06	7.809439e-06	2.702488e-08	5.591882e+01	1.775147e+03
1.550000e-06	7.838093e-06	2.704437e-08	5.612400e+01	1.776287e+03
1.560000e-06	7.863941e-06	2.706064e-08	5.630908e+01	1.777292e+03
1.570000e-06	7.886871e-06	2.707509e-08	5.647326e+01	1.778193e+03
1.580000e-06	7.907073e-06	2.708710e-08	5.661792e+01	1.779000e+03
1.590000e-06	7.924473e-06	2.709740e-08	5.674252e+01	1.779706e+03
1.600000e-06	7.938853e-06	2.710715e-08	5.684548e+01	1.780289e+03
1.610000e-06	7.950111e-06	2.711415e-08	5.692609e+01	1.780721e+03
1.620000e-06	7.958289e-06	2.711972e-08	5.698465e+01	1.780980e+03
1.630000e-06	7.963643e-06	2.712357e-08	5.702298e+01	1.781056e+03
1.640000e-06	7.966229e-06	2.712590e-08	5.704150e+01	1.780957e+03
1.650000e-06	7.965971e-06	2.712842e-08	5.703965e+01	1.780705e+03
1.660000e-06	7.963070e-06	2.711498e-08	5.701888e+01	1.780329e+03
1.670000e-06	7.957550e-06	2.710419e-08	5.697936e+01	1.779853e+03
1.680000e-06	7.949256e-06	2.709835e-08	5.691997e+01	1.779292e+03
1.690000e-06	7.938317e-06	2.709293e-08	5.684164e+01	1.778643e+03
1.700000e-06	7.924631e-06	2.708796e-08	5.674365e+01	1.777890e+03
1.710000e-06	7.908271e-06	2.708470e-08	5.662650e+01	1.777008e+03
1.720000e-06	7.889568e-06	2.708718e-08	5.649258e+01	1.775973e+03
1.730000e-06	7.868473e-06	2.703632e-08	5.634153e+01	1.774777e+03
1.740000e-06	7.844463e-06	2.691651e-08	5.616961e+01	1.773428e+03
1.750000e-06	7.816929e-06	2.693295e-08	5.597245e+01	1.771957e+03
1.760000e-06	7.785814e-06	2.696448e-08	5.574966e+01	1.770407e+03
1.770000e-06	7.751786e-06	2.693178e-08	5.550600e+01	1.768822e+03
1.780000e-06	7.715500e-06	2.694248e-08	5.524618e+01	1.767232e+03
1.790000e-06	7.676980e-06	2.700609e-08	5.497036e+01	1.765645e+03
1.800000e-06	7.636457e-06	2.686108e-08	5.468020e+01	1.764035e+03
1.810000e-06	7.593764e-06	2.680509e-08	5.437450e+01	1.762351e+03
1.820000e-06	7.548315e-06	2.692627e-08	5.404907e+01	1.760524e+03
1.830000e-06	7.500216e-06	2.677669e-08	5.370466e+01	1.758481e+03
1.840000e-06	7.449338e-06	2.684675e-08	5.334035e+01	1.756172e+03
1.850000e-06	7.395428e-06	2.679693e-08	5.295433e+01	1.753572e+03
1.860000e-06	7.338721e-06	2.669613e-08	5.254829e+01	1.750696e+03
1.870000e-06	7.279425e-06	2.670717e-08	5.212370e+01	1.747589e+03
1.880000e-06	7.217495e-06	2.653227e-08	5.168026e+01	1.744318e+03
1.890000e-06	7.152719e-06	2.657585e-08	5.121643e+01	1.740949e+03
1.900000e-06	7.085204e-06	2.652177e-08	5.073300e+01	1.737531e+03
1.910000e-06	7.014970e-06	2.647190e-08	5.023009e+01	1.734083e+03
1.920000e-06	6.941941e-06	2.644510e-08	4.970718e+01	1.730586e+03
1.930000e-06	6.866251e-06	2.632324e-08	4.916520e+01	1.726992e+03
1.940000e-06	6.787796e-06	2.631098e-08	4.860344e+01	1.723239e+03
1.950000e-06	6.706732e-06	2.617452e-08	4.802298e+01	1.719264e+03
1.960000e-06	6.623258e-06	2.615407e-08	4.742527e+01	1.715027e+03
1.970000e-06	6.537369e-06	2.611431e-08	4.681027e+01	1.710517e+03
1.980000e-06	6.449038e-06	2.603944e-08	4.617779e+01	1.705759e+03
1.990000e-06	6.358392e-06	2.597835e-08	4.552873e+01	1.700803e+03
2.000000e-06	6.265634e-06	2.585888e-08	4.486454e+01	1.695710e+03
2.010000e-06	6.170536e-06	2.581205e-08	4.418360e+01	1.690530e+03
2.020000e-06	6.073173e-06	2.571626e-08	4.348644e+01	1.685293e+03
2.030000e-06	5.973732e-06	2.565578e-08	4.277440e+01	1.679992e+03
2.040000e-06	5.872165e-06	2.556569e-08	4.204714e+01	1.674590e+03
2.050000e-06	5.768410e-06	2.548502e-08	4.130421e+01	1.669028e+03
2.060000e-06	5.662615e-06	2.538431e-08	4.054667e+01	1.663241e+03
2.070000e-06	5.554948e-06	2.527561e-08	3.977573e+01	1.657179e+03
2.080000e-06	5.445392e-06	2.519140e-08	3.899126e+01	1.650815e+03
2.090000e-06	5.333812e-06	2.509401e-08	3.819230e+01	1.644156e+03
2.100000e-06	5.220213e-06	2.500336e-08	3.737889e+01	1.637236e+03
2.110000e-06	5.104714e-06	2.488860e-08	3.655187e+01	1.630101e+03
2.120000e-06	4.987197e-06	2.478548e-08	3.571040e+01	1.622799e+03
2.130000e-06	4.867719e-06	2.466165e-08	3.485488e+01	1.615354e+03
2.140000e-06	4.746392e-06	2.454804e-08	3.398614e+01	1.607767e+03
2.150000e-06	4.623388e-06	2.442821e-08	3.310537e+01	1.600006e+03
2.160000e-06	4.498742e-06	2.431408e-08	3.221286e+01	1.592017e+03
2.170000e-06	4.372452e-06	2.419002e-08	3.130857e+01	1.583741e+03
2.180000e-06	4.244532e-06	2.405569e-08	3.039261e+01	1.575125e+03
2.190000e-06	4.115046e-06	2.391440e-08	2.946544e+01	1.566142e+03
2.200000e-06	3.984088e-06	2.377025e-08	2.852772e+01	1.556790e+03
2.210000e-06	3.851585e-06	2.363058e-08	2.757894e+01	1.547095e+03
2.220000e-06	3.717679e-06	2.348685e-08	2.662013e+01	1.537093e+03
2.230000e-06	3.582405e-06	2.334199e-08	2.565151e+01	1.526819e+03
2.240000e-06	3.445713e-06	2.318036e-08	2.467273e+01	1.516290e+03
2.250000e-06	3.307724e-06	2.301265e-08	2.368468e+01	1.505492e+03
2.260000e-06	3.168512e-06	2.283701e-08	2.268786e+01	1.494384e+03
2.270000e-06	3.028049e-06	2.266311e-08	2.168209e+01	1.482906e+03
2.280000e-06	2.886380e-06	2.248394e-08	2.066768e+01	1.470991e+03
2.290000e-06	2.743661e-06	2.229957e-08	1.964575e+01	1.458585e+03
2.300000e-06	2.599921e-06	2.210324e-08	1.861651e+01	1.445662e+03
2.310000e-06	2.455190e-06	2.189593e-08	1.758018e+01	1.432225e+03
2.320000e-06	2.309643e-06	2.168199e-08	1.653800e+01	1.418303e+03
2.330000e-06	2.163335e-06	2.146459e-08	1.549037e+01	1.403935e+03
2.340000e-06	2.016250e-06	2.124547e-08	1.443718e+01	1.389152e+03
2.350000e-06	1.868483e-06	2.101864e-08	1.337911e+01	1.373958e+03
2.360000e-06	1.720072e-06	2.078037e-08	1.231643e+01	1.358317e+03
2.370000e-06	1.571119e-06	2.052837e-08	1.124986e+01	1.342156e+03
2.380000e-06	1.421704e-06	2.026432e-08	1.017999e+01	1.325377e+03
2.390000e-06	1.271794e-06	1.999250e-08	9.106575e+00	1.307871e+03
2.400000e-06	1.121492e-06	1.971582e-08	8.030350e+00	1.289549e+03
2.410000e-06	9.709125e-07	1.943059e-08	6.952136e+00	1.270350e+03
2.420000e-06	8.200184e-07	1.913235e-08	5.871672e+00	1.250250e+03
2.430000e-06	6.688309e-07	1.881714e-08	4.789106e+00	1.229255e+03
2.440000e-06	5.174300e-07	1.848389e-08	3.705014e+00	1.207373e+03
2.450000e-06	3.658373e-07	1.813232e-08	2.619547e+00	1.184594e+03
2.460000e-06	2.140309e-07	1.776550e-08	1.532550e+00	1.160856e+03
2.470000e-06	6.203941e-08	1.738355e-08	4.442279e-01	1.136036e+03
2.480000e-06	-9.001057e-08	1.698424e-08	-6.445130e-01	1.109944e+03
2.490000e-06	-2.419983e-07	1.656118e-08	-1.732808e+00	1.082340e+03
2.500000e-06	-3.938944e-07	1.610888e-08	-2.820448e+00	1.052961e+03
2.510000e-06	-5.456450e-07	1.562906e-08	-3.907045e+00	1.021549e+03
2.520000e-06	-6.971577e-07	1.511778e-08	-4.991939e+00	9.878706e+02
2.530000e-06	-8.484457e-07	1.457056e-08	-6.075223e+00	9.517109e+02
2.540000e-06	-9.994888e-07	1.398254e-08	-7.156754e+00	9.128506e+02
2.550000e-06	-1.150215e-06	1.334741e-08	-8.236013e+00	8.710157e+02
2.560000e-06	-1.300512e-06	1.265853e-08	-9.312206e+00	8.258179e+02
2.570000e-06	-1.450307e-06	1.190445e-08	-1.038480e+01	7.767012e+02
2.580000e-06	-1.599635e-06	1.107614e-08	-1.145405e+01	7.229148e+02
2.590000e-06	-1.748467e-06	1.016731e-08	-1.251975e+01	6.635301e+02
2.600000e-06	-1.896625e-06	9.162801e-09	-1.358062e+01	5.975105e+02
2.610000e-06	-2.044020e-06	8.044903e-09	-1.463603e+01	5.238341e+02
2.620000e-06	-2.190650e-06	6.800174e-09	-1.568596e+01	4.416531e+02
2.630000e-06	-2.336420e-06	5.418491e-09	-1.672974e+01	3.504671e+02
2.640000e-06	-2.481366e-06	3.898135e-09	-1.776761e+01	2.502768e+02
2.650000e-06	-2.625441e-06	2.246635e-09	-1.879925e+01	1.416892e+02
2.660000e-06	-2.768429e-06	4.818702e-10	-1.982310e+01	2.594820e+01
2.670000e-06	-2.910247e-06	-1.370457e-09	-2.083857e+01	-9.512048e+01
2.680000e-06	-3.050865e-06	-3.273545e-09	-2.184546e+01	-2.192459e+02
2.690000e-06	-3.190277e-06	-5.184589e-09	-2.284370e+01	-3.439119e+02
2.700000e-06	-3.328474e-06	-7.063941e-09	-2.383325e+01	-4.665884e+02
2.710000e-06	-3.465430e-06	-8.874195e-09	-2.481392e+01	-5.849594e+02
2.720000e-06	-3.601051e-06	-1.058598e-08	-2.578502e+01	-6.971108e+02
2.730000e-06	-3.735312e-06	-1.218113e-08	-2.674638e+01	-8.016540e+02
2.740000e-06	-3.868319e-06	-1.365132e-08	-2.769876e+01	-8.977705e+02
2.750000e-06	-3.999983e-06	-1.499380e-08	-2.864154e+01	-9.851803e+02
2.760000e-06	-4.130213e-06	-1.620835e-08	-2.957404e+01	-1.064050e+03
2.770000e-06	-4.259083e-06	-1.729963e-08	-3.049680e+01	-1.134862e+03
2.780000e-06	-4.386465e-06	-1.827683e-08	-3.140891e+01	-1.198279e+03
2.790000e-06	-4.512288e-06	-1.914996e-08	-3.230985e+01	-1.255023e+03
2.800000e-06	-4.636593e-06	-1.993008e-08	-3.319993e+01	-1.305783e+03
2.810000e-06	-4.759234e-06	-2.062643e-08	-3.407809e+01	-1.351173e+03
2.820000e-06	-4.880166e-06	-2.125035e-08	-3.494401e+01	-1.391722e+03
2.830000e-06	-4.999249e-06	-2.181009e-08	-3.579670e+01	-1.427887e+03
2.840000e-06	-5.116328e-06	-2.230427e-08	-3.663503e+01	-1.460087e+03
2.850000e-06	-5.231347e-06	-2.274109e-08	-3.745861e+01	-1.488730e+03
2.860000e-06	-5.344228e-06	-2.312968e-08	-3.826689e+01	-1.514227e+03
2.870000e-06	-5.455014e-06	-2.347992e-08	-3.906016e+01	-1.536990e+03
2.880000e-06	-5.563799e-06	-2.379868e-08	-3.983911e+01	-1.557422e+03
2.890000e-06	-5.670706e-06	-2.408796e-08	-4.060460e+01	-1.575888e+03
2.900000e-06	-5.775689e-06	-2.434925e-08	-4.135633e+01	-1.592697e+03
2.910000e-06	-5.878476e-06	-2.458619e-08	-4.209232e+01	-1.608089e+03
2.920000e-06	-5.979053e-06	-2.480415e-08	-4.281250e+01	-1.622231e+03
2.930000e-06	-6.077558e-06	-2.500359e-08	-4.351784e+01	-1.635231e+03
2.940000e-06	-6.173913e-06	-2.518410e-08	-4.420778e+01	-1.647158e+03
