# Temperatura_=_79.23
# Concentracion g/m^3_=_28370.0
# C_Vs_to_Am_M_A/Vsm_=_65563218390.804596
# pendiente_HvsI_1/m_=_3716.3
# ordenada_HvsI_A/m_=_1297.0
# frecuencia_Hz_=_302368.1150427517

Tiempo_(s)	Campo_(V.s)	Magnetizacion_(V.s)	Campo_(kA/m)	Magnetizacion_(A/m)
0.000000e+00	-7.275592e-06	-2.787824e-08	-5.319232e+01	-1.825124e+03
1.000000e-08	-7.272034e-06	-2.787337e-08	-5.316631e+01	-1.824249e+03
2.000000e-08	-7.266149e-06	-2.785891e-08	-5.312328e+01	-1.823279e+03
3.000000e-08	-7.257950e-06	-2.784520e-08	-5.306334e+01	-1.822258e+03
4.000000e-08	-7.247197e-06	-2.783236e-08	-5.298473e+01	-1.821209e+03
5.000000e-08	-7.233722e-06	-2.781431e-08	-5.288621e+01	-1.820132e+03
6.000000e-08	-7.217591e-06	-2.778946e-08	-5.276828e+01	-1.819001e+03
7.000000e-08	-7.199143e-06	-2.776204e-08	-5.263340e+01	-1.817776e+03
8.000000e-08	-7.178624e-06	-2.773109e-08	-5.248338e+01	-1.816403e+03
9.000000e-08	-7.155700e-06	-2.776566e-08	-5.231578e+01	-1.814829e+03
1.000000e-07	-7.129803e-06	-2.774903e-08	-5.212645e+01	-1.813011e+03
1.100000e-07	-7.100990e-06	-2.764774e-08	-5.191580e+01	-1.810924e+03
1.200000e-07	-7.069752e-06	-2.759485e-08	-5.168742e+01	-1.808561e+03
1.300000e-07	-7.036062e-06	-2.757395e-08	-5.144111e+01	-1.805940e+03
1.400000e-07	-7.000061e-06	-2.750779e-08	-5.117790e+01	-1.803099e+03
1.500000e-07	-6.962221e-06	-2.740697e-08	-5.090125e+01	-1.800082e+03
1.600000e-07	-6.922357e-06	-2.746885e-08	-5.060980e+01	-1.796941e+03
1.700000e-07	-6.880034e-06	-2.740612e-08	-5.030037e+01	-1.793713e+03
1.800000e-07	-6.835311e-06	-2.723153e-08	-4.997341e+01	-1.790421e+03
1.900000e-07	-6.788097e-06	-2.728362e-08	-4.962822e+01	-1.787063e+03
2.000000e-07	-6.738070e-06	-2.719752e-08	-4.926247e+01	-1.783609e+03
2.100000e-07	-6.685334e-06	-2.712784e-08	-4.887691e+01	-1.780007e+03
2.200000e-07	-6.630129e-06	-2.713849e-08	-4.847330e+01	-1.776186e+03
2.300000e-07	-6.572453e-06	-2.702519e-08	-4.805163e+01	-1.772069e+03
2.400000e-07	-6.512289e-06	-2.694859e-08	-4.761177e+01	-1.767583e+03
2.500000e-07	-6.449752e-06	-2.683366e-08	-4.715455e+01	-1.762672e+03
2.600000e-07	-6.384762e-06	-2.676259e-08	-4.667941e+01	-1.757303e+03
2.700000e-07	-6.317305e-06	-2.666967e-08	-4.618623e+01	-1.751475e+03
2.800000e-07	-6.247562e-06	-2.657874e-08	-4.567633e+01	-1.745218e+03
2.900000e-07	-6.175491e-06	-2.650009e-08	-4.514942e+01	-1.738586e+03
3.000000e-07	-6.100870e-06	-2.636698e-08	-4.460386e+01	-1.731652e+03
3.100000e-07	-6.023611e-06	-2.627907e-08	-4.403901e+01	-1.724490e+03
3.200000e-07	-5.943844e-06	-2.616637e-08	-4.345583e+01	-1.717168e+03
3.300000e-07	-5.861926e-06	-2.607029e-08	-4.285692e+01	-1.709729e+03
3.400000e-07	-5.778127e-06	-2.595996e-08	-4.224426e+01	-1.702186e+03
3.500000e-07	-5.692442e-06	-2.583097e-08	-4.161781e+01	-1.694518e+03
3.600000e-07	-5.604782e-06	-2.571022e-08	-4.097693e+01	-1.686668e+03
3.700000e-07	-5.514980e-06	-2.556780e-08	-4.032038e+01	-1.678553e+03
3.800000e-07	-5.423114e-06	-2.543473e-08	-3.964874e+01	-1.670075e+03
3.900000e-07	-5.329413e-06	-2.529416e-08	-3.896369e+01	-1.661136e+03
4.000000e-07	-5.233896e-06	-2.514959e-08	-3.826536e+01	-1.651649e+03
4.100000e-07	-5.136484e-06	-2.498700e-08	-3.755316e+01	-1.641555e+03
4.200000e-07	-5.037228e-06	-2.482420e-08	-3.682750e+01	-1.630829e+03
4.300000e-07	-4.936205e-06	-2.465899e-08	-3.608892e+01	-1.619485e+03
4.400000e-07	-4.833520e-06	-2.447942e-08	-3.533818e+01	-1.607567e+03
4.500000e-07	-4.729195e-06	-2.429475e-08	-3.457545e+01	-1.595145e+03
4.600000e-07	-4.623052e-06	-2.410860e-08	-3.379943e+01	-1.582297e+03
4.700000e-07	-4.515189e-06	-2.391268e-08	-3.301084e+01	-1.569092e+03
4.800000e-07	-4.405825e-06	-2.370602e-08	-3.221127e+01	-1.555576e+03
4.900000e-07	-4.294966e-06	-2.349751e-08	-3.140078e+01	-1.541757e+03
5.000000e-07	-4.182454e-06	-2.327907e-08	-3.057819e+01	-1.527601e+03
5.100000e-07	-4.068162e-06	-2.304695e-08	-2.974259e+01	-1.513025e+03
5.200000e-07	-3.952094e-06	-2.280165e-08	-2.889401e+01	-1.497911e+03
5.300000e-07	-3.834516e-06	-2.254899e-08	-2.803440e+01	-1.482117e+03
5.400000e-07	-3.715666e-06	-2.228496e-08	-2.716548e+01	-1.465491e+03
5.500000e-07	-3.595449e-06	-2.200962e-08	-2.628656e+01	-1.447894e+03
5.600000e-07	-3.473757e-06	-2.171831e-08	-2.539686e+01	-1.429219e+03
5.700000e-07	-3.350632e-06	-2.141625e-08	-2.449669e+01	-1.409398e+03
5.800000e-07	-3.226269e-06	-2.110499e-08	-2.358746e+01	-1.388411e+03
5.900000e-07	-3.100792e-06	-2.078283e-08	-2.267009e+01	-1.366281e+03
6.000000e-07	-2.974256e-06	-2.044573e-08	-2.174498e+01	-1.343060e+03
6.100000e-07	-2.846699e-06	-2.008710e-08	-2.081240e+01	-1.318812e+03
6.200000e-07	-2.718082e-06	-1.970678e-08	-1.987207e+01	-1.293585e+03
6.300000e-07	-2.588322e-06	-1.930365e-08	-1.892339e+01	-1.267386e+03
6.400000e-07	-2.457453e-06	-1.888105e-08	-1.796660e+01	-1.240160e+03
6.500000e-07	-2.325706e-06	-1.843554e-08	-1.700339e+01	-1.211772e+03
6.600000e-07	-2.193264e-06	-1.796902e-08	-1.603509e+01	-1.182005e+03
6.700000e-07	-2.060125e-06	-1.747476e-08	-1.506170e+01	-1.150563e+03
6.800000e-07	-1.926253e-06	-1.694767e-08	-1.408296e+01	-1.117095e+03
6.900000e-07	-1.791758e-06	-1.638677e-08	-1.309966e+01	-1.081219e+03
7.000000e-07	-1.656744e-06	-1.579035e-08	-1.211256e+01	-1.042560e+03
7.100000e-07	-1.521200e-06	-1.515657e-08	-1.112159e+01	-1.000790e+03
7.200000e-07	-1.385106e-06	-1.448043e-08	-1.012660e+01	-9.556602e+02
7.300000e-07	-1.248524e-06	-1.375963e-08	-9.128039e+00	-9.070309e+02
7.400000e-07	-1.111507e-06	-1.298622e-08	-8.126300e+00	-8.548858e+02
7.500000e-07	-9.739903e-07	-1.215915e-08	-7.120906e+00	-7.993335e+02
7.600000e-07	-8.360047e-07	-1.127841e-08	-6.112084e+00	-7.405939e+02
7.700000e-07	-6.976855e-07	-1.034474e-08	-5.100824e+00	-6.789708e+02
7.800000e-07	-5.590382e-07	-9.359074e-09	-4.087165e+00	-6.148150e+02
7.900000e-07	-4.201342e-07	-8.329047e-09	-3.071629e+00	-5.484827e+02
8.000000e-07	-2.810868e-07	-7.264462e-09	-2.055044e+00	-4.802948e+02
8.100000e-07	-1.418698e-07	-6.171666e-09	-1.037220e+00	-4.105038e+02
8.200000e-07	-2.505108e-09	-5.061330e-09	-1.831500e-02	-3.392730e+02
8.300000e-07	1.369075e-07	-3.940136e-09	1.000939e+00	-2.666706e+02
8.400000e-07	2.763004e-07	-2.813263e-09	2.020050e+00	-1.926822e+02
8.500000e-07	4.155773e-07	-1.681561e-09	3.038312e+00	-1.172381e+02
8.600000e-07	5.546372e-07	-5.421286e-10	4.054989e+00	-4.025385e+01
8.700000e-07	6.934739e-07	6.170751e-10	5.070033e+00	3.832217e+01
8.800000e-07	8.320652e-07	1.806316e-09	6.083282e+00	1.184605e+02
8.900000e-07	9.702621e-07	3.027083e-09	7.093649e+00	2.000087e+02
9.000000e-07	1.108033e-06	4.281455e-09	8.100900e+00	2.826618e+02
9.100000e-07	1.245394e-06	5.563509e-09	9.105154e+00	3.659502e+02
9.200000e-07	1.382265e-06	6.860596e-09	1.010583e+01	4.492478e+02
9.300000e-07	1.518603e-06	8.153948e-09	1.110260e+01	5.318000e+02
9.400000e-07	1.654360e-06	9.421679e-09	1.209513e+01	6.127694e+02
9.500000e-07	1.789484e-06	1.063809e-08	1.308303e+01	6.912940e+02
9.600000e-07	1.923961e-06	1.178415e-08	1.406620e+01	7.665520e+02
9.700000e-07	2.057692e-06	1.285028e-08	1.504392e+01	8.378244e+02
9.800000e-07	2.190629e-06	1.383628e-08	1.601583e+01	9.045499e+02
9.900000e-07	2.322930e-06	1.474500e-08	1.698309e+01	9.663645e+02
1.000000e-06	2.454557e-06	1.557772e-08	1.794543e+01	1.023121e+03
1.010000e-06	2.585180e-06	1.634024e-08	1.890042e+01	1.074891e+03
1.020000e-06	2.714599e-06	1.704261e-08	1.984661e+01	1.121937e+03
1.030000e-06	2.842909e-06	1.769305e-08	2.078469e+01	1.164682e+03
1.040000e-06	2.970261e-06	1.829606e-08	2.171577e+01	1.203651e+03
1.050000e-06	3.096567e-06	1.885679e-08	2.263920e+01	1.239417e+03
1.060000e-06	3.221720e-06	1.938175e-08	2.355421e+01	1.272546e+03
1.070000e-06	3.345848e-06	1.987226e-08	2.446171e+01	1.303544e+03
1.080000e-06	3.468909e-06	2.032949e-08	2.536142e+01	1.332826e+03
1.090000e-06	3.590610e-06	2.075748e-08	2.625118e+01	1.360693e+03
1.100000e-06	3.710877e-06	2.115899e-08	2.713046e+01	1.387327e+03
1.110000e-06	3.829809e-06	2.153581e-08	2.799998e+01	1.412805e+03
1.120000e-06	3.947423e-06	2.189100e-08	2.885986e+01	1.437122e+03
1.130000e-06	4.063654e-06	2.222890e-08	2.970964e+01	1.460221e+03
1.140000e-06	4.178253e-06	2.254880e-08	3.054748e+01	1.482033e+03
1.150000e-06	4.291107e-06	2.285070e-08	3.137256e+01	1.502497e+03
1.160000e-06	4.402374e-06	2.313533e-08	3.218604e+01	1.521597e+03
1.170000e-06	4.512137e-06	2.340372e-08	3.298853e+01	1.539367e+03
1.180000e-06	4.620494e-06	2.365778e-08	3.378073e+01	1.555896e+03
1.190000e-06	4.727346e-06	2.389934e-08	3.456193e+01	1.571324e+03
1.200000e-06	4.832364e-06	2.412835e-08	3.532972e+01	1.585821e+03
1.210000e-06	4.935556e-06	2.434823e-08	3.608417e+01	1.599568e+03
1.220000e-06	5.037029e-06	2.455622e-08	3.682604e+01	1.612736e+03
1.230000e-06	5.136753e-06	2.475268e-08	3.755513e+01	1.625461e+03
1.240000e-06	5.234497e-06	2.493869e-08	3.826975e+01	1.637835e+03
1.250000e-06	5.330180e-06	2.511577e-08	3.896929e+01	1.649894e+03
1.260000e-06	5.423950e-06	2.528656e-08	3.965485e+01	1.661626e+03
1.270000e-06	5.515920e-06	2.545066e-08	4.032725e+01	1.672974e+03
1.280000e-06	5.605909e-06	2.560891e-08	4.098516e+01	1.683858e+03
1.290000e-06	5.693714e-06	2.575925e-08	4.162712e+01	1.694188e+03
1.300000e-06	5.779459e-06	2.590275e-08	4.225400e+01	1.703887e+03
1.310000e-06	5.863217e-06	2.603926e-08	4.286636e+01	1.712907e+03
1.320000e-06	5.944890e-06	2.616960e-08	4.346348e+01	1.721236e+03
1.330000e-06	6.024383e-06	2.629205e-08	4.404466e+01	1.728903e+03
1.340000e-06	6.101726e-06	2.640686e-08	4.461012e+01	1.735978e+03
1.350000e-06	6.176705e-06	2.651581e-08	4.515829e+01	1.742558e+03
1.360000e-06	6.249241e-06	2.661797e-08	4.568861e+01	1.748753e+03
1.370000e-06	6.319496e-06	2.671399e-08	4.620225e+01	1.754674e+03
1.380000e-06	6.387631e-06	2.680452e-08	4.670039e+01	1.760412e+03
1.390000e-06	6.453449e-06	2.689038e-08	4.718159e+01	1.766031e+03
1.400000e-06	6.516820e-06	2.697224e-08	4.764489e+01	1.771559e+03
1.410000e-06	6.578036e-06	2.705044e-08	4.809245e+01	1.776985e+03
1.420000e-06	6.637107e-06	2.712373e-08	4.852432e+01	1.782269e+03
1.430000e-06	6.693794e-06	2.719357e-08	4.893876e+01	1.787346e+03
1.440000e-06	6.748027e-06	2.726052e-08	4.933527e+01	1.792144e+03
1.450000e-06	6.799624e-06	2.732440e-08	4.971249e+01	1.796595e+03
1.460000e-06	6.848406e-06	2.738626e-08	5.006914e+01	1.800647e+03
1.470000e-06	6.894613e-06	2.744582e-08	5.040697e+01	1.804277e+03
1.480000e-06	6.938500e-06	2.750148e-08	5.072782e+01	1.807487e+03
1.490000e-06	6.979932e-06	2.755041e-08	5.103074e+01	1.810313e+03
1.500000e-06	7.018761e-06	2.759249e-08	5.131462e+01	1.812810e+03
1.510000e-06	7.055231e-06	2.762911e-08	5.158125e+01	1.815047e+03
1.520000e-06	7.089230e-06	2.766278e-08	5.182982e+01	1.817095e+03
1.530000e-06	7.120575e-06	2.769552e-08	5.205898e+01	1.819012e+03
1.540000e-06	7.149488e-06	2.772620e-08	5.227037e+01	1.820839e+03
1.550000e-06	7.175858e-06	2.775364e-08	5.246317e+01	1.822590e+03
1.560000e-06	7.199455e-06	2.777777e-08	5.263569e+01	1.824252e+03
1.570000e-06	7.220510e-06	2.779753e-08	5.278961e+01	1.825791e+03
1.580000e-06	7.239155e-06	2.781199e-08	5.292593e+01	1.827154e+03
1.590000e-06	7.255168e-06	2.782293e-08	5.304300e+01	1.828286e+03
1.600000e-06	7.268405e-06	2.783082e-08	5.313978e+01	1.829135e+03
1.610000e-06	7.278727e-06	2.783651e-08	5.321524e+01	1.829665e+03
1.620000e-06	7.286215e-06	2.784155e-08	5.326999e+01	1.829861e+03
1.630000e-06	7.291243e-06	2.784481e-08	5.330675e+01	1.829734e+03
1.640000e-06	7.293766e-06	2.784485e-08	5.332520e+01	1.829318e+03
1.650000e-06	7.293592e-06	2.784473e-08	5.332393e+01	1.828665e+03
1.660000e-06	7.290937e-06	2.783411e-08	5.330451e+01	1.827836e+03
1.670000e-06	7.285876e-06	2.782433e-08	5.326751e+01	1.826893e+03
1.680000e-06	7.278301e-06	2.781559e-08	5.321213e+01	1.825885e+03
1.690000e-06	7.268345e-06	2.780022e-08	5.313934e+01	1.824844e+03
1.700000e-06	7.255894e-06	2.778274e-08	5.304831e+01	1.823777e+03
1.710000e-06	7.240858e-06	2.776710e-08	5.293838e+01	1.822668e+03
1.720000e-06	7.223570e-06	2.775599e-08	5.281199e+01	1.821481e+03
1.730000e-06	7.204238e-06	2.772472e-08	5.267065e+01	1.820165e+03
1.740000e-06	7.182352e-06	2.760503e-08	5.251064e+01	1.818668e+03
1.750000e-06	7.157166e-06	2.759622e-08	5.232650e+01	1.816940e+03
1.760000e-06	7.128604e-06	2.762781e-08	5.211769e+01	1.814949e+03
1.770000e-06	7.097278e-06	2.757438e-08	5.188866e+01	1.812682e+03
1.780000e-06	7.063833e-06	2.753892e-08	5.164414e+01	1.810149e+03
1.790000e-06	7.028647e-06	2.760399e-08	5.138690e+01	1.807380e+03
1.800000e-06	6.991904e-06	2.748013e-08	5.111826e+01	1.804419e+03
1.810000e-06	6.952956e-06	2.739254e-08	5.083351e+01	1.801316e+03
1.820000e-06	6.911289e-06	2.751855e-08	5.052888e+01	1.798114e+03
1.830000e-06	6.867354e-06	2.734700e-08	5.020767e+01	1.794843e+03
1.840000e-06	6.821028e-06	2.738848e-08	4.986898e+01	1.791509e+03
1.850000e-06	6.772108e-06	2.733853e-08	4.951132e+01	1.788092e+03
1.860000e-06	6.720637e-06	2.715704e-08	4.913501e+01	1.784549e+03
1.870000e-06	6.666330e-06	2.720226e-08	4.873797e+01	1.780814e+03
1.880000e-06	6.609555e-06	2.705179e-08	4.832288e+01	1.776810e+03
1.890000e-06	6.550438e-06	2.706590e-08	4.789068e+01	1.772463e+03
1.900000e-06	6.488678e-06	2.700849e-08	4.743915e+01	1.767707e+03
1.910000e-06	6.424373e-06	2.687258e-08	4.696901e+01	1.762502e+03
1.920000e-06	6.357672e-06	2.684030e-08	4.648135e+01	1.756835e+03
1.930000e-06	6.288611e-06	2.666225e-08	4.597645e+01	1.750725e+03
1.940000e-06	6.217099e-06	2.664688e-08	4.545361e+01	1.744218e+03
1.950000e-06	6.143233e-06	2.653744e-08	4.491358e+01	1.737382e+03
1.960000e-06	6.066917e-06	2.643554e-08	4.435563e+01	1.730291e+03
1.970000e-06	5.988004e-06	2.635774e-08	4.377869e+01	1.723019e+03
1.980000e-06	5.906882e-06	2.619282e-08	4.318560e+01	1.715617e+03
1.990000e-06	5.823833e-06	2.612031e-08	4.257842e+01	1.708110e+03
2.000000e-06	5.738758e-06	2.596185e-08	4.195644e+01	1.700490e+03
2.010000e-06	5.651462e-06	2.587445e-08	4.131821e+01	1.692712e+03
2.020000e-06	5.562068e-06	2.574325e-08	4.066464e+01	1.684701e+03
2.030000e-06	5.470795e-06	2.559396e-08	3.999734e+01	1.676364e+03
2.040000e-06	5.377669e-06	2.545453e-08	3.931649e+01	1.667599e+03
2.050000e-06	5.282610e-06	2.529243e-08	3.862151e+01	1.658314e+03
2.060000e-06	5.185656e-06	2.516296e-08	3.791267e+01	1.648441e+03
2.070000e-06	5.087013e-06	2.498994e-08	3.719148e+01	1.637940e+03
2.080000e-06	4.986649e-06	2.484846e-08	3.645771e+01	1.626812e+03
2.090000e-06	4.884365e-06	2.467478e-08	3.570991e+01	1.615090e+03
2.100000e-06	4.780195e-06	2.450275e-08	3.494831e+01	1.602838e+03
2.110000e-06	4.674411e-06	2.431387e-08	3.417492e+01	1.590132e+03
2.120000e-06	4.567154e-06	2.412141e-08	3.339076e+01	1.577046e+03
2.130000e-06	4.458371e-06	2.391594e-08	3.259544e+01	1.563637e+03
2.140000e-06	4.347911e-06	2.369581e-08	3.178786e+01	1.549927e+03
2.150000e-06	4.235736e-06	2.348291e-08	3.096774e+01	1.535897e+03
2.160000e-06	4.121971e-06	2.325700e-08	3.013600e+01	1.521481e+03
2.170000e-06	4.006544e-06	2.303332e-08	2.929210e+01	1.506574e+03
2.180000e-06	3.889398e-06	2.278826e-08	2.843564e+01	1.491039e+03
2.190000e-06	3.770617e-06	2.253802e-08	2.756723e+01	1.474725e+03
2.200000e-06	3.650351e-06	2.226872e-08	2.668795e+01	1.457488e+03
2.210000e-06	3.528751e-06	2.199273e-08	2.579893e+01	1.439207e+03
2.220000e-06	3.405900e-06	2.169926e-08	2.490075e+01	1.419799e+03
2.230000e-06	3.281890e-06	2.139349e-08	2.399411e+01	1.399226e+03
2.240000e-06	3.156691e-06	2.106616e-08	2.307877e+01	1.377498e+03
2.250000e-06	3.030232e-06	2.072130e-08	2.215423e+01	1.354658e+03
2.260000e-06	2.902552e-06	2.036714e-08	2.122074e+01	1.330769e+03
2.270000e-06	2.773775e-06	2.000292e-08	2.027925e+01	1.305887e+03
2.280000e-06	2.644032e-06	1.962493e-08	1.933069e+01	1.280036e+03
2.290000e-06	2.513421e-06	1.922112e-08	1.837578e+01	1.253187e+03
2.300000e-06	2.382044e-06	1.879208e-08	1.741527e+01	1.225233e+03
2.310000e-06	2.249871e-06	1.833200e-08	1.644895e+01	1.195987e+03
2.320000e-06	2.116854e-06	1.784760e-08	1.547646e+01	1.165180e+03
2.330000e-06	1.983055e-06	1.733188e-08	1.449824e+01	1.132478e+03
2.340000e-06	1.848574e-06	1.678584e-08	1.351504e+01	1.097504e+03
2.350000e-06	1.713408e-06	1.620469e-08	1.252684e+01	1.059879e+03
2.360000e-06	1.577567e-06	1.558256e-08	1.153370e+01	1.019252e+03
2.370000e-06	1.441174e-06	1.491824e-08	1.053652e+01	9.753431e+02
2.380000e-06	1.304388e-06	1.421169e-08	9.536465e+00	9.279709e+02
2.390000e-06	1.167314e-06	1.346409e-08	8.534307e+00	8.770740e+02
2.400000e-06	1.029920e-06	1.266336e-08	7.529814e+00	8.227173e+02
2.410000e-06	8.921472e-07	1.180273e-08	6.522546e+00	7.650835e+02
2.420000e-06	7.540613e-07	1.088525e-08	5.512991e+00	7.044502e+02
2.430000e-06	6.157533e-07	9.911784e-09	4.501812e+00	6.411562e+02
2.440000e-06	4.772303e-07	8.890908e-09	3.489062e+00	5.755604e+02
2.450000e-06	3.385190e-07	7.832326e-09	2.474934e+00	5.080007e+02
2.460000e-06	1.996261e-07	6.746648e-09	1.459479e+00	4.387573e+02
2.470000e-06	6.058307e-08	5.641085e-09	4.429267e-01	3.680267e+02
2.480000e-06	-7.850271e-08	4.522537e-09	-5.739384e-01	2.959107e+02
2.490000e-06	-2.175217e-07	3.397471e-09	-1.590315e+00	2.224219e+02
2.500000e-06	-3.564470e-07	2.265255e-09	-2.606007e+00	1.475062e+02
2.510000e-06	-4.952992e-07	1.121413e-09	-3.621165e+00	7.107942e+01
2.520000e-06	-6.340400e-07	-4.069140e-11	-4.635508e+00	-6.927595e+00
2.530000e-06	-7.725627e-07	-1.225239e-09	-5.648256e+00	-8.651962e+01
2.540000e-06	-9.108144e-07	-2.436064e-09	-6.659023e+00	-1.675923e+02
2.550000e-06	-1.048729e-06	-3.676860e-09	-7.667326e+00	-2.498974e+02
2.560000e-06	-1.186217e-06	-4.948108e-09	-8.672508e+00	-3.330243e+02
2.570000e-06	-1.323304e-06	-6.246761e-09	-9.674763e+00	-4.164007e+02
2.580000e-06	-1.460041e-06	-7.555824e-09	-1.067446e+01	-4.993134e+02
2.590000e-06	-1.596327e-06	-8.846630e-09	-1.167085e+01	-5.809484e+02
2.600000e-06	-1.731995e-06	-1.009648e-08	-1.266273e+01	-6.604453e+02
2.610000e-06	-1.866997e-06	-1.128511e-08	-1.364973e+01	-7.369604e+02
2.620000e-06	-2.001213e-06	-1.239522e-08	-1.463100e+01	-8.097312e+02
2.630000e-06	-2.134530e-06	-1.342206e-08	-1.560569e+01	-8.781346e+02
2.640000e-06	-2.266990e-06	-1.436671e-08	-1.657411e+01	-9.417327e+02
2.650000e-06	-2.398597e-06	-1.523368e-08	-1.753630e+01	-1.000300e+03
2.660000e-06	-2.529343e-06	-1.602923e-08	-1.849219e+01	-1.053831e+03
2.670000e-06	-2.659219e-06	-1.676073e-08	-1.944173e+01	-1.102524e+03
2.680000e-06	-2.788230e-06	-1.743888e-08	-2.038493e+01	-1.146751e+03
2.690000e-06	-2.916292e-06	-1.806969e-08	-2.132120e+01	-1.187005e+03
2.700000e-06	-3.043223e-06	-1.865672e-08	-2.224920e+01	-1.223850e+03
2.710000e-06	-3.168959e-06	-1.920259e-08	-2.316846e+01	-1.257859e+03
2.720000e-06	-3.293475e-06	-1.970958e-08	-2.407881e+01	-1.289567e+03
2.730000e-06	-3.416825e-06	-2.018153e-08	-2.498063e+01	-1.319423e+03
2.740000e-06	-3.538929e-06	-2.062125e-08	-2.587334e+01	-1.347769e+03
2.750000e-06	-3.659754e-06	-2.103318e-08	-2.675670e+01	-1.374831e+03
2.760000e-06	-3.779371e-06	-2.142193e-08	-2.763123e+01	-1.400720e+03
2.770000e-06	-3.897517e-06	-2.178823e-08	-2.849500e+01	-1.425457e+03
2.780000e-06	-4.014076e-06	-2.213271e-08	-2.934717e+01	-1.449001e+03
2.790000e-06	-4.129073e-06	-2.245862e-08	-3.018792e+01	-1.471282e+03
2.800000e-06	-4.242354e-06	-2.276904e-08	-3.101613e+01	-1.492233e+03
2.810000e-06	-4.353888e-06	-2.306474e-08	-3.183156e+01	-1.511821e+03
2.820000e-06	-4.463831e-06	-2.334479e-08	-3.263536e+01	-1.530059e+03
2.830000e-06	-4.572323e-06	-2.360934e-08	-3.342855e+01	-1.547019e+03
2.840000e-06	-4.679362e-06	-2.385969e-08	-3.421112e+01	-1.562823e+03
2.850000e-06	-4.784828e-06	-2.409699e-08	-3.498218e+01	-1.577633e+03
2.860000e-06	-4.888511e-06	-2.432216e-08	-3.574022e+01	-1.591629e+03
2.870000e-06	-4.990226e-06	-2.453697e-08	-3.648387e+01	-1.604988e+03
2.880000e-06	-5.090103e-06	-2.474442e-08	-3.721407e+01	-1.617859e+03
2.890000e-06	-5.188315e-06	-2.494292e-08	-3.793211e+01	-1.630352e+03
2.900000e-06	-5.284779e-06	-2.513043e-08	-3.863736e+01	-1.642524e+03
2.910000e-06	-5.379231e-06	-2.530675e-08	-3.932791e+01	-1.654379e+03
2.920000e-06	-5.471654e-06	-2.547255e-08	-4.000362e+01	-1.665874e+03
2.930000e-06	-5.562206e-06	-2.563070e-08	-4.066565e+01	-1.676935e+03
2.940000e-06	-5.650805e-06	-2.578037e-08	-4.131340e+01	-1.687474e+03
