# Temperatura_=_85.89
# Concentracion g/m^3_=_28370.0
# C_Vs_to_Am_M_A/Vsm_=_65563218390.804596
# pendiente_HvsI_1/m_=_3716.3
# ordenada_HvsI_A/m_=_1297.0
# frecuencia_Hz_=_302367.64024524024

Tiempo_(s)	Campo_(V.s)	Magnetizacion_(V.s)	Campo_(kA/m)	Magnetizacion_(A/m)
0.000000e+00	-7.317518e-06	-2.931345e-08	-5.319064e+01	-1.919813e+03
1.000000e-08	-7.313386e-06	-2.930466e-08	-5.316060e+01	-1.918849e+03
2.000000e-08	-7.306935e-06	-2.929030e-08	-5.311371e+01	-1.917798e+03
3.000000e-08	-7.298067e-06	-2.927450e-08	-5.304925e+01	-1.916699e+03
4.000000e-08	-7.286603e-06	-2.925609e-08	-5.296591e+01	-1.915570e+03
5.000000e-08	-7.272404e-06	-2.923401e-08	-5.286271e+01	-1.914402e+03
6.000000e-08	-7.255551e-06	-2.920995e-08	-5.274020e+01	-1.913167e+03
7.000000e-08	-7.236501e-06	-2.918461e-08	-5.260173e+01	-1.911817e+03
8.000000e-08	-7.215345e-06	-2.917665e-08	-5.244795e+01	-1.910299e+03
9.000000e-08	-7.191573e-06	-2.918472e-08	-5.227515e+01	-1.908560e+03
1.000000e-07	-7.164822e-06	-2.913129e-08	-5.208070e+01	-1.906562e+03
1.100000e-07	-7.135280e-06	-2.905873e-08	-5.186596e+01	-1.904285e+03
1.200000e-07	-7.103252e-06	-2.901563e-08	-5.163315e+01	-1.901730e+03
1.300000e-07	-7.068772e-06	-2.896997e-08	-5.138251e+01	-1.898922e+03
1.400000e-07	-7.032080e-06	-2.889853e-08	-5.111581e+01	-1.895899e+03
1.500000e-07	-6.993547e-06	-2.884793e-08	-5.083571e+01	-1.892709e+03
1.600000e-07	-6.952923e-06	-2.886251e-08	-5.054041e+01	-1.889397e+03
1.700000e-07	-6.909846e-06	-2.875664e-08	-5.022729e+01	-1.885996e+03
1.800000e-07	-6.864368e-06	-2.868401e-08	-4.989671e+01	-1.882517e+03
1.900000e-07	-6.816309e-06	-2.867248e-08	-4.954737e+01	-1.878946e+03
2.000000e-07	-6.765403e-06	-2.857491e-08	-4.917734e+01	-1.875244e+03
2.100000e-07	-6.711841e-06	-2.852452e-08	-4.878801e+01	-1.871348e+03
2.200000e-07	-6.655792e-06	-2.846372e-08	-4.838059e+01	-1.867184e+03
2.300000e-07	-6.597219e-06	-2.837930e-08	-4.795482e+01	-1.862672e+03
2.400000e-07	-6.536186e-06	-2.828511e-08	-4.751118e+01	-1.857746e+03
2.500000e-07	-6.472743e-06	-2.819517e-08	-4.705001e+01	-1.852357e+03
2.600000e-07	-6.406781e-06	-2.811310e-08	-4.657054e+01	-1.846486e+03
2.700000e-07	-6.338379e-06	-2.800929e-08	-4.607332e+01	-1.840145e+03
2.800000e-07	-6.267707e-06	-2.792410e-08	-4.555962e+01	-1.833377e+03
2.900000e-07	-6.194642e-06	-2.782145e-08	-4.502851e+01	-1.826248e+03
3.000000e-07	-6.119016e-06	-2.770925e-08	-4.447879e+01	-1.818834e+03
3.100000e-07	-6.040785e-06	-2.761073e-08	-4.391014e+01	-1.811210e+03
3.200000e-07	-5.960119e-06	-2.748806e-08	-4.332378e+01	-1.803439e+03
3.300000e-07	-5.877320e-06	-2.736924e-08	-4.272192e+01	-1.795552e+03
3.400000e-07	-5.792634e-06	-2.724302e-08	-4.210634e+01	-1.787550e+03
3.500000e-07	-5.706095e-06	-2.711907e-08	-4.147729e+01	-1.779396e+03
3.600000e-07	-5.617557e-06	-2.698402e-08	-4.083372e+01	-1.771019e+03
3.700000e-07	-5.526865e-06	-2.684107e-08	-4.017448e+01	-1.762326e+03
3.800000e-07	-5.434150e-06	-2.670037e-08	-3.950054e+01	-1.753215e+03
3.900000e-07	-5.339528e-06	-2.654386e-08	-3.881274e+01	-1.743587e+03
4.000000e-07	-5.243001e-06	-2.638677e-08	-3.811109e+01	-1.733362e+03
4.100000e-07	-5.144647e-06	-2.621666e-08	-3.739616e+01	-1.722495e+03
4.200000e-07	-5.044507e-06	-2.604849e-08	-3.666824e+01	-1.710974e+03
4.300000e-07	-4.942611e-06	-2.586830e-08	-3.592757e+01	-1.698826e+03
4.400000e-07	-4.838895e-06	-2.567995e-08	-3.517366e+01	-1.686111e+03
4.500000e-07	-4.733547e-06	-2.548781e-08	-3.440789e+01	-1.672903e+03
4.600000e-07	-4.626477e-06	-2.528919e-08	-3.362961e+01	-1.659282e+03
4.700000e-07	-4.517688e-06	-2.508189e-08	-3.283882e+01	-1.645311e+03
4.800000e-07	-4.407394e-06	-2.486256e-08	-3.203711e+01	-1.631024e+03
4.900000e-07	-4.295454e-06	-2.463717e-08	-3.122342e+01	-1.616413e+03
5.000000e-07	-4.181808e-06	-2.439600e-08	-3.039733e+01	-1.601421e+03
5.100000e-07	-4.066417e-06	-2.414845e-08	-2.955856e+01	-1.585948e+03
5.200000e-07	-3.949408e-06	-2.389233e-08	-2.870803e+01	-1.569860e+03
5.300000e-07	-3.830929e-06	-2.362659e-08	-2.784681e+01	-1.553004e+03
5.400000e-07	-3.710994e-06	-2.334828e-08	-2.697501e+01	-1.535226e+03
5.500000e-07	-3.589748e-06	-2.305458e-08	-2.609368e+01	-1.516396e+03
5.600000e-07	-3.467108e-06	-2.274738e-08	-2.520221e+01	-1.496415e+03
5.700000e-07	-3.342979e-06	-2.242782e-08	-2.429993e+01	-1.475236e+03
5.800000e-07	-3.217628e-06	-2.209601e-08	-2.338876e+01	-1.452856e+03
5.900000e-07	-3.091198e-06	-2.174813e-08	-2.246975e+01	-1.429314e+03
6.000000e-07	-2.963641e-06	-2.138627e-08	-2.154254e+01	-1.404676e+03
6.100000e-07	-2.835019e-06	-2.100583e-08	-2.060760e+01	-1.379005e+03
6.200000e-07	-2.705504e-06	-2.060325e-08	-1.966616e+01	-1.352341e+03
6.300000e-07	-2.574930e-06	-2.017832e-08	-1.871703e+01	-1.324673e+03
6.400000e-07	-2.443160e-06	-1.973344e-08	-1.775920e+01	-1.295914e+03
6.500000e-07	-2.310522e-06	-1.926482e-08	-1.679506e+01	-1.265895e+03
6.600000e-07	-2.177243e-06	-1.876732e-08	-1.582626e+01	-1.234361e+03
6.700000e-07	-2.043277e-06	-1.823983e-08	-1.485247e+01	-1.200978e+03
6.800000e-07	-1.908514e-06	-1.768003e-08	-1.387288e+01	-1.165364e+03
6.900000e-07	-1.773009e-06	-1.708788e-08	-1.288790e+01	-1.127116e+03
7.000000e-07	-1.636897e-06	-1.645547e-08	-1.189851e+01	-1.085850e+03
7.100000e-07	-1.500216e-06	-1.577936e-08	-1.090499e+01	-1.041240e+03
7.200000e-07	-1.363061e-06	-1.505858e-08	-9.908015e+00	-9.930516e+02
7.300000e-07	-1.225462e-06	-1.428777e-08	-8.907813e+00	-9.411670e+02
7.400000e-07	-1.087437e-06	-1.346023e-08	-7.904521e+00	-8.855947e+02
7.500000e-07	-9.490159e-07	-1.257634e-08	-6.898345e+00	-8.264670e+02
7.600000e-07	-8.102085e-07	-1.163835e-08	-5.889361e+00	-7.640213e+02
7.700000e-07	-6.710144e-07	-1.064365e-08	-4.877566e+00	-6.985686e+02
7.800000e-07	-5.314369e-07	-9.595957e-09	-3.862985e+00	-6.304553e+02
7.900000e-07	-3.917045e-07	-8.500000e-09	-2.847279e+00	-5.600207e+02
8.000000e-07	-2.518151e-07	-7.365755e-09	-1.830430e+00	-4.875598e+02
8.100000e-07	-1.117127e-07	-6.202012e-09	-8.120336e-01	-4.132942e+02
8.200000e-07	2.844714e-08	-5.018874e-09	2.067807e-01	-3.373572e+02
8.300000e-07	1.686122e-07	-3.824869e-09	1.225633e+00	-2.597961e+02
8.400000e-07	3.087784e-07	-2.623703e-09	2.244493e+00	-1.805903e+02
8.500000e-07	4.488664e-07	-1.416315e-09	3.262785e+00	-9.968577e+01
8.600000e-07	5.887480e-07	-1.961937e-10	4.279577e+00	-1.703826e+01
8.700000e-07	7.283731e-07	1.045686e-09	5.294504e+00	6.733743e+01
8.800000e-07	8.677316e-07	2.319883e-09	6.307493e+00	1.533215e+02
8.900000e-07	1.006712e-06	3.630058e-09	7.317737e+00	2.406524e+02
9.000000e-07	1.145267e-06	4.975056e-09	8.324885e+00	3.289049e+02
9.100000e-07	1.283377e-06	6.346513e-09	9.328795e+00	4.174879e+02
9.200000e-07	1.421003e-06	7.727377e-09	1.032919e+01	5.056626e+02
9.300000e-07	1.558116e-06	9.094622e-09	1.132586e+01	5.925805e+02
9.400000e-07	1.694659e-06	1.042036e-08	1.231839e+01	6.773376e+02
9.500000e-07	1.830605e-06	1.168038e-08	1.330656e+01	7.590383e+02
9.600000e-07	1.965784e-06	1.285811e-08	1.428918e+01	8.368626e+02
9.700000e-07	2.100102e-06	1.394655e-08	1.526553e+01	9.101279e+02
9.800000e-07	2.233658e-06	1.494708e-08	1.623634e+01	9.783394e+02
9.900000e-07	2.366519e-06	1.586555e-08	1.720210e+01	1.041222e+03
1.000000e-06	2.498600e-06	1.670879e-08	1.816218e+01	1.098732e+03
1.010000e-06	2.629684e-06	1.748346e-08	1.911503e+01	1.151046e+03
1.020000e-06	2.759619e-06	1.819696e-08	2.005952e+01	1.198527e+03
1.030000e-06	2.888504e-06	1.885898e-08	2.099637e+01	1.241683e+03
1.040000e-06	3.016373e-06	1.947678e-08	2.192585e+01	1.281104e+03
1.050000e-06	3.143135e-06	2.005295e-08	2.284727e+01	1.317402e+03
1.060000e-06	3.268810e-06	2.058678e-08	2.376080e+01	1.351158e+03
1.070000e-06	3.393419e-06	2.108453e-08	2.466658e+01	1.382874e+03
1.080000e-06	3.516839e-06	2.155103e-08	2.556371e+01	1.412941e+03
1.090000e-06	3.638919e-06	2.198827e-08	2.645110e+01	1.441626e+03
1.100000e-06	3.759626e-06	2.239860e-08	2.732852e+01	1.469073e+03
1.110000e-06	3.878994e-06	2.278543e-08	2.819619e+01	1.495324e+03
1.120000e-06	3.997036e-06	2.315235e-08	2.905423e+01	1.520347e+03
1.130000e-06	4.113630e-06	2.350031e-08	2.990175e+01	1.544071e+03
1.140000e-06	4.228539e-06	2.382989e-08	3.073701e+01	1.566420e+03
1.150000e-06	4.341727e-06	2.414119e-08	3.155977e+01	1.587343e+03
1.160000e-06	4.453339e-06	2.443431e-08	3.237108e+01	1.606841e+03
1.170000e-06	4.563450e-06	2.470899e-08	3.317147e+01	1.624970e+03
1.180000e-06	4.672071e-06	2.496872e-08	3.396103e+01	1.641845e+03
1.190000e-06	4.779028e-06	2.521641e-08	3.473849e+01	1.657627e+03
1.200000e-06	4.884206e-06	2.545459e-08	3.550302e+01	1.672502e+03
1.210000e-06	4.987614e-06	2.568329e-08	3.625469e+01	1.686659e+03
1.220000e-06	5.089241e-06	2.589886e-08	3.699341e+01	1.700267e+03
1.230000e-06	5.189017e-06	2.610206e-08	3.771868e+01	1.713456e+03
1.240000e-06	5.286793e-06	2.629517e-08	3.842941e+01	1.726302e+03
1.250000e-06	5.382542e-06	2.647934e-08	3.912540e+01	1.738826e+03
1.260000e-06	5.476406e-06	2.665583e-08	3.980770e+01	1.750999e+03
1.270000e-06	5.568474e-06	2.682331e-08	4.047693e+01	1.762753e+03
1.280000e-06	5.658474e-06	2.698350e-08	4.113113e+01	1.773998e+03
1.290000e-06	5.746328e-06	2.713799e-08	4.176974e+01	1.784645e+03
1.300000e-06	5.832170e-06	2.728555e-08	4.239372e+01	1.794622e+03
1.310000e-06	5.916010e-06	2.742644e-08	4.300315e+01	1.803890e+03
1.320000e-06	5.997741e-06	2.756265e-08	4.359725e+01	1.812451e+03
1.330000e-06	6.077240e-06	2.769222e-08	4.417512e+01	1.820350e+03
1.340000e-06	6.154501e-06	2.781461e-08	4.473673e+01	1.827667e+03
1.350000e-06	6.229373e-06	2.792824e-08	4.528097e+01	1.834506e+03
1.360000e-06	6.301784e-06	2.803398e-08	4.580732e+01	1.840983e+03
1.370000e-06	6.371908e-06	2.813388e-08	4.631705e+01	1.847204e+03
1.380000e-06	6.439840e-06	2.822854e-08	4.681084e+01	1.853252e+03
1.390000e-06	6.505424e-06	2.831893e-08	4.728757e+01	1.859179e+03
1.400000e-06	6.568650e-06	2.840399e-08	4.774716e+01	1.864999e+03
1.410000e-06	6.629739e-06	2.848454e-08	4.819120e+01	1.870690e+03
1.420000e-06	6.688591e-06	2.856107e-08	4.861900e+01	1.876198e+03
1.430000e-06	6.744988e-06	2.863355e-08	4.902894e+01	1.881455e+03
1.440000e-06	6.798961e-06	2.870201e-08	4.942128e+01	1.886388e+03
1.450000e-06	6.850246e-06	2.876886e-08	4.979406e+01	1.890933e+03
1.460000e-06	6.898706e-06	2.883395e-08	5.014632e+01	1.895048e+03
1.470000e-06	6.944671e-06	2.889459e-08	5.048043e+01	1.898722e+03
1.480000e-06	6.988287e-06	2.894974e-08	5.079747e+01	1.901972e+03
1.490000e-06	7.029346e-06	2.899966e-08	5.109593e+01	1.904844e+03
1.500000e-06	7.067811e-06	2.904523e-08	5.137553e+01	1.907403e+03
1.510000e-06	7.103962e-06	2.908680e-08	5.163831e+01	1.909723e+03
1.520000e-06	7.137601e-06	2.912422e-08	5.188283e+01	1.911873e+03
1.530000e-06	7.168526e-06	2.915948e-08	5.210762e+01	1.913909e+03
1.540000e-06	7.196999e-06	2.919258e-08	5.231459e+01	1.915860e+03
1.550000e-06	7.222939e-06	2.922097e-08	5.250314e+01	1.917730e+03
1.560000e-06	7.246152e-06	2.924434e-08	5.267188e+01	1.919496e+03
1.570000e-06	7.266840e-06	2.926337e-08	5.282226e+01	1.921110e+03
1.580000e-06	7.285021e-06	2.927784e-08	5.295442e+01	1.922516e+03
1.590000e-06	7.300499e-06	2.928885e-08	5.306693e+01	1.923653e+03
1.600000e-06	7.313136e-06	2.929745e-08	5.315878e+01	1.924473e+03
1.610000e-06	7.322821e-06	2.930472e-08	5.322918e+01	1.924942e+03
1.620000e-06	7.329744e-06	2.931049e-08	5.327951e+01	1.925055e+03
1.630000e-06	7.334181e-06	2.931244e-08	5.331176e+01	1.924832e+03
1.640000e-06	7.336030e-06	2.931206e-08	5.332520e+01	1.924315e+03
1.650000e-06	7.335291e-06	2.930880e-08	5.331983e+01	1.923564e+03
1.660000e-06	7.332226e-06	2.929796e-08	5.329755e+01	1.922645e+03
1.670000e-06	7.326703e-06	2.928650e-08	5.325740e+01	1.921618e+03
1.680000e-06	7.318636e-06	2.927260e-08	5.319877e+01	1.920531e+03
1.690000e-06	7.308171e-06	2.925503e-08	5.312269e+01	1.919410e+03
1.700000e-06	7.295089e-06	2.923722e-08	5.302760e+01	1.918258e+03
1.710000e-06	7.279408e-06	2.921977e-08	5.291362e+01	1.917050e+03
1.720000e-06	7.261510e-06	2.919927e-08	5.278352e+01	1.915745e+03
1.730000e-06	7.241482e-06	2.913526e-08	5.263794e+01	1.914292e+03
1.740000e-06	7.218745e-06	2.906782e-08	5.247266e+01	1.912635e+03
1.750000e-06	7.192687e-06	2.906854e-08	5.228325e+01	1.910732e+03
1.760000e-06	7.163316e-06	2.905597e-08	5.206975e+01	1.908554e+03
1.770000e-06	7.131280e-06	2.900854e-08	5.183688e+01	1.906095e+03
1.780000e-06	7.097256e-06	2.900191e-08	5.158956e+01	1.903372e+03
1.790000e-06	7.061551e-06	2.899810e-08	5.133002e+01	1.900419e+03
1.800000e-06	7.024209e-06	2.888044e-08	5.105859e+01	1.897282e+03
1.810000e-06	6.984448e-06	2.887471e-08	5.076957e+01	1.894007e+03
1.820000e-06	6.942051e-06	2.887995e-08	5.046139e+01	1.890634e+03
1.830000e-06	6.897399e-06	2.879863e-08	5.013682e+01	1.887182e+03
1.840000e-06	6.850182e-06	2.880501e-08	4.979359e+01	1.883646e+03
1.850000e-06	6.800385e-06	2.869648e-08	4.943162e+01	1.879995e+03
1.860000e-06	6.747977e-06	2.863377e-08	4.905068e+01	1.876175e+03
1.870000e-06	6.692791e-06	2.857870e-08	4.864953e+01	1.872114e+03
1.880000e-06	6.635162e-06	2.848581e-08	4.823063e+01	1.867734e+03
1.890000e-06	6.575016e-06	2.845915e-08	4.779343e+01	1.862961e+03
1.900000e-06	6.512268e-06	2.833940e-08	4.733732e+01	1.857739e+03
1.910000e-06	6.447101e-06	2.827219e-08	4.686363e+01	1.852039e+03
1.920000e-06	6.379527e-06	2.816932e-08	4.637243e+01	1.845861e+03
1.930000e-06	6.309563e-06	2.805032e-08	4.586386e+01	1.839238e+03
1.940000e-06	6.237159e-06	2.799136e-08	4.533756e+01	1.832228e+03
1.950000e-06	6.162343e-06	2.786472e-08	4.479373e+01	1.824905e+03
1.960000e-06	6.084929e-06	2.777553e-08	4.423101e+01	1.817347e+03
1.970000e-06	6.005057e-06	2.764736e-08	4.365043e+01	1.809621e+03
1.980000e-06	5.923116e-06	2.753366e-08	4.305480e+01	1.801772e+03
1.990000e-06	5.839089e-06	2.741548e-08	4.244402e+01	1.793813e+03
2.000000e-06	5.752908e-06	2.727749e-08	4.181757e+01	1.785718e+03
2.010000e-06	5.664587e-06	2.715785e-08	4.117557e+01	1.777428e+03
2.020000e-06	5.574321e-06	2.700462e-08	4.051943e+01	1.768859e+03
2.030000e-06	5.482159e-06	2.686652e-08	3.984951e+01	1.759907e+03
2.040000e-06	5.388021e-06	2.670678e-08	3.916523e+01	1.750472e+03
2.050000e-06	5.291935e-06	2.655706e-08	3.846679e+01	1.740467e+03
2.060000e-06	5.194065e-06	2.639500e-08	3.775537e+01	1.729831e+03
2.070000e-06	5.094477e-06	2.622818e-08	3.703147e+01	1.718541e+03
2.080000e-06	4.993111e-06	2.605881e-08	3.629465e+01	1.706610e+03
2.090000e-06	4.889828e-06	2.587437e-08	3.554389e+01	1.694088e+03
2.100000e-06	4.784736e-06	2.568691e-08	3.477998e+01	1.681045e+03
2.110000e-06	4.678135e-06	2.548639e-08	3.400511e+01	1.667561e+03
2.120000e-06	4.570010e-06	2.528346e-08	3.321915e+01	1.653708e+03
2.130000e-06	4.460283e-06	2.506205e-08	3.242155e+01	1.639532e+03
2.140000e-06	4.348798e-06	2.483984e-08	3.161117e+01	1.625039e+03
2.150000e-06	4.235603e-06	2.460986e-08	3.078836e+01	1.610190e+03
2.160000e-06	4.120760e-06	2.437487e-08	2.995358e+01	1.594901e+03
2.170000e-06	4.004230e-06	2.412805e-08	2.910653e+01	1.579049e+03
2.180000e-06	3.886117e-06	2.386812e-08	2.824797e+01	1.562483e+03
2.190000e-06	3.766380e-06	2.359520e-08	2.737761e+01	1.545050e+03
2.200000e-06	3.645175e-06	2.331038e-08	2.649658e+01	1.526607e+03
2.210000e-06	3.522636e-06	2.301262e-08	2.560584e+01	1.507044e+03
2.220000e-06	3.398757e-06	2.269863e-08	2.470538e+01	1.486294e+03
2.230000e-06	3.273703e-06	2.237268e-08	2.379637e+01	1.464339e+03
2.240000e-06	3.147524e-06	2.202775e-08	2.287918e+01	1.441204e+03
2.250000e-06	3.020043e-06	2.166987e-08	2.195252e+01	1.416948e+03
2.260000e-06	2.891304e-06	2.129652e-08	2.101673e+01	1.391638e+03
2.270000e-06	2.761608e-06	2.090865e-08	2.007398e+01	1.365326e+03
2.280000e-06	2.630995e-06	2.050033e-08	1.912456e+01	1.338020e+03
2.290000e-06	2.499414e-06	2.006925e-08	1.816810e+01	1.309664e+03
2.300000e-06	2.367019e-06	1.961166e-08	1.720573e+01	1.280119e+03
2.310000e-06	2.233890e-06	1.912364e-08	1.623802e+01	1.249159e+03
2.320000e-06	2.100049e-06	1.860525e-08	1.526514e+01	1.216477e+03
2.330000e-06	1.965483e-06	1.805547e-08	1.428699e+01	1.181704e+03
2.340000e-06	1.830132e-06	1.747639e-08	1.330313e+01	1.144441e+03
2.350000e-06	1.694028e-06	1.686222e-08	1.231379e+01	1.104293e+03
2.360000e-06	1.557302e-06	1.620397e-08	1.131994e+01	1.060908e+03
2.370000e-06	1.420140e-06	1.549928e-08	1.032292e+01	1.014016e+03
2.380000e-06	1.282640e-06	1.474861e-08	9.323442e+00	9.634559e+02
2.390000e-06	1.144744e-06	1.394667e-08	8.321081e+00	9.091901e+02
2.400000e-06	1.006354e-06	1.308744e-08	7.315128e+00	8.513084e+02
2.410000e-06	8.675704e-07	1.217114e-08	6.306321e+00	7.900136e+02
2.420000e-06	7.285066e-07	1.119709e-08	5.295474e+00	7.255946e+02
2.430000e-06	5.891425e-07	1.016586e-08	4.282444e+00	6.583898e+02
2.440000e-06	4.495039e-07	9.083419e-09	3.267419e+00	5.887459e+02
2.450000e-06	3.096958e-07	7.958748e-09	2.251162e+00	5.169775e+02
2.460000e-06	1.697837e-07	6.800943e-09	1.234148e+00	4.433349e+02
2.470000e-06	2.977589e-08	5.617841e-09	2.164393e-01	3.679837e+02
2.480000e-06	-1.102769e-07	4.421060e-09	-8.015965e-01	2.910005e+02
2.490000e-06	-2.502549e-07	3.218325e-09	-1.819089e+00	2.123860e+02
2.500000e-06	-3.901424e-07	2.008514e-09	-2.835923e+00	1.320933e+02
2.510000e-06	-5.299479e-07	7.873070e-10	-3.852162e+00	5.006922e+01
2.520000e-06	-6.695651e-07	-4.534640e-10	-4.867032e+00	-3.369813e+01
2.530000e-06	-8.089521e-07	-1.720363e-09	-5.880229e+00	-1.191313e+02
2.540000e-06	-9.480656e-07	-3.018515e-09	-6.891437e+00	-2.060227e+02
2.550000e-06	-1.086811e-06	-4.355121e-09	-7.899967e+00	-2.940070e+02
2.560000e-06	-1.225130e-06	-5.724694e-09	-8.905402e+00	-3.825512e+02
2.570000e-06	-1.363007e-06	-7.111472e-09	-9.907622e+00	-4.709658e+02
2.580000e-06	-1.500384e-06	-8.493983e-09	-1.090621e+01	-5.584362e+02
2.590000e-06	-1.637231e-06	-9.847747e-09	-1.190094e+01	-6.440712e+02
2.600000e-06	-1.773443e-06	-1.114774e-08	-1.289106e+01	-7.269644e+02
2.610000e-06	-1.908874e-06	-1.237171e-08	-1.387550e+01	-8.062614e+02
2.620000e-06	-2.043572e-06	-1.350667e-08	-1.485461e+01	-8.812238e+02
2.630000e-06	-2.177470e-06	-1.455133e-08	-1.582791e+01	-9.512852e+02
2.640000e-06	-2.310531e-06	-1.551023e-08	-1.679512e+01	-1.016089e+03
2.650000e-06	-2.442759e-06	-1.638975e-08	-1.775628e+01	-1.075511e+03
2.660000e-06	-2.574010e-06	-1.719742e-08	-1.871034e+01	-1.129648e+03
2.670000e-06	-2.704325e-06	-1.794118e-08	-1.965759e+01	-1.178805e+03
2.680000e-06	-2.833753e-06	-1.863006e-08	-2.059839e+01	-1.223443e+03
2.690000e-06	-2.962224e-06	-1.926985e-08	-2.153224e+01	-1.264129e+03
2.700000e-06	-3.089575e-06	-1.986627e-08	-2.245795e+01	-1.301474e+03
2.710000e-06	-3.215724e-06	-2.042262e-08	-2.337492e+01	-1.336077e+03
2.720000e-06	-3.340752e-06	-2.094049e-08	-2.428374e+01	-1.368472e+03
2.730000e-06	-3.464537e-06	-2.142061e-08	-2.518353e+01	-1.399092e+03
2.740000e-06	-3.587014e-06	-2.186799e-08	-2.607381e+01	-1.428249e+03
2.750000e-06	-3.708229e-06	-2.228817e-08	-2.695492e+01	-1.456130e+03
2.760000e-06	-3.828165e-06	-2.268539e-08	-2.782672e+01	-1.482810e+03
2.770000e-06	-3.946649e-06	-2.306339e-08	-2.868798e+01	-1.508281e+03
2.780000e-06	-4.063577e-06	-2.341873e-08	-2.953792e+01	-1.532479e+03
2.790000e-06	-4.178914e-06	-2.375216e-08	-3.037629e+01	-1.555328e+03
2.800000e-06	-4.292547e-06	-2.406775e-08	-3.120228e+01	-1.576765e+03
2.810000e-06	-4.404387e-06	-2.436825e-08	-3.201525e+01	-1.596770e+03
2.820000e-06	-4.514568e-06	-2.465354e-08	-3.281615e+01	-1.615379e+03
2.830000e-06	-4.623312e-06	-2.492386e-08	-3.360660e+01	-1.632687e+03
2.840000e-06	-4.730597e-06	-2.518195e-08	-3.438645e+01	-1.648841e+03
2.850000e-06	-4.836276e-06	-2.542717e-08	-3.515463e+01	-1.664019e+03
2.860000e-06	-4.940176e-06	-2.565945e-08	-3.590987e+01	-1.678413e+03
2.870000e-06	-5.042151e-06	-2.588124e-08	-3.665112e+01	-1.692201e+03
2.880000e-06	-5.142255e-06	-2.609388e-08	-3.737877e+01	-1.705529e+03
2.890000e-06	-5.240560e-06	-2.629567e-08	-3.809334e+01	-1.718494e+03
2.900000e-06	-5.337025e-06	-2.648632e-08	-3.879454e+01	-1.731135e+03
2.910000e-06	-5.431528e-06	-2.666713e-08	-3.948148e+01	-1.743442e+03
2.920000e-06	-5.524064e-06	-2.683898e-08	-4.015412e+01	-1.755356e+03
2.930000e-06	-5.614719e-06	-2.700179e-08	-4.081309e+01	-1.766795e+03
2.940000e-06	-5.703352e-06	-2.715758e-08	-4.145735e+01	-1.777667e+03
