# Temperatura_=_84.74
# Concentracion g/m^3_=_28370.0
# C_Vs_to_Am_M_A/Vsm_=_65563218390.804596
# pendiente_HvsI_1/m_=_3716.3
# ordenada_HvsI_A/m_=_1297.0
# frecuencia_Hz_=_302369.8373919714

Tiempo_(s)	Campo_(V.s)	Magnetizacion_(V.s)	Campo_(kA/m)	Magnetizacion_(A/m)
0.000000e+00	-7.338451e-06	-2.928063e-08	-5.318788e+01	-1.917155e+03
1.000000e-08	-7.334329e-06	-2.926955e-08	-5.315801e+01	-1.916215e+03
2.000000e-08	-7.327891e-06	-2.925511e-08	-5.311135e+01	-1.915192e+03
3.000000e-08	-7.319009e-06	-2.924200e-08	-5.304697e+01	-1.914124e+03
4.000000e-08	-7.307493e-06	-2.922667e-08	-5.296351e+01	-1.913028e+03
5.000000e-08	-7.293173e-06	-2.920544e-08	-5.285972e+01	-1.911893e+03
6.000000e-08	-7.276162e-06	-2.917976e-08	-5.273643e+01	-1.910685e+03
7.000000e-08	-7.257064e-06	-2.915289e-08	-5.259801e+01	-1.909356e+03
8.000000e-08	-7.235928e-06	-2.914808e-08	-5.244482e+01	-1.907850e+03
9.000000e-08	-7.212100e-06	-2.915739e-08	-5.227211e+01	-1.906115e+03
1.000000e-07	-7.185258e-06	-2.909489e-08	-5.207757e+01	-1.904112e+03
1.100000e-07	-7.155685e-06	-2.902106e-08	-5.186323e+01	-1.901822e+03
1.200000e-07	-7.123603e-06	-2.898269e-08	-5.163070e+01	-1.899252e+03
1.300000e-07	-7.089038e-06	-2.894379e-08	-5.138018e+01	-1.896428e+03
1.400000e-07	-7.052343e-06	-2.887619e-08	-5.111423e+01	-1.893394e+03
1.500000e-07	-7.013864e-06	-2.881853e-08	-5.083533e+01	-1.890203e+03
1.600000e-07	-6.973213e-06	-2.882715e-08	-5.054070e+01	-1.886902e+03
1.700000e-07	-6.930000e-06	-2.870776e-08	-5.022750e+01	-1.883527e+03
1.800000e-07	-6.884403e-06	-2.863288e-08	-4.989702e+01	-1.880089e+03
1.900000e-07	-6.836229e-06	-2.862702e-08	-4.954787e+01	-1.876573e+03
2.000000e-07	-6.785189e-06	-2.854975e-08	-4.917793e+01	-1.872937e+03
2.100000e-07	-6.731545e-06	-2.852665e-08	-4.878913e+01	-1.869115e+03
2.200000e-07	-6.675347e-06	-2.845989e-08	-4.838182e+01	-1.865028e+03
2.300000e-07	-6.616606e-06	-2.836762e-08	-4.795607e+01	-1.860592e+03
2.400000e-07	-6.555442e-06	-2.826710e-08	-4.751277e+01	-1.855738e+03
2.500000e-07	-6.491840e-06	-2.816380e-08	-4.705179e+01	-1.850414e+03
2.600000e-07	-6.425725e-06	-2.807911e-08	-4.657260e+01	-1.844601e+03
2.700000e-07	-6.357181e-06	-2.798268e-08	-4.607580e+01	-1.838313e+03
2.800000e-07	-6.286328e-06	-2.790049e-08	-4.556228e+01	-1.831595e+03
2.900000e-07	-6.213032e-06	-2.779151e-08	-4.503104e+01	-1.824515e+03
3.000000e-07	-6.137173e-06	-2.767580e-08	-4.448122e+01	-1.817156e+03
3.100000e-07	-6.058684e-06	-2.757727e-08	-4.391235e+01	-1.809597e+03
3.200000e-07	-5.977766e-06	-2.746432e-08	-4.332587e+01	-1.801903e+03
3.300000e-07	-5.894765e-06	-2.736227e-08	-4.272429e+01	-1.794110e+03
3.400000e-07	-5.809850e-06	-2.723497e-08	-4.210884e+01	-1.786216e+03
3.500000e-07	-5.723071e-06	-2.710708e-08	-4.147988e+01	-1.778184e+03
3.600000e-07	-5.634271e-06	-2.696939e-08	-4.083627e+01	-1.769939e+03
3.700000e-07	-5.543322e-06	-2.682249e-08	-4.017709e+01	-1.761383e+03
3.800000e-07	-5.450349e-06	-2.668305e-08	-3.950323e+01	-1.752407e+03
3.900000e-07	-5.355527e-06	-2.653273e-08	-3.881598e+01	-1.742908e+03
4.000000e-07	-5.258838e-06	-2.637869e-08	-3.811519e+01	-1.732802e+03
4.100000e-07	-5.160241e-06	-2.620632e-08	-3.740058e+01	-1.722037e+03
4.200000e-07	-5.059804e-06	-2.604019e-08	-3.667263e+01	-1.710603e+03
4.300000e-07	-4.957589e-06	-2.585910e-08	-3.593179e+01	-1.698528e+03
4.400000e-07	-4.853622e-06	-2.566834e-08	-3.517825e+01	-1.685873e+03
4.500000e-07	-4.747966e-06	-2.547450e-08	-3.441248e+01	-1.672719e+03
4.600000e-07	-4.640559e-06	-2.527712e-08	-3.363401e+01	-1.659152e+03
4.700000e-07	-4.531461e-06	-2.507193e-08	-3.284328e+01	-1.645241e+03
4.800000e-07	-4.420828e-06	-2.485597e-08	-3.204143e+01	-1.631025e+03
4.900000e-07	-4.308536e-06	-2.463825e-08	-3.122756e+01	-1.616500e+03
5.000000e-07	-4.194517e-06	-2.440224e-08	-3.040117e+01	-1.601610e+03
5.100000e-07	-4.078762e-06	-2.415543e-08	-2.956220e+01	-1.586257e+03
5.200000e-07	-3.961381e-06	-2.389739e-08	-2.871144e+01	-1.570301e+03
5.300000e-07	-3.842585e-06	-2.363109e-08	-2.785043e+01	-1.553585e+03
5.400000e-07	-3.722335e-06	-2.335207e-08	-2.697887e+01	-1.535950e+03
5.500000e-07	-3.600629e-06	-2.305862e-08	-2.609677e+01	-1.517255e+03
5.600000e-07	-3.477587e-06	-2.275296e-08	-2.520498e+01	-1.497399e+03
5.700000e-07	-3.353212e-06	-2.243455e-08	-2.430353e+01	-1.476326e+03
5.800000e-07	-3.227623e-06	-2.210583e-08	-2.339328e+01	-1.454033e+03
5.900000e-07	-3.100908e-06	-2.176404e-08	-2.247487e+01	-1.430557e+03
6.000000e-07	-2.973067e-06	-2.140823e-08	-2.154830e+01	-1.405965e+03
6.100000e-07	-2.844085e-06	-2.102948e-08	-2.061346e+01	-1.380325e+03
6.200000e-07	-2.714032e-06	-2.062614e-08	-1.967086e+01	-1.353682e+03
6.300000e-07	-2.583060e-06	-2.019789e-08	-1.872160e+01	-1.326031e+03
6.400000e-07	-2.451128e-06	-1.974866e-08	-1.776537e+01	-1.297292e+03
6.500000e-07	-2.318218e-06	-1.927907e-08	-1.680206e+01	-1.267300e+03
6.600000e-07	-2.184536e-06	-1.878396e-08	-1.583316e+01	-1.235800e+03
6.700000e-07	-2.050194e-06	-1.825760e-08	-1.485947e+01	-1.202461e+03
6.800000e-07	-1.915124e-06	-1.769717e-08	-1.388050e+01	-1.166897e+03
6.900000e-07	-1.779346e-06	-1.710500e-08	-1.289641e+01	-1.128702e+03
7.000000e-07	-1.642944e-06	-1.647377e-08	-1.190779e+01	-1.087484e+03
7.100000e-07	-1.505842e-06	-1.580086e-08	-1.091410e+01	-1.042911e+03
7.200000e-07	-1.368104e-06	-1.508218e-08	-9.915794e+00	-9.947426e+02
7.300000e-07	-1.229886e-06	-1.431057e-08	-8.914010e+00	-9.428561e+02
7.400000e-07	-1.091250e-06	-1.348213e-08	-7.909198e+00	-8.872581e+02
7.500000e-07	-9.522513e-07	-1.259683e-08	-6.901761e+00	-8.280819e+02
7.600000e-07	-8.129481e-07	-1.165715e-08	-5.892115e+00	-7.655690e+02
7.700000e-07	-6.733572e-07	-1.066127e-08	-4.880382e+00	-7.000378e+02
7.800000e-07	-5.334698e-07	-9.611878e-09	-3.866502e+00	-6.318439e+02
7.900000e-07	-3.934087e-07	-8.514850e-09	-2.851362e+00	-5.613376e+02
8.000000e-07	-2.532502e-07	-7.380643e-09	-1.835516e+00	-4.888246e+02
8.100000e-07	-1.129352e-07	-6.217368e-09	-8.185360e-01	-4.145359e+02
8.200000e-07	2.758889e-08	-5.033228e-09	1.999598e-01	-3.386121e+02
8.300000e-07	1.681872e-07	-3.837030e-09	1.218993e+00	-2.611041e+02
8.400000e-07	3.086764e-07	-2.634335e-09	2.237236e+00	-1.819911e+02
8.500000e-07	4.489848e-07	-1.429246e-09	3.254168e+00	-1.012144e+02
8.600000e-07	5.891333e-07	-2.150405e-10	4.269941e+00	-1.872203e+01
8.700000e-07	7.291130e-07	1.021442e-09	5.284491e+00	6.548240e+01
8.800000e-07	8.688142e-07	2.292298e-09	6.297023e+00	1.512920e+02
8.900000e-07	1.008188e-06	3.600835e-09	7.307180e+00	2.384585e+02
9.000000e-07	1.147260e-06	4.945208e-09	8.315155e+00	3.265693e+02
9.100000e-07	1.286001e-06	6.317265e-09	9.320725e+00	4.150439e+02
9.200000e-07	1.424337e-06	7.697273e-09	1.032336e+01	5.031510e+02
9.300000e-07	1.562028e-06	9.061287e-09	1.132133e+01	5.900460e+02
9.400000e-07	1.698981e-06	1.038619e-08	1.231393e+01	6.748249e+02
9.500000e-07	1.835247e-06	1.164774e-08	1.330157e+01	7.565885e+02
9.600000e-07	1.970697e-06	1.282696e-08	1.428329e+01	8.345099e+02
9.700000e-07	2.105364e-06	1.391730e-08	1.525933e+01	9.078976e+02
9.800000e-07	2.239385e-06	1.491960e-08	1.623069e+01	9.762464e+02
9.900000e-07	2.372679e-06	1.584003e-08	1.719678e+01	1.039271e+03
1.000000e-06	2.505019e-06	1.668446e-08	1.815597e+01	1.096917e+03
1.010000e-06	2.636324e-06	1.746089e-08	1.910764e+01	1.149354e+03
1.020000e-06	2.766696e-06	1.817801e-08	2.005256e+01	1.196939e+03
1.030000e-06	2.896110e-06	1.884413e-08	2.099053e+01	1.240175e+03
1.040000e-06	3.024347e-06	1.946240e-08	2.191997e+01	1.279651e+03
1.050000e-06	3.151390e-06	2.003657e-08	2.284075e+01	1.315981e+03
1.060000e-06	3.277368e-06	2.057036e-08	2.375383e+01	1.349747e+03
1.070000e-06	3.402240e-06	2.106836e-08	2.465887e+01	1.381454e+03
1.080000e-06	3.525883e-06	2.153407e-08	2.555502e+01	1.411497e+03
1.090000e-06	3.648315e-06	2.197100e-08	2.644239e+01	1.440147e+03
1.100000e-06	3.769450e-06	2.238189e-08	2.732036e+01	1.467552e+03
1.110000e-06	3.889123e-06	2.276914e-08	2.818772e+01	1.493758e+03
1.120000e-06	4.007390e-06	2.313494e-08	2.904490e+01	1.518733e+03
1.130000e-06	4.124263e-06	2.348020e-08	2.989198e+01	1.542408e+03
1.140000e-06	4.239627e-06	2.380652e-08	3.072812e+01	1.564707e+03
1.150000e-06	4.353293e-06	2.411457e-08	3.155195e+01	1.585582e+03
1.160000e-06	4.465200e-06	2.440658e-08	3.236304e+01	1.605031e+03
1.170000e-06	4.575546e-06	2.468210e-08	3.316281e+01	1.623112e+03
1.180000e-06	4.684380e-06	2.494268e-08	3.395161e+01	1.639939e+03
1.190000e-06	4.791678e-06	2.519096e-08	3.472929e+01	1.655674e+03
1.200000e-06	4.897348e-06	2.543037e-08	3.549517e+01	1.670501e+03
1.210000e-06	5.001111e-06	2.565752e-08	3.624723e+01	1.684612e+03
1.220000e-06	5.102971e-06	2.587034e-08	3.698550e+01	1.698175e+03
1.230000e-06	5.203034e-06	2.607195e-08	3.771074e+01	1.711320e+03
1.240000e-06	5.301165e-06	2.626452e-08	3.842197e+01	1.724123e+03
1.250000e-06	5.397260e-06	2.644812e-08	3.911845e+01	1.736607e+03
1.260000e-06	5.491429e-06	2.662344e-08	3.980097e+01	1.748742e+03
1.270000e-06	5.583717e-06	2.679030e-08	4.046987e+01	1.760459e+03
1.280000e-06	5.673966e-06	2.695099e-08	4.112397e+01	1.771669e+03
1.290000e-06	5.762105e-06	2.710570e-08	4.176279e+01	1.782281e+03
1.300000e-06	5.848158e-06	2.725324e-08	4.238649e+01	1.792226e+03
1.310000e-06	5.932190e-06	2.739491e-08	4.299554e+01	1.801462e+03
1.320000e-06	6.014137e-06	2.753118e-08	4.358948e+01	1.809992e+03
1.330000e-06	6.093853e-06	2.766059e-08	4.416724e+01	1.817860e+03
1.340000e-06	6.171318e-06	2.778088e-08	4.472870e+01	1.825146e+03
1.350000e-06	6.246460e-06	2.789183e-08	4.527331e+01	1.831955e+03
1.360000e-06	6.319125e-06	2.799567e-08	4.579998e+01	1.838401e+03
1.370000e-06	6.389430e-06	2.809348e-08	4.630954e+01	1.844588e+03
1.380000e-06	6.457580e-06	2.818618e-08	4.680348e+01	1.850602e+03
1.390000e-06	6.523440e-06	2.827718e-08	4.728082e+01	1.856491e+03
1.400000e-06	6.586950e-06	2.836423e-08	4.774113e+01	1.862271e+03
1.410000e-06	6.648243e-06	2.844417e-08	4.818538e+01	1.867918e+03
1.420000e-06	6.707302e-06	2.851840e-08	4.861342e+01	1.873381e+03
1.430000e-06	6.763978e-06	2.858955e-08	4.902420e+01	1.878591e+03
1.440000e-06	6.818151e-06	2.865804e-08	4.941684e+01	1.883476e+03
1.450000e-06	6.869607e-06	2.872412e-08	4.978978e+01	1.887977e+03
1.460000e-06	6.918256e-06	2.878738e-08	5.014238e+01	1.892053e+03
1.470000e-06	6.964358e-06	2.884704e-08	5.047653e+01	1.895695e+03
1.480000e-06	7.008087e-06	2.890302e-08	5.079347e+01	1.898922e+03
1.490000e-06	7.049252e-06	2.895342e-08	5.109182e+01	1.901783e+03
1.500000e-06	7.087823e-06	2.899901e-08	5.137138e+01	1.904342e+03
1.510000e-06	7.124042e-06	2.904095e-08	5.163388e+01	1.906675e+03
1.520000e-06	7.157746e-06	2.907779e-08	5.187817e+01	1.908848e+03
1.530000e-06	7.188830e-06	2.911360e-08	5.210346e+01	1.910916e+03
1.540000e-06	7.217480e-06	2.914530e-08	5.231111e+01	1.912906e+03
1.550000e-06	7.243539e-06	2.917118e-08	5.249998e+01	1.914818e+03
1.560000e-06	7.266807e-06	2.919563e-08	5.266863e+01	1.916624e+03
1.570000e-06	7.287575e-06	2.921761e-08	5.281915e+01	1.918278e+03
1.580000e-06	7.305927e-06	2.923601e-08	5.295216e+01	1.919718e+03
1.590000e-06	7.321525e-06	2.924972e-08	5.306521e+01	1.920884e+03
1.600000e-06	7.334266e-06	2.926011e-08	5.315755e+01	1.921725e+03
1.610000e-06	7.344094e-06	2.926864e-08	5.322878e+01	1.922212e+03
1.620000e-06	7.351091e-06	2.927314e-08	5.327950e+01	1.922339e+03
1.630000e-06	7.355529e-06	2.927253e-08	5.331167e+01	1.922129e+03
1.640000e-06	7.357396e-06	2.926958e-08	5.332520e+01	1.921626e+03
1.650000e-06	7.356653e-06	2.926642e-08	5.331981e+01	1.920892e+03
1.660000e-06	7.353516e-06	2.925754e-08	5.329707e+01	1.919994e+03
1.670000e-06	7.347916e-06	2.924858e-08	5.325649e+01	1.918993e+03
1.680000e-06	7.339741e-06	2.923853e-08	5.319723e+01	1.917937e+03
1.690000e-06	7.329149e-06	2.922432e-08	5.312047e+01	1.916849e+03
1.700000e-06	7.316001e-06	2.920640e-08	5.302517e+01	1.915729e+03
1.710000e-06	7.300308e-06	2.918623e-08	5.291143e+01	1.914551e+03
1.720000e-06	7.282454e-06	2.916265e-08	5.278203e+01	1.913271e+03
1.730000e-06	7.262521e-06	2.909362e-08	5.263756e+01	1.911833e+03
1.740000e-06	7.239837e-06	2.902912e-08	5.247315e+01	1.910184e+03
1.750000e-06	7.213725e-06	2.903884e-08	5.228390e+01	1.908278e+03
1.760000e-06	7.184281e-06	2.902526e-08	5.207049e+01	1.906090e+03
1.770000e-06	7.152176e-06	2.897236e-08	5.183780e+01	1.903616e+03
1.780000e-06	7.118050e-06	2.896290e-08	5.159045e+01	1.900877e+03
1.790000e-06	7.082249e-06	2.896419e-08	5.133098e+01	1.897911e+03
1.800000e-06	7.044801e-06	2.884690e-08	5.105956e+01	1.894769e+03
1.810000e-06	7.004958e-06	2.885091e-08	5.077078e+01	1.891501e+03
1.820000e-06	6.962455e-06	2.885519e-08	5.046273e+01	1.888148e+03
1.830000e-06	6.917702e-06	2.876577e-08	5.013837e+01	1.884731e+03
1.840000e-06	6.870387e-06	2.876553e-08	4.979544e+01	1.881245e+03
1.850000e-06	6.820442e-06	2.862644e-08	4.943344e+01	1.877657e+03
1.860000e-06	6.767863e-06	2.857192e-08	4.905236e+01	1.873909e+03
1.870000e-06	6.712507e-06	2.852871e-08	4.865115e+01	1.869924e+03
1.880000e-06	6.654743e-06	2.844126e-08	4.823249e+01	1.865621e+03
1.890000e-06	6.594453e-06	2.843745e-08	4.779551e+01	1.860921e+03
1.900000e-06	6.531543e-06	2.831483e-08	4.733955e+01	1.855768e+03
1.910000e-06	6.466197e-06	2.823736e-08	4.686593e+01	1.850128e+03
1.920000e-06	6.398428e-06	2.812123e-08	4.637475e+01	1.844005e+03
1.930000e-06	6.328241e-06	2.800997e-08	4.586605e+01	1.837432e+03
1.940000e-06	6.255627e-06	2.796328e-08	4.533976e+01	1.830470e+03
1.950000e-06	6.180641e-06	2.783958e-08	4.479627e+01	1.823200e+03
1.960000e-06	6.103108e-06	2.775457e-08	4.423432e+01	1.815703e+03
1.970000e-06	6.023073e-06	2.761060e-08	4.365425e+01	1.808050e+03
1.980000e-06	5.940889e-06	2.750121e-08	4.305859e+01	1.800289e+03
1.990000e-06	5.856627e-06	2.738628e-08	4.244787e+01	1.792432e+03
2.000000e-06	5.770236e-06	2.725406e-08	4.182172e+01	1.784454e+03
2.010000e-06	5.681691e-06	2.714488e-08	4.117996e+01	1.776294e+03
2.020000e-06	5.591196e-06	2.698974e-08	4.052407e+01	1.767860e+03
2.030000e-06	5.498767e-06	2.684761e-08	3.985416e+01	1.759046e+03
2.040000e-06	5.404280e-06	2.668200e-08	3.916934e+01	1.749743e+03
2.050000e-06	5.307895e-06	2.653963e-08	3.847075e+01	1.739860e+03
2.060000e-06	5.209802e-06	2.638030e-08	3.775979e+01	1.729332e+03
2.070000e-06	5.109998e-06	2.621936e-08	3.703642e+01	1.718135e+03
2.080000e-06	5.008345e-06	2.605499e-08	3.629966e+01	1.706281e+03
2.090000e-06	4.904742e-06	2.587421e-08	3.554876e+01	1.693823e+03
2.100000e-06	4.799359e-06	2.568670e-08	3.478497e+01	1.680836e+03
2.110000e-06	4.692452e-06	2.548432e-08	3.401012e+01	1.667406e+03
2.120000e-06	4.583982e-06	2.528288e-08	3.322395e+01	1.653610e+03
2.130000e-06	4.473868e-06	2.505957e-08	3.242586e+01	1.639500e+03
2.140000e-06	4.362052e-06	2.483646e-08	3.161544e+01	1.625087e+03
2.150000e-06	4.248561e-06	2.460587e-08	3.079287e+01	1.610336e+03
2.160000e-06	4.133383e-06	2.437628e-08	2.995808e+01	1.595161e+03
2.170000e-06	4.016495e-06	2.413299e-08	2.911089e+01	1.579436e+03
2.180000e-06	3.897992e-06	2.387676e-08	2.825201e+01	1.563009e+03
2.190000e-06	3.777892e-06	2.360744e-08	2.738154e+01	1.545718e+03
2.200000e-06	3.656360e-06	2.332573e-08	2.650070e+01	1.527414e+03
2.210000e-06	3.533513e-06	2.303069e-08	2.561032e+01	1.507980e+03
2.220000e-06	3.409362e-06	2.271901e-08	2.471049e+01	1.487344e+03
2.230000e-06	3.283964e-06	2.239244e-08	2.380163e+01	1.465482e+03
2.240000e-06	3.157356e-06	2.204498e-08	2.288400e+01	1.442421e+03
2.250000e-06	3.029568e-06	2.168646e-08	2.195781e+01	1.418217e+03
2.260000e-06	2.900593e-06	2.131358e-08	2.102303e+01	1.392943e+03
2.270000e-06	2.770570e-06	2.092827e-08	2.008064e+01	1.366655e+03
2.280000e-06	2.639640e-06	2.052247e-08	1.913168e+01	1.339367e+03
2.290000e-06	2.507784e-06	2.009290e-08	1.817600e+01	1.311029e+03
2.300000e-06	2.375018e-06	1.963358e-08	1.721374e+01	1.281508e+03
2.310000e-06	2.241370e-06	1.914608e-08	1.624508e+01	1.250579e+03
2.320000e-06	2.106926e-06	1.863163e-08	1.527065e+01	1.217938e+03
2.330000e-06	1.971834e-06	1.808545e-08	1.429153e+01	1.183214e+03
2.340000e-06	1.836098e-06	1.750597e-08	1.330774e+01	1.146004e+03
2.350000e-06	1.699662e-06	1.688892e-08	1.231887e+01	1.105905e+03
2.360000e-06	1.562583e-06	1.622915e-08	1.132534e+01	1.062562e+03
2.370000e-06	1.424973e-06	1.552463e-08	1.032797e+01	1.015697e+03
2.380000e-06	1.286952e-06	1.477553e-08	9.327619e+00	9.651435e+02
2.390000e-06	1.148579e-06	1.397521e-08	8.324710e+00	9.108606e+02
2.400000e-06	1.009845e-06	1.311620e-08	7.319192e+00	8.529382e+02
2.410000e-06	8.707373e-07	1.219785e-08	6.310961e+00	7.915822e+02
2.420000e-06	7.313141e-07	1.122045e-08	5.300445e+00	7.270878e+02
2.430000e-06	5.915721e-07	1.018735e-08	4.287617e+00	6.598020e+02
2.440000e-06	4.515391e-07	9.105050e-09	3.272681e+00	5.900819e+02
2.450000e-06	3.113404e-07	7.980034e-09	2.256544e+00	5.182533e+02
2.460000e-06	1.710290e-07	6.821642e-09	1.239590e+00	4.445763e+02
2.470000e-06	3.062025e-08	5.640373e-09	2.219306e-01	3.692248e+02
2.480000e-06	-1.098604e-07	4.447164e-09	-7.962504e-01	2.922803e+02
2.490000e-06	-2.503339e-07	3.246852e-09	-1.814379e+00	2.137447e+02
2.500000e-06	-3.907212e-07	2.037394e-09	-2.831883e+00	1.335681e+02
2.510000e-06	-5.309186e-07	8.152836e-10	-3.848011e+00	5.169062e+01
2.520000e-06	-6.708790e-07	-4.236366e-10	-4.862421e+00	-3.190979e+01
2.530000e-06	-8.106175e-07	-1.686724e-09	-5.875223e+00	-1.171680e+02
2.540000e-06	-9.500709e-07	-2.982871e-09	-6.885958e+00	-2.038899e+02
2.550000e-06	-1.089136e-06	-4.315621e-09	-7.893882e+00	-2.917230e+02
2.560000e-06	-1.227781e-06	-5.680114e-09	-8.898752e+00	-3.801459e+02
2.570000e-06	-1.366034e-06	-7.065290e-09	-9.900788e+00	-4.684777e+02
2.580000e-06	-1.503843e-06	-8.449938e-09	-1.089961e+01	-5.559090e+02
2.590000e-06	-1.641029e-06	-9.805567e-09	-1.189391e+01	-6.415500e+02
2.600000e-06	-1.777460e-06	-1.110606e-08	-1.288274e+01	-7.244920e+02
2.610000e-06	-1.913172e-06	-1.233147e-08	-1.386636e+01	-8.038748e+02
2.620000e-06	-2.048236e-06	-1.346834e-08	-1.484527e+01	-8.789517e+02
2.630000e-06	-2.182580e-06	-1.451608e-08	-1.581898e+01	-9.491462e+02
2.640000e-06	-2.316103e-06	-1.547792e-08	-1.678673e+01	-1.014092e+03
2.650000e-06	-2.448747e-06	-1.635926e-08	-1.774812e+01	-1.073652e+03
2.660000e-06	-2.580396e-06	-1.716968e-08	-1.870229e+01	-1.127919e+03
2.670000e-06	-2.711096e-06	-1.791717e-08	-1.964958e+01	-1.177187e+03
2.680000e-06	-2.840891e-06	-1.860883e-08	-2.059031e+01	-1.221913e+03
2.690000e-06	-2.969612e-06	-1.924860e-08	-2.152326e+01	-1.262663e+03
2.700000e-06	-3.097228e-06	-1.984311e-08	-2.244820e+01	-1.300048e+03
2.710000e-06	-3.223825e-06	-2.039694e-08	-2.336575e+01	-1.334668e+03
2.720000e-06	-3.349259e-06	-2.091342e-08	-2.427488e+01	-1.367060e+03
2.730000e-06	-3.473377e-06	-2.139460e-08	-2.517447e+01	-1.397662e+03
2.740000e-06	-3.596295e-06	-2.184398e-08	-2.606536e+01	-1.426787e+03
2.750000e-06	-3.718001e-06	-2.226617e-08	-2.694746e+01	-1.454629e+03
2.760000e-06	-3.838301e-06	-2.266464e-08	-2.781938e+01	-1.481265e+03
2.770000e-06	-3.957165e-06	-2.304122e-08	-2.868088e+01	-1.506687e+03
2.780000e-06	-4.074521e-06	-2.339506e-08	-2.953146e+01	-1.530837e+03
2.790000e-06	-4.190169e-06	-2.372883e-08	-3.036966e+01	-1.553637e+03
2.800000e-06	-4.304122e-06	-2.404457e-08	-3.119557e+01	-1.575025e+03
2.810000e-06	-4.416364e-06	-2.434420e-08	-3.200908e+01	-1.594981e+03
2.820000e-06	-4.526896e-06	-2.462785e-08	-3.281020e+01	-1.613542e+03
2.830000e-06	-4.635873e-06	-2.489651e-08	-3.360004e+01	-1.630802e+03
2.840000e-06	-4.743367e-06	-2.515221e-08	-3.437914e+01	-1.646907e+03
2.850000e-06	-4.849310e-06	-2.539617e-08	-3.514700e+01	-1.662038e+03
2.860000e-06	-4.953499e-06	-2.562826e-08	-3.590215e+01	-1.676385e+03
2.870000e-06	-5.055800e-06	-2.585034e-08	-3.664361e+01	-1.690128e+03
2.880000e-06	-5.156192e-06	-2.606488e-08	-3.737123e+01	-1.703412e+03
2.890000e-06	-5.254765e-06	-2.626994e-08	-3.808567e+01	-1.716333e+03
2.900000e-06	-5.351537e-06	-2.646166e-08	-3.878706e+01	-1.728934e+03
2.910000e-06	-5.446408e-06	-2.663874e-08	-3.947467e+01	-1.741201e+03
2.920000e-06	-5.539262e-06	-2.680535e-08	-4.014766e+01	-1.753078e+03
2.930000e-06	-5.630174e-06	-2.696443e-08	-4.080658e+01	-1.764481e+03
2.940000e-06	-5.719137e-06	-2.711911e-08	-4.145136e+01	-1.775318e+03
