# Temperatura_=_51.94
# Concentracion g/m^3_=_28370.0
# C_Vs_to_Am_M_A/Vsm_=_65563218390.804596
# pendiente_HvsI_1/m_=_3716.3
# ordenada_HvsI_A/m_=_1297.0
# frecuencia_Hz_=_302371.5241910565

Tiempo_(s)	Campo_(V.s)	Magnetizacion_(V.s)	Campo_(kA/m)	Magnetizacion_(A/m)
0.000000e+00	-7.345737e-06	-2.302946e-08	-5.319250e+01	-1.507609e+03
1.000000e-08	-7.341434e-06	-2.302091e-08	-5.316135e+01	-1.506874e+03
2.000000e-08	-7.334798e-06	-2.301446e-08	-5.311329e+01	-1.506060e+03
3.000000e-08	-7.325690e-06	-2.300597e-08	-5.304733e+01	-1.505210e+03
4.000000e-08	-7.313946e-06	-2.299447e-08	-5.296230e+01	-1.504349e+03
5.000000e-08	-7.299545e-06	-2.297907e-08	-5.285801e+01	-1.503483e+03
6.000000e-08	-7.282571e-06	-2.296457e-08	-5.273510e+01	-1.502597e+03
7.000000e-08	-7.263402e-06	-2.295447e-08	-5.259629e+01	-1.501661e+03
8.000000e-08	-7.242031e-06	-2.296285e-08	-5.244154e+01	-1.500631e+03
9.000000e-08	-7.217991e-06	-2.291314e-08	-5.226746e+01	-1.499466e+03
1.000000e-07	-7.190961e-06	-2.286872e-08	-5.207173e+01	-1.498124e+03
1.100000e-07	-7.161142e-06	-2.285397e-08	-5.185580e+01	-1.496581e+03
1.200000e-07	-7.128853e-06	-2.281690e-08	-5.162199e+01	-1.494825e+03
1.300000e-07	-7.094185e-06	-2.276399e-08	-5.137094e+01	-1.492864e+03
1.400000e-07	-7.057384e-06	-2.273888e-08	-5.110446e+01	-1.490721e+03
1.500000e-07	-7.018670e-06	-2.275621e-08	-5.082412e+01	-1.488430e+03
1.600000e-07	-6.977785e-06	-2.263869e-08	-5.052806e+01	-1.486027e+03
1.700000e-07	-6.934445e-06	-2.261064e-08	-5.021423e+01	-1.483541e+03
1.800000e-07	-6.888623e-06	-2.261590e-08	-4.988241e+01	-1.480991e+03
1.900000e-07	-6.840095e-06	-2.251534e-08	-4.953101e+01	-1.478375e+03
2.000000e-07	-6.788742e-06	-2.252097e-08	-4.915915e+01	-1.475673e+03
2.100000e-07	-6.734767e-06	-2.247475e-08	-4.876830e+01	-1.472847e+03
2.200000e-07	-6.678274e-06	-2.242017e-08	-4.835922e+01	-1.469843e+03
2.300000e-07	-6.619288e-06	-2.238268e-08	-4.793208e+01	-1.466603e+03
2.400000e-07	-6.557836e-06	-2.227267e-08	-4.748709e+01	-1.463073e+03
2.500000e-07	-6.493960e-06	-2.221321e-08	-4.702455e+01	-1.459210e+03
2.600000e-07	-6.427658e-06	-2.214496e-08	-4.654444e+01	-1.454992e+03
2.700000e-07	-6.358970e-06	-2.209516e-08	-4.604705e+01	-1.450420e+03
2.800000e-07	-6.287947e-06	-2.202454e-08	-4.553276e+01	-1.445521e+03
2.900000e-07	-6.214432e-06	-2.194254e-08	-4.500042e+01	-1.440338e+03
3.000000e-07	-6.138292e-06	-2.188833e-08	-4.444906e+01	-1.434931e+03
3.100000e-07	-6.059568e-06	-2.177778e-08	-4.387900e+01	-1.429357e+03
3.200000e-07	-5.978480e-06	-2.169602e-08	-4.329182e+01	-1.423667e+03
3.300000e-07	-5.895342e-06	-2.161099e-08	-4.268979e+01	-1.417892e+03
3.400000e-07	-5.810284e-06	-2.154080e-08	-4.207386e+01	-1.412038e+03
3.500000e-07	-5.723266e-06	-2.144552e-08	-4.144375e+01	-1.406080e+03
3.600000e-07	-5.634206e-06	-2.133160e-08	-4.079884e+01	-1.399966e+03
3.700000e-07	-5.543065e-06	-2.123882e-08	-4.013886e+01	-1.393623e+03
3.800000e-07	-5.449945e-06	-2.112515e-08	-3.946455e+01	-1.386963e+03
3.900000e-07	-5.354900e-06	-2.101505e-08	-3.877630e+01	-1.379903e+03
4.000000e-07	-5.257921e-06	-2.089272e-08	-3.807405e+01	-1.372371e+03
4.100000e-07	-5.159037e-06	-2.077438e-08	-3.735801e+01	-1.364317e+03
4.200000e-07	-5.058361e-06	-2.063900e-08	-3.662898e+01	-1.355722e+03
4.300000e-07	-4.955881e-06	-2.050261e-08	-3.588690e+01	-1.346601e+03
4.400000e-07	-4.851624e-06	-2.036176e-08	-3.513195e+01	-1.336994e+03
4.500000e-07	-4.745731e-06	-2.021274e-08	-3.436514e+01	-1.326961e+03
4.600000e-07	-4.638088e-06	-2.006079e-08	-3.358567e+01	-1.316569e+03
4.700000e-07	-4.528723e-06	-1.990271e-08	-3.279373e+01	-1.305879e+03
4.800000e-07	-4.417813e-06	-1.973932e-08	-3.199060e+01	-1.294927e+03
4.900000e-07	-4.305314e-06	-1.956546e-08	-3.117597e+01	-1.283718e+03
5.000000e-07	-4.191113e-06	-1.938917e-08	-3.034900e+01	-1.272219e+03
5.100000e-07	-4.075123e-06	-1.919695e-08	-2.950909e+01	-1.260357e+03
5.200000e-07	-3.957522e-06	-1.899495e-08	-2.865751e+01	-1.248025e+03
5.300000e-07	-3.838491e-06	-1.878486e-08	-2.779557e+01	-1.235097e+03
5.400000e-07	-3.718066e-06	-1.857110e-08	-2.692354e+01	-1.221440e+03
5.500000e-07	-3.596277e-06	-1.834333e-08	-2.604163e+01	-1.206934e+03
5.600000e-07	-3.473095e-06	-1.810444e-08	-2.514964e+01	-1.191482e+03
5.700000e-07	-3.348559e-06	-1.785563e-08	-2.424783e+01	-1.175028e+03
5.800000e-07	-3.222808e-06	-1.759382e-08	-2.333724e+01	-1.157554e+03
5.900000e-07	-3.095888e-06	-1.732328e-08	-2.241818e+01	-1.139080e+03
6.000000e-07	-2.967796e-06	-1.703984e-08	-2.149063e+01	-1.119651e+03
6.100000e-07	-2.838615e-06	-1.674048e-08	-2.055519e+01	-1.099321e+03
6.200000e-07	-2.708380e-06	-1.641679e-08	-1.961213e+01	-1.078131e+03
6.300000e-07	-2.577089e-06	-1.607664e-08	-1.866141e+01	-1.056083e+03
6.400000e-07	-2.444794e-06	-1.571848e-08	-1.770343e+01	-1.033126e+03
6.500000e-07	-2.311647e-06	-1.534189e-08	-1.673927e+01	-1.009137e+03
6.600000e-07	-2.177812e-06	-1.494526e-08	-1.577014e+01	-9.839219e+02
6.700000e-07	-2.043279e-06	-1.452660e-08	-1.479594e+01	-9.572198e+02
6.800000e-07	-1.907977e-06	-1.408074e-08	-1.381619e+01	-9.287214e+02
6.900000e-07	-1.771952e-06	-1.360224e-08	-1.283119e+01	-8.980954e+02
7.000000e-07	-1.635263e-06	-1.309320e-08	-1.184139e+01	-8.650218e+02
7.100000e-07	-1.497982e-06	-1.254936e-08	-1.084730e+01	-8.292262e+02
7.200000e-07	-1.360204e-06	-1.196949e-08	-9.849608e+00	-7.905126e+02
7.300000e-07	-1.221975e-06	-1.134731e-08	-8.848661e+00	-7.487880e+02
7.400000e-07	-1.083322e-06	-1.068483e-08	-7.844630e+00	-7.040765e+02
7.500000e-07	-9.443139e-07	-9.978279e-09	-6.838037e+00	-6.565199e+02
7.600000e-07	-8.049636e-07	-9.224175e-09	-5.828963e+00	-6.063644e+02
7.700000e-07	-6.652566e-07	-8.425984e-09	-4.817306e+00	-5.539350e+02
7.800000e-07	-5.252476e-07	-7.590226e-09	-3.803463e+00	-4.995998e+02
7.900000e-07	-3.849613e-07	-6.724674e-09	-2.787611e+00	-4.437296e+02
8.000000e-07	-2.444595e-07	-5.835199e-09	-1.770198e+00	-3.866586e+02
8.100000e-07	-1.038488e-07	-4.930060e-09	-7.519980e-01	-3.286500e+02
8.200000e-07	3.685922e-08	-4.015776e-09	2.669078e-01	-2.698736e+02
8.300000e-07	1.775995e-07	-3.100471e-09	1.286047e+00	-2.103969e+02
8.400000e-07	3.182040e-07	-2.186026e-09	2.304203e+00	-1.501926e+02
8.500000e-07	4.586256e-07	-1.272129e-09	3.321034e+00	-8.916139e+01
8.600000e-07	5.989630e-07	-3.544005e-10	4.337256e+00	-2.716721e+01
8.700000e-07	7.391394e-07	5.767367e-10	5.352312e+00	3.591914e+01
8.800000e-07	8.789963e-07	1.531211e-09	6.365054e+00	1.001742e+02
8.900000e-07	1.018522e-06	2.513310e-09	7.375398e+00	1.655799e+02
9.000000e-07	1.157637e-06	3.520999e-09	8.382766e+00	2.319913e+02
9.100000e-07	1.296301e-06	4.552715e-09	9.386872e+00	2.991190e+02
9.200000e-07	1.434510e-06	5.599021e-09	1.038768e+01	3.665286e+02
9.300000e-07	1.572198e-06	6.647258e-09	1.138472e+01	4.336588e+02
9.400000e-07	1.709387e-06	7.679215e-09	1.237814e+01	4.998552e+02
9.500000e-07	1.845939e-06	8.676323e-09	1.336695e+01	5.644173e+02
9.600000e-07	1.981649e-06	9.625067e-09	1.434966e+01	6.266528e+02
9.700000e-07	2.116480e-06	1.051614e-08	1.532601e+01	6.859324e+02
9.800000e-07	2.250515e-06	1.134504e-08	1.629660e+01	7.417394e+02
9.900000e-07	2.383735e-06	1.210955e-08	1.726128e+01	7.937084e+02
1.000000e-06	2.516044e-06	1.281337e-08	1.821937e+01	8.416479e+02
1.010000e-06	2.647414e-06	1.346236e-08	1.917065e+01	8.855458e+02
1.020000e-06	2.777794e-06	1.406170e-08	2.011477e+01	9.255571e+02
1.030000e-06	2.907191e-06	1.461621e-08	2.105177e+01	9.619758e+02
1.040000e-06	3.035488e-06	1.512999e-08	2.198080e+01	9.951957e+02
1.050000e-06	3.162558e-06	1.560441e-08	2.290095e+01	1.025664e+03
1.060000e-06	3.288604e-06	1.604512e-08	2.381369e+01	1.053834e+03
1.070000e-06	3.413577e-06	1.645972e-08	2.471865e+01	1.080126e+03
1.080000e-06	3.537262e-06	1.684779e-08	2.561429e+01	1.104891e+03
1.090000e-06	3.659716e-06	1.721060e-08	2.650101e+01	1.128394e+03
1.100000e-06	3.780929e-06	1.755331e-08	2.737874e+01	1.150806e+03
1.110000e-06	3.900713e-06	1.787542e-08	2.824613e+01	1.172211e+03
1.120000e-06	4.018995e-06	1.817598e-08	2.910265e+01	1.192622e+03
1.130000e-06	4.135791e-06	1.845854e-08	2.994840e+01	1.212007e+03
1.140000e-06	4.251046e-06	1.872566e-08	3.078299e+01	1.230315e+03
1.150000e-06	4.364681e-06	1.897742e-08	3.160586e+01	1.247502e+03
1.160000e-06	4.476591e-06	1.921571e-08	3.241623e+01	1.263550e+03
1.170000e-06	4.586926e-06	1.944146e-08	3.321520e+01	1.278484e+03
1.180000e-06	4.695764e-06	1.965619e-08	3.400332e+01	1.292368e+03
1.190000e-06	4.803041e-06	1.985936e-08	3.478014e+01	1.305308e+03
1.200000e-06	4.908684e-06	2.005072e-08	3.554513e+01	1.317436e+03
1.210000e-06	5.012456e-06	2.023175e-08	3.629657e+01	1.328895e+03
1.220000e-06	5.114342e-06	2.040342e-08	3.703435e+01	1.339818e+03
1.230000e-06	5.214383e-06	2.056687e-08	3.775878e+01	1.350316e+03
1.240000e-06	5.312521e-06	2.072337e-08	3.846943e+01	1.360463e+03
1.250000e-06	5.408663e-06	2.087333e-08	3.916562e+01	1.370293e+03
1.260000e-06	5.502799e-06	2.101604e-08	3.984728e+01	1.379801e+03
1.270000e-06	5.594984e-06	2.115031e-08	4.051482e+01	1.388945e+03
1.280000e-06	5.685145e-06	2.127572e-08	4.116770e+01	1.397668e+03
1.290000e-06	5.773201e-06	2.139510e-08	4.180534e+01	1.405904e+03
1.300000e-06	5.859212e-06	2.150814e-08	4.242816e+01	1.413601e+03
1.310000e-06	5.943227e-06	2.161376e-08	4.303654e+01	1.420727e+03
1.320000e-06	6.025115e-06	2.171358e-08	4.362952e+01	1.427282e+03
1.330000e-06	6.104759e-06	2.180819e-08	4.420624e+01	1.433301e+03
1.340000e-06	6.182091e-06	2.189768e-08	4.476622e+01	1.438846e+03
1.350000e-06	6.257095e-06	2.198217e-08	4.530935e+01	1.444005e+03
1.360000e-06	6.329716e-06	2.206183e-08	4.583522e+01	1.448873e+03
1.370000e-06	6.400046e-06	2.213733e-08	4.634450e+01	1.453542e+03
1.380000e-06	6.468157e-06	2.220901e-08	4.683770e+01	1.458089e+03
1.390000e-06	6.533947e-06	2.227770e-08	4.731411e+01	1.462563e+03
1.400000e-06	6.597371e-06	2.234455e-08	4.777338e+01	1.466981e+03
1.410000e-06	6.658499e-06	2.240785e-08	4.821602e+01	1.471328e+03
1.420000e-06	6.717404e-06	2.246595e-08	4.864257e+01	1.475562e+03
1.430000e-06	6.773951e-06	2.252107e-08	4.905204e+01	1.479620e+03
1.440000e-06	6.827969e-06	2.257405e-08	4.944320e+01	1.483436e+03
1.450000e-06	6.879241e-06	2.262457e-08	4.981447e+01	1.486945e+03
1.460000e-06	6.927742e-06	2.267190e-08	5.016568e+01	1.490101e+03
1.470000e-06	6.973730e-06	2.271539e-08	5.049870e+01	1.492881e+03
1.480000e-06	7.017344e-06	2.275487e-08	5.081452e+01	1.495291e+03
1.490000e-06	7.058440e-06	2.279066e-08	5.111210e+01	1.497363e+03
1.500000e-06	7.096985e-06	2.282253e-08	5.139122e+01	1.499150e+03
1.510000e-06	7.133036e-06	2.285048e-08	5.165228e+01	1.500720e+03
1.520000e-06	7.166519e-06	2.287696e-08	5.189474e+01	1.502139e+03
1.530000e-06	7.197438e-06	2.290216e-08	5.211863e+01	1.503468e+03
1.540000e-06	7.225860e-06	2.292438e-08	5.232444e+01	1.504748e+03
1.550000e-06	7.251684e-06	2.294379e-08	5.251144e+01	1.505998e+03
1.560000e-06	7.274822e-06	2.296125e-08	5.267899e+01	1.507213e+03
1.570000e-06	7.295409e-06	2.297544e-08	5.282806e+01	1.508363e+03
1.580000e-06	7.313494e-06	2.298495e-08	5.295902e+01	1.509404e+03
1.590000e-06	7.328904e-06	2.299242e-08	5.307061e+01	1.510285e+03
1.600000e-06	7.341449e-06	2.299936e-08	5.316145e+01	1.510957e+03
1.610000e-06	7.351091e-06	2.300565e-08	5.323127e+01	1.511382e+03
1.620000e-06	7.358003e-06	2.301084e-08	5.328132e+01	1.511541e+03
1.630000e-06	7.362346e-06	2.301300e-08	5.331277e+01	1.511435e+03
1.640000e-06	7.364062e-06	2.301227e-08	5.332520e+01	1.511087e+03
1.650000e-06	7.363158e-06	2.300606e-08	5.331865e+01	1.510540e+03
1.660000e-06	7.359873e-06	2.300250e-08	5.329487e+01	1.509844e+03
1.670000e-06	7.354155e-06	2.299287e-08	5.325346e+01	1.509051e+03
1.680000e-06	7.345857e-06	2.298143e-08	5.319337e+01	1.508209e+03
1.690000e-06	7.335061e-06	2.297082e-08	5.311519e+01	1.507349e+03
1.700000e-06	7.321686e-06	2.295960e-08	5.301834e+01	1.506485e+03
1.710000e-06	7.305852e-06	2.294249e-08	5.290369e+01	1.505607e+03
1.720000e-06	7.287894e-06	2.290841e-08	5.277364e+01	1.504692e+03
1.730000e-06	7.267772e-06	2.286279e-08	5.262794e+01	1.503700e+03
1.740000e-06	7.244849e-06	2.287901e-08	5.246195e+01	1.502587e+03
1.750000e-06	7.218518e-06	2.285373e-08	5.227128e+01	1.501311e+03
1.760000e-06	7.188910e-06	2.281702e-08	5.205688e+01	1.499841e+03
1.770000e-06	7.156712e-06	2.281451e-08	5.182372e+01	1.498159e+03
1.780000e-06	7.122489e-06	2.279867e-08	5.157590e+01	1.496269e+03
1.790000e-06	7.086594e-06	2.272276e-08	5.131598e+01	1.494186e+03
1.800000e-06	7.048891e-06	2.277392e-08	5.104296e+01	1.491943e+03
1.810000e-06	7.008776e-06	2.275914e-08	5.075248e+01	1.489575e+03
1.820000e-06	6.966140e-06	2.266234e-08	5.044374e+01	1.487115e+03
1.830000e-06	6.921195e-06	2.272386e-08	5.011828e+01	1.484585e+03
1.840000e-06	6.873693e-06	2.259714e-08	4.977430e+01	1.481993e+03
1.850000e-06	6.823572e-06	2.258191e-08	4.941137e+01	1.479325e+03
1.860000e-06	6.770813e-06	2.255544e-08	4.902932e+01	1.476547e+03
1.870000e-06	6.715329e-06	2.243577e-08	4.862755e+01	1.473612e+03
1.880000e-06	6.657389e-06	2.247268e-08	4.820799e+01	1.470462e+03
1.890000e-06	6.596889e-06	2.237404e-08	4.776989e+01	1.467040e+03
1.900000e-06	6.533811e-06	2.233700e-08	4.731313e+01	1.463298e+03
1.910000e-06	6.468299e-06	2.227847e-08	4.683873e+01	1.459207e+03
1.920000e-06	6.400355e-06	2.216108e-08	4.634674e+01	1.454759e+03
1.930000e-06	6.329961e-06	2.213629e-08	4.583699e+01	1.449971e+03
1.940000e-06	6.257116e-06	2.201807e-08	4.530950e+01	1.444883e+03
1.950000e-06	6.181841e-06	2.199649e-08	4.476441e+01	1.439547e+03
1.960000e-06	6.103984e-06	2.191609e-08	4.420063e+01	1.434025e+03
1.970000e-06	6.023711e-06	2.181963e-08	4.361935e+01	1.428371e+03
1.980000e-06	5.941362e-06	2.174155e-08	4.302303e+01	1.422623e+03
1.990000e-06	5.856971e-06	2.161960e-08	4.241194e+01	1.416798e+03
2.000000e-06	5.770421e-06	2.155795e-08	4.178521e+01	1.410881e+03
2.010000e-06	5.681729e-06	2.143729e-08	4.114297e+01	1.404829e+03
2.020000e-06	5.591062e-06	2.136153e-08	4.048642e+01	1.398576e+03
2.030000e-06	5.498465e-06	2.125213e-08	3.981590e+01	1.392038e+03
2.040000e-06	5.403897e-06	2.112971e-08	3.913110e+01	1.385129e+03
2.050000e-06	5.307425e-06	2.101374e-08	3.843252e+01	1.377771e+03
2.060000e-06	5.209192e-06	2.088998e-08	3.772119e+01	1.369906e+03
2.070000e-06	5.109193e-06	2.078460e-08	3.699707e+01	1.361504e+03
2.080000e-06	5.007339e-06	2.064185e-08	3.625952e+01	1.352566e+03
2.090000e-06	4.903558e-06	2.051511e-08	3.550801e+01	1.343125e+03
2.100000e-06	4.797999e-06	2.036611e-08	3.474363e+01	1.333235e+03
2.110000e-06	4.690891e-06	2.021982e-08	3.396804e+01	1.322963e+03
2.120000e-06	4.582240e-06	2.005925e-08	3.318126e+01	1.312373e+03
2.130000e-06	4.471972e-06	1.989638e-08	3.238278e+01	1.301511e+03
2.140000e-06	4.359984e-06	1.972435e-08	3.157184e+01	1.290395e+03
2.150000e-06	4.246268e-06	1.954427e-08	3.074840e+01	1.279005e+03
2.160000e-06	4.130867e-06	1.936784e-08	2.991274e+01	1.267282e+03
2.170000e-06	4.013767e-06	1.917886e-08	2.906479e+01	1.255130e+03
2.180000e-06	3.895039e-06	1.898339e-08	2.820505e+01	1.242429e+03
2.190000e-06	3.774769e-06	1.877220e-08	2.733414e+01	1.229046e+03
2.200000e-06	3.653106e-06	1.855649e-08	2.645315e+01	1.214855e+03
2.210000e-06	3.530105e-06	1.832150e-08	2.556246e+01	1.199748e+03
2.220000e-06	3.405802e-06	1.808015e-08	2.466235e+01	1.183656e+03
2.230000e-06	3.280231e-06	1.782260e-08	2.375306e+01	1.166544e+03
2.240000e-06	3.153380e-06	1.755157e-08	2.283449e+01	1.148421e+03
2.250000e-06	3.025349e-06	1.726740e-08	2.190739e+01	1.129326e+03
2.260000e-06	2.896255e-06	1.697540e-08	2.097258e+01	1.109311e+03
2.270000e-06	2.766148e-06	1.667181e-08	2.003044e+01	1.088425e+03
2.280000e-06	2.634990e-06	1.635096e-08	1.908069e+01	1.066685e+03
2.290000e-06	2.502847e-06	1.600998e-08	1.812381e+01	1.044062e+03
2.300000e-06	2.369849e-06	1.564216e-08	1.716073e+01	1.020459e+03
2.310000e-06	2.236094e-06	1.525078e-08	1.619217e+01	9.957071e+02
2.320000e-06	2.101647e-06	1.483742e-08	1.521860e+01	9.695684e+02
2.330000e-06	1.966481e-06	1.440441e-08	1.423983e+01	9.417480e+02
2.340000e-06	1.830537e-06	1.394399e-08	1.325542e+01	9.119188e+02
2.350000e-06	1.693884e-06	1.345146e-08	1.226588e+01	8.797528e+02
2.360000e-06	1.556718e-06	1.291855e-08	1.127263e+01	8.449555e+02
2.370000e-06	1.419123e-06	1.234536e-08	1.027626e+01	8.072994e+02
2.380000e-06	1.281051e-06	1.173672e-08	9.276440e+00	7.666525e+02
2.390000e-06	1.142511e-06	1.109219e-08	8.273239e+00	7.229964e+02
2.400000e-06	1.003561e-06	1.040471e-08	7.267063e+00	6.764314e+02
2.410000e-06	8.642070e-07	9.669858e-09	6.257961e+00	6.271691e+02
2.420000e-06	7.245149e-07	8.887307e-09	5.246412e+00	5.755099e+02
2.430000e-06	5.844854e-07	8.062891e-09	4.232419e+00	5.218109e+02
2.440000e-06	4.441579e-07	7.203881e-09	3.216270e+00	4.664468e+02
2.450000e-06	3.036675e-07	6.316566e-09	2.198940e+00	4.097690e+02
2.460000e-06	1.630939e-07	5.410935e-09	1.181008e+00	3.520695e+02
2.470000e-06	2.244130e-08	4.494980e-09	1.625036e-01	2.935532e+02
2.480000e-06	-1.183060e-07	3.575347e-09	-8.566860e-01	2.343240e+02
2.490000e-06	-2.590262e-07	2.655920e-09	-1.875680e+00	1.743868e+02
2.500000e-06	-3.996701e-07	1.736195e-09	-2.894121e+00	1.136644e+02
2.510000e-06	-5.401740e-07	8.129305e-10	-3.911549e+00	5.202918e+01
2.520000e-06	-6.804866e-07	-1.186806e-10	-4.927590e+00	-1.065573e+01
2.530000e-06	-8.205680e-07	-1.066003e-09	-5.941959e+00	-7.449084e+01
2.540000e-06	-9.602298e-07	-2.037985e-09	-6.953288e+00	-1.394962e+02
2.550000e-06	-1.099462e-06	-3.040669e-09	-7.961506e+00	-2.055751e+02
2.560000e-06	-1.238273e-06	-4.070902e-09	-8.966676e+00	-2.724906e+02
2.570000e-06	-1.376595e-06	-5.121414e-09	-9.968304e+00	-3.398590e+02
2.580000e-06	-1.514442e-06	-6.180376e-09	-1.096649e+01	-4.071613e+02
2.590000e-06	-1.651711e-06	-7.228270e-09	-1.196049e+01	-4.737714e+02
2.600000e-06	-1.788293e-06	-8.247835e-09	-1.294952e+01	-5.389994e+02
2.610000e-06	-1.924170e-06	-9.223664e-09	-1.393344e+01	-6.021436e+02
2.620000e-06	-2.059308e-06	-1.014531e-08	-1.491201e+01	-6.625461e+02
2.630000e-06	-2.193697e-06	-1.100748e-08	-1.588516e+01	-7.196449e+02
2.640000e-06	-2.327338e-06	-1.180592e-08	-1.685290e+01	-7.730170e+02
2.650000e-06	-2.460145e-06	-1.254228e-08	-1.781458e+01	-8.224073e+02
2.660000e-06	-2.591878e-06	-1.322001e-08	-1.876850e+01	-8.677401e+02
2.670000e-06	-2.722532e-06	-1.384438e-08	-1.971460e+01	-9.091133e+02
2.680000e-06	-2.852291e-06	-1.442130e-08	-2.065422e+01	-9.467752e+02
2.690000e-06	-2.981035e-06	-1.495342e-08	-2.158649e+01	-9.810891e+02
2.700000e-06	-3.108688e-06	-1.544488e-08	-2.251086e+01	-1.012488e+03
2.710000e-06	-3.235330e-06	-1.590217e-08	-2.342792e+01	-1.041430e+03
2.720000e-06	-3.360837e-06	-1.633096e-08	-2.433675e+01	-1.068349e+03
2.730000e-06	-3.485021e-06	-1.673233e-08	-2.523599e+01	-1.093625e+03
2.740000e-06	-3.607898e-06	-1.710711e-08	-2.612578e+01	-1.117556e+03
2.750000e-06	-3.729571e-06	-1.745651e-08	-2.700685e+01	-1.140345e+03
2.760000e-06	-3.849853e-06	-1.778228e-08	-2.787785e+01	-1.162106e+03
2.770000e-06	-3.968667e-06	-1.808972e-08	-2.873821e+01	-1.182875e+03
2.780000e-06	-4.086044e-06	-1.838046e-08	-2.958817e+01	-1.202632e+03
2.790000e-06	-4.201765e-06	-1.865432e-08	-3.042613e+01	-1.221332e+03
2.800000e-06	-4.315805e-06	-1.891334e-08	-3.125193e+01	-1.238924e+03
2.810000e-06	-4.428191e-06	-1.915876e-08	-3.206575e+01	-1.255380e+03
2.820000e-06	-4.538827e-06	-1.939283e-08	-3.286689e+01	-1.270707e+03
2.830000e-06	-4.647797e-06	-1.961788e-08	-3.365597e+01	-1.284957e+03
2.840000e-06	-4.755243e-06	-1.983187e-08	-3.443402e+01	-1.298221e+03
2.850000e-06	-4.861140e-06	-2.003208e-08	-3.520085e+01	-1.310625e+03
2.860000e-06	-4.965351e-06	-2.021764e-08	-3.595547e+01	-1.322307e+03
2.870000e-06	-5.067753e-06	-2.039196e-08	-3.669700e+01	-1.333408e+03
2.880000e-06	-5.168212e-06	-2.055895e-08	-3.742444e+01	-1.344048e+03
2.890000e-06	-5.266756e-06	-2.071906e-08	-3.813803e+01	-1.354316e+03
2.900000e-06	-5.363447e-06	-2.087093e-08	-3.883820e+01	-1.364260e+03
2.910000e-06	-5.458260e-06	-2.101232e-08	-3.952476e+01	-1.373886e+03
2.920000e-06	-5.551112e-06	-2.114583e-08	-4.019713e+01	-1.383167e+03
2.930000e-06	-5.641961e-06	-2.127368e-08	-4.085499e+01	-1.392049e+03
2.940000e-06	-5.730812e-06	-2.139644e-08	-4.149838e+01	-1.400468e+03
