# Temperatura_=_55.53
# Concentracion g/m^3_=_28370.0
# C_Vs_to_Am_M_A/Vsm_=_65563218390.804596
# pendiente_HvsI_1/m_=_3716.3
# ordenada_HvsI_A/m_=_1297.0
# frecuencia_Hz_=_302373.56543968176

Tiempo_(s)	Campo_(V.s)	Magnetizacion_(V.s)	Campo_(kA/m)	Magnetizacion_(A/m)
0.000000e+00	-7.327452e-06	-2.373210e-08	-5.318676e+01	-1.553330e+03
1.000000e-08	-7.323322e-06	-2.372391e-08	-5.315678e+01	-1.552575e+03
2.000000e-08	-7.316910e-06	-2.371319e-08	-5.311024e+01	-1.551742e+03
3.000000e-08	-7.308057e-06	-2.370331e-08	-5.304599e+01	-1.550876e+03
4.000000e-08	-7.296540e-06	-2.369146e-08	-5.296238e+01	-1.550006e+03
5.000000e-08	-7.282267e-06	-2.367628e-08	-5.285878e+01	-1.549136e+03
6.000000e-08	-7.265376e-06	-2.366036e-08	-5.273618e+01	-1.548251e+03
7.000000e-08	-7.246338e-06	-2.364351e-08	-5.259799e+01	-1.547320e+03
8.000000e-08	-7.225223e-06	-2.365177e-08	-5.244473e+01	-1.546297e+03
9.000000e-08	-7.201439e-06	-2.364816e-08	-5.227209e+01	-1.545135e+03
1.000000e-07	-7.174562e-06	-2.359363e-08	-5.207700e+01	-1.543793e+03
1.100000e-07	-7.144953e-06	-2.354846e-08	-5.186208e+01	-1.542241e+03
1.200000e-07	-7.112938e-06	-2.351819e-08	-5.162970e+01	-1.540468e+03
1.300000e-07	-7.078426e-06	-2.347443e-08	-5.137920e+01	-1.538481e+03
1.400000e-07	-7.041763e-06	-2.341592e-08	-5.111308e+01	-1.536303e+03
1.500000e-07	-7.003302e-06	-2.340481e-08	-5.083390e+01	-1.533969e+03
1.600000e-07	-6.962614e-06	-2.340037e-08	-5.053856e+01	-1.531517e+03
1.700000e-07	-6.919434e-06	-2.331133e-08	-5.022514e+01	-1.528979e+03
1.800000e-07	-6.873913e-06	-2.329735e-08	-4.989472e+01	-1.526376e+03
1.900000e-07	-6.825748e-06	-2.325978e-08	-4.954511e+01	-1.523708e+03
2.000000e-07	-6.774685e-06	-2.319530e-08	-4.917447e+01	-1.520955e+03
2.100000e-07	-6.721027e-06	-2.316916e-08	-4.878499e+01	-1.518077e+03
2.200000e-07	-6.664879e-06	-2.309421e-08	-4.837744e+01	-1.515021e+03
2.300000e-07	-6.606168e-06	-2.305218e-08	-4.795128e+01	-1.511725e+03
2.400000e-07	-6.545022e-06	-2.297414e-08	-4.750744e+01	-1.508130e+03
2.500000e-07	-6.481450e-06	-2.290185e-08	-4.704601e+01	-1.504191e+03
2.600000e-07	-6.415351e-06	-2.284664e-08	-4.656622e+01	-1.499881e+03
2.700000e-07	-6.346856e-06	-2.278518e-08	-4.606905e+01	-1.495198e+03
2.800000e-07	-6.276066e-06	-2.271068e-08	-4.555521e+01	-1.490166e+03
2.900000e-07	-6.202821e-06	-2.262057e-08	-4.502356e+01	-1.484827e+03
3.000000e-07	-6.127034e-06	-2.255508e-08	-4.447346e+01	-1.479240e+03
3.100000e-07	-6.048671e-06	-2.246343e-08	-4.390466e+01	-1.473466e+03
3.200000e-07	-5.967855e-06	-2.237446e-08	-4.331804e+01	-1.467558e+03
3.300000e-07	-5.884922e-06	-2.230199e-08	-4.271607e+01	-1.461549e+03
3.400000e-07	-5.800061e-06	-2.220240e-08	-4.210010e+01	-1.455449e+03
3.500000e-07	-5.713318e-06	-2.209954e-08	-4.147047e+01	-1.449238e+03
3.600000e-07	-5.624587e-06	-2.199688e-08	-4.082641e+01	-1.442866e+03
3.700000e-07	-5.533688e-06	-2.189023e-08	-4.016662e+01	-1.436261e+03
3.800000e-07	-5.440777e-06	-2.177672e-08	-3.949222e+01	-1.429340e+03
3.900000e-07	-5.346007e-06	-2.166091e-08	-3.880432e+01	-1.422018e+03
4.000000e-07	-5.249370e-06	-2.153685e-08	-3.810288e+01	-1.414221e+03
4.100000e-07	-5.150867e-06	-2.139771e-08	-3.738789e+01	-1.405900e+03
4.200000e-07	-5.050526e-06	-2.126527e-08	-3.665956e+01	-1.397035e+03
4.300000e-07	-4.948469e-06	-2.112877e-08	-3.591876e+01	-1.387635e+03
4.400000e-07	-4.844602e-06	-2.098514e-08	-3.516484e+01	-1.377740e+03
4.500000e-07	-4.738999e-06	-2.083497e-08	-3.439832e+01	-1.367409e+03
4.600000e-07	-4.631698e-06	-2.067894e-08	-3.361947e+01	-1.356708e+03
4.700000e-07	-4.522740e-06	-2.051408e-08	-3.282859e+01	-1.345695e+03
4.800000e-07	-4.412240e-06	-2.033779e-08	-3.202652e+01	-1.334408e+03
4.900000e-07	-4.300043e-06	-2.016170e-08	-3.121213e+01	-1.322852e+03
5.000000e-07	-4.186187e-06	-1.997773e-08	-3.038569e+01	-1.310993e+03
5.100000e-07	-4.070591e-06	-1.978115e-08	-2.954664e+01	-1.298758e+03
5.200000e-07	-3.953374e-06	-1.957331e-08	-2.869581e+01	-1.286041e+03
5.300000e-07	-3.834806e-06	-1.936199e-08	-2.783518e+01	-1.272716e+03
5.400000e-07	-3.714747e-06	-1.914173e-08	-2.696372e+01	-1.258650e+03
5.500000e-07	-3.593305e-06	-1.890429e-08	-2.608223e+01	-1.243721e+03
5.600000e-07	-3.470520e-06	-1.865877e-08	-2.519099e+01	-1.227833e+03
5.700000e-07	-3.346269e-06	-1.840287e-08	-2.428910e+01	-1.210927e+03
5.800000e-07	-3.220833e-06	-1.813431e-08	-2.337862e+01	-1.192985e+03
5.900000e-07	-3.094366e-06	-1.785242e-08	-2.246065e+01	-1.174027e+03
6.000000e-07	-2.966726e-06	-1.755989e-08	-2.153416e+01	-1.154096e+03
6.100000e-07	-2.837876e-06	-1.725149e-08	-2.059890e+01	-1.133246e+03
6.200000e-07	-2.708020e-06	-1.692446e-08	-1.965633e+01	-1.111517e+03
6.300000e-07	-2.577178e-06	-1.658005e-08	-1.870661e+01	-1.088908e+03
6.400000e-07	-2.445241e-06	-1.621648e-08	-1.774893e+01	-1.065367e+03
6.500000e-07	-2.312358e-06	-1.583222e-08	-1.678439e+01	-1.040768e+03
6.600000e-07	-2.178804e-06	-1.542343e-08	-1.581499e+01	-1.014913e+03
6.700000e-07	-2.044690e-06	-1.498957e-08	-1.484151e+01	-9.875373e+02
6.800000e-07	-1.909912e-06	-1.452797e-08	-1.386322e+01	-9.583250e+02
6.900000e-07	-1.774304e-06	-1.403998e-08	-1.287890e+01	-9.269391e+02
7.000000e-07	-1.637874e-06	-1.352040e-08	-1.188861e+01	-8.930527e+02
7.100000e-07	-1.500848e-06	-1.296521e-08	-1.089399e+01	-8.563844e+02
7.200000e-07	-1.363379e-06	-1.237173e-08	-9.896169e+00	-8.167312e+02
7.300000e-07	-1.225510e-06	-1.173519e-08	-8.895440e+00	-7.739932e+02
7.400000e-07	-1.087266e-06	-1.105512e-08	-7.891987e+00	-7.281882e+02
7.500000e-07	-9.486809e-07	-1.032850e-08	-6.886059e+00	-6.794523e+02
7.600000e-07	-8.097338e-07	-9.555574e-09	-5.877503e+00	-6.280271e+02
7.700000e-07	-6.704092e-07	-8.737411e-09	-4.866207e+00	-5.742331e+02
7.800000e-07	-5.307697e-07	-7.880896e-09	-3.852625e+00	-5.184349e+02
7.900000e-07	-3.909210e-07	-6.989818e-09	-2.837524e+00	-4.610010e+02
8.000000e-07	-2.508943e-07	-6.072726e-09	-1.821132e+00	-4.022633e+02
8.100000e-07	-1.106687e-07	-5.138694e-09	-8.032958e-01	-3.424845e+02
8.200000e-07	2.970321e-08	-4.195128e-09	2.156026e-01	-2.818347e+02
8.300000e-07	1.700847e-07	-3.249816e-09	1.234571e+00	-2.203833e+02
8.400000e-07	3.104152e-07	-2.302876e-09	2.253168e+00	-1.581072e+02
8.500000e-07	4.506404e-07	-1.354823e-09	3.271001e+00	-9.491371e+01
8.600000e-07	5.906655e-07	-4.015650e-10	4.287382e+00	-3.067646e+01
8.700000e-07	7.304438e-07	5.640001e-10	5.301971e+00	3.472065e+01
8.800000e-07	8.699149e-07	1.553009e-09	6.314331e+00	1.013376e+02
8.900000e-07	1.009034e-06	2.569672e-09	7.324134e+00	1.691361e+02
9.000000e-07	1.147811e-06	3.612857e-09	8.331459e+00	2.379483e+02
9.100000e-07	1.286212e-06	4.680070e-09	9.336046e+00	3.074593e+02
9.200000e-07	1.424195e-06	5.762637e-09	1.033761e+01	3.772081e+02
9.300000e-07	1.561679e-06	6.847277e-09	1.133554e+01	4.466067e+02
9.400000e-07	1.698458e-06	7.913490e-09	1.232836e+01	5.149758e+02
9.500000e-07	1.834428e-06	8.943118e-09	1.331531e+01	5.815926e+02
9.600000e-07	1.969626e-06	9.921658e-09	1.429665e+01	6.457468e+02
9.700000e-07	2.104143e-06	1.083967e-08	1.527305e+01	7.067963e+02
9.800000e-07	2.237963e-06	1.169316e-08	1.624439e+01	7.642178e+02
9.900000e-07	2.370956e-06	1.247894e-08	1.720973e+01	8.176450e+02
1.000000e-06	2.503036e-06	1.319871e-08	1.816844e+01	8.668918e+02
1.010000e-06	2.634123e-06	1.386236e-08	1.911995e+01	9.119566e+02
1.020000e-06	2.764317e-06	1.447608e-08	2.006496e+01	9.530090e+02
1.030000e-06	2.893516e-06	1.504440e-08	2.100276e+01	9.903601e+02
1.040000e-06	3.021464e-06	1.557221e-08	2.193148e+01	1.024422e+03
1.050000e-06	3.148265e-06	1.606202e-08	2.285187e+01	1.055660e+03
1.060000e-06	3.274067e-06	1.651641e-08	2.376502e+01	1.084545e+03
1.070000e-06	3.398796e-06	1.694082e-08	2.467037e+01	1.111509e+03
1.080000e-06	3.522308e-06	1.733766e-08	2.556689e+01	1.136915e+03
1.090000e-06	3.644633e-06	1.770962e-08	2.645479e+01	1.161034e+03
1.100000e-06	3.765586e-06	1.806005e-08	2.733274e+01	1.184041e+03
1.110000e-06	3.885043e-06	1.838835e-08	2.819982e+01	1.206021e+03
1.120000e-06	4.003167e-06	1.869676e-08	2.905724e+01	1.226986e+03
1.130000e-06	4.119899e-06	1.898819e-08	2.990454e+01	1.246902e+03
1.140000e-06	4.235053e-06	1.926279e-08	3.074040e+01	1.265715e+03
1.150000e-06	4.348458e-06	1.952136e-08	3.156355e+01	1.283380e+03
1.160000e-06	4.460155e-06	1.976584e-08	3.237431e+01	1.299879e+03
1.170000e-06	4.570371e-06	1.999717e-08	3.317432e+01	1.315236e+03
1.180000e-06	4.679109e-06	2.021628e-08	3.396360e+01	1.329519e+03
1.190000e-06	4.786304e-06	2.042421e-08	3.474169e+01	1.342838e+03
1.200000e-06	4.891709e-06	2.062227e-08	3.550677e+01	1.355329e+03
1.210000e-06	4.995221e-06	2.080971e-08	3.625812e+01	1.367137e+03
1.220000e-06	5.096952e-06	2.098699e-08	3.699654e+01	1.378402e+03
1.230000e-06	5.196851e-06	2.115426e-08	3.772166e+01	1.389236e+03
1.240000e-06	5.294844e-06	2.131361e-08	3.843296e+01	1.399717e+03
1.250000e-06	5.390788e-06	2.146664e-08	3.912937e+01	1.409877e+03
1.260000e-06	5.484757e-06	2.161405e-08	3.981145e+01	1.419709e+03
1.270000e-06	5.576860e-06	2.175342e-08	4.047998e+01	1.429171e+03
1.280000e-06	5.666923e-06	2.188497e-08	4.113371e+01	1.438202e+03
1.290000e-06	5.754846e-06	2.200842e-08	4.177190e+01	1.446733e+03
1.300000e-06	5.840738e-06	2.212388e-08	4.239536e+01	1.454710e+03
1.310000e-06	5.924654e-06	2.223437e-08	4.300446e+01	1.462099e+03
1.320000e-06	6.006446e-06	2.233910e-08	4.359816e+01	1.468899e+03
1.330000e-06	6.086035e-06	2.243709e-08	4.417586e+01	1.475145e+03
1.340000e-06	6.163366e-06	2.252979e-08	4.473717e+01	1.480904e+03
1.350000e-06	6.238296e-06	2.261649e-08	4.528106e+01	1.486263e+03
1.360000e-06	6.310836e-06	2.269602e-08	4.580759e+01	1.491323e+03
1.370000e-06	6.381116e-06	2.277151e-08	4.631772e+01	1.496179e+03
1.380000e-06	6.449165e-06	2.284564e-08	4.681166e+01	1.500910e+03
1.390000e-06	6.514861e-06	2.291988e-08	4.728852e+01	1.505567e+03
1.400000e-06	6.578172e-06	2.299165e-08	4.774807e+01	1.510170e+03
1.410000e-06	6.639268e-06	2.305798e-08	4.819154e+01	1.514703e+03
1.420000e-06	6.698106e-06	2.311924e-08	4.861862e+01	1.519124e+03
1.430000e-06	6.754529e-06	2.317630e-08	4.902816e+01	1.523369e+03
1.440000e-06	6.808534e-06	2.322968e-08	4.942017e+01	1.527368e+03
1.450000e-06	6.859845e-06	2.328162e-08	4.979261e+01	1.531055e+03
1.460000e-06	6.908367e-06	2.333132e-08	5.014481e+01	1.534384e+03
1.470000e-06	6.954360e-06	2.337833e-08	5.047866e+01	1.537328e+03
1.480000e-06	6.997998e-06	2.342057e-08	5.079540e+01	1.539894e+03
1.490000e-06	7.039132e-06	2.345587e-08	5.109397e+01	1.542112e+03
1.500000e-06	7.077657e-06	2.348778e-08	5.137361e+01	1.544037e+03
1.510000e-06	7.113799e-06	2.351768e-08	5.163595e+01	1.545737e+03
1.520000e-06	7.147422e-06	2.354780e-08	5.188000e+01	1.547278e+03
1.530000e-06	7.178424e-06	2.357551e-08	5.210503e+01	1.548722e+03
1.540000e-06	7.207010e-06	2.359888e-08	5.231253e+01	1.550110e+03
1.550000e-06	7.232980e-06	2.361832e-08	5.250103e+01	1.551460e+03
1.560000e-06	7.256207e-06	2.363247e-08	5.266962e+01	1.552766e+03
1.570000e-06	7.276977e-06	2.364458e-08	5.282039e+01	1.553996e+03
1.580000e-06	7.295275e-06	2.365581e-08	5.295320e+01	1.555107e+03
1.590000e-06	7.310827e-06	2.366568e-08	5.306609e+01	1.556043e+03
1.600000e-06	7.323488e-06	2.367415e-08	5.315799e+01	1.556756e+03
1.610000e-06	7.333219e-06	2.368213e-08	5.322863e+01	1.557207e+03
1.620000e-06	7.340244e-06	2.368882e-08	5.327962e+01	1.557378e+03
1.630000e-06	7.344732e-06	2.369047e-08	5.331219e+01	1.557271e+03
1.640000e-06	7.346524e-06	2.368751e-08	5.332520e+01	1.556914e+03
1.650000e-06	7.345677e-06	2.368113e-08	5.331905e+01	1.556350e+03
1.660000e-06	7.342481e-06	2.367356e-08	5.329585e+01	1.555633e+03
1.670000e-06	7.336849e-06	2.366636e-08	5.325497e+01	1.554821e+03
1.680000e-06	7.328697e-06	2.365711e-08	5.319580e+01	1.553962e+03
1.690000e-06	7.318085e-06	2.364660e-08	5.311877e+01	1.553090e+03
1.700000e-06	7.304899e-06	2.363583e-08	5.302306e+01	1.552219e+03
1.710000e-06	7.289247e-06	2.362421e-08	5.290945e+01	1.551342e+03
1.720000e-06	7.271382e-06	2.360718e-08	5.277978e+01	1.550431e+03
1.730000e-06	7.251352e-06	2.354498e-08	5.263439e+01	1.549445e+03
1.740000e-06	7.228619e-06	2.351254e-08	5.246938e+01	1.548337e+03
1.750000e-06	7.202520e-06	2.351827e-08	5.227993e+01	1.547062e+03
1.760000e-06	7.173097e-06	2.349968e-08	5.206637e+01	1.545586e+03
1.770000e-06	7.141044e-06	2.346923e-08	5.183371e+01	1.543892e+03
1.780000e-06	7.106984e-06	2.348099e-08	5.158648e+01	1.541978e+03
1.790000e-06	7.071229e-06	2.346787e-08	5.132695e+01	1.539864e+03
1.800000e-06	7.033771e-06	2.340238e-08	5.105506e+01	1.537580e+03
1.810000e-06	6.993926e-06	2.342395e-08	5.076585e+01	1.535164e+03
1.820000e-06	6.951507e-06	2.338103e-08	5.045795e+01	1.532653e+03
1.830000e-06	6.906806e-06	2.334525e-08	5.013348e+01	1.530071e+03
1.840000e-06	6.859547e-06	2.332556e-08	4.979045e+01	1.527426e+03
1.850000e-06	6.809714e-06	2.324776e-08	4.942873e+01	1.524705e+03
1.860000e-06	6.757181e-06	2.324984e-08	4.904742e+01	1.521877e+03
1.870000e-06	6.701835e-06	2.317715e-08	4.864568e+01	1.518890e+03
1.880000e-06	6.644079e-06	2.312067e-08	4.822646e+01	1.515685e+03
1.890000e-06	6.583826e-06	2.308911e-08	4.778911e+01	1.512202e+03
1.900000e-06	6.521008e-06	2.299503e-08	4.733314e+01	1.508389e+03
1.910000e-06	6.455761e-06	2.294386e-08	4.685954e+01	1.504212e+03
1.920000e-06	6.388076e-06	2.285289e-08	4.636824e+01	1.499660e+03
1.930000e-06	6.318013e-06	2.280032e-08	4.585969e+01	1.494747e+03
1.940000e-06	6.245528e-06	2.273701e-08	4.533355e+01	1.489511e+03
1.950000e-06	6.170577e-06	2.266052e-08	4.478951e+01	1.484005e+03
1.960000e-06	6.093039e-06	2.259670e-08	4.422670e+01	1.478289e+03
1.970000e-06	6.013066e-06	2.247247e-08	4.364621e+01	1.472423e+03
1.980000e-06	5.931006e-06	2.239859e-08	4.305057e+01	1.466446e+03
1.990000e-06	5.846882e-06	2.230177e-08	4.243995e+01	1.460379e+03
2.000000e-06	5.760646e-06	2.220992e-08	4.181401e+01	1.454210e+03
2.010000e-06	5.672241e-06	2.211383e-08	4.117231e+01	1.447902e+03
2.020000e-06	5.581858e-06	2.200713e-08	4.051626e+01	1.441388e+03
2.030000e-06	5.489582e-06	2.189892e-08	3.984647e+01	1.434589e+03
2.040000e-06	5.395298e-06	2.176912e-08	3.916210e+01	1.427418e+03
2.050000e-06	5.299057e-06	2.166713e-08	3.846353e+01	1.419797e+03
2.060000e-06	5.201067e-06	2.154415e-08	3.775227e+01	1.411666e+03
2.070000e-06	5.101335e-06	2.142116e-08	3.702836e+01	1.402994e+03
2.080000e-06	4.999747e-06	2.127796e-08	3.629098e+01	1.393781e+03
2.090000e-06	4.896264e-06	2.113563e-08	3.553983e+01	1.384056e+03
2.100000e-06	4.790988e-06	2.098774e-08	3.477568e+01	1.373872e+03
2.110000e-06	4.684214e-06	2.083621e-08	3.400066e+01	1.363294e+03
2.120000e-06	4.575879e-06	2.068319e-08	3.321430e+01	1.352386e+03
2.130000e-06	4.465937e-06	2.051193e-08	3.241628e+01	1.341194e+03
2.140000e-06	4.354346e-06	2.033391e-08	3.160629e+01	1.329734e+03
2.150000e-06	4.241033e-06	2.014653e-08	3.078380e+01	1.317988e+03
2.160000e-06	4.125972e-06	1.996527e-08	2.994862e+01	1.305897e+03
2.170000e-06	4.009158e-06	1.977056e-08	2.910072e+01	1.293365e+03
2.180000e-06	3.890763e-06	1.956837e-08	2.824135e+01	1.280271e+03
2.190000e-06	3.770798e-06	1.935294e-08	2.737057e+01	1.266484e+03
2.200000e-06	3.649407e-06	1.912685e-08	2.648944e+01	1.251874e+03
2.210000e-06	3.526759e-06	1.888582e-08	2.559920e+01	1.236336e+03
2.220000e-06	3.402770e-06	1.863812e-08	2.469922e+01	1.219797e+03
2.230000e-06	3.277500e-06	1.838058e-08	2.378994e+01	1.202224e+03
2.240000e-06	3.151081e-06	1.810392e-08	2.287232e+01	1.183623e+03
2.250000e-06	3.023443e-06	1.781458e-08	2.194585e+01	1.164033e+03
2.260000e-06	2.894620e-06	1.751329e-08	2.101078e+01	1.143504e+03
2.270000e-06	2.764845e-06	1.719998e-08	2.006880e+01	1.122085e+03
2.280000e-06	2.634134e-06	1.686552e-08	1.912002e+01	1.099792e+03
2.290000e-06	2.502406e-06	1.651221e-08	1.816387e+01	1.076594e+03
2.300000e-06	2.369698e-06	1.613664e-08	1.720060e+01	1.052390e+03
2.310000e-06	2.236230e-06	1.573948e-08	1.623181e+01	1.027010e+03
2.320000e-06	2.102202e-06	1.532006e-08	1.525896e+01	1.000210e+03
2.330000e-06	1.967478e-06	1.487566e-08	1.428106e+01	9.716910e+02
2.340000e-06	1.831922e-06	1.440125e-08	1.329712e+01	9.411191e+02
2.350000e-06	1.695624e-06	1.389281e-08	1.230779e+01	9.081600e+02
2.360000e-06	1.558755e-06	1.334748e-08	1.131432e+01	8.725121e+02
2.370000e-06	1.421451e-06	1.276243e-08	1.031769e+01	8.339410e+02
2.380000e-06	1.283771e-06	1.214146e-08	9.318331e+00	7.923078e+02
2.390000e-06	1.145751e-06	1.148155e-08	8.316506e+00	7.475874e+02
2.400000e-06	1.007314e-06	1.077373e-08	7.311651e+00	6.998745e+02
2.410000e-06	8.683763e-07	1.001720e-08	6.303163e+00	6.493752e+02
2.420000e-06	7.290483e-07	9.213907e-09	5.291842e+00	5.963857e+02
2.430000e-06	5.893885e-07	8.371027e-09	4.278113e+00	5.412592e+02
2.440000e-06	4.495622e-07	7.493179e-09	3.263175e+00	4.843675e+02
2.450000e-06	3.095661e-07	6.583948e-09	2.247005e+00	4.260600e+02
2.460000e-06	1.693491e-07	5.651646e-09	1.229231e+00	3.666272e+02
2.470000e-06	2.904762e-08	4.705147e-09	2.108440e-01	3.062741e+02
2.480000e-06	-1.113022e-07	3.753668e-09	-8.078937e-01	2.451061e+02
2.490000e-06	-2.516456e-07	2.802566e-09	-1.826585e+00	1.831311e+02
2.500000e-06	-3.918917e-07	1.853141e-09	-2.844570e+00	1.202777e+02
2.510000e-06	-5.319671e-07	8.999511e-10	-3.861316e+00	5.642696e+01
2.520000e-06	-6.718638e-07	-6.518885e-11	-4.876765e+00	-8.546290e+00
2.530000e-06	-8.114963e-07	-1.048712e-09	-5.890296e+00	-7.472718e+01
2.540000e-06	-9.507481e-07	-2.057793e-09	-6.901064e+00	-1.421169e+02
2.550000e-06	-1.089597e-06	-3.095477e-09	-7.908907e+00	-2.105965e+02
2.560000e-06	-1.228022e-06	-4.158738e-09	-8.913676e+00	-2.799046e+02
2.570000e-06	-1.365985e-06	-5.243825e-09	-9.915089e+00	-3.496311e+02
2.580000e-06	-1.503485e-06	-6.338928e-09	-1.091314e+01	-4.192301e+02
2.590000e-06	-1.640467e-06	-7.424351e-09	-1.190743e+01	-4.880499e+02
2.600000e-06	-1.776807e-06	-8.479974e-09	-1.289707e+01	-5.553771e+02
2.610000e-06	-1.912399e-06	-9.488599e-09	-1.388127e+01	-6.204903e+02
2.620000e-06	-2.047227e-06	-1.043854e-08	-1.485993e+01	-6.827170e+02
2.630000e-06	-2.181392e-06	-1.132531e-08	-1.583377e+01	-7.414861e+02
2.640000e-06	-2.314827e-06	-1.214576e-08	-1.680231e+01	-7.963720e+02
2.650000e-06	-2.447292e-06	-1.290039e-08	-1.776382e+01	-8.471226e+02
2.660000e-06	-2.578720e-06	-1.359558e-08	-1.871780e+01	-8.936711e+02
2.670000e-06	-2.709209e-06	-1.423701e-08	-1.966496e+01	-9.361284e+02
2.680000e-06	-2.838806e-06	-1.482911e-08	-2.060565e+01	-9.747595e+02
2.690000e-06	-2.967408e-06	-1.537486e-08	-2.153911e+01	-1.009946e+03
2.700000e-06	-3.094861e-06	-1.587936e-08	-2.246424e+01	-1.042139e+03
2.710000e-06	-3.221268e-06	-1.634814e-08	-2.338177e+01	-1.071812e+03
2.720000e-06	-3.346582e-06	-1.678697e-08	-2.429137e+01	-1.099418e+03
2.730000e-06	-3.470590e-06	-1.719753e-08	-2.519149e+01	-1.125345e+03
2.740000e-06	-3.593338e-06	-1.758145e-08	-2.608246e+01	-1.149900e+03
2.750000e-06	-3.714818e-06	-1.794064e-08	-2.696424e+01	-1.173291e+03
2.760000e-06	-3.834873e-06	-1.827608e-08	-2.783567e+01	-1.195635e+03
2.770000e-06	-3.953530e-06	-1.859311e-08	-2.869694e+01	-1.216965e+03
2.780000e-06	-4.070742e-06	-1.889367e-08	-2.954773e+01	-1.237263e+03
2.790000e-06	-4.186293e-06	-1.917735e-08	-3.038646e+01	-1.256477e+03
2.800000e-06	-4.300127e-06	-1.944349e-08	-3.121274e+01	-1.274557e+03
2.810000e-06	-4.412167e-06	-1.969388e-08	-3.202599e+01	-1.291473e+03
2.820000e-06	-4.522446e-06	-1.993285e-08	-3.282646e+01	-1.307234e+03
2.830000e-06	-4.631220e-06	-2.016170e-08	-3.361600e+01	-1.321891e+03
2.840000e-06	-4.738584e-06	-2.038091e-08	-3.439531e+01	-1.335541e+03
2.850000e-06	-4.844401e-06	-2.058907e-08	-3.516338e+01	-1.348311e+03
2.860000e-06	-4.948492e-06	-2.078484e-08	-3.591894e+01	-1.360348e+03
2.870000e-06	-5.050665e-06	-2.096811e-08	-3.666056e+01	-1.371793e+03
2.880000e-06	-5.150848e-06	-2.114000e-08	-3.738775e+01	-1.382772e+03
2.890000e-06	-5.249205e-06	-2.130353e-08	-3.810168e+01	-1.393373e+03
2.900000e-06	-5.345827e-06	-2.145928e-08	-3.880302e+01	-1.403648e+03
2.910000e-06	-5.440562e-06	-2.160646e-08	-3.949066e+01	-1.413601e+03
2.920000e-06	-5.533247e-06	-2.174657e-08	-4.016341e+01	-1.423203e+03
2.930000e-06	-5.623961e-06	-2.188074e-08	-4.082187e+01	-1.432397e+03
2.940000e-06	-5.712678e-06	-2.200738e-08	-4.146583e+01	-1.441116e+03
