# Temperatura_=_76.77
# Concentracion g/m^3_=_28370.0
# C_Vs_to_Am_M_A/Vsm_=_65563218390.804596
# pendiente_HvsI_1/m_=_3716.3
# ordenada_HvsI_A/m_=_1297.0
# frecuencia_Hz_=_302369.54867292044

Tiempo_(s)	Campo_(V.s)	Magnetizacion_(V.s)	Campo_(kA/m)	Magnetizacion_(A/m)
0.000000e+00	-7.311234e-06	-2.722013e-08	-5.319424e+01	-1.782327e+03
1.000000e-08	-7.307191e-06	-2.721080e-08	-5.316482e+01	-1.781422e+03
2.000000e-08	-7.300843e-06	-2.719915e-08	-5.311864e+01	-1.780430e+03
3.000000e-08	-7.292112e-06	-2.718826e-08	-5.305512e+01	-1.779393e+03
4.000000e-08	-7.280812e-06	-2.717478e-08	-5.297290e+01	-1.778332e+03
5.000000e-08	-7.266752e-06	-2.715554e-08	-5.287061e+01	-1.777245e+03
6.000000e-08	-7.250015e-06	-2.713286e-08	-5.274883e+01	-1.776107e+03
7.000000e-08	-7.231115e-06	-2.710879e-08	-5.261132e+01	-1.774875e+03
8.000000e-08	-7.210153e-06	-2.709816e-08	-5.245880e+01	-1.773498e+03
9.000000e-08	-7.186529e-06	-2.709215e-08	-5.228693e+01	-1.771926e+03
1.000000e-07	-7.159861e-06	-2.704802e-08	-5.209290e+01	-1.770118e+03
1.100000e-07	-7.130414e-06	-2.699126e-08	-5.187865e+01	-1.768050e+03
1.200000e-07	-7.098504e-06	-2.695002e-08	-5.164648e+01	-1.765722e+03
1.300000e-07	-7.064127e-06	-2.691120e-08	-5.139636e+01	-1.763152e+03
1.400000e-07	-7.027580e-06	-2.685642e-08	-5.113046e+01	-1.760376e+03
1.500000e-07	-6.989293e-06	-2.680917e-08	-5.085190e+01	-1.757440e+03
1.600000e-07	-6.948901e-06	-2.678184e-08	-5.055802e+01	-1.754390e+03
1.700000e-07	-6.905973e-06	-2.670227e-08	-5.024569e+01	-1.751261e+03
1.800000e-07	-6.860621e-06	-2.664396e-08	-4.991572e+01	-1.748070e+03
1.900000e-07	-6.812709e-06	-2.661002e-08	-4.956713e+01	-1.744810e+03
2.000000e-07	-6.761956e-06	-2.656739e-08	-4.919787e+01	-1.741448e+03
2.100000e-07	-6.708530e-06	-2.653169e-08	-4.880916e+01	-1.737930e+03
2.200000e-07	-6.652593e-06	-2.645811e-08	-4.840217e+01	-1.734184e+03
2.300000e-07	-6.594134e-06	-2.638468e-08	-4.797684e+01	-1.730138e+03
2.400000e-07	-6.533242e-06	-2.629511e-08	-4.753381e+01	-1.725722e+03
2.500000e-07	-6.469964e-06	-2.619726e-08	-4.707342e+01	-1.720886e+03
2.600000e-07	-6.404199e-06	-2.611887e-08	-4.659494e+01	-1.715606e+03
2.700000e-07	-6.336000e-06	-2.604045e-08	-4.609875e+01	-1.709886e+03
2.800000e-07	-6.265498e-06	-2.594978e-08	-4.558579e+01	-1.703762e+03
2.900000e-07	-6.192553e-06	-2.585031e-08	-4.505507e+01	-1.697291e+03
3.000000e-07	-6.117089e-06	-2.575651e-08	-4.450602e+01	-1.690547e+03
3.100000e-07	-6.039067e-06	-2.565914e-08	-4.393835e+01	-1.683601e+03
3.200000e-07	-5.958552e-06	-2.555707e-08	-4.335255e+01	-1.676515e+03
3.300000e-07	-5.875934e-06	-2.545607e-08	-4.275144e+01	-1.669326e+03
3.400000e-07	-5.791380e-06	-2.533909e-08	-4.213626e+01	-1.662039e+03
3.500000e-07	-5.704903e-06	-2.522310e-08	-4.150708e+01	-1.654625e+03
3.600000e-07	-5.616479e-06	-2.510214e-08	-4.086373e+01	-1.647022e+03
3.700000e-07	-5.525923e-06	-2.497041e-08	-4.020488e+01	-1.639143e+03
3.800000e-07	-5.433364e-06	-2.483993e-08	-3.953145e+01	-1.630889e+03
3.900000e-07	-5.338989e-06	-2.470127e-08	-3.884481e+01	-1.622164e+03
4.000000e-07	-5.242687e-06	-2.455201e-08	-3.814414e+01	-1.612887e+03
4.100000e-07	-5.144413e-06	-2.439659e-08	-3.742913e+01	-1.603006e+03
4.200000e-07	-5.044351e-06	-2.424374e-08	-3.670111e+01	-1.592502e+03
4.300000e-07	-4.942604e-06	-2.407835e-08	-3.596083e+01	-1.581397e+03
4.400000e-07	-4.839123e-06	-2.390191e-08	-3.520793e+01	-1.569739e+03
4.500000e-07	-4.733905e-06	-2.372257e-08	-3.444240e+01	-1.557602e+03
4.600000e-07	-4.626896e-06	-2.353822e-08	-3.366384e+01	-1.545061e+03
4.700000e-07	-4.518239e-06	-2.334690e-08	-3.287328e+01	-1.532183e+03
4.800000e-07	-4.408093e-06	-2.314922e-08	-3.207190e+01	-1.519006e+03
4.900000e-07	-4.296348e-06	-2.294896e-08	-3.125888e+01	-1.505532e+03
5.000000e-07	-4.182871e-06	-2.273467e-08	-3.043325e+01	-1.491717e+03
5.100000e-07	-4.067557e-06	-2.250464e-08	-2.959427e+01	-1.477474e+03
5.200000e-07	-3.950598e-06	-2.226374e-08	-2.874331e+01	-1.462678e+03
5.300000e-07	-3.832284e-06	-2.201623e-08	-2.788249e+01	-1.447186e+03
5.400000e-07	-3.712627e-06	-2.175615e-08	-2.701191e+01	-1.430849e+03
5.500000e-07	-3.591529e-06	-2.148166e-08	-2.613083e+01	-1.413536e+03
5.600000e-07	-3.468955e-06	-2.119861e-08	-2.523902e+01	-1.395145e+03
5.700000e-07	-3.345008e-06	-2.090428e-08	-2.433723e+01	-1.375620e+03
5.800000e-07	-3.219865e-06	-2.059951e-08	-2.342672e+01	-1.354948e+03
5.900000e-07	-3.093631e-06	-2.028256e-08	-2.250829e+01	-1.333160e+03
6.000000e-07	-2.966239e-06	-1.994977e-08	-2.158142e+01	-1.310313e+03
6.100000e-07	-2.837752e-06	-1.959507e-08	-2.064659e+01	-1.286467e+03
6.200000e-07	-2.708281e-06	-1.921849e-08	-1.970460e+01	-1.261667e+03
6.300000e-07	-2.577708e-06	-1.882226e-08	-1.875460e+01	-1.235909e+03
6.400000e-07	-2.446076e-06	-1.840546e-08	-1.779688e+01	-1.209126e+03
6.500000e-07	-2.313621e-06	-1.796741e-08	-1.683318e+01	-1.181170e+03
6.600000e-07	-2.180460e-06	-1.750632e-08	-1.586434e+01	-1.151811e+03
6.700000e-07	-2.046598e-06	-1.701723e-08	-1.489041e+01	-1.120746e+03
6.800000e-07	-1.912023e-06	-1.649555e-08	-1.391128e+01	-1.087619e+03
6.900000e-07	-1.776750e-06	-1.594195e-08	-1.292708e+01	-1.052051e+03
7.000000e-07	-1.640847e-06	-1.535297e-08	-1.193829e+01	-1.013678e+03
7.100000e-07	-1.504343e-06	-1.472515e-08	-1.094512e+01	-9.721870e+02
7.200000e-07	-1.367333e-06	-1.405572e-08	-9.948287e+00	-9.273521e+02
7.300000e-07	-1.229930e-06	-1.333947e-08	-8.948584e+00	-8.790579e+02
7.400000e-07	-1.092095e-06	-1.257141e-08	-7.945736e+00	-8.273131e+02
7.500000e-07	-9.537239e-07	-1.175021e-08	-6.938995e+00	-7.722495e+02
7.600000e-07	-8.148908e-07	-1.087773e-08	-5.928889e+00	-7.141052e+02
7.700000e-07	-6.757062e-07	-9.953101e-09	-4.916226e+00	-6.531958e+02
7.800000e-07	-5.362671e-07	-8.980485e-09	-3.901711e+00	-5.898762e+02
7.900000e-07	-3.966020e-07	-7.965489e-09	-2.885552e+00	-5.244994e+02
8.000000e-07	-2.567463e-07	-6.915895e-09	-1.868005e+00	-4.573766e+02
8.100000e-07	-1.168009e-07	-5.840221e-09	-8.498066e-01	-3.887459e+02
8.200000e-07	2.322776e-08	-4.748815e-09	1.689978e-01	-3.187543e+02
8.300000e-07	1.632833e-07	-3.649661e-09	1.187998e+00	-2.474546e+02
8.400000e-07	3.032759e-07	-2.546225e-09	2.206540e+00	-1.748200e+02
8.500000e-07	4.431411e-07	-1.440129e-09	3.224155e+00	-1.007741e+02
8.600000e-07	5.828414e-07	-3.256333e-10	4.240571e+00	-2.523213e+01
8.700000e-07	7.223963e-07	8.067527e-10	5.255928e+00	5.185116e+01
8.800000e-07	8.617339e-07	1.969869e-09	6.269705e+00	1.304344e+02
8.900000e-07	1.000699e-06	3.168630e-09	7.280768e+00	2.103497e+02
9.000000e-07	1.139242e-06	4.401647e-09	8.288765e+00	2.912760e+02
9.100000e-07	1.277271e-06	5.661659e-09	9.293021e+00	3.727298e+02
9.200000e-07	1.414690e-06	6.932944e-09	1.029284e+01	4.540770e+02
9.300000e-07	1.551573e-06	8.196258e-09	1.128875e+01	5.345626e+02
9.400000e-07	1.687947e-06	9.428160e-09	1.228097e+01	6.133589e+02
9.500000e-07	1.823701e-06	1.060564e-08	1.326867e+01	6.896235e+02
9.600000e-07	1.958763e-06	1.171074e-08	1.425134e+01	7.625637e+02
9.700000e-07	2.093078e-06	1.273802e-08	1.522857e+01	8.314972e+02
9.800000e-07	2.226652e-06	1.368817e-08	1.620042e+01	8.959040e+02
9.900000e-07	2.359465e-06	1.456140e-08	1.716672e+01	9.554620e+02
1.000000e-06	2.491397e-06	1.536297e-08	1.812662e+01	1.010064e+03
1.010000e-06	2.622338e-06	1.609921e-08	1.907930e+01	1.059813e+03
1.020000e-06	2.752229e-06	1.677770e-08	2.002435e+01	1.104998e+03
1.030000e-06	2.881080e-06	1.740448e-08	2.096183e+01	1.146053e+03
1.040000e-06	3.008797e-06	1.798514e-08	2.189106e+01	1.183507e+03
1.050000e-06	3.135349e-06	1.852654e-08	2.281181e+01	1.217923e+03
1.060000e-06	3.260885e-06	1.903073e-08	2.372517e+01	1.249850e+03
1.070000e-06	3.385407e-06	1.950134e-08	2.463116e+01	1.279772e+03
1.080000e-06	3.508765e-06	1.994242e-08	2.552867e+01	1.308077e+03
1.090000e-06	3.630806e-06	2.035611e-08	2.641660e+01	1.335040e+03
1.100000e-06	3.751446e-06	2.074488e-08	2.729434e+01	1.360821e+03
1.110000e-06	3.870739e-06	2.111091e-08	2.816228e+01	1.385479e+03
1.120000e-06	3.988747e-06	2.145588e-08	2.902087e+01	1.408999e+03
1.130000e-06	4.105317e-06	2.178141e-08	2.986900e+01	1.431320e+03
1.140000e-06	4.220249e-06	2.208738e-08	3.070520e+01	1.452372e+03
1.150000e-06	4.333521e-06	2.237623e-08	3.152934e+01	1.472103e+03
1.160000e-06	4.445125e-06	2.264998e-08	3.234133e+01	1.490504e+03
1.170000e-06	4.555139e-06	2.291040e-08	3.314176e+01	1.507616e+03
1.180000e-06	4.663728e-06	2.315821e-08	3.393182e+01	1.523538e+03
1.190000e-06	4.770745e-06	2.339359e-08	3.471044e+01	1.538411e+03
1.200000e-06	4.875935e-06	2.361748e-08	3.547577e+01	1.552405e+03
1.210000e-06	4.979300e-06	2.382984e-08	3.622782e+01	1.565696e+03
1.220000e-06	5.080943e-06	2.403119e-08	3.696734e+01	1.578444e+03
1.230000e-06	5.180803e-06	2.422027e-08	3.769389e+01	1.590778e+03
1.240000e-06	5.278637e-06	2.439997e-08	3.840570e+01	1.602775e+03
1.250000e-06	5.374415e-06	2.457099e-08	3.910255e+01	1.614463e+03
1.260000e-06	5.468308e-06	2.473533e-08	3.978569e+01	1.625819e+03
1.270000e-06	5.560326e-06	2.489368e-08	4.045518e+01	1.636783e+03
1.280000e-06	5.650296e-06	2.504527e-08	4.110978e+01	1.647273e+03
1.290000e-06	5.738110e-06	2.519153e-08	4.174868e+01	1.657204e+03
1.300000e-06	5.823869e-06	2.533130e-08	4.237264e+01	1.666504e+03
1.310000e-06	5.907647e-06	2.546236e-08	4.298218e+01	1.675133e+03
1.320000e-06	5.989353e-06	2.558567e-08	4.357665e+01	1.683087e+03
1.330000e-06	6.068847e-06	2.570313e-08	4.415502e+01	1.690406e+03
1.340000e-06	6.146073e-06	2.581405e-08	4.471690e+01	1.697162e+03
1.350000e-06	6.220931e-06	2.591733e-08	4.526154e+01	1.703456e+03
1.360000e-06	6.293379e-06	2.601362e-08	4.578865e+01	1.709397e+03
1.370000e-06	6.363578e-06	2.610423e-08	4.629939e+01	1.715091e+03
1.380000e-06	6.431554e-06	2.619054e-08	4.679397e+01	1.720624e+03
1.390000e-06	6.497160e-06	2.627362e-08	4.727130e+01	1.726051e+03
1.400000e-06	6.560426e-06	2.635346e-08	4.773160e+01	1.731392e+03
1.410000e-06	6.621516e-06	2.642919e-08	4.817607e+01	1.736629e+03
1.420000e-06	6.680309e-06	2.649891e-08	4.860383e+01	1.741717e+03
1.430000e-06	6.736697e-06	2.656505e-08	4.901409e+01	1.746589e+03
1.440000e-06	6.790722e-06	2.662881e-08	4.940716e+01	1.751175e+03
1.450000e-06	6.842076e-06	2.669022e-08	4.978080e+01	1.755409e+03
1.460000e-06	6.890616e-06	2.674931e-08	5.013396e+01	1.759248e+03
1.470000e-06	6.936651e-06	2.680585e-08	5.046889e+01	1.762673e+03
1.480000e-06	6.980318e-06	2.685929e-08	5.078660e+01	1.765696e+03
1.490000e-06	7.021434e-06	2.690676e-08	5.108575e+01	1.768357e+03
1.500000e-06	7.060002e-06	2.694889e-08	5.136635e+01	1.770715e+03
1.510000e-06	7.096159e-06	2.698551e-08	5.162942e+01	1.772841e+03
1.520000e-06	7.129782e-06	2.701760e-08	5.187405e+01	1.774804e+03
1.530000e-06	7.160841e-06	2.704857e-08	5.210003e+01	1.776659e+03
1.540000e-06	7.189492e-06	2.707792e-08	5.230849e+01	1.778442e+03
1.550000e-06	7.215589e-06	2.710432e-08	5.249836e+01	1.780159e+03
1.560000e-06	7.238892e-06	2.712741e-08	5.266790e+01	1.781793e+03
1.570000e-06	7.259629e-06	2.714711e-08	5.281878e+01	1.783302e+03
1.580000e-06	7.277861e-06	2.716190e-08	5.295143e+01	1.784631e+03
1.590000e-06	7.293372e-06	2.717226e-08	5.306428e+01	1.785723e+03
1.600000e-06	7.306076e-06	2.718003e-08	5.315671e+01	1.786526e+03
1.610000e-06	7.315864e-06	2.718658e-08	5.322792e+01	1.787004e+03
1.620000e-06	7.322875e-06	2.719195e-08	5.327894e+01	1.787147e+03
1.630000e-06	7.327377e-06	2.719381e-08	5.331169e+01	1.786969e+03
1.640000e-06	7.329234e-06	2.719294e-08	5.332520e+01	1.786505e+03
1.650000e-06	7.328471e-06	2.718997e-08	5.331965e+01	1.785812e+03
1.660000e-06	7.325419e-06	2.718205e-08	5.329745e+01	1.784951e+03
1.670000e-06	7.319966e-06	2.717068e-08	5.325777e+01	1.783983e+03
1.680000e-06	7.311981e-06	2.715878e-08	5.319967e+01	1.782956e+03
1.690000e-06	7.301575e-06	2.714607e-08	5.312396e+01	1.781902e+03
1.700000e-06	7.288617e-06	2.712946e-08	5.302968e+01	1.780824e+03
1.710000e-06	7.273102e-06	2.711031e-08	5.291681e+01	1.779707e+03
1.720000e-06	7.255370e-06	2.708621e-08	5.278779e+01	1.778513e+03
1.730000e-06	7.235522e-06	2.703016e-08	5.264338e+01	1.777192e+03
1.740000e-06	7.212947e-06	2.697764e-08	5.247913e+01	1.775694e+03
1.750000e-06	7.187071e-06	2.697016e-08	5.229087e+01	1.773973e+03
1.760000e-06	7.157947e-06	2.695982e-08	5.207897e+01	1.771998e+03
1.770000e-06	7.126075e-06	2.692694e-08	5.184708e+01	1.769760e+03
1.780000e-06	7.092098e-06	2.691188e-08	5.159987e+01	1.767271e+03
1.790000e-06	7.056482e-06	2.689342e-08	5.134075e+01	1.764563e+03
1.800000e-06	7.019223e-06	2.683321e-08	5.106966e+01	1.761677e+03
1.810000e-06	6.979550e-06	2.682386e-08	5.078101e+01	1.758662e+03
1.820000e-06	6.937232e-06	2.680275e-08	5.047312e+01	1.755557e+03
1.830000e-06	6.892697e-06	2.675641e-08	5.014910e+01	1.752386e+03
1.840000e-06	6.845708e-06	2.672642e-08	4.980722e+01	1.749152e+03
1.850000e-06	6.796145e-06	2.663282e-08	4.944661e+01	1.745830e+03
1.860000e-06	6.743928e-06	2.658686e-08	4.906670e+01	1.742374e+03
1.870000e-06	6.688873e-06	2.653897e-08	4.866613e+01	1.738716e+03
1.880000e-06	6.631406e-06	2.647212e-08	4.824802e+01	1.734784e+03
1.890000e-06	6.571488e-06	2.644190e-08	4.781208e+01	1.730506e+03
1.900000e-06	6.508927e-06	2.635073e-08	4.735691e+01	1.725823e+03
1.910000e-06	6.443888e-06	2.626462e-08	4.688370e+01	1.720701e+03
1.920000e-06	6.376515e-06	2.617009e-08	4.639352e+01	1.715134e+03
1.930000e-06	6.306724e-06	2.608013e-08	4.588574e+01	1.709148e+03
1.940000e-06	6.234389e-06	2.601125e-08	4.535945e+01	1.702792e+03
1.950000e-06	6.159738e-06	2.591442e-08	4.481631e+01	1.696135e+03
1.960000e-06	6.082568e-06	2.582670e-08	4.425485e+01	1.689252e+03
1.970000e-06	6.002855e-06	2.570813e-08	4.367488e+01	1.682209e+03
1.980000e-06	5.921034e-06	2.560567e-08	4.307958e+01	1.675052e+03
1.990000e-06	5.837225e-06	2.549830e-08	4.246981e+01	1.667801e+03
2.000000e-06	5.751293e-06	2.537678e-08	4.184460e+01	1.660436e+03
2.010000e-06	5.663164e-06	2.526070e-08	4.120340e+01	1.652908e+03
2.020000e-06	5.573039e-06	2.512424e-08	4.054768e+01	1.645138e+03
2.030000e-06	5.480961e-06	2.499393e-08	3.987775e+01	1.637028e+03
2.040000e-06	5.386903e-06	2.485573e-08	3.919341e+01	1.628480e+03
2.050000e-06	5.290950e-06	2.472244e-08	3.849529e+01	1.619407e+03
2.060000e-06	5.193266e-06	2.457731e-08	3.778457e+01	1.609744e+03
2.070000e-06	5.093850e-06	2.442728e-08	3.706125e+01	1.599461e+03
2.080000e-06	4.992557e-06	2.426925e-08	3.632427e+01	1.588564e+03
2.090000e-06	4.889320e-06	2.410160e-08	3.557315e+01	1.577095e+03
2.100000e-06	4.784305e-06	2.393146e-08	3.480910e+01	1.565119e+03
2.110000e-06	4.677854e-06	2.375107e-08	3.403459e+01	1.552712e+03
2.120000e-06	4.569900e-06	2.356239e-08	3.324916e+01	1.539947e+03
2.130000e-06	4.460318e-06	2.335643e-08	3.245187e+01	1.526873e+03
2.140000e-06	4.349001e-06	2.314804e-08	3.164196e+01	1.513507e+03
2.150000e-06	4.235960e-06	2.293721e-08	3.081951e+01	1.499820e+03
2.160000e-06	4.121278e-06	2.272324e-08	2.998512e+01	1.485741e+03
2.170000e-06	4.004902e-06	2.249849e-08	2.913841e+01	1.471157e+03
2.180000e-06	3.886885e-06	2.226201e-08	2.827975e+01	1.455929e+03
2.190000e-06	3.767308e-06	2.201188e-08	2.740975e+01	1.439909e+03
2.200000e-06	3.646304e-06	2.174865e-08	2.652936e+01	1.422957e+03
2.210000e-06	3.523983e-06	2.147423e-08	2.563939e+01	1.404959e+03
2.220000e-06	3.400417e-06	2.118767e-08	2.474037e+01	1.385841e+03
2.230000e-06	3.275584e-06	2.088582e-08	2.383212e+01	1.365575e+03
2.240000e-06	3.149471e-06	2.056369e-08	2.291456e+01	1.344179e+03
2.250000e-06	3.022133e-06	2.022966e-08	2.198809e+01	1.321701e+03
2.260000e-06	2.893618e-06	1.988494e-08	2.105305e+01	1.298205e+03
2.270000e-06	2.764075e-06	1.952752e-08	2.011054e+01	1.273741e+03
2.280000e-06	2.633618e-06	1.915031e-08	1.916138e+01	1.248328e+03
2.290000e-06	2.502253e-06	1.875030e-08	1.820561e+01	1.221922e+03
2.300000e-06	2.370028e-06	1.832396e-08	1.724358e+01	1.194406e+03
2.310000e-06	2.237012e-06	1.787078e-08	1.627579e+01	1.165578e+03
2.320000e-06	2.103212e-06	1.739224e-08	1.530231e+01	1.135160e+03
2.330000e-06	1.968668e-06	1.688469e-08	1.432341e+01	1.102811e+03
2.340000e-06	1.833363e-06	1.634430e-08	1.333897e+01	1.068157e+03
2.350000e-06	1.697349e-06	1.576697e-08	1.234938e+01	1.030823e+03
2.360000e-06	1.560766e-06	1.515025e-08	1.135565e+01	9.904757e+02
2.370000e-06	1.423730e-06	1.449256e-08	1.035861e+01	9.468533e+02
2.380000e-06	1.286312e-06	1.379312e-08	9.358804e+00	8.997987e+02
2.390000e-06	1.148513e-06	1.304816e-08	8.356218e+00	8.492760e+02
2.400000e-06	1.010341e-06	1.224904e-08	7.350923e+00	7.953740e+02
2.410000e-06	8.717789e-07	1.139461e-08	6.342789e+00	7.382956e+02
2.420000e-06	7.329131e-07	1.048775e-08	5.332445e+00	6.783328e+02
2.430000e-06	5.938321e-07	9.530846e-09	4.320536e+00	6.158311e+02
2.440000e-06	4.545098e-07	8.526886e-09	3.306871e+00	5.511490e+02
2.450000e-06	3.149884e-07	7.482920e-09	2.291757e+00	4.846166e+02
2.460000e-06	1.753369e-07	6.410581e-09	1.275696e+00	4.165013e+02
2.470000e-06	3.556128e-08	5.320043e-09	2.587327e-01	3.469836e+02
2.480000e-06	-1.042948e-07	4.220448e-09	-7.588164e-01	2.761491e+02
2.490000e-06	-2.440867e-07	3.114995e-09	-1.775898e+00	2.039969e+02
2.500000e-06	-3.838170e-07	2.003202e-09	-2.792532e+00	1.304639e+02
2.510000e-06	-5.234961e-07	8.819756e-10	-3.808793e+00	5.546314e+01
2.520000e-06	-6.629520e-07	-2.537751e-10	-4.823430e+00	-2.107034e+01
2.530000e-06	-8.021063e-07	-1.410591e-09	-5.835873e+00	-9.913125e+01
2.540000e-06	-9.409607e-07	-2.596954e-09	-6.846134e+00	-1.786007e+02
2.550000e-06	-1.079488e-06	-3.817952e-09	-7.854016e+00	-2.592144e+02
2.560000e-06	-1.217652e-06	-5.070741e-09	-8.859254e+00	-3.405466e+02
2.570000e-06	-1.355356e-06	-6.344915e-09	-9.861146e+00	-4.220145e+02
2.580000e-06	-1.492560e-06	-7.622938e-09	-1.085939e+01	-5.029016e+02
2.590000e-06	-1.629292e-06	-8.881223e-09	-1.185422e+01	-5.823999e+02
2.600000e-06	-1.765460e-06	-1.009410e-08	-1.284493e+01	-6.596649e+02
2.610000e-06	-1.900923e-06	-1.123989e-08	-1.383052e+01	-7.338791e+02
2.620000e-06	-2.035587e-06	-1.230850e-08	-1.481029e+01	-8.043140e+02
2.630000e-06	-2.169435e-06	-1.329856e-08	-1.578412e+01	-8.703867e+02
2.640000e-06	-2.302420e-06	-1.420985e-08	-1.675168e+01	-9.317014e+02
2.650000e-06	-2.434501e-06	-1.504708e-08	-1.771266e+01	-9.880735e+02
2.660000e-06	-2.565671e-06	-1.581576e-08	-1.866701e+01	-1.039533e+03
2.670000e-06	-2.695950e-06	-1.652347e-08	-1.961488e+01	-1.086306e+03
2.680000e-06	-2.825312e-06	-1.717751e-08	-2.055608e+01	-1.128780e+03
2.690000e-06	-2.953695e-06	-1.778269e-08	-2.149016e+01	-1.167457e+03
2.700000e-06	-3.081020e-06	-1.834637e-08	-2.241653e+01	-1.202895e+03
2.710000e-06	-3.207199e-06	-1.887014e-08	-2.333457e+01	-1.235653e+03
2.720000e-06	-3.332215e-06	-1.935728e-08	-2.424415e+01	-1.266242e+03
2.730000e-06	-3.455965e-06	-1.981213e-08	-2.514451e+01	-1.295089e+03
2.740000e-06	-3.578412e-06	-2.023659e-08	-2.603540e+01	-1.322508e+03
2.750000e-06	-3.699603e-06	-2.063735e-08	-2.691715e+01	-1.348701e+03
2.760000e-06	-3.819507e-06	-2.101575e-08	-2.778953e+01	-1.373760e+03
2.770000e-06	-3.937977e-06	-2.136927e-08	-2.865148e+01	-1.397693e+03
2.780000e-06	-4.054857e-06	-2.170055e-08	-2.950186e+01	-1.420451e+03
2.790000e-06	-4.170095e-06	-2.201407e-08	-3.034030e+01	-1.441965e+03
2.800000e-06	-4.283642e-06	-2.231255e-08	-3.116643e+01	-1.462173e+03
2.810000e-06	-4.395461e-06	-2.259573e-08	-3.197999e+01	-1.481049e+03
2.820000e-06	-4.505622e-06	-2.286334e-08	-3.278149e+01	-1.498614e+03
2.830000e-06	-4.614299e-06	-2.311766e-08	-3.357219e+01	-1.514949e+03
2.840000e-06	-4.721522e-06	-2.336208e-08	-3.435231e+01	-1.530179e+03
2.850000e-06	-4.827182e-06	-2.359611e-08	-3.512106e+01	-1.544468e+03
2.860000e-06	-4.931112e-06	-2.381666e-08	-3.587722e+01	-1.557991e+03
2.870000e-06	-5.033116e-06	-2.402513e-08	-3.661937e+01	-1.570918e+03
2.880000e-06	-5.133203e-06	-2.422350e-08	-3.734757e+01	-1.583390e+03
2.890000e-06	-5.231476e-06	-2.441221e-08	-3.806258e+01	-1.595502e+03
2.900000e-06	-5.327961e-06	-2.459047e-08	-3.876457e+01	-1.607302e+03
2.910000e-06	-5.422537e-06	-2.475668e-08	-3.945267e+01	-1.618783e+03
2.920000e-06	-5.515141e-06	-2.491485e-08	-4.012643e+01	-1.629897e+03
2.930000e-06	-5.605798e-06	-2.506699e-08	-4.078602e+01	-1.640568e+03
2.940000e-06	-5.694419e-06	-2.521439e-08	-4.143080e+01	-1.650709e+03
