# Temperatura_=_38.55
# Concentracion g/m^3_=_28370.0
# C_Vs_to_Am_M_A/Vsm_=_65563218390.804596
# pendiente_HvsI_1/m_=_3716.3
# ordenada_HvsI_A/m_=_1297.0
# frecuencia_Hz_=_302369.09275814495

Tiempo_(s)	Campo_(V.s)	Magnetizacion_(V.s)	Campo_(kA/m)	Magnetizacion_(A/m)
0.000000e+00	-7.295052e-06	-2.200447e-08	-5.319151e+01	-1.440220e+03
1.000000e-08	-7.291054e-06	-2.199915e-08	-5.316236e+01	-1.439508e+03
2.000000e-08	-7.284788e-06	-2.198913e-08	-5.311667e+01	-1.438708e+03
3.000000e-08	-7.276128e-06	-2.197938e-08	-5.305353e+01	-1.437865e+03
4.000000e-08	-7.264853e-06	-2.196831e-08	-5.297132e+01	-1.437011e+03
5.000000e-08	-7.250835e-06	-2.195256e-08	-5.286910e+01	-1.436156e+03
6.000000e-08	-7.234173e-06	-2.193277e-08	-5.274761e+01	-1.435295e+03
7.000000e-08	-7.215315e-06	-2.191149e-08	-5.261011e+01	-1.434401e+03
8.000000e-08	-7.194332e-06	-2.190598e-08	-5.245712e+01	-1.433438e+03
9.000000e-08	-7.170704e-06	-2.192275e-08	-5.228483e+01	-1.432362e+03
1.000000e-07	-7.144113e-06	-2.188687e-08	-5.209095e+01	-1.431134e+03
1.100000e-07	-7.114829e-06	-2.182910e-08	-5.187742e+01	-1.429722e+03
1.200000e-07	-7.083077e-06	-2.179946e-08	-5.164590e+01	-1.428110e+03
1.300000e-07	-7.048839e-06	-2.176758e-08	-5.139626e+01	-1.426299e+03
1.400000e-07	-7.012432e-06	-2.170763e-08	-5.113080e+01	-1.424303e+03
1.500000e-07	-6.974208e-06	-2.166147e-08	-5.085209e+01	-1.422151e+03
1.600000e-07	-6.933845e-06	-2.169313e-08	-5.055779e+01	-1.419876e+03
1.700000e-07	-6.890984e-06	-2.162470e-08	-5.024527e+01	-1.417508e+03
1.800000e-07	-6.845756e-06	-2.156286e-08	-4.991549e+01	-1.415067e+03
1.900000e-07	-6.797969e-06	-2.157278e-08	-4.956706e+01	-1.412560e+03
2.000000e-07	-6.747309e-06	-2.150287e-08	-4.919767e+01	-1.409972e+03
2.100000e-07	-6.693966e-06	-2.146990e-08	-4.880872e+01	-1.407274e+03
2.200000e-07	-6.638087e-06	-2.143293e-08	-4.840128e+01	-1.404420e+03
2.300000e-07	-6.579704e-06	-2.137072e-08	-4.797558e+01	-1.401357e+03
2.400000e-07	-6.518941e-06	-2.131210e-08	-4.753253e+01	-1.398032e+03
2.500000e-07	-6.455821e-06	-2.123686e-08	-4.707230e+01	-1.394401e+03
2.600000e-07	-6.390238e-06	-2.117769e-08	-4.659411e+01	-1.390437e+03
2.700000e-07	-6.322176e-06	-2.111022e-08	-4.609783e+01	-1.386134e+03
2.800000e-07	-6.251791e-06	-2.104541e-08	-4.558463e+01	-1.381508e+03
2.900000e-07	-6.179054e-06	-2.097423e-08	-4.505427e+01	-1.376594e+03
3.000000e-07	-6.103783e-06	-2.090031e-08	-4.450543e+01	-1.371442e+03
3.100000e-07	-6.025885e-06	-2.082961e-08	-4.393744e+01	-1.366108e+03
3.200000e-07	-5.945491e-06	-2.074295e-08	-4.335125e+01	-1.360639e+03
3.300000e-07	-5.862954e-06	-2.067603e-08	-4.274944e+01	-1.355072e+03
3.400000e-07	-5.778513e-06	-2.058447e-08	-4.213374e+01	-1.349418e+03
3.500000e-07	-5.692240e-06	-2.048461e-08	-4.150469e+01	-1.343664e+03
3.600000e-07	-5.603999e-06	-2.039535e-08	-4.086128e+01	-1.337769e+03
3.700000e-07	-5.513676e-06	-2.029522e-08	-4.020270e+01	-1.331670e+03
3.800000e-07	-5.421366e-06	-2.019116e-08	-3.952962e+01	-1.325293e+03
3.900000e-07	-5.327132e-06	-2.008430e-08	-3.884252e+01	-1.318557e+03
4.000000e-07	-5.231029e-06	-1.997459e-08	-3.814179e+01	-1.311392e+03
4.100000e-07	-5.133027e-06	-1.984404e-08	-3.742721e+01	-1.303747e+03
4.200000e-07	-5.033197e-06	-1.971919e-08	-3.669931e+01	-1.295595e+03
4.300000e-07	-4.931599e-06	-1.959360e-08	-3.595851e+01	-1.286940e+03
4.400000e-07	-4.828245e-06	-1.945976e-08	-3.520491e+01	-1.277811e+03
4.500000e-07	-4.723266e-06	-1.931948e-08	-3.443946e+01	-1.268260e+03
4.600000e-07	-4.616536e-06	-1.917528e-08	-3.366125e+01	-1.258344e+03
4.700000e-07	-4.508085e-06	-1.902361e-08	-3.287048e+01	-1.248119e+03
4.800000e-07	-4.398099e-06	-1.886177e-08	-3.206852e+01	-1.237624e+03
4.900000e-07	-4.286606e-06	-1.869924e-08	-3.125558e+01	-1.226870e+03
5.000000e-07	-4.173432e-06	-1.852809e-08	-3.043037e+01	-1.215831e+03
5.100000e-07	-4.058437e-06	-1.834514e-08	-2.959190e+01	-1.204447e+03
5.200000e-07	-3.941774e-06	-1.815077e-08	-2.874125e+01	-1.192626e+03
5.300000e-07	-3.823655e-06	-1.795294e-08	-2.787999e+01	-1.180253e+03
5.400000e-07	-3.704220e-06	-1.774545e-08	-2.700914e+01	-1.167204e+03
5.500000e-07	-3.583410e-06	-1.752541e-08	-2.612826e+01	-1.153363e+03
5.600000e-07	-3.461202e-06	-1.729756e-08	-2.523719e+01	-1.138633e+03
5.700000e-07	-3.337603e-06	-1.706161e-08	-2.433597e+01	-1.122950e+03
5.800000e-07	-3.212768e-06	-1.681503e-08	-2.342574e+01	-1.106288e+03
5.900000e-07	-3.086817e-06	-1.655570e-08	-2.250738e+01	-1.088656e+03
6.000000e-07	-2.959774e-06	-1.628430e-08	-2.158104e+01	-1.070088e+03
6.100000e-07	-2.831709e-06	-1.599475e-08	-2.064727e+01	-1.050633e+03
6.200000e-07	-2.702570e-06	-1.568804e-08	-1.970566e+01	-1.030328e+03
6.300000e-07	-2.572317e-06	-1.536424e-08	-1.875592e+01	-1.009183e+03
6.400000e-07	-2.441059e-06	-1.502103e-08	-1.779886e+01	-9.871579e+02
6.500000e-07	-2.308936e-06	-1.465966e-08	-1.683549e+01	-9.641522e+02
6.600000e-07	-2.176044e-06	-1.428095e-08	-1.586652e+01	-9.399969e+02
6.700000e-07	-2.042419e-06	-1.388024e-08	-1.489220e+01	-9.144601e+02
6.800000e-07	-1.908035e-06	-1.345290e-08	-1.391235e+01	-8.872613e+02
6.900000e-07	-1.772991e-06	-1.299997e-08	-1.292768e+01	-8.580947e+02
7.000000e-07	-1.637394e-06	-1.251592e-08	-1.193898e+01	-8.266597e+02
7.100000e-07	-1.501234e-06	-1.199682e-08	-1.094618e+01	-7.926933e+02
7.200000e-07	-1.364547e-06	-1.144246e-08	-9.949528e+00	-7.560017e+02
7.300000e-07	-1.227425e-06	-1.085169e-08	-8.949711e+00	-7.164854e+02
7.400000e-07	-1.089832e-06	-1.022167e-08	-7.946458e+00	-6.741551e+02
7.500000e-07	-9.517994e-07	-9.550795e-09	-6.939998e+00	-6.291345e+02
7.600000e-07	-8.134142e-07	-8.840337e-09	-5.930969e+00	-5.816511e+02
7.700000e-07	-6.746927e-07	-8.090197e-09	-4.919488e+00	-5.320129e+02
7.800000e-07	-5.356788e-07	-7.302816e-09	-3.905875e+00	-4.805766e+02
7.900000e-07	-3.964543e-07	-6.483292e-09	-2.890727e+00	-4.277090e+02
8.000000e-07	-2.570921e-07	-5.642617e-09	-1.874574e+00	-3.737480e+02
8.100000e-07	-1.176158e-07	-4.787737e-09	-8.575896e-01	-3.189683e+02
8.200000e-07	2.202215e-08	-3.925725e-09	1.605734e-01	-2.635555e+02
8.300000e-07	1.617638e-07	-3.063846e-09	1.179493e+00	-2.075948e+02
8.400000e-07	3.015168e-07	-2.204338e-09	2.198495e+00	-1.510732e+02
8.500000e-07	4.411419e-07	-1.346659e-09	3.216564e+00	-9.389794e+01
8.600000e-07	5.805318e-07	-4.852836e-10	4.232919e+00	-3.592764e+01
8.700000e-07	7.196953e-07	3.869587e-10	5.247623e+00	2.298740e+01
8.800000e-07	8.585983e-07	1.278796e-09	6.260427e+00	8.296085e+01
8.900000e-07	9.972222e-07	2.194176e-09	7.271196e+00	1.440279e+02
9.000000e-07	1.135441e-06	3.133206e-09	8.279009e+00	2.061109e+02
9.100000e-07	1.273144e-06	4.094401e-09	9.283069e+00	2.689969e+02
9.200000e-07	1.410372e-06	5.073016e-09	1.028366e+01	3.323319e+02
9.300000e-07	1.547067e-06	6.058282e-09	1.128036e+01	3.956321e+02
9.400000e-07	1.683136e-06	7.035646e-09	1.227250e+01	4.583115e+02
9.500000e-07	1.818604e-06	7.988109e-09	1.326026e+01	5.197229e+02
9.600000e-07	1.953420e-06	8.899607e-09	1.424327e+01	5.792075e+02
9.700000e-07	2.087439e-06	9.760327e-09	1.522046e+01	6.361474e+02
9.800000e-07	2.220659e-06	1.056392e-08	1.619182e+01	6.900153e+02
9.900000e-07	2.353125e-06	1.130639e-08	1.715769e+01	7.404145e+02
1.000000e-06	2.484801e-06	1.198978e-08	1.811781e+01	7.871055e+02
1.010000e-06	2.615515e-06	1.262177e-08	1.907090e+01	8.300175e+02
1.020000e-06	2.745101e-06	1.320727e-08	2.001577e+01	8.692415e+02
1.030000e-06	2.873640e-06	1.374914e-08	2.095300e+01	9.050088e+02
1.040000e-06	3.001129e-06	1.424900e-08	2.188258e+01	9.376572e+02
1.050000e-06	3.127527e-06	1.471221e-08	2.280421e+01	9.675892e+02
1.060000e-06	3.252881e-06	1.514431e-08	2.371822e+01	9.952279e+02
1.070000e-06	3.377203e-06	1.555043e-08	2.462471e+01	1.020976e+03
1.080000e-06	3.500402e-06	1.593062e-08	2.552301e+01	1.045183e+03
1.090000e-06	3.622223e-06	1.628709e-08	2.641126e+01	1.068122e+03
1.100000e-06	3.742646e-06	1.662182e-08	2.728932e+01	1.089978e+03
1.110000e-06	3.861719e-06	1.693505e-08	2.815753e+01	1.110855e+03
1.120000e-06	3.979384e-06	1.723003e-08	2.901548e+01	1.130782e+03
1.130000e-06	4.095621e-06	1.750815e-08	2.986302e+01	1.149742e+03
1.140000e-06	4.210208e-06	1.777033e-08	3.069852e+01	1.167691e+03
1.150000e-06	4.323102e-06	1.801694e-08	3.152169e+01	1.184584e+03
1.160000e-06	4.434433e-06	1.824965e-08	3.233345e+01	1.200395e+03
1.170000e-06	4.544265e-06	1.847004e-08	3.313428e+01	1.215135e+03
1.180000e-06	4.652670e-06	1.867981e-08	3.392471e+01	1.228852e+03
1.190000e-06	4.759475e-06	1.887888e-08	3.470348e+01	1.241635e+03
1.200000e-06	4.864450e-06	1.906814e-08	3.546889e+01	1.253599e+03
1.210000e-06	4.967611e-06	1.924677e-08	3.622109e+01	1.264875e+03
1.220000e-06	5.069013e-06	1.941507e-08	3.696046e+01	1.275592e+03
1.230000e-06	5.168636e-06	1.957447e-08	3.768685e+01	1.285858e+03
1.240000e-06	5.266248e-06	1.972616e-08	3.839859e+01	1.295756e+03
1.250000e-06	5.361760e-06	1.987238e-08	3.909501e+01	1.305327e+03
1.260000e-06	5.455387e-06	2.001203e-08	3.977768e+01	1.314578e+03
1.270000e-06	5.547196e-06	2.014317e-08	4.044710e+01	1.323481e+03
1.280000e-06	5.636971e-06	2.026787e-08	4.110169e+01	1.331988e+03
1.290000e-06	5.724594e-06	2.038578e-08	4.174059e+01	1.340041e+03
1.300000e-06	5.810199e-06	2.049639e-08	4.236478e+01	1.347589e+03
1.310000e-06	5.893888e-06	2.059959e-08	4.297499e+01	1.354599e+03
1.320000e-06	5.975491e-06	2.069508e-08	4.357000e+01	1.361065e+03
1.330000e-06	6.054827e-06	2.078386e-08	4.414847e+01	1.367012e+03
1.340000e-06	6.131930e-06	2.086927e-08	4.471066e+01	1.372494e+03
1.350000e-06	6.206691e-06	2.095226e-08	4.525578e+01	1.377588e+03
1.360000e-06	6.278998e-06	2.103178e-08	4.578301e+01	1.382383e+03
1.370000e-06	6.349029e-06	2.110755e-08	4.629363e+01	1.386966e+03
1.380000e-06	6.416896e-06	2.117941e-08	4.678848e+01	1.391413e+03
1.390000e-06	6.482391e-06	2.124771e-08	4.726603e+01	1.395777e+03
1.400000e-06	6.545526e-06	2.131236e-08	4.772638e+01	1.400078e+03
1.410000e-06	6.606487e-06	2.137246e-08	4.817088e+01	1.404311e+03
1.420000e-06	6.665178e-06	2.142824e-08	4.859882e+01	1.408440e+03
1.430000e-06	6.721487e-06	2.148255e-08	4.900939e+01	1.412409e+03
1.440000e-06	6.775398e-06	2.153396e-08	4.940248e+01	1.416155e+03
1.450000e-06	6.826586e-06	2.158329e-08	4.977571e+01	1.419615e+03
1.460000e-06	6.874945e-06	2.163138e-08	5.012832e+01	1.422742e+03
1.470000e-06	6.920814e-06	2.167556e-08	5.046277e+01	1.425507e+03
1.480000e-06	6.964348e-06	2.171535e-08	5.078020e+01	1.427911e+03
1.490000e-06	7.005391e-06	2.174882e-08	5.107946e+01	1.429978e+03
1.500000e-06	7.043900e-06	2.177797e-08	5.136025e+01	1.431756e+03
1.510000e-06	7.080039e-06	2.180563e-08	5.162376e+01	1.433306e+03
1.520000e-06	7.113639e-06	2.182974e-08	5.186875e+01	1.434694e+03
1.530000e-06	7.144589e-06	2.185255e-08	5.209442e+01	1.435980e+03
1.540000e-06	7.173134e-06	2.187479e-08	5.230255e+01	1.437210e+03
1.550000e-06	7.199171e-06	2.189421e-08	5.249240e+01	1.438407e+03
1.560000e-06	7.222479e-06	2.191145e-08	5.266235e+01	1.439572e+03
1.570000e-06	7.243238e-06	2.192544e-08	5.281371e+01	1.440682e+03
1.580000e-06	7.261512e-06	2.193550e-08	5.294695e+01	1.441698e+03
1.590000e-06	7.277089e-06	2.194311e-08	5.306053e+01	1.442572e+03
1.600000e-06	7.289859e-06	2.194907e-08	5.315364e+01	1.443254e+03
1.610000e-06	7.299760e-06	2.195387e-08	5.322584e+01	1.443704e+03
1.620000e-06	7.306824e-06	2.195696e-08	5.327734e+01	1.443900e+03
1.630000e-06	7.311368e-06	2.195913e-08	5.331048e+01	1.443836e+03
1.640000e-06	7.313387e-06	2.196057e-08	5.332520e+01	1.443530e+03
1.650000e-06	7.312755e-06	2.196004e-08	5.332059e+01	1.443019e+03
1.660000e-06	7.309740e-06	2.195311e-08	5.329861e+01	1.442349e+03
1.670000e-06	7.304310e-06	2.194620e-08	5.325902e+01	1.441574e+03
1.680000e-06	7.296351e-06	2.193873e-08	5.320098e+01	1.440741e+03
1.690000e-06	7.285959e-06	2.192806e-08	5.312521e+01	1.439887e+03
1.700000e-06	7.272971e-06	2.191733e-08	5.303051e+01	1.439032e+03
1.710000e-06	7.257434e-06	2.190777e-08	5.291722e+01	1.438174e+03
1.720000e-06	7.239716e-06	2.189596e-08	5.278803e+01	1.437294e+03
1.730000e-06	7.219942e-06	2.184597e-08	5.264385e+01	1.436360e+03
1.740000e-06	7.197536e-06	2.178457e-08	5.248048e+01	1.435328e+03
1.750000e-06	7.171764e-06	2.179241e-08	5.229256e+01	1.434157e+03
1.760000e-06	7.142613e-06	2.179366e-08	5.208001e+01	1.432813e+03
1.770000e-06	7.110763e-06	2.175752e-08	5.184777e+01	1.431272e+03
1.780000e-06	7.076888e-06	2.176215e-08	5.160078e+01	1.429530e+03
1.790000e-06	7.041342e-06	2.178917e-08	5.134159e+01	1.427596e+03
1.800000e-06	7.004175e-06	2.170545e-08	5.107059e+01	1.425495e+03
1.810000e-06	6.964602e-06	2.170106e-08	5.078205e+01	1.423260e+03
1.820000e-06	6.922390e-06	2.172337e-08	5.047427e+01	1.420920e+03
1.830000e-06	6.877974e-06	2.163543e-08	5.015041e+01	1.418503e+03
1.840000e-06	6.831033e-06	2.164866e-08	4.980814e+01	1.416019e+03
1.850000e-06	6.781536e-06	2.156822e-08	4.944723e+01	1.413462e+03
1.860000e-06	6.729389e-06	2.151480e-08	4.906701e+01	1.410806e+03
1.870000e-06	6.674419e-06	2.149915e-08	4.866620e+01	1.408013e+03
1.880000e-06	6.617048e-06	2.141342e-08	4.824788e+01	1.405030e+03
1.890000e-06	6.557221e-06	2.141400e-08	4.781165e+01	1.401803e+03
1.900000e-06	6.494810e-06	2.133753e-08	4.735658e+01	1.398284e+03
1.910000e-06	6.429992e-06	2.127481e-08	4.688397e+01	1.394440e+03
1.920000e-06	6.362829e-06	2.121518e-08	4.639425e+01	1.390257e+03
1.930000e-06	6.293275e-06	2.113183e-08	4.588710e+01	1.385742e+03
1.940000e-06	6.221236e-06	2.109611e-08	4.536183e+01	1.380924e+03
1.950000e-06	6.146784e-06	2.100492e-08	4.481897e+01	1.375850e+03
1.960000e-06	6.069744e-06	2.094657e-08	4.425724e+01	1.370574e+03
1.970000e-06	5.990165e-06	2.084800e-08	4.367699e+01	1.365147e+03
1.980000e-06	5.908499e-06	2.076227e-08	4.308153e+01	1.359611e+03
1.990000e-06	5.824831e-06	2.069539e-08	4.247147e+01	1.353988e+03
2.000000e-06	5.739100e-06	2.059827e-08	4.184636e+01	1.348272e+03
2.010000e-06	5.651263e-06	2.052255e-08	4.120591e+01	1.342432e+03
2.020000e-06	5.561445e-06	2.041566e-08	4.055100e+01	1.336413e+03
2.030000e-06	5.469707e-06	2.030959e-08	3.988210e+01	1.330143e+03
2.040000e-06	5.375939e-06	2.019170e-08	3.919839e+01	1.323543e+03
2.050000e-06	5.280216e-06	2.009320e-08	3.850043e+01	1.316537e+03
2.060000e-06	5.182717e-06	1.998708e-08	3.778952e+01	1.309067e+03
2.070000e-06	5.083557e-06	1.986625e-08	3.706650e+01	1.301096e+03
2.080000e-06	4.982601e-06	1.974291e-08	3.633039e+01	1.292618e+03
2.090000e-06	4.879665e-06	1.960962e-08	3.557983e+01	1.283653e+03
2.100000e-06	4.774901e-06	1.947496e-08	3.481595e+01	1.274244e+03
2.110000e-06	4.668571e-06	1.933104e-08	3.404065e+01	1.264451e+03
2.120000e-06	4.560777e-06	1.919046e-08	3.325468e+01	1.254330e+03
2.130000e-06	4.451438e-06	1.903113e-08	3.245744e+01	1.243928e+03
2.140000e-06	4.340412e-06	1.886328e-08	3.164790e+01	1.233265e+03
2.150000e-06	4.227667e-06	1.869100e-08	3.082582e+01	1.222332e+03
2.160000e-06	4.113281e-06	1.852170e-08	2.999179e+01	1.211079e+03
2.170000e-06	3.997292e-06	1.834389e-08	2.914606e+01	1.199426e+03
2.180000e-06	3.879659e-06	1.815469e-08	2.828834e+01	1.187263e+03
2.190000e-06	3.760342e-06	1.795609e-08	2.741834e+01	1.174469e+03
2.200000e-06	3.639518e-06	1.774594e-08	2.653736e+01	1.160922e+03
2.210000e-06	3.517397e-06	1.752465e-08	2.564693e+01	1.146518e+03
2.220000e-06	3.394051e-06	1.729410e-08	2.474756e+01	1.131179e+03
2.230000e-06	3.269474e-06	1.705484e-08	2.383920e+01	1.114866e+03
2.240000e-06	3.143613e-06	1.679425e-08	2.292150e+01	1.097576e+03
2.250000e-06	3.016548e-06	1.652130e-08	2.199501e+01	1.079337e+03
2.260000e-06	2.888360e-06	1.623799e-08	2.106033e+01	1.060192e+03
2.270000e-06	2.759117e-06	1.594428e-08	2.011797e+01	1.040187e+03
2.280000e-06	2.628886e-06	1.563457e-08	1.916839e+01	1.019342e+03
2.290000e-06	2.497745e-06	1.530768e-08	1.821219e+01	9.976384e+02
2.300000e-06	2.365823e-06	1.496071e-08	1.725028e+01	9.749978e+02
2.310000e-06	2.233086e-06	1.459213e-08	1.628244e+01	9.512756e+02
2.320000e-06	2.099505e-06	1.420182e-08	1.530844e+01	9.262612e+02
2.330000e-06	1.965171e-06	1.378601e-08	1.432895e+01	8.996893e+02
2.340000e-06	1.830185e-06	1.334299e-08	1.334471e+01	8.712600e+02
2.350000e-06	1.694600e-06	1.287024e-08	1.235609e+01	8.406669e+02
2.360000e-06	1.558383e-06	1.236396e-08	1.136288e+01	8.076300e+02
2.370000e-06	1.421633e-06	1.182103e-08	1.036577e+01	7.719274e+02
2.380000e-06	1.284488e-06	1.124544e-08	9.365784e+00	7.334236e+02
2.390000e-06	1.146987e-06	1.063646e-08	8.363195e+00	6.920888e+02
2.400000e-06	1.009111e-06	9.983769e-09	7.357882e+00	6.480069e+02
2.410000e-06	8.708487e-07	9.284616e-09	6.349750e+00	6.013702e+02
2.420000e-06	7.322776e-07	8.543228e-09	5.339366e+00	5.524614e+02
2.430000e-06	5.934450e-07	7.766398e-09	4.327075e+00	5.016238e+02
2.440000e-06	4.543566e-07	6.957166e-09	3.312919e+00	4.492252e+02
2.450000e-06	3.151150e-07	6.119258e-09	2.297645e+00	3.956182e+02
2.460000e-06	1.757623e-07	5.264076e-09	1.281562e+00	3.411035e+02
2.470000e-06	3.626947e-08	4.398499e-09	2.644570e-01	2.859007e+02
2.480000e-06	-1.033020e-07	3.529989e-09	-7.532215e-01	2.301313e+02
2.490000e-06	-2.428410e-07	2.663113e-09	-1.770663e+00	1.738160e+02
2.500000e-06	-3.823137e-07	1.798336e-09	-2.787621e+00	1.168876e+02
2.510000e-06	-5.216504e-07	9.325087e-10	-3.803588e+00	5.921789e+01
2.520000e-06	-6.607718e-07	5.865132e-11	-4.817985e+00	6.550847e-01
2.530000e-06	-7.996989e-07	-8.285389e-10	-5.830965e+00	-5.893245e+01
2.540000e-06	-9.383161e-07	-1.736590e-09	-6.841685e+00	-1.196124e+02
2.550000e-06	-1.076506e-06	-2.669649e-09	-7.849292e+00	-1.813508e+02
2.560000e-06	-1.214349e-06	-3.626061e-09	-8.854364e+00	-2.439843e+02
2.570000e-06	-1.351845e-06	-4.605085e-09	-9.856912e+00	-3.072092e+02
2.580000e-06	-1.488866e-06	-5.598872e-09	-1.085599e+01	-3.705857e+02
2.590000e-06	-1.625356e-06	-6.591069e-09	-1.185120e+01	-4.335600e+02
2.600000e-06	-1.761257e-06	-7.562904e-09	-1.284212e+01	-4.955014e+02
2.610000e-06	-1.896476e-06	-8.498771e-09	-1.382806e+01	-5.557493e+02
2.620000e-06	-2.030861e-06	-9.388621e-09	-1.480792e+01	-6.136653e+02
2.630000e-06	-2.164345e-06	-1.022443e-08	-1.578122e+01	-6.686845e+02
2.640000e-06	-2.297021e-06	-1.099946e-08	-1.674862e+01	-7.203596e+02
2.650000e-06	-2.428893e-06	-1.171463e-08	-1.771015e+01	-7.683929e+02
2.660000e-06	-2.559856e-06	-1.237516e-08	-1.866506e+01	-8.126532e+02
2.670000e-06	-2.689882e-06	-1.298527e-08	-1.961314e+01	-8.531755e+02
2.680000e-06	-2.818970e-06	-1.355024e-08	-2.055438e+01	-8.901443e+02
2.690000e-06	-2.947116e-06	-1.407111e-08	-2.148875e+01	-9.238639e+02
2.700000e-06	-3.074222e-06	-1.455270e-08	-2.241554e+01	-9.547186e+02
2.710000e-06	-3.200146e-06	-1.500125e-08	-2.333371e+01	-9.831293e+02
2.720000e-06	-3.324857e-06	-1.542106e-08	-2.424303e+01	-1.009510e+03
2.730000e-06	-3.448338e-06	-1.581326e-08	-2.514338e+01	-1.034233e+03
2.740000e-06	-3.570513e-06	-1.617846e-08	-2.603422e+01	-1.057600e+03
2.750000e-06	-3.691427e-06	-1.651954e-08	-2.691586e+01	-1.079828e+03
2.760000e-06	-3.811127e-06	-1.683992e-08	-2.778864e+01	-1.101049e+03
2.770000e-06	-3.929335e-06	-1.714294e-08	-2.865055e+01	-1.121316e+03
2.780000e-06	-4.045967e-06	-1.742909e-08	-2.950097e+01	-1.140627e+03
2.790000e-06	-4.161029e-06	-1.769870e-08	-3.033993e+01	-1.158944e+03
2.800000e-06	-4.274302e-06	-1.795225e-08	-3.116586e+01	-1.176219e+03
2.810000e-06	-4.385807e-06	-1.819271e-08	-3.197890e+01	-1.192418e+03
2.820000e-06	-4.495707e-06	-1.842318e-08	-3.278023e+01	-1.207538e+03
2.830000e-06	-4.604126e-06	-1.864505e-08	-3.357076e+01	-1.221614e+03
2.840000e-06	-4.711124e-06	-1.885573e-08	-3.435093e+01	-1.234719e+03
2.850000e-06	-4.816550e-06	-1.905194e-08	-3.511964e+01	-1.246962e+03
2.860000e-06	-4.920181e-06	-1.923298e-08	-3.587525e+01	-1.258470e+03
2.870000e-06	-5.021900e-06	-1.940221e-08	-3.661694e+01	-1.269373e+03
2.880000e-06	-5.121811e-06	-1.956627e-08	-3.734543e+01	-1.279790e+03
2.890000e-06	-5.220000e-06	-1.972428e-08	-3.806137e+01	-1.289814e+03
2.900000e-06	-5.316351e-06	-1.987320e-08	-3.876391e+01	-1.299500e+03
2.910000e-06	-5.410672e-06	-2.001456e-08	-3.945165e+01	-1.308868e+03
2.920000e-06	-5.503024e-06	-2.014868e-08	-4.012502e+01	-1.317902e+03
2.930000e-06	-5.593472e-06	-2.027683e-08	-4.078453e+01	-1.326557e+03
2.940000e-06	-5.681905e-06	-2.039615e-08	-4.142933e+01	-1.334780e+03
