# Temperatura_=_67.88
# Concentracion g/m^3_=_28370.0
# C_Vs_to_Am_M_A/Vsm_=_65563218390.804596
# pendiente_HvsI_1/m_=_3716.3
# ordenada_HvsI_A/m_=_1297.0
# frecuencia_Hz_=_302370.55152420554

Tiempo_(s)	Campo_(V.s)	Magnetizacion_(V.s)	Campo_(kA/m)	Magnetizacion_(A/m)
0.000000e+00	-7.299997e-06	-2.508217e-08	-5.318760e+01	-1.642014e+03
1.000000e-08	-7.295824e-06	-2.507414e-08	-5.315721e+01	-1.641191e+03
2.000000e-08	-7.289396e-06	-2.506108e-08	-5.311037e+01	-1.640282e+03
3.000000e-08	-7.280624e-06	-2.504799e-08	-5.304646e+01	-1.639333e+03
4.000000e-08	-7.269210e-06	-2.503393e-08	-5.296330e+01	-1.638372e+03
5.000000e-08	-7.255025e-06	-2.501686e-08	-5.285994e+01	-1.637405e+03
6.000000e-08	-7.238234e-06	-2.499770e-08	-5.273760e+01	-1.636414e+03
7.000000e-08	-7.219261e-06	-2.497787e-08	-5.259937e+01	-1.635366e+03
8.000000e-08	-7.198168e-06	-2.497915e-08	-5.244569e+01	-1.634213e+03
9.000000e-08	-7.174454e-06	-2.499003e-08	-5.227291e+01	-1.632906e+03
1.000000e-07	-7.147786e-06	-2.493507e-08	-5.207860e+01	-1.631402e+03
1.100000e-07	-7.118318e-06	-2.487148e-08	-5.186390e+01	-1.629669e+03
1.200000e-07	-7.086340e-06	-2.483580e-08	-5.163091e+01	-1.627696e+03
1.300000e-07	-7.051950e-06	-2.479094e-08	-5.138034e+01	-1.625489e+03
1.400000e-07	-7.015419e-06	-2.472386e-08	-5.111418e+01	-1.623074e+03
1.500000e-07	-6.977088e-06	-2.470490e-08	-5.083490e+01	-1.620484e+03
1.600000e-07	-6.936578e-06	-2.474077e-08	-5.053975e+01	-1.617760e+03
1.700000e-07	-6.893566e-06	-2.463003e-08	-5.022636e+01	-1.614934e+03
1.800000e-07	-6.848229e-06	-2.458770e-08	-4.989604e+01	-1.612027e+03
1.900000e-07	-6.800280e-06	-2.456762e-08	-4.954668e+01	-1.609037e+03
2.000000e-07	-6.749461e-06	-2.445669e-08	-4.917642e+01	-1.605946e+03
2.100000e-07	-6.696032e-06	-2.442045e-08	-4.878713e+01	-1.602712e+03
2.200000e-07	-6.640134e-06	-2.435830e-08	-4.837986e+01	-1.599280e+03
2.300000e-07	-6.581728e-06	-2.431077e-08	-4.795431e+01	-1.595588e+03
2.400000e-07	-6.520893e-06	-2.424938e-08	-4.751108e+01	-1.591578e+03
2.500000e-07	-6.457642e-06	-2.416568e-08	-4.705023e+01	-1.587205e+03
2.600000e-07	-6.391860e-06	-2.408964e-08	-4.657095e+01	-1.582445e+03
2.700000e-07	-6.323638e-06	-2.401483e-08	-4.607388e+01	-1.577298e+03
2.800000e-07	-6.253087e-06	-2.395197e-08	-4.555984e+01	-1.571789e+03
2.900000e-07	-6.180129e-06	-2.386065e-08	-4.502827e+01	-1.565966e+03
3.000000e-07	-6.104659e-06	-2.378556e-08	-4.447840e+01	-1.559886e+03
3.100000e-07	-6.026696e-06	-2.370882e-08	-4.391036e+01	-1.553613e+03
3.200000e-07	-5.946305e-06	-2.358539e-08	-4.332464e+01	-1.547199e+03
3.300000e-07	-5.863719e-06	-2.347500e-08	-4.272292e+01	-1.540676e+03
3.400000e-07	-5.779197e-06	-2.337068e-08	-4.210709e+01	-1.534051e+03
3.500000e-07	-5.692789e-06	-2.327668e-08	-4.147753e+01	-1.527300e+03
3.600000e-07	-5.604412e-06	-2.316818e-08	-4.083362e+01	-1.520369e+03
3.700000e-07	-5.513944e-06	-2.304845e-08	-4.017447e+01	-1.513182e+03
3.800000e-07	-5.421497e-06	-2.292814e-08	-3.950090e+01	-1.505654e+03
3.900000e-07	-5.327151e-06	-2.279198e-08	-3.881350e+01	-1.497696e+03
4.000000e-07	-5.230882e-06	-2.265988e-08	-3.811208e+01	-1.489236e+03
4.100000e-07	-5.132726e-06	-2.252295e-08	-3.739692e+01	-1.480225e+03
4.200000e-07	-5.032769e-06	-2.238999e-08	-3.666864e+01	-1.470644e+03
4.300000e-07	-4.931063e-06	-2.223960e-08	-3.592761e+01	-1.460508e+03
4.400000e-07	-4.827633e-06	-2.208171e-08	-3.517402e+01	-1.449858e+03
4.500000e-07	-4.722497e-06	-2.191932e-08	-3.440800e+01	-1.438758e+03
4.600000e-07	-4.615575e-06	-2.174845e-08	-3.362897e+01	-1.427275e+03
4.700000e-07	-4.507010e-06	-2.157142e-08	-3.283797e+01	-1.415468e+03
4.800000e-07	-4.396955e-06	-2.138650e-08	-3.203611e+01	-1.403374e+03
4.900000e-07	-4.285329e-06	-2.119686e-08	-3.122281e+01	-1.390994e+03
5.000000e-07	-4.171961e-06	-2.099159e-08	-3.039681e+01	-1.378291e+03
5.100000e-07	-4.056767e-06	-2.078256e-08	-2.955751e+01	-1.365187e+03
5.200000e-07	-3.939881e-06	-2.056405e-08	-2.870588e+01	-1.351571e+03
5.300000e-07	-3.821565e-06	-2.033494e-08	-2.784383e+01	-1.337314e+03
5.400000e-07	-3.701948e-06	-2.009741e-08	-2.697231e+01	-1.322279e+03
5.500000e-07	-3.580985e-06	-1.985225e-08	-2.609097e+01	-1.306344e+03
5.600000e-07	-3.458597e-06	-1.959708e-08	-2.519926e+01	-1.289415e+03
5.700000e-07	-3.334834e-06	-1.932320e-08	-2.429752e+01	-1.271436e+03
5.800000e-07	-3.209817e-06	-1.903367e-08	-2.338665e+01	-1.252395e+03
5.900000e-07	-3.083656e-06	-1.873129e-08	-2.246745e+01	-1.232315e+03
6.000000e-07	-2.956491e-06	-1.842028e-08	-2.154092e+01	-1.211245e+03
6.100000e-07	-2.828236e-06	-1.809593e-08	-2.060646e+01	-1.189241e+03
6.200000e-07	-2.698813e-06	-1.775369e-08	-1.966349e+01	-1.166343e+03
6.300000e-07	-2.568309e-06	-1.738978e-08	-1.871264e+01	-1.142549e+03
6.400000e-07	-2.436857e-06	-1.700437e-08	-1.775488e+01	-1.117796e+03
6.500000e-07	-2.304573e-06	-1.659953e-08	-1.679107e+01	-1.091952e+03
6.600000e-07	-2.171514e-06	-1.617314e-08	-1.582160e+01	-1.064804e+03
6.700000e-07	-2.037712e-06	-1.572248e-08	-1.484672e+01	-1.036073e+03
6.800000e-07	-1.903193e-06	-1.524343e-08	-1.386662e+01	-1.005428e+03
6.900000e-07	-1.768057e-06	-1.473276e-08	-1.288202e+01	-9.725176e+02
7.000000e-07	-1.632322e-06	-1.418340e-08	-1.189306e+01	-9.370004e+02
7.100000e-07	-1.495982e-06	-1.359621e-08	-1.089969e+01	-8.985839e+02
7.200000e-07	-1.359107e-06	-1.297222e-08	-9.902423e+00	-8.570554e+02
7.300000e-07	-1.221842e-06	-1.230786e-08	-8.902312e+00	-8.123077e+02
7.400000e-07	-1.084212e-06	-1.159865e-08	-7.899546e+00	-7.643519e+02
7.500000e-07	-9.461118e-07	-1.084064e-08	-6.893349e+00	-7.133177e+02
7.600000e-07	-8.076031e-07	-1.003309e-08	-5.884178e+00	-6.594393e+02
7.700000e-07	-6.687726e-07	-9.175249e-09	-4.872661e+00	-6.030282e+02
7.800000e-07	-5.296542e-07	-8.273824e-09	-3.859048e+00	-5.444377e+02
7.900000e-07	-3.903619e-07	-7.335058e-09	-2.844168e+00	-4.840228e+02
8.000000e-07	-2.509265e-07	-6.367842e-09	-1.828245e+00	-4.221009e+02
8.100000e-07	-1.112412e-07	-5.380373e-09	-8.105008e-01	-3.589204e+02
8.200000e-07	2.855964e-08	-4.382276e-09	2.080849e-01	-2.946398e+02
8.300000e-07	1.683580e-07	-3.379438e-09	1.226653e+00	-2.293225e+02
8.400000e-07	3.081945e-07	-2.372280e-09	2.245498e+00	-1.629470e+02
8.500000e-07	4.479176e-07	-1.364254e-09	3.263518e+00	-9.543320e+01
8.600000e-07	5.873562e-07	-3.491673e-10	4.279463e+00	-2.667951e+01
8.700000e-07	7.265544e-07	6.833633e-10	5.293658e+00	4.339194e+01
8.800000e-07	8.655128e-07	1.743361e-09	6.306106e+00	1.147898e+02
8.900000e-07	1.004148e-06	2.833389e-09	7.316196e+00	1.874134e+02
9.000000e-07	1.142376e-06	3.952446e-09	8.323323e+00	2.610237e+02
9.100000e-07	1.280188e-06	5.096453e-09	9.327418e+00	3.352304e+02
9.200000e-07	1.417611e-06	6.252938e-09	1.032868e+01	4.094976e+02
9.300000e-07	1.554475e-06	7.405723e-09	1.132587e+01	4.831678e+02
9.400000e-07	1.690589e-06	8.534119e-09	1.231759e+01	5.555025e+02
9.500000e-07	1.826008e-06	9.617437e-09	1.330425e+01	6.257342e+02
9.600000e-07	1.960823e-06	1.064184e-08	1.428651e+01	6.931256e+02
9.700000e-07	2.094889e-06	1.159952e-08	1.526331e+01	7.570262e+02
9.800000e-07	2.228177e-06	1.248670e-08	1.623445e+01	8.169231e+02
9.900000e-07	2.360766e-06	1.330303e-08	1.720048e+01	8.724779e+02
1.000000e-06	2.492489e-06	1.405078e-08	1.816022e+01	9.235454e+02
1.010000e-06	2.623203e-06	1.473927e-08	1.911259e+01	9.701748e+02
1.020000e-06	2.752956e-06	1.537587e-08	2.005797e+01	1.012591e+03
1.030000e-06	2.881641e-06	1.596395e-08	2.099557e+01	1.051160e+03
1.040000e-06	3.009138e-06	1.650820e-08	2.192451e+01	1.086343e+03
1.050000e-06	3.135503e-06	1.701365e-08	2.284520e+01	1.118648e+03
1.060000e-06	3.260814e-06	1.748406e-08	2.375822e+01	1.148575e+03
1.070000e-06	3.385105e-06	1.792498e-08	2.466380e+01	1.176576e+03
1.080000e-06	3.508187e-06	1.833802e-08	2.556057e+01	1.203019e+03
1.090000e-06	3.629979e-06	1.872615e-08	2.644794e+01	1.228174e+03
1.100000e-06	3.750407e-06	1.909206e-08	2.732538e+01	1.252206e+03
1.110000e-06	3.869469e-06	1.943551e-08	2.819286e+01	1.275184e+03
1.120000e-06	3.987199e-06	1.975787e-08	2.905064e+01	1.297107e+03
1.130000e-06	4.103464e-06	2.006278e-08	2.989775e+01	1.317928e+03
1.140000e-06	4.218132e-06	2.034922e-08	3.073321e+01	1.337584e+03
1.150000e-06	4.331044e-06	2.061761e-08	3.155588e+01	1.356028e+03
1.160000e-06	4.442321e-06	2.087303e-08	3.236665e+01	1.373244e+03
1.170000e-06	4.552150e-06	2.111664e-08	3.316686e+01	1.389266e+03
1.180000e-06	4.660564e-06	2.134915e-08	3.395676e+01	1.404174e+03
1.190000e-06	4.767393e-06	2.156919e-08	3.473512e+01	1.418092e+03
1.200000e-06	4.872391e-06	2.177619e-08	3.550013e+01	1.431172e+03
1.210000e-06	4.975556e-06	2.197231e-08	3.625178e+01	1.443571e+03
1.220000e-06	5.076969e-06	2.215871e-08	3.699068e+01	1.455438e+03
1.230000e-06	5.176534e-06	2.233534e-08	3.771611e+01	1.466890e+03
1.240000e-06	5.274115e-06	2.250446e-08	3.842708e+01	1.478002e+03
1.250000e-06	5.369671e-06	2.266736e-08	3.912330e+01	1.488804e+03
1.260000e-06	5.463291e-06	2.282373e-08	3.980541e+01	1.499278e+03
1.270000e-06	5.555060e-06	2.297096e-08	4.047404e+01	1.509372e+03
1.280000e-06	5.644817e-06	2.310984e-08	4.112801e+01	1.519013e+03
1.290000e-06	5.732451e-06	2.324178e-08	4.176651e+01	1.528124e+03
1.300000e-06	5.818051e-06	2.336900e-08	4.239018e+01	1.536641e+03
1.310000e-06	5.901668e-06	2.348891e-08	4.299942e+01	1.544526e+03
1.320000e-06	5.983207e-06	2.360045e-08	4.359351e+01	1.551779e+03
1.330000e-06	6.062543e-06	2.370556e-08	4.417155e+01	1.558436e+03
1.340000e-06	6.139614e-06	2.380441e-08	4.473308e+01	1.564569e+03
1.350000e-06	6.214297e-06	2.389664e-08	4.527722e+01	1.570274e+03
1.360000e-06	6.286559e-06	2.398358e-08	4.580372e+01	1.575658e+03
1.370000e-06	6.356577e-06	2.406839e-08	4.631387e+01	1.580824e+03
1.380000e-06	6.424422e-06	2.414919e-08	4.680819e+01	1.585856e+03
1.390000e-06	6.489928e-06	2.422573e-08	4.728547e+01	1.590810e+03
1.400000e-06	6.553042e-06	2.429932e-08	4.774531e+01	1.595704e+03
1.410000e-06	6.613972e-06	2.436866e-08	4.818925e+01	1.600524e+03
1.420000e-06	6.672704e-06	2.443274e-08	4.861717e+01	1.605224e+03
1.430000e-06	6.729032e-06	2.449380e-08	4.902757e+01	1.609738e+03
1.440000e-06	6.782905e-06	2.455325e-08	4.942009e+01	1.613991e+03
1.450000e-06	6.834084e-06	2.461091e-08	4.979298e+01	1.617917e+03
1.460000e-06	6.882414e-06	2.466353e-08	5.014511e+01	1.621464e+03
1.470000e-06	6.928206e-06	2.471173e-08	5.047875e+01	1.624610e+03
1.480000e-06	6.971692e-06	2.475673e-08	5.079558e+01	1.627358e+03
1.490000e-06	7.012640e-06	2.479778e-08	5.109393e+01	1.629745e+03
1.500000e-06	7.050988e-06	2.483582e-08	5.137333e+01	1.631827e+03
1.510000e-06	7.087007e-06	2.486989e-08	5.163577e+01	1.633675e+03
1.520000e-06	7.120544e-06	2.490103e-08	5.188012e+01	1.635358e+03
1.530000e-06	7.151427e-06	2.492884e-08	5.210513e+01	1.636939e+03
1.540000e-06	7.179877e-06	2.495210e-08	5.231242e+01	1.638460e+03
1.550000e-06	7.205736e-06	2.497305e-08	5.250082e+01	1.639938e+03
1.560000e-06	7.228828e-06	2.499194e-08	5.266908e+01	1.641363e+03
1.570000e-06	7.249442e-06	2.500789e-08	5.281927e+01	1.642702e+03
1.580000e-06	7.267579e-06	2.502177e-08	5.295141e+01	1.643905e+03
1.590000e-06	7.282979e-06	2.503365e-08	5.306362e+01	1.644915e+03
1.600000e-06	7.295626e-06	2.504245e-08	5.315576e+01	1.645681e+03
1.610000e-06	7.305431e-06	2.504923e-08	5.322720e+01	1.646163e+03
1.620000e-06	7.312427e-06	2.505405e-08	5.327817e+01	1.646341e+03
1.630000e-06	7.316948e-06	2.505566e-08	5.331111e+01	1.646220e+03
1.640000e-06	7.318882e-06	2.505543e-08	5.332520e+01	1.645829e+03
1.650000e-06	7.318135e-06	2.505290e-08	5.331976e+01	1.645215e+03
1.660000e-06	7.314983e-06	2.504474e-08	5.329680e+01	1.644436e+03
1.670000e-06	7.309386e-06	2.503643e-08	5.325601e+01	1.643551e+03
1.680000e-06	7.301298e-06	2.502577e-08	5.319709e+01	1.642611e+03
1.690000e-06	7.290838e-06	2.501297e-08	5.312088e+01	1.641651e+03
1.700000e-06	7.277799e-06	2.500019e-08	5.302587e+01	1.640685e+03
1.710000e-06	7.262213e-06	2.498747e-08	5.291231e+01	1.639705e+03
1.720000e-06	7.244436e-06	2.497241e-08	5.278279e+01	1.638681e+03
1.730000e-06	7.224562e-06	2.491208e-08	5.263799e+01	1.637570e+03
1.740000e-06	7.201961e-06	2.485300e-08	5.247332e+01	1.636322e+03
1.750000e-06	7.175986e-06	2.486156e-08	5.228407e+01	1.634891e+03
1.760000e-06	7.146707e-06	2.485651e-08	5.207074e+01	1.633241e+03
1.770000e-06	7.114738e-06	2.482343e-08	5.183782e+01	1.631353e+03
1.780000e-06	7.080762e-06	2.483169e-08	5.159026e+01	1.629226e+03
1.790000e-06	7.045145e-06	2.482922e-08	5.133076e+01	1.626881e+03
1.800000e-06	7.007851e-06	2.470946e-08	5.105904e+01	1.624348e+03
1.810000e-06	6.968065e-06	2.471620e-08	5.076916e+01	1.621666e+03
1.820000e-06	6.925674e-06	2.471540e-08	5.046030e+01	1.618872e+03
1.830000e-06	6.881130e-06	2.464093e-08	5.013576e+01	1.615991e+03
1.840000e-06	6.834034e-06	2.468103e-08	4.979261e+01	1.613031e+03
1.850000e-06	6.784327e-06	2.459777e-08	4.943045e+01	1.609979e+03
1.860000e-06	6.731996e-06	2.455694e-08	4.904917e+01	1.606800e+03
1.870000e-06	6.676923e-06	2.449285e-08	4.864791e+01	1.603445e+03
1.880000e-06	6.619460e-06	2.437933e-08	4.822923e+01	1.599851e+03
1.890000e-06	6.559480e-06	2.436030e-08	4.779222e+01	1.595960e+03
1.900000e-06	6.496856e-06	2.427066e-08	4.733594e+01	1.591720e+03
1.910000e-06	6.431783e-06	2.422977e-08	4.686182e+01	1.587098e+03
1.920000e-06	6.364390e-06	2.415022e-08	4.637079e+01	1.582086e+03
1.930000e-06	6.294651e-06	2.405689e-08	4.586268e+01	1.576701e+03
1.940000e-06	6.222421e-06	2.399231e-08	4.533642e+01	1.570982e+03
1.950000e-06	6.147763e-06	2.386860e-08	4.479246e+01	1.564986e+03
1.960000e-06	6.070514e-06	2.381523e-08	4.422962e+01	1.558774e+03
1.970000e-06	5.990769e-06	2.372067e-08	4.364860e+01	1.552404e+03
1.980000e-06	5.908920e-06	2.363361e-08	4.305226e+01	1.545916e+03
1.990000e-06	5.825090e-06	2.353244e-08	4.244147e+01	1.539328e+03
2.000000e-06	5.739190e-06	2.341093e-08	4.181560e+01	1.532625e+03
2.010000e-06	5.651098e-06	2.330683e-08	4.117377e+01	1.525764e+03
2.020000e-06	5.561036e-06	2.318076e-08	4.051758e+01	1.518678e+03
2.030000e-06	5.469090e-06	2.308492e-08	3.984767e+01	1.511280e+03
2.040000e-06	5.375157e-06	2.296327e-08	3.916327e+01	1.503484e+03
2.050000e-06	5.279294e-06	2.283842e-08	3.846481e+01	1.495209e+03
2.060000e-06	5.181678e-06	2.268998e-08	3.775359e+01	1.486398e+03
2.070000e-06	5.082353e-06	2.254407e-08	3.702991e+01	1.477019e+03
2.080000e-06	4.981191e-06	2.239899e-08	3.629284e+01	1.467076e+03
2.090000e-06	4.878126e-06	2.224589e-08	3.554191e+01	1.456602e+03
2.100000e-06	4.773252e-06	2.209551e-08	3.477781e+01	1.445654e+03
2.110000e-06	4.666774e-06	2.192975e-08	3.400201e+01	1.434299e+03
2.120000e-06	4.558781e-06	2.175714e-08	3.321517e+01	1.422601e+03
2.130000e-06	4.449242e-06	2.156900e-08	3.241707e+01	1.410606e+03
2.140000e-06	4.338012e-06	2.138549e-08	3.160665e+01	1.398329e+03
2.150000e-06	4.225083e-06	2.119231e-08	3.078385e+01	1.385747e+03
2.160000e-06	4.110554e-06	2.099491e-08	2.994940e+01	1.372796e+03
2.170000e-06	3.994427e-06	2.078622e-08	2.910330e+01	1.359376e+03
2.180000e-06	3.876658e-06	2.056518e-08	2.824524e+01	1.345362e+03
2.190000e-06	3.757169e-06	2.032999e-08	2.737465e+01	1.330619e+03
2.200000e-06	3.636178e-06	2.008650e-08	2.649310e+01	1.315017e+03
2.210000e-06	3.513921e-06	1.983609e-08	2.560235e+01	1.298450e+03
2.220000e-06	3.390407e-06	1.957533e-08	2.470242e+01	1.280849e+03
2.230000e-06	3.265646e-06	1.930475e-08	2.379342e+01	1.262185e+03
2.240000e-06	3.139677e-06	1.901443e-08	2.287561e+01	1.242470e+03
2.250000e-06	3.012463e-06	1.870785e-08	2.194874e+01	1.221745e+03
2.260000e-06	2.884099e-06	1.838250e-08	2.101348e+01	1.200068e+03
2.270000e-06	2.754736e-06	1.804362e-08	2.007094e+01	1.177486e+03
2.280000e-06	2.624413e-06	1.768931e-08	1.912141e+01	1.154014e+03
2.290000e-06	2.493202e-06	1.732043e-08	1.816541e+01	1.129614e+03
2.300000e-06	2.361136e-06	1.693149e-08	1.720318e+01	1.104179e+03
2.310000e-06	2.228278e-06	1.651709e-08	1.623518e+01	1.077524e+03
2.320000e-06	2.094637e-06	1.607250e-08	1.526148e+01	1.049393e+03
2.330000e-06	1.960238e-06	1.559874e-08	1.428225e+01	1.019471e+03
2.340000e-06	1.825124e-06	1.509984e-08	1.329781e+01	9.874083e+02
2.350000e-06	1.689321e-06	1.457043e-08	1.230835e+01	9.528576e+02
2.360000e-06	1.552945e-06	1.400244e-08	1.131472e+01	9.155045e+02
2.370000e-06	1.416109e-06	1.339145e-08	1.031774e+01	8.751044e+02
2.380000e-06	1.278860e-06	1.273863e-08	9.317746e+00	8.315102e+02
2.390000e-06	1.141198e-06	1.204331e-08	8.314743e+00	7.846900e+02
2.400000e-06	1.003142e-06	1.130175e-08	7.308870e+00	7.347321e+02
2.410000e-06	8.647593e-07	1.051273e-08	6.300616e+00	6.818358e+02
2.420000e-06	7.260808e-07	9.675087e-09	5.290208e+00	6.262888e+02
2.430000e-06	5.871595e-07	8.790592e-09	4.278030e+00	5.684339e+02
2.440000e-06	4.480587e-07	7.863378e-09	3.264545e+00	5.086302e+02
2.450000e-06	3.087737e-07	6.899659e-09	2.249718e+00	4.472126e+02
2.460000e-06	1.693344e-07	5.910561e-09	1.233767e+00	3.844572e+02
2.470000e-06	2.975850e-08	4.905783e-09	2.168198e-01	3.205562e+02
2.480000e-06	-1.098502e-07	3.895463e-09	-8.003658e-01	2.556063e+02
2.490000e-06	-2.493674e-07	2.883250e-09	-1.816885e+00	1.896144e+02
2.500000e-06	-3.888281e-07	1.868239e-09	-2.832992e+00	1.225173e+02
2.510000e-06	-5.281618e-07	8.473035e-10	-3.848174e+00	5.421638e+01
2.520000e-06	-6.672730e-07	-1.859167e-10	-4.861736e+00	-1.538015e+01
2.530000e-06	-8.061665e-07	-1.238557e-09	-5.873710e+00	-8.631068e+01
2.540000e-06	-9.447897e-07	-2.317994e-09	-6.883716e+00	-1.585176e+02
2.550000e-06	-1.083063e-06	-3.427355e-09	-7.891172e+00	-2.318135e+02
2.560000e-06	-1.220941e-06	-4.565903e-09	-8.895745e+00	-3.058627e+02
2.570000e-06	-1.358447e-06	-5.728509e-09	-9.897610e+00	-3.801794e+02
2.580000e-06	-1.495520e-06	-6.897742e-09	-1.089632e+01	-4.541457e+02
2.590000e-06	-1.632079e-06	-8.048185e-09	-1.189129e+01	-5.270464e+02
2.600000e-06	-1.768028e-06	-9.159855e-09	-1.288181e+01	-5.981179e+02
2.610000e-06	-1.903239e-06	-1.021838e-08	-1.386695e+01	-6.666053e+02
2.620000e-06	-2.037675e-06	-1.121036e-08	-1.484645e+01	-7.318207e+02
2.630000e-06	-2.171293e-06	-1.213210e-08	-1.581999e+01	-7.931973e+02
2.640000e-06	-2.304055e-06	-1.298328e-08	-1.678729e+01	-8.503310e+02
2.650000e-06	-2.435939e-06	-1.376578e-08	-1.774820e+01	-9.030065e+02
2.660000e-06	-2.566943e-06	-1.448495e-08	-1.870269e+01	-9.512050e+02
2.670000e-06	-2.697005e-06	-1.514711e-08	-1.965032e+01	-9.950915e+02
2.680000e-06	-2.826152e-06	-1.576080e-08	-2.059128e+01	-1.034987e+03
2.690000e-06	-2.954345e-06	-1.632933e-08	-2.152529e+01	-1.071323e+03
2.700000e-06	-3.081453e-06	-1.685612e-08	-2.245139e+01	-1.104599e+03
2.710000e-06	-3.207475e-06	-1.734485e-08	-2.336958e+01	-1.135321e+03
2.720000e-06	-3.332231e-06	-1.780086e-08	-2.427856e+01	-1.163963e+03
2.730000e-06	-3.455714e-06	-1.822503e-08	-2.517825e+01	-1.190928e+03
2.740000e-06	-3.577992e-06	-1.862067e-08	-2.606916e+01	-1.216520e+03
2.750000e-06	-3.699007e-06	-1.899459e-08	-2.695088e+01	-1.240942e+03
2.760000e-06	-3.818651e-06	-1.934632e-08	-2.782260e+01	-1.264295e+03
2.770000e-06	-3.936830e-06	-1.967739e-08	-2.868365e+01	-1.286599e+03
2.780000e-06	-4.053491e-06	-1.998934e-08	-2.953364e+01	-1.307822e+03
2.790000e-06	-4.168569e-06	-2.028359e-08	-3.037210e+01	-1.327902e+03
2.800000e-06	-4.281984e-06	-2.056094e-08	-3.119844e+01	-1.346784e+03
2.810000e-06	-4.393618e-06	-2.082197e-08	-3.201180e+01	-1.364438e+03
2.820000e-06	-4.503598e-06	-2.107050e-08	-3.281311e+01	-1.380881e+03
2.830000e-06	-4.612116e-06	-2.130994e-08	-3.360377e+01	-1.396176e+03
2.840000e-06	-4.719213e-06	-2.154045e-08	-3.438408e+01	-1.410433e+03
2.850000e-06	-4.824765e-06	-2.176043e-08	-3.515312e+01	-1.423795e+03
2.860000e-06	-4.928487e-06	-2.196647e-08	-3.590884e+01	-1.436421e+03
2.870000e-06	-5.030217e-06	-2.215891e-08	-3.665004e+01	-1.448463e+03
2.880000e-06	-5.130055e-06	-2.234098e-08	-3.737746e+01	-1.460054e+03
2.890000e-06	-5.228171e-06	-2.251333e-08	-3.809233e+01	-1.471283e+03
2.900000e-06	-5.324530e-06	-2.267694e-08	-3.879440e+01	-1.482196e+03
2.910000e-06	-5.418891e-06	-2.283175e-08	-3.948191e+01	-1.492793e+03
2.920000e-06	-5.511194e-06	-2.297888e-08	-4.015443e+01	-1.503032e+03
2.930000e-06	-5.601604e-06	-2.312025e-08	-4.081316e+01	-1.512845e+03
2.940000e-06	-5.690032e-06	-2.325633e-08	-4.145744e+01	-1.522155e+03
