# Temperatura_=_46.43
# Concentracion g/m^3_=_28370.0
# C_Vs_to_Am_M_A/Vsm_=_65563218390.804596
# pendiente_HvsI_1/m_=_3716.3
# ordenada_HvsI_A/m_=_1297.0
# frecuencia_Hz_=_302373.58518969134

Tiempo_(s)	Campo_(V.s)	Magnetizacion_(V.s)	Campo_(kA/m)	Magnetizacion_(A/m)
0.000000e+00	-7.317948e-06	-2.301010e-08	-5.318592e+01	-1.506124e+03
1.000000e-08	-7.313685e-06	-2.300107e-08	-5.315494e+01	-1.505360e+03
2.000000e-08	-7.307116e-06	-2.299013e-08	-5.310720e+01	-1.504517e+03
3.000000e-08	-7.298143e-06	-2.298041e-08	-5.304198e+01	-1.503643e+03
4.000000e-08	-7.286588e-06	-2.296755e-08	-5.295800e+01	-1.502772e+03
5.000000e-08	-7.272256e-06	-2.295103e-08	-5.285384e+01	-1.501913e+03
6.000000e-08	-7.255269e-06	-2.293268e-08	-5.273038e+01	-1.501055e+03
7.000000e-08	-7.236163e-06	-2.291336e-08	-5.259152e+01	-1.500167e+03
8.000000e-08	-7.214951e-06	-2.292080e-08	-5.243735e+01	-1.499205e+03
9.000000e-08	-7.191039e-06	-2.292676e-08	-5.226356e+01	-1.498119e+03
1.000000e-07	-7.164164e-06	-2.286954e-08	-5.206824e+01	-1.496863e+03
1.100000e-07	-7.134584e-06	-2.282062e-08	-5.185326e+01	-1.495401e+03
1.200000e-07	-7.102489e-06	-2.279733e-08	-5.161999e+01	-1.493716e+03
1.300000e-07	-7.067879e-06	-2.275844e-08	-5.136845e+01	-1.491808e+03
1.400000e-07	-7.031143e-06	-2.269414e-08	-5.110146e+01	-1.489696e+03
1.500000e-07	-6.992645e-06	-2.268586e-08	-5.082166e+01	-1.487412e+03
1.600000e-07	-6.951859e-06	-2.270745e-08	-5.052523e+01	-1.484994e+03
1.700000e-07	-6.908529e-06	-2.259491e-08	-5.021032e+01	-1.482477e+03
1.800000e-07	-6.862956e-06	-2.257475e-08	-4.987910e+01	-1.479885e+03
1.900000e-07	-6.814777e-06	-2.255003e-08	-4.952893e+01	-1.477227e+03
2.000000e-07	-6.763701e-06	-2.246170e-08	-4.915772e+01	-1.474490e+03
2.100000e-07	-6.710006e-06	-2.243518e-08	-4.876748e+01	-1.471643e+03
2.200000e-07	-6.653806e-06	-2.239055e-08	-4.835902e+01	-1.468639e+03
2.300000e-07	-6.595104e-06	-2.237213e-08	-4.793238e+01	-1.465422e+03
2.400000e-07	-6.533980e-06	-2.227973e-08	-4.748814e+01	-1.461936e+03
2.500000e-07	-6.470465e-06	-2.220019e-08	-4.702652e+01	-1.458136e+03
2.600000e-07	-6.404458e-06	-2.214975e-08	-4.654679e+01	-1.453993e+03
2.700000e-07	-6.335987e-06	-2.207186e-08	-4.604916e+01	-1.449501e+03
2.800000e-07	-6.265202e-06	-2.200630e-08	-4.553470e+01	-1.444676e+03
2.900000e-07	-6.192018e-06	-2.193943e-08	-4.500281e+01	-1.439558e+03
3.000000e-07	-6.116281e-06	-2.187446e-08	-4.445236e+01	-1.434197e+03
3.100000e-07	-6.037951e-06	-2.178090e-08	-4.388307e+01	-1.428651e+03
3.200000e-07	-5.957138e-06	-2.168412e-08	-4.329572e+01	-1.422969e+03
3.300000e-07	-5.874206e-06	-2.160969e-08	-4.269299e+01	-1.417186e+03
3.400000e-07	-5.789435e-06	-2.151889e-08	-4.207688e+01	-1.411311e+03
3.500000e-07	-5.702827e-06	-2.143399e-08	-4.144743e+01	-1.405328e+03
3.600000e-07	-5.614197e-06	-2.133165e-08	-4.080327e+01	-1.399191e+03
3.700000e-07	-5.523390e-06	-2.121909e-08	-4.014330e+01	-1.392833e+03
3.800000e-07	-5.430604e-06	-2.111040e-08	-3.946894e+01	-1.386173e+03
3.900000e-07	-5.335906e-06	-2.099591e-08	-3.878069e+01	-1.379130e+03
4.000000e-07	-5.239293e-06	-2.088215e-08	-3.807852e+01	-1.371630e+03
4.100000e-07	-5.140863e-06	-2.075334e-08	-3.736314e+01	-1.363623e+03
4.200000e-07	-5.040615e-06	-2.062821e-08	-3.663455e+01	-1.355087e+03
4.300000e-07	-4.938605e-06	-2.049253e-08	-3.589316e+01	-1.346027e+03
4.400000e-07	-4.834857e-06	-2.035127e-08	-3.513913e+01	-1.336481e+03
4.500000e-07	-4.729381e-06	-2.020479e-08	-3.437255e+01	-1.326503e+03
4.600000e-07	-4.622122e-06	-2.005352e-08	-3.359300e+01	-1.316157e+03
4.700000e-07	-4.513221e-06	-1.989592e-08	-3.280152e+01	-1.305502e+03
4.800000e-07	-4.402795e-06	-1.972401e-08	-3.199896e+01	-1.294575e+03
4.900000e-07	-4.290767e-06	-1.955203e-08	-3.118475e+01	-1.283384e+03
5.000000e-07	-4.177066e-06	-1.937346e-08	-3.035839e+01	-1.271899e+03
5.100000e-07	-4.061581e-06	-1.918879e-08	-2.951906e+01	-1.260053e+03
5.200000e-07	-3.944495e-06	-1.899012e-08	-2.866809e+01	-1.247744e+03
5.300000e-07	-3.826004e-06	-1.878288e-08	-2.780692e+01	-1.234849e+03
5.400000e-07	-3.706093e-06	-1.856821e-08	-2.693542e+01	-1.221238e+03
5.500000e-07	-3.584795e-06	-1.834112e-08	-2.605384e+01	-1.206788e+03
5.600000e-07	-3.462101e-06	-1.810204e-08	-2.516212e+01	-1.191403e+03
5.700000e-07	-3.338001e-06	-1.784889e-08	-2.426017e+01	-1.175020e+03
5.800000e-07	-3.212708e-06	-1.758866e-08	-2.334956e+01	-1.157616e+03
5.900000e-07	-3.086297e-06	-1.731773e-08	-2.243082e+01	-1.139206e+03
6.000000e-07	-2.958694e-06	-1.703628e-08	-2.150341e+01	-1.119830e+03
6.100000e-07	-2.829963e-06	-1.673832e-08	-2.056781e+01	-1.099540e+03
6.200000e-07	-2.700251e-06	-1.642116e-08	-1.962508e+01	-1.078372e+03
6.300000e-07	-2.569531e-06	-1.608288e-08	-1.867503e+01	-1.056333e+03
6.400000e-07	-2.437749e-06	-1.572216e-08	-1.771725e+01	-1.033372e+03
6.500000e-07	-2.305105e-06	-1.534380e-08	-1.675321e+01	-1.009373e+03
6.600000e-07	-2.171765e-06	-1.494770e-08	-1.578412e+01	-9.841470e+02
6.700000e-07	-2.037720e-06	-1.453057e-08	-1.480990e+01	-9.574385e+02
6.800000e-07	-1.902887e-06	-1.408492e-08	-1.382994e+01	-9.289436e+02
6.900000e-07	-1.767247e-06	-1.360941e-08	-1.284413e+01	-8.983347e+02
7.000000e-07	-1.630993e-06	-1.309865e-08	-1.185385e+01	-8.652935e+02
7.100000e-07	-1.494287e-06	-1.255315e-08	-1.086029e+01	-8.295457e+02
7.200000e-07	-1.357126e-06	-1.197254e-08	-9.863421e+00	-7.908940e+02
7.300000e-07	-1.219492e-06	-1.135246e-08	-8.863112e+00	-7.492435e+02
7.400000e-07	-1.081368e-06	-1.069003e-08	-7.859242e+00	-7.046171e+02
7.500000e-07	-9.428245e-07	-9.982577e-09	-6.852329e+00	-6.571567e+02
7.600000e-07	-8.039464e-07	-9.231078e-09	-5.842981e+00	-6.071115e+02
7.700000e-07	-6.646889e-07	-8.435424e-09	-4.830875e+00	-5.548122e+02
7.800000e-07	-5.250697e-07	-7.603858e-09	-3.816140e+00	-5.006358e+02
7.900000e-07	-3.852575e-07	-6.741873e-09	-2.800003e+00	-4.449648e+02
8.000000e-07	-2.453331e-07	-5.858541e-09	-1.783050e+00	-3.881463e+02
8.100000e-07	-1.052329e-07	-4.959533e-09	-7.648196e-01	-3.304566e+02
8.200000e-07	3.502347e-08	-4.051644e-09	2.545461e-01	-2.720764e+02
8.300000e-07	1.752471e-07	-3.143706e-09	1.273674e+00	-2.130805e+02
8.400000e-07	3.153865e-07	-2.236572e-09	2.292189e+00	-1.534429e+02
8.500000e-07	4.554507e-07	-1.330953e-09	3.310158e+00	-9.305864e+01
8.600000e-07	5.953517e-07	-4.222583e-10	4.326941e+00	-3.177846e+01
8.700000e-07	7.350332e-07	4.977505e-10	5.342129e+00	3.054763e+01
8.800000e-07	8.744037e-07	1.440762e-09	6.355056e+00	9.402332e+01
8.900000e-07	1.013435e-06	2.409535e-09	7.365514e+00	1.586623e+02
9.000000e-07	1.152043e-06	3.404681e-09	8.372906e+00	2.243533e+02
9.100000e-07	1.290157e-06	4.424243e-09	9.376698e+00	2.908401e+02
9.200000e-07	1.427803e-06	5.459526e-09	1.037709e+01	3.577178e+02
9.300000e-07	1.564934e-06	6.499276e-09	1.137374e+01	4.244480e+02
9.400000e-07	1.701473e-06	7.526681e-09	1.236609e+01	4.903912e+02
9.500000e-07	1.837384e-06	8.525750e-09	1.335388e+01	5.548524e+02
9.600000e-07	1.972605e-06	9.478596e-09	1.433664e+01	6.171344e+02
9.700000e-07	2.106981e-06	1.037413e-08	1.531327e+01	6.765945e+02
9.800000e-07	2.240531e-06	1.120790e-08	1.628390e+01	7.326948e+02
9.900000e-07	2.373357e-06	1.197730e-08	1.724926e+01	7.850432e+02
1.000000e-06	2.505331e-06	1.268408e-08	1.820843e+01	8.334191e+02
1.010000e-06	2.636261e-06	1.333666e-08	1.916001e+01	8.777813e+02
1.020000e-06	2.766136e-06	1.394147e-08	2.010393e+01	9.182584e+02
1.030000e-06	2.895028e-06	1.450392e-08	2.104070e+01	9.551226e+02
1.040000e-06	3.022828e-06	1.502519e-08	2.196953e+01	9.887518e+02
1.050000e-06	3.149445e-06	1.550746e-08	2.288977e+01	1.019584e+03
1.060000e-06	3.275000e-06	1.595488e-08	2.380228e+01	1.048070e+03
1.070000e-06	3.399554e-06	1.637197e-08	2.470753e+01	1.074633e+03
1.080000e-06	3.522904e-06	1.676131e-08	2.560402e+01	1.099630e+03
1.090000e-06	3.644885e-06	1.712609e-08	2.649056e+01	1.123336e+03
1.100000e-06	3.765590e-06	1.747052e-08	2.736783e+01	1.145930e+03
1.110000e-06	3.884946e-06	1.779486e-08	2.823530e+01	1.167506e+03
1.120000e-06	4.002881e-06	1.810026e-08	2.909243e+01	1.188084e+03
1.130000e-06	4.119345e-06	1.838845e-08	2.993888e+01	1.207635e+03
1.140000e-06	4.234139e-06	1.865941e-08	3.077319e+01	1.226109e+03
1.150000e-06	4.347276e-06	1.891311e-08	3.159546e+01	1.243461e+03
1.160000e-06	4.458847e-06	1.915178e-08	3.240634e+01	1.259670e+03
1.170000e-06	4.568903e-06	1.937661e-08	3.320621e+01	1.274756e+03
1.180000e-06	4.677468e-06	1.958890e-08	3.399525e+01	1.288780e+03
1.190000e-06	4.784375e-06	1.978984e-08	3.477223e+01	1.301845e+03
1.200000e-06	4.889509e-06	1.998310e-08	3.553633e+01	1.314080e+03
1.210000e-06	4.992833e-06	2.016806e-08	3.628728e+01	1.325629e+03
1.220000e-06	5.094365e-06	2.034413e-08	3.702520e+01	1.336627e+03
1.230000e-06	5.194101e-06	2.051071e-08	3.775007e+01	1.347189e+03
1.240000e-06	5.291855e-06	2.066829e-08	3.846053e+01	1.357392e+03
1.250000e-06	5.387548e-06	2.081748e-08	3.915602e+01	1.367275e+03
1.260000e-06	5.481303e-06	2.095958e-08	3.983742e+01	1.376835e+03
1.270000e-06	5.573215e-06	2.109341e-08	4.050542e+01	1.386034e+03
1.280000e-06	5.663144e-06	2.122033e-08	4.115901e+01	1.394815e+03
1.290000e-06	5.750910e-06	2.134147e-08	4.179689e+01	1.403113e+03
1.300000e-06	5.836597e-06	2.145414e-08	4.241965e+01	1.410874e+03
1.310000e-06	5.920296e-06	2.155929e-08	4.302796e+01	1.418063e+03
1.320000e-06	6.001943e-06	2.166068e-08	4.362137e+01	1.424679e+03
1.330000e-06	6.081384e-06	2.175709e-08	4.419873e+01	1.430754e+03
1.340000e-06	6.158557e-06	2.184710e-08	4.475961e+01	1.436350e+03
1.350000e-06	6.233337e-06	2.193221e-08	4.530311e+01	1.441553e+03
1.360000e-06	6.305618e-06	2.201127e-08	4.582844e+01	1.446460e+03
1.370000e-06	6.375667e-06	2.208634e-08	4.633754e+01	1.451164e+03
1.380000e-06	6.443550e-06	2.215822e-08	4.683091e+01	1.455745e+03
1.390000e-06	6.509079e-06	2.222721e-08	4.730716e+01	1.460252e+03
1.400000e-06	6.572256e-06	2.229486e-08	4.776633e+01	1.464705e+03
1.410000e-06	6.633228e-06	2.235920e-08	4.820946e+01	1.469091e+03
1.420000e-06	6.691933e-06	2.241961e-08	4.863612e+01	1.473365e+03
1.430000e-06	6.748207e-06	2.247656e-08	4.904512e+01	1.477467e+03
1.440000e-06	6.802069e-06	2.252976e-08	4.943658e+01	1.481327e+03
1.450000e-06	6.853275e-06	2.258068e-08	4.980874e+01	1.484878e+03
1.460000e-06	6.901623e-06	2.262777e-08	5.016012e+01	1.488071e+03
1.470000e-06	6.947439e-06	2.267092e-08	5.049311e+01	1.490884e+03
1.480000e-06	6.990929e-06	2.271116e-08	5.080919e+01	1.493320e+03
1.490000e-06	7.031872e-06	2.274786e-08	5.110676e+01	1.495412e+03
1.500000e-06	7.070217e-06	2.277981e-08	5.138544e+01	1.497216e+03
1.510000e-06	7.106210e-06	2.280762e-08	5.164704e+01	1.498799e+03
1.520000e-06	7.139739e-06	2.283406e-08	5.189072e+01	1.500234e+03
1.530000e-06	7.170629e-06	2.285954e-08	5.211523e+01	1.501584e+03
1.540000e-06	7.199092e-06	2.288194e-08	5.232209e+01	1.502892e+03
1.550000e-06	7.224965e-06	2.290070e-08	5.251013e+01	1.504180e+03
1.560000e-06	7.248025e-06	2.291870e-08	5.267773e+01	1.505442e+03
1.570000e-06	7.268582e-06	2.293495e-08	5.282713e+01	1.506647e+03
1.580000e-06	7.286671e-06	2.294694e-08	5.295860e+01	1.507748e+03
1.590000e-06	7.302015e-06	2.295533e-08	5.307012e+01	1.508689e+03
1.600000e-06	7.314532e-06	2.296162e-08	5.316110e+01	1.509415e+03
1.610000e-06	7.324180e-06	2.296742e-08	5.323121e+01	1.509884e+03
1.620000e-06	7.331056e-06	2.297264e-08	5.328119e+01	1.510072e+03
1.630000e-06	7.335398e-06	2.297564e-08	5.331275e+01	1.509979e+03
1.640000e-06	7.337112e-06	2.297701e-08	5.332520e+01	1.509629e+03
1.650000e-06	7.336199e-06	2.297444e-08	5.331857e+01	1.509064e+03
1.660000e-06	7.332915e-06	2.296686e-08	5.329470e+01	1.508341e+03
1.670000e-06	7.327139e-06	2.295945e-08	5.325272e+01	1.507519e+03
1.680000e-06	7.318835e-06	2.295008e-08	5.319237e+01	1.506650e+03
1.690000e-06	7.308180e-06	2.293883e-08	5.311493e+01	1.505774e+03
1.700000e-06	7.294952e-06	2.292734e-08	5.301879e+01	1.504910e+03
1.710000e-06	7.279184e-06	2.291683e-08	5.290419e+01	1.504053e+03
1.720000e-06	7.261264e-06	2.290126e-08	5.277395e+01	1.503180e+03
1.730000e-06	7.241271e-06	2.283654e-08	5.262864e+01	1.502249e+03
1.740000e-06	7.218544e-06	2.280262e-08	5.246346e+01	1.501212e+03
1.750000e-06	7.192388e-06	2.281976e-08	5.227337e+01	1.500020e+03
1.760000e-06	7.162909e-06	2.280153e-08	5.205911e+01	1.498633e+03
1.770000e-06	7.130770e-06	2.276849e-08	5.182554e+01	1.497028e+03
1.780000e-06	7.096606e-06	2.279139e-08	5.157723e+01	1.495197e+03
1.790000e-06	7.060811e-06	2.277533e-08	5.131708e+01	1.493153e+03
1.800000e-06	7.023354e-06	2.267452e-08	5.104485e+01	1.490926e+03
1.810000e-06	6.983448e-06	2.271134e-08	5.075482e+01	1.488550e+03
1.820000e-06	6.940896e-06	2.266845e-08	5.044556e+01	1.486063e+03
1.830000e-06	6.896080e-06	2.263377e-08	5.011984e+01	1.483495e+03
1.840000e-06	6.848770e-06	2.266038e-08	4.977599e+01	1.480860e+03
1.850000e-06	6.798872e-06	2.256286e-08	4.941334e+01	1.478153e+03
1.860000e-06	6.746262e-06	2.255144e-08	4.903098e+01	1.475349e+03
1.870000e-06	6.690883e-06	2.244920e-08	4.862849e+01	1.472406e+03
1.880000e-06	6.633126e-06	2.239162e-08	4.820872e+01	1.469270e+03
1.890000e-06	6.572871e-06	2.239481e-08	4.777080e+01	1.465885e+03
1.900000e-06	6.509992e-06	2.229450e-08	4.731380e+01	1.462200e+03
1.910000e-06	6.444695e-06	2.227782e-08	4.683923e+01	1.458180e+03
1.920000e-06	6.377069e-06	2.218484e-08	4.634773e+01	1.453811e+03
1.930000e-06	6.307032e-06	2.210696e-08	4.583871e+01	1.449101e+03
1.940000e-06	6.234530e-06	2.204398e-08	4.531177e+01	1.444081e+03
1.950000e-06	6.159599e-06	2.195671e-08	4.476719e+01	1.438799e+03
1.960000e-06	6.082094e-06	2.191988e-08	4.420389e+01	1.433312e+03
1.970000e-06	6.002123e-06	2.180555e-08	4.362267e+01	1.427672e+03
1.980000e-06	5.920071e-06	2.173793e-08	4.302633e+01	1.421921e+03
1.990000e-06	5.835979e-06	2.163555e-08	4.241516e+01	1.416079e+03
2.000000e-06	5.749777e-06	2.153941e-08	4.178865e+01	1.410137e+03
2.010000e-06	5.661429e-06	2.145294e-08	4.114655e+01	1.404061e+03
2.020000e-06	5.571077e-06	2.134490e-08	4.048988e+01	1.397789e+03
2.030000e-06	5.478778e-06	2.125343e-08	3.981906e+01	1.391246e+03
2.040000e-06	5.384516e-06	2.112559e-08	3.913398e+01	1.384347e+03
2.050000e-06	5.288350e-06	2.102208e-08	3.843506e+01	1.377016e+03
2.060000e-06	5.190398e-06	2.089574e-08	3.772315e+01	1.369194e+03
2.070000e-06	5.090718e-06	2.077838e-08	3.699870e+01	1.360846e+03
2.080000e-06	4.989183e-06	2.064683e-08	3.626075e+01	1.351969e+03
2.090000e-06	4.885681e-06	2.051126e-08	3.550851e+01	1.342590e+03
2.100000e-06	4.780397e-06	2.037131e-08	3.474332e+01	1.332758e+03
2.110000e-06	4.673677e-06	2.022029e-08	3.396770e+01	1.322535e+03
2.120000e-06	4.565435e-06	2.007013e-08	3.318100e+01	1.311984e+03
2.130000e-06	4.455564e-06	1.990085e-08	3.238247e+01	1.301150e+03
2.140000e-06	4.343995e-06	1.973079e-08	3.157161e+01	1.290053e+03
2.150000e-06	4.230758e-06	1.955031e-08	3.074862e+01	1.278678e+03
2.160000e-06	4.115851e-06	1.937639e-08	2.991348e+01	1.266970e+03
2.170000e-06	3.999207e-06	1.918990e-08	2.906573e+01	1.254839e+03
2.180000e-06	3.880964e-06	1.899515e-08	2.820636e+01	1.242167e+03
2.190000e-06	3.761153e-06	1.878439e-08	2.733559e+01	1.228825e+03
2.200000e-06	3.639897e-06	1.856339e-08	2.645431e+01	1.214686e+03
2.210000e-06	3.517342e-06	1.833144e-08	2.556360e+01	1.199643e+03
2.220000e-06	3.393457e-06	1.809039e-08	2.466322e+01	1.183620e+03
2.230000e-06	3.268340e-06	1.784144e-08	2.375388e+01	1.166580e+03
2.240000e-06	3.142078e-06	1.757284e-08	2.283622e+01	1.148524e+03
2.250000e-06	3.014572e-06	1.728980e-08	2.190953e+01	1.129487e+03
2.260000e-06	2.885864e-06	1.699176e-08	2.097409e+01	1.109516e+03
2.270000e-06	2.756192e-06	1.668458e-08	2.003165e+01	1.088658e+03
2.280000e-06	2.625602e-06	1.636260e-08	1.908255e+01	1.066932e+03
2.290000e-06	2.493966e-06	1.602384e-08	1.812583e+01	1.044309e+03
2.300000e-06	2.361417e-06	1.565983e-08	1.716248e+01	1.020697e+03
2.310000e-06	2.228183e-06	1.526936e-08	1.619415e+01	9.959340e+02
2.320000e-06	2.094235e-06	1.485637e-08	1.522064e+01	9.697866e+02
2.330000e-06	1.959444e-06	1.442195e-08	1.424099e+01	9.419656e+02
2.340000e-06	1.823885e-06	1.396153e-08	1.325577e+01	9.121483e+02
2.350000e-06	1.687757e-06	1.347016e-08	1.226640e+01	8.800091e+02
2.360000e-06	1.551114e-06	1.294066e-08	1.127330e+01	8.452541e+02
2.370000e-06	1.413933e-06	1.237029e-08	1.027628e+01	8.076550e+02
2.380000e-06	1.276323e-06	1.176072e-08	9.276151e+00	7.670781e+02
2.390000e-06	1.138393e-06	1.111212e-08	8.273700e+00	7.235031e+02
2.400000e-06	1.000053e-06	1.042278e-08	7.268258e+00	6.770303e+02
2.410000e-06	8.612906e-07	9.690710e-09	6.259751e+00	6.278727e+02
2.420000e-06	7.222197e-07	8.913633e-09	5.249001e+00	5.763356e+02
2.430000e-06	5.828319e-07	8.092871e-09	4.235949e+00	5.227839e+02
2.440000e-06	4.432222e-07	7.235856e-09	3.221283e+00	4.676030e+02
2.450000e-06	3.035009e-07	6.353066e-09	2.205806e+00	4.111571e+02
2.460000e-06	1.636097e-07	5.453276e-09	1.189095e+00	3.537513e+02
2.470000e-06	2.356001e-08	4.542070e-09	1.712312e-01	2.956025e+02
2.480000e-06	-1.165326e-07	3.627991e-09	-8.469443e-01	2.368234e+02
2.490000e-06	-2.565719e-07	2.716346e-09	-1.864732e+00	1.774224e+02
2.500000e-06	-3.965636e-07	1.806790e-09	-2.882174e+00	1.173194e+02
2.510000e-06	-5.364280e-07	8.925070e-10	-3.898691e+00	5.637621e+01
2.520000e-06	-6.760864e-07	-3.314443e-11	-4.913710e+00	-5.562181e+00
2.530000e-06	-8.155181e-07	-9.737091e-10	-5.927082e+00	-6.862134e+01
2.540000e-06	-9.546044e-07	-1.934282e-09	-6.937944e+00	-1.328516e+02
2.550000e-06	-1.093229e-06	-2.921203e-09	-7.945447e+00	-1.981897e+02
2.560000e-06	-1.231393e-06	-3.935570e-09	-8.949608e+00	-2.644324e+02
2.570000e-06	-1.369145e-06	-4.972862e-09	-9.950772e+00	-3.312270e+02
2.580000e-06	-1.506474e-06	-6.022647e-09	-1.094887e+01	-3.980800e+02
2.590000e-06	-1.643315e-06	-7.068788e-09	-1.194341e+01	-4.643835e+02
2.600000e-06	-1.779592e-06	-8.091149e-09	-1.293385e+01	-5.294562e+02
2.610000e-06	-1.915143e-06	-9.071185e-09	-1.391902e+01	-5.925954e+02
2.620000e-06	-2.049768e-06	-9.997369e-09	-1.489746e+01	-6.531327e+02
2.630000e-06	-2.183576e-06	-1.086443e-08	-1.586996e+01	-7.104873e+02
2.640000e-06	-2.316671e-06	-1.166889e-08	-1.683727e+01	-7.642114e+02
2.650000e-06	-2.448945e-06	-1.241042e-08	-1.779862e+01	-8.140212e+02
2.660000e-06	-2.580255e-06	-1.309498e-08	-1.875296e+01	-8.598116e+02
2.670000e-06	-2.710515e-06	-1.372629e-08	-1.969968e+01	-9.016529e+02
2.680000e-06	-2.839859e-06	-1.430950e-08	-2.063974e+01	-9.397697e+02
2.690000e-06	-2.968270e-06	-1.484857e-08	-2.157301e+01	-9.745073e+02
2.700000e-06	-3.095533e-06	-1.534698e-08	-2.249794e+01	-1.006287e+03
2.710000e-06	-3.221668e-06	-1.580953e-08	-2.341467e+01	-1.035562e+03
2.720000e-06	-3.346719e-06	-1.624079e-08	-2.432353e+01	-1.062768e+03
2.730000e-06	-3.470432e-06	-1.664289e-08	-2.522266e+01	-1.088289e+03
2.740000e-06	-3.592792e-06	-1.701976e-08	-2.611196e+01	-1.112432e+03
2.750000e-06	-3.714016e-06	-1.737366e-08	-2.699300e+01	-1.135409e+03
2.760000e-06	-3.833935e-06	-1.770455e-08	-2.786456e+01	-1.157344e+03
2.770000e-06	-3.952292e-06	-1.801723e-08	-2.872476e+01	-1.178281e+03
2.780000e-06	-4.069117e-06	-1.831246e-08	-2.957383e+01	-1.198205e+03
2.790000e-06	-4.184399e-06	-1.858950e-08	-3.041168e+01	-1.217071e+03
2.800000e-06	-4.297929e-06	-1.885027e-08	-3.123680e+01	-1.234829e+03
2.810000e-06	-4.409722e-06	-1.909707e-08	-3.204930e+01	-1.251447e+03
2.820000e-06	-4.519895e-06	-1.933172e-08	-3.285003e+01	-1.266930e+03
2.830000e-06	-4.628568e-06	-1.955714e-08	-3.363985e+01	-1.281325e+03
2.840000e-06	-4.735802e-06	-1.977262e-08	-3.441921e+01	-1.294720e+03
2.850000e-06	-4.841441e-06	-1.997674e-08	-3.518698e+01	-1.307236e+03
2.860000e-06	-4.945285e-06	-2.016749e-08	-3.594171e+01	-1.319015e+03
2.870000e-06	-5.047233e-06	-2.034618e-08	-3.668265e+01	-1.330197e+03
2.880000e-06	-5.147323e-06	-2.051546e-08	-3.741009e+01	-1.340904e+03
2.890000e-06	-5.245605e-06	-2.067443e-08	-3.812439e+01	-1.351230e+03
2.900000e-06	-5.342047e-06	-2.082500e-08	-3.882532e+01	-1.361227e+03
2.910000e-06	-5.436520e-06	-2.096777e-08	-3.951194e+01	-1.370906e+03
2.920000e-06	-5.529002e-06	-2.110514e-08	-4.018409e+01	-1.380241e+03
2.930000e-06	-5.619558e-06	-2.123588e-08	-4.084224e+01	-1.389180e+03
2.940000e-06	-5.708117e-06	-2.135868e-08	-4.148587e+01	-1.397659e+03
