# Temperatura_=_85.66
# Concentracion g/m^3_=_28370.0
# C_Vs_to_Am_M_A/Vsm_=_65563218390.804596
# pendiente_HvsI_1/m_=_3716.3
# ordenada_HvsI_A/m_=_1297.0
# frecuencia_Hz_=_302369.4476464219

Tiempo_(s)	Campo_(V.s)	Magnetizacion_(V.s)	Campo_(kA/m)	Magnetizacion_(A/m)
0.000000e+00	-7.325108e-06	-2.933599e-08	-5.318949e+01	-1.921339e+03
1.000000e-08	-7.321198e-06	-2.932754e-08	-5.316110e+01	-1.920380e+03
2.000000e-08	-7.314942e-06	-2.931351e-08	-5.311567e+01	-1.919328e+03
3.000000e-08	-7.306347e-06	-2.929731e-08	-5.305326e+01	-1.918227e+03
4.000000e-08	-7.295136e-06	-2.927925e-08	-5.297186e+01	-1.917097e+03
5.000000e-08	-7.281195e-06	-2.925907e-08	-5.287063e+01	-1.915936e+03
6.000000e-08	-7.264618e-06	-2.923707e-08	-5.275026e+01	-1.914715e+03
7.000000e-08	-7.245801e-06	-2.921380e-08	-5.261362e+01	-1.913388e+03
8.000000e-08	-7.224896e-06	-2.920130e-08	-5.246182e+01	-1.911901e+03
9.000000e-08	-7.201423e-06	-2.920230e-08	-5.229138e+01	-1.910201e+03
1.000000e-07	-7.174992e-06	-2.916080e-08	-5.209946e+01	-1.908243e+03
1.100000e-07	-7.145722e-06	-2.908509e-08	-5.188693e+01	-1.906005e+03
1.200000e-07	-7.113927e-06	-2.903129e-08	-5.165605e+01	-1.903482e+03
1.300000e-07	-7.079632e-06	-2.898777e-08	-5.140703e+01	-1.900695e+03
1.400000e-07	-7.043100e-06	-2.893208e-08	-5.114176e+01	-1.897679e+03
1.500000e-07	-7.004718e-06	-2.888031e-08	-5.086306e+01	-1.894481e+03
1.600000e-07	-6.964256e-06	-2.886851e-08	-5.056925e+01	-1.891146e+03
1.700000e-07	-6.921357e-06	-2.880615e-08	-5.025775e+01	-1.887710e+03
1.800000e-07	-6.876072e-06	-2.871337e-08	-4.992893e+01	-1.884189e+03
1.900000e-07	-6.828240e-06	-2.868263e-08	-4.958161e+01	-1.880574e+03
2.000000e-07	-6.777529e-06	-2.861057e-08	-4.921338e+01	-1.876831e+03
2.100000e-07	-6.724113e-06	-2.852904e-08	-4.882551e+01	-1.872902e+03
2.200000e-07	-6.668189e-06	-2.847340e-08	-4.841944e+01	-1.868716e+03
2.300000e-07	-6.609717e-06	-2.840445e-08	-4.799485e+01	-1.864198e+03
2.400000e-07	-6.548838e-06	-2.832536e-08	-4.755280e+01	-1.859281e+03
2.500000e-07	-6.485627e-06	-2.822568e-08	-4.709381e+01	-1.853914e+03
2.600000e-07	-6.419887e-06	-2.813723e-08	-4.661645e+01	-1.848075e+03
2.700000e-07	-6.351699e-06	-2.803773e-08	-4.612132e+01	-1.841774e+03
2.800000e-07	-6.281231e-06	-2.793960e-08	-4.560963e+01	-1.835049e+03
2.900000e-07	-6.208338e-06	-2.784413e-08	-4.508034e+01	-1.827960e+03
3.000000e-07	-6.132962e-06	-2.774093e-08	-4.453301e+01	-1.820584e+03
3.100000e-07	-6.055016e-06	-2.764182e-08	-4.396702e+01	-1.812993e+03
3.200000e-07	-5.974485e-06	-2.752034e-08	-4.338227e+01	-1.805249e+03
3.300000e-07	-5.891801e-06	-2.739272e-08	-4.278188e+01	-1.797388e+03
3.400000e-07	-5.807247e-06	-2.726829e-08	-4.216791e+01	-1.789411e+03
3.500000e-07	-5.720770e-06	-2.714611e-08	-4.153998e+01	-1.781284e+03
3.600000e-07	-5.632311e-06	-2.701421e-08	-4.089766e+01	-1.772940e+03
3.700000e-07	-5.541744e-06	-2.686974e-08	-4.024003e+01	-1.764289e+03
3.800000e-07	-5.449140e-06	-2.672511e-08	-3.956760e+01	-1.755227e+03
3.900000e-07	-5.354657e-06	-2.657069e-08	-3.888154e+01	-1.745656e+03
4.000000e-07	-5.258266e-06	-2.641046e-08	-3.818162e+01	-1.735495e+03
4.100000e-07	-5.159958e-06	-2.624584e-08	-3.746778e+01	-1.724692e+03
4.200000e-07	-5.059860e-06	-2.607849e-08	-3.674094e+01	-1.713234e+03
4.300000e-07	-4.957992e-06	-2.590157e-08	-3.600126e+01	-1.701144e+03
4.400000e-07	-4.854334e-06	-2.571412e-08	-3.524857e+01	-1.688477e+03
4.500000e-07	-4.748998e-06	-2.552175e-08	-3.448370e+01	-1.675307e+03
4.600000e-07	-4.641934e-06	-2.532233e-08	-3.370628e+01	-1.661715e+03
4.700000e-07	-4.533188e-06	-2.511346e-08	-3.291664e+01	-1.647766e+03
4.800000e-07	-4.422915e-06	-2.489548e-08	-3.211592e+01	-1.633497e+03
4.900000e-07	-4.311091e-06	-2.467222e-08	-3.130394e+01	-1.618905e+03
5.000000e-07	-4.197519e-06	-2.443718e-08	-3.047926e+01	-1.603939e+03
5.100000e-07	-4.082122e-06	-2.419133e-08	-2.964133e+01	-1.588505e+03
5.200000e-07	-3.965095e-06	-2.393568e-08	-2.879157e+01	-1.572472e+03
5.300000e-07	-3.846629e-06	-2.366785e-08	-2.793136e+01	-1.555689e+03
5.400000e-07	-3.726770e-06	-2.338794e-08	-2.706104e+01	-1.538002e+03
5.500000e-07	-3.605503e-06	-2.309635e-08	-2.618048e+01	-1.519276e+03
5.600000e-07	-3.482796e-06	-2.279110e-08	-2.528948e+01	-1.499412e+03
5.700000e-07	-3.358712e-06	-2.247152e-08	-2.438847e+01	-1.478352e+03
5.800000e-07	-3.233407e-06	-2.213932e-08	-2.347860e+01	-1.456091e+03
5.900000e-07	-3.106984e-06	-2.179414e-08	-2.256061e+01	-1.432662e+03
6.000000e-07	-2.979522e-06	-2.143462e-08	-2.163508e+01	-1.408125e+03
6.100000e-07	-2.850949e-06	-2.105762e-08	-2.070147e+01	-1.382545e+03
6.200000e-07	-2.721277e-06	-2.065981e-08	-1.975989e+01	-1.355963e+03
6.300000e-07	-2.590620e-06	-2.023800e-08	-1.881116e+01	-1.328372e+03
6.400000e-07	-2.458917e-06	-1.979193e-08	-1.785483e+01	-1.299694e+03
6.500000e-07	-2.326273e-06	-1.932171e-08	-1.689167e+01	-1.269767e+03
6.600000e-07	-2.192882e-06	-1.882577e-08	-1.592308e+01	-1.238344e+03
6.700000e-07	-2.058797e-06	-1.830218e-08	-1.494945e+01	-1.205099e+03
6.800000e-07	-1.924049e-06	-1.774749e-08	-1.397101e+01	-1.169656e+03
6.900000e-07	-1.788560e-06	-1.715943e-08	-1.298720e+01	-1.131614e+03
7.000000e-07	-1.652309e-06	-1.653066e-08	-1.199784e+01	-1.090585e+03
7.100000e-07	-1.515481e-06	-1.585621e-08	-1.100429e+01	-1.046241e+03
7.200000e-07	-1.378153e-06	-1.513681e-08	-1.000712e+01	-9.983358e+02
7.300000e-07	-1.240345e-06	-1.436861e-08	-9.006466e+00	-9.467419e+02
7.400000e-07	-1.102151e-06	-1.354688e-08	-8.003004e+00	-8.914562e+02
7.500000e-07	-9.635755e-07	-1.266917e-08	-6.996769e+00	-8.326001e+02
7.600000e-07	-8.246183e-07	-1.173573e-08	-5.987765e+00	-7.704019e+02
7.700000e-07	-6.853245e-07	-1.074524e-08	-4.976317e+00	-7.051669e+02
7.800000e-07	-5.457140e-07	-9.700523e-09	-3.962569e+00	-6.372392e+02
7.900000e-07	-4.058692e-07	-8.608380e-09	-2.947121e+00	-5.669602e+02
8.000000e-07	-2.658397e-07	-7.476589e-09	-1.930330e+00	-4.946294e+02
8.100000e-07	-1.256736e-07	-6.314447e-09	-9.125484e-01	-4.204757e+02
8.200000e-07	1.458030e-08	-5.131537e-09	1.058713e-01	-3.446402e+02
8.300000e-07	1.549063e-07	-3.937571e-09	1.124814e+00	-2.671767e+02
8.400000e-07	2.951672e-07	-2.736447e-09	2.143285e+00	-1.880692e+02
8.500000e-07	4.352830e-07	-1.529333e-09	3.160701e+00	-1.072640e+02
8.600000e-07	5.753062e-07	-3.127357e-10	4.177446e+00	-2.471302e+01
8.700000e-07	7.151142e-07	9.252582e-10	5.192628e+00	5.957729e+01
8.800000e-07	8.545660e-07	2.197751e-09	6.205223e+00	1.454994e+02
8.900000e-07	9.936712e-07	3.508504e-09	7.215302e+00	2.328065e+02
9.000000e-07	1.132409e-06	4.853029e-09	8.222714e+00	3.210889e+02
9.100000e-07	1.270749e-06	6.224447e-09	9.227232e+00	4.097698e+02
9.200000e-07	1.408723e-06	7.607697e-09	1.022910e+01	4.981214e+02
9.300000e-07	1.546243e-06	8.978716e-09	1.122767e+01	5.853015e+02
9.400000e-07	1.683139e-06	1.031082e-08	1.222170e+01	6.704058e+02
9.500000e-07	1.819326e-06	1.157892e-08	1.321059e+01	7.525321e+02
9.600000e-07	1.954698e-06	1.276535e-08	1.419356e+01	8.308469e+02
9.700000e-07	2.089241e-06	1.386223e-08	1.517052e+01	9.046494e+02
9.800000e-07	2.223000e-06	1.487143e-08	1.614177e+01	9.734224e+02
9.900000e-07	2.356046e-06	1.579817e-08	1.710785e+01	1.036868e+03
1.000000e-06	2.488236e-06	1.664870e-08	1.806772e+01	1.094918e+03
1.010000e-06	2.619377e-06	1.743008e-08	1.901997e+01	1.147730e+03
1.020000e-06	2.749528e-06	1.815050e-08	1.996503e+01	1.195654e+03
1.030000e-06	2.878752e-06	1.881921e-08	2.090335e+01	1.239187e+03
1.040000e-06	3.006887e-06	1.944068e-08	2.183378e+01	1.278917e+03
1.050000e-06	3.133825e-06	2.001774e-08	2.275551e+01	1.315460e+03
1.060000e-06	3.259686e-06	2.055461e-08	2.366942e+01	1.349406e+03
1.070000e-06	3.384461e-06	2.105508e-08	2.457544e+01	1.381269e+03
1.080000e-06	3.508013e-06	2.152263e-08	2.547258e+01	1.411455e+03
1.090000e-06	3.630331e-06	2.196162e-08	2.636076e+01	1.440244e+03
1.100000e-06	3.751423e-06	2.237543e-08	2.724005e+01	1.467793e+03
1.110000e-06	3.871099e-06	2.276640e-08	2.810904e+01	1.494154e+03
1.120000e-06	3.989305e-06	2.313452e-08	2.896737e+01	1.519300e+03
1.130000e-06	4.106057e-06	2.348225e-08	2.981513e+01	1.543158e+03
1.140000e-06	4.221226e-06	2.381182e-08	3.065141e+01	1.565651e+03
1.150000e-06	4.334812e-06	2.412413e-08	3.147619e+01	1.586725e+03
1.160000e-06	4.446786e-06	2.441923e-08	3.228926e+01	1.606369e+03
1.170000e-06	4.557164e-06	2.469637e-08	3.309074e+01	1.624636e+03
1.180000e-06	4.665987e-06	2.495813e-08	3.388093e+01	1.641634e+03
1.190000e-06	4.773147e-06	2.520699e-08	3.465905e+01	1.657518e+03
1.200000e-06	4.878655e-06	2.544567e-08	3.542517e+01	1.672475e+03
1.210000e-06	4.982444e-06	2.567412e-08	3.617881e+01	1.686694e+03
1.220000e-06	5.084419e-06	2.589194e-08	3.691927e+01	1.700349e+03
1.230000e-06	5.184509e-06	2.609923e-08	3.764605e+01	1.713574e+03
1.240000e-06	5.282636e-06	2.629382e-08	3.835858e+01	1.726453e+03
1.250000e-06	5.378777e-06	2.647666e-08	3.905668e+01	1.739012e+03
1.260000e-06	5.472939e-06	2.665117e-08	3.974041e+01	1.751226e+03
1.270000e-06	5.565163e-06	2.681900e-08	4.041008e+01	1.763030e+03
1.280000e-06	5.655438e-06	2.698006e-08	4.106559e+01	1.774334e+03
1.290000e-06	5.743629e-06	2.713589e-08	4.170596e+01	1.785047e+03
1.300000e-06	5.829742e-06	2.728707e-08	4.233126e+01	1.795094e+03
1.310000e-06	5.913844e-06	2.743121e-08	4.294194e+01	1.804432e+03
1.320000e-06	5.995895e-06	2.756817e-08	4.353773e+01	1.813056e+03
1.330000e-06	6.075769e-06	2.769719e-08	4.411772e+01	1.821009e+03
1.340000e-06	6.153332e-06	2.781785e-08	4.468092e+01	1.828368e+03
1.350000e-06	6.228522e-06	2.793007e-08	4.522690e+01	1.835236e+03
1.360000e-06	6.301309e-06	2.803591e-08	4.575542e+01	1.841730e+03
1.370000e-06	6.371808e-06	2.813682e-08	4.626734e+01	1.847958e+03
1.380000e-06	6.440062e-06	2.823215e-08	4.676295e+01	1.854010e+03
1.390000e-06	6.506037e-06	2.832306e-08	4.724201e+01	1.859942e+03
1.400000e-06	6.569668e-06	2.841022e-08	4.770405e+01	1.865771e+03
1.410000e-06	6.631024e-06	2.849176e-08	4.814957e+01	1.871480e+03
1.420000e-06	6.690146e-06	2.856669e-08	4.857887e+01	1.877018e+03
1.430000e-06	6.746897e-06	2.863837e-08	4.899095e+01	1.882317e+03
1.440000e-06	6.801181e-06	2.870855e-08	4.938512e+01	1.887301e+03
1.450000e-06	6.852775e-06	2.877612e-08	4.975976e+01	1.891904e+03
1.460000e-06	6.901569e-06	2.883971e-08	5.011407e+01	1.896081e+03
1.470000e-06	6.947767e-06	2.890026e-08	5.044952e+01	1.899815e+03
1.480000e-06	6.991556e-06	2.895687e-08	5.076748e+01	1.903119e+03
1.490000e-06	7.032846e-06	2.900717e-08	5.106730e+01	1.906035e+03
1.500000e-06	7.071596e-06	2.905297e-08	5.134867e+01	1.908628e+03
1.510000e-06	7.107997e-06	2.909527e-08	5.161299e+01	1.910970e+03
1.520000e-06	7.141896e-06	2.913444e-08	5.185914e+01	1.913134e+03
1.530000e-06	7.173169e-06	2.917104e-08	5.208622e+01	1.915176e+03
1.540000e-06	7.201958e-06	2.920341e-08	5.229527e+01	1.917131e+03
1.550000e-06	7.228146e-06	2.923099e-08	5.248542e+01	1.919006e+03
1.560000e-06	7.251627e-06	2.925414e-08	5.265592e+01	1.920780e+03
1.570000e-06	7.272603e-06	2.927319e-08	5.280823e+01	1.922411e+03
1.580000e-06	7.291083e-06	2.928871e-08	5.294243e+01	1.923840e+03
1.590000e-06	7.306792e-06	2.930157e-08	5.305650e+01	1.925008e+03
1.600000e-06	7.319717e-06	2.931175e-08	5.315034e+01	1.925861e+03
1.610000e-06	7.329797e-06	2.931932e-08	5.322354e+01	1.926367e+03
1.620000e-06	7.337054e-06	2.932416e-08	5.327623e+01	1.926514e+03
1.630000e-06	7.341734e-06	2.932611e-08	5.331021e+01	1.926320e+03
1.640000e-06	7.343797e-06	2.932584e-08	5.332520e+01	1.925826e+03
1.650000e-06	7.343235e-06	2.932348e-08	5.332111e+01	1.925089e+03
1.660000e-06	7.340276e-06	2.931510e-08	5.329963e+01	1.924175e+03
1.670000e-06	7.334908e-06	2.930258e-08	5.326065e+01	1.923149e+03
1.680000e-06	7.327013e-06	2.928988e-08	5.320332e+01	1.922060e+03
1.690000e-06	7.316706e-06	2.927570e-08	5.312848e+01	1.920939e+03
1.700000e-06	7.303837e-06	2.925766e-08	5.303504e+01	1.919789e+03
1.710000e-06	7.288370e-06	2.923642e-08	5.292273e+01	1.918592e+03
1.720000e-06	7.270668e-06	2.921062e-08	5.279419e+01	1.917308e+03
1.730000e-06	7.250897e-06	2.915673e-08	5.265063e+01	1.915883e+03
1.740000e-06	7.228541e-06	2.908861e-08	5.248829e+01	1.914263e+03
1.750000e-06	7.202836e-06	2.907808e-08	5.230164e+01	1.912400e+03
1.760000e-06	7.173734e-06	2.907644e-08	5.209032e+01	1.910262e+03
1.770000e-06	7.141905e-06	2.904094e-08	5.185921e+01	1.907839e+03
1.780000e-06	7.107996e-06	2.901800e-08	5.161298e+01	1.905141e+03
1.790000e-06	7.072435e-06	2.900617e-08	5.135477e+01	1.902200e+03
1.800000e-06	7.035241e-06	2.893009e-08	5.108469e+01	1.899060e+03
1.810000e-06	6.995635e-06	2.888620e-08	5.079710e+01	1.895768e+03
1.820000e-06	6.953380e-06	2.890485e-08	5.049028e+01	1.892364e+03
1.830000e-06	6.908933e-06	2.884570e-08	5.016754e+01	1.888871e+03
1.840000e-06	6.862027e-06	2.881578e-08	4.982694e+01	1.885291e+03
1.850000e-06	6.812485e-06	2.875062e-08	4.946720e+01	1.881597e+03
1.860000e-06	6.760280e-06	2.866590e-08	4.908813e+01	1.877741e+03
1.870000e-06	6.705273e-06	2.860445e-08	4.868871e+01	1.873654e+03
1.880000e-06	6.647828e-06	2.849764e-08	4.827158e+01	1.869262e+03
1.890000e-06	6.587927e-06	2.845368e-08	4.783663e+01	1.864492e+03
1.900000e-06	6.525407e-06	2.837300e-08	4.738266e+01	1.859289e+03
1.910000e-06	6.460410e-06	2.829113e-08	4.691070e+01	1.853618e+03
1.920000e-06	6.393075e-06	2.821150e-08	4.642176e+01	1.847478e+03
1.930000e-06	6.323364e-06	2.808866e-08	4.591557e+01	1.840896e+03
1.940000e-06	6.251137e-06	2.800761e-08	4.539111e+01	1.833928e+03
1.950000e-06	6.176494e-06	2.788787e-08	4.484911e+01	1.826644e+03
1.960000e-06	6.099273e-06	2.778654e-08	4.428838e+01	1.819120e+03
1.970000e-06	6.019535e-06	2.768181e-08	4.370939e+01	1.811424e+03
1.980000e-06	5.937707e-06	2.756381e-08	4.311521e+01	1.803601e+03
1.990000e-06	5.853851e-06	2.745133e-08	4.250632e+01	1.795666e+03
2.000000e-06	5.767805e-06	2.730820e-08	4.188151e+01	1.787597e+03
2.010000e-06	5.679566e-06	2.718193e-08	4.124079e+01	1.779339e+03
2.020000e-06	5.589418e-06	2.703749e-08	4.058620e+01	1.770807e+03
2.030000e-06	5.497370e-06	2.689890e-08	3.991782e+01	1.761903e+03
2.040000e-06	5.403272e-06	2.675015e-08	3.923454e+01	1.752523e+03
2.050000e-06	5.307254e-06	2.659566e-08	3.853734e+01	1.742578e+03
2.060000e-06	5.209503e-06	2.643685e-08	3.782754e+01	1.732007e+03
2.070000e-06	5.110079e-06	2.626563e-08	3.710560e+01	1.720781e+03
2.080000e-06	5.008820e-06	2.609524e-08	3.637033e+01	1.708910e+03
2.090000e-06	4.905569e-06	2.591078e-08	3.562060e+01	1.696440e+03
2.100000e-06	4.800490e-06	2.572521e-08	3.485759e+01	1.683439e+03
2.110000e-06	4.693875e-06	2.552749e-08	3.408343e+01	1.669987e+03
2.120000e-06	4.585773e-06	2.532435e-08	3.329847e+01	1.656158e+03
2.130000e-06	4.476056e-06	2.510394e-08	3.250179e+01	1.642000e+03
2.140000e-06	4.364602e-06	2.488022e-08	3.169249e+01	1.627525e+03
2.150000e-06	4.251443e-06	2.465119e-08	3.087082e+01	1.612700e+03
2.160000e-06	4.136644e-06	2.441407e-08	3.003724e+01	1.597445e+03
2.170000e-06	4.020133e-06	2.416988e-08	2.919122e+01	1.581641e+03
2.180000e-06	3.901911e-06	2.391138e-08	2.833278e+01	1.565142e+03
2.190000e-06	3.782078e-06	2.364019e-08	2.746264e+01	1.547794e+03
2.200000e-06	3.660826e-06	2.335465e-08	2.658220e+01	1.529451e+03
2.210000e-06	3.538285e-06	2.306056e-08	2.569240e+01	1.510001e+03
2.220000e-06	3.414507e-06	2.275250e-08	2.479361e+01	1.489370e+03
2.230000e-06	3.289451e-06	2.243061e-08	2.388555e+01	1.467534e+03
2.240000e-06	3.163151e-06	2.208882e-08	2.296845e+01	1.444515e+03
2.250000e-06	3.035660e-06	2.173050e-08	2.204271e+01	1.420365e+03
2.260000e-06	2.907038e-06	2.135478e-08	2.110875e+01	1.395150e+03
2.270000e-06	2.777369e-06	2.096439e-08	2.016719e+01	1.368922e+03
2.280000e-06	2.646715e-06	2.055762e-08	1.921847e+01	1.341694e+03
2.290000e-06	2.515146e-06	2.013039e-08	1.826312e+01	1.313417e+03
2.300000e-06	2.382649e-06	1.967606e-08	1.730103e+01	1.283959e+03
2.310000e-06	2.249315e-06	1.918976e-08	1.633285e+01	1.253102e+03
2.320000e-06	2.115295e-06	1.867470e-08	1.535970e+01	1.220548e+03
2.330000e-06	1.980618e-06	1.812857e-08	1.438178e+01	1.185934e+03
2.340000e-06	1.845177e-06	1.755252e-08	1.339830e+01	1.148864e+03
2.350000e-06	1.708985e-06	1.694188e-08	1.240938e+01	1.108943e+03
2.360000e-06	1.572248e-06	1.628820e-08	1.141650e+01	1.065814e+03
2.370000e-06	1.435080e-06	1.558732e-08	1.042049e+01	1.019200e+03
2.380000e-06	1.297451e-06	1.483743e-08	9.421126e+00	9.689294e+02
2.390000e-06	1.159379e-06	1.403637e-08	8.418546e+00	9.149530e+02
2.400000e-06	1.020902e-06	1.318091e-08	7.413033e+00	8.573494e+02
2.410000e-06	8.820721e-07	1.227035e-08	6.404952e+00	7.963115e+02
2.420000e-06	7.429785e-07	1.130232e-08	5.394958e+00	7.321213e+02
2.430000e-06	6.036268e-07	1.027775e-08	4.383089e+00	6.651136e+02
2.440000e-06	4.640243e-07	9.201592e-09	3.369400e+00	5.956356e+02
2.450000e-06	3.241889e-07	8.079442e-09	2.354019e+00	5.240057e+02
2.460000e-06	1.841304e-07	6.920920e-09	1.337018e+00	4.504807e+02
2.470000e-06	4.391441e-08	5.736921e-09	3.188738e-01	3.752338e+02
2.480000e-06	-9.635370e-08	4.540943e-09	-6.996490e-01	2.983490e+02
2.490000e-06	-2.365584e-07	3.338692e-09	-1.717711e+00	2.198323e+02
2.500000e-06	-3.766399e-07	2.128663e-09	-2.734879e+00	1.396388e+02
2.510000e-06	-5.165683e-07	9.073809e-10	-3.750935e+00	5.771294e+01
2.520000e-06	-6.563193e-07	-3.323086e-10	-4.765703e+00	-2.596379e+01
2.530000e-06	-7.958481e-07	-1.596759e-09	-5.778858e+00	-1.113250e+02
2.540000e-06	-9.350723e-07	-2.892753e-09	-6.789800e+00	-1.981772e+02
2.550000e-06	-1.073918e-06	-4.226006e-09	-7.797993e+00	-2.861704e+02
2.560000e-06	-1.212332e-06	-5.592277e-09	-8.803052e+00	-3.747867e+02
2.570000e-06	-1.350285e-06	-6.979446e-09	-9.804765e+00	-4.633491e+02
2.580000e-06	-1.487848e-06	-8.367344e-09	-1.080365e+01	-5.510509e+02
2.590000e-06	-1.624948e-06	-9.727232e-09	-1.179917e+01	-6.370032e+02
2.600000e-06	-1.761358e-06	-1.103462e-08	-1.278967e+01	-7.202951e+02
2.610000e-06	-1.896968e-06	-1.226878e-08	-1.377437e+01	-8.000613e+02
2.620000e-06	-2.031809e-06	-1.341385e-08	-1.475349e+01	-8.755466e+02
2.630000e-06	-2.165940e-06	-1.446817e-08	-1.572744e+01	-9.461634e+02
2.640000e-06	-2.299350e-06	-1.543413e-08	-1.669617e+01	-1.011533e+03
2.650000e-06	-2.431893e-06	-1.632082e-08	-1.765860e+01	-1.071504e+03
2.660000e-06	-2.563460e-06	-1.713603e-08	-1.861394e+01	-1.126158e+03
2.670000e-06	-2.694030e-06	-1.788619e-08	-1.956204e+01	-1.175779e+03
2.680000e-06	-2.823697e-06	-1.858082e-08	-2.050359e+01	-1.220817e+03
2.690000e-06	-2.952461e-06	-1.922568e-08	-2.143858e+01	-1.261836e+03
2.700000e-06	-3.080080e-06	-1.982620e-08	-2.236525e+01	-1.299448e+03
2.710000e-06	-3.206532e-06	-2.038626e-08	-2.328345e+01	-1.334259e+03
2.720000e-06	-3.331863e-06	-2.090698e-08	-2.419351e+01	-1.366815e+03
2.730000e-06	-3.455902e-06	-2.138926e-08	-2.509419e+01	-1.397563e+03
2.740000e-06	-3.578649e-06	-2.183855e-08	-2.598549e+01	-1.426828e+03
2.750000e-06	-3.700232e-06	-2.226113e-08	-2.686834e+01	-1.454810e+03
2.760000e-06	-3.820447e-06	-2.266201e-08	-2.774125e+01	-1.481597e+03
2.770000e-06	-3.939196e-06	-2.304425e-08	-2.860351e+01	-1.507185e+03
2.780000e-06	-4.056511e-06	-2.340442e-08	-2.945537e+01	-1.531514e+03
2.790000e-06	-4.172203e-06	-2.373984e-08	-3.029544e+01	-1.554504e+03
2.800000e-06	-4.286095e-06	-2.405513e-08	-3.112243e+01	-1.576090e+03
2.810000e-06	-4.398294e-06	-2.435567e-08	-3.193714e+01	-1.596244e+03
2.820000e-06	-4.508881e-06	-2.464266e-08	-3.274014e+01	-1.614994e+03
2.830000e-06	-4.617854e-06	-2.491627e-08	-3.353142e+01	-1.632431e+03
2.840000e-06	-4.725274e-06	-2.517708e-08	-3.431143e+01	-1.648694e+03
2.850000e-06	-4.831217e-06	-2.542362e-08	-3.508071e+01	-1.663961e+03
2.860000e-06	-4.935503e-06	-2.565662e-08	-3.583796e+01	-1.678424e+03
2.870000e-06	-5.037872e-06	-2.587872e-08	-3.658128e+01	-1.692264e+03
2.880000e-06	-5.138313e-06	-2.609325e-08	-3.731061e+01	-1.705632e+03
2.890000e-06	-5.236855e-06	-2.629906e-08	-3.802615e+01	-1.718630e+03
2.900000e-06	-5.333557e-06	-2.649285e-08	-3.872833e+01	-1.731305e+03
2.910000e-06	-5.428382e-06	-2.667357e-08	-3.941688e+01	-1.743650e+03
2.920000e-06	-5.521240e-06	-2.684330e-08	-4.009114e+01	-1.755611e+03
2.930000e-06	-5.612120e-06	-2.700514e-08	-4.075105e+01	-1.767105e+03
2.940000e-06	-5.700997e-06	-2.716046e-08	-4.139640e+01	-1.778041e+03
