# Temperatura_=_82.04
# Concentracion g/m^3_=_28370.0
# C_Vs_to_Am_M_A/Vsm_=_65563218390.804596
# pendiente_HvsI_1/m_=_3716.3
# ordenada_HvsI_A/m_=_1297.0
# frecuencia_Hz_=_302372.0063802337

Tiempo_(s)	Campo_(V.s)	Magnetizacion_(V.s)	Campo_(kA/m)	Magnetizacion_(A/m)
0.000000e+00	-7.362443e-06	-2.892413e-08	-5.319406e+01	-1.894184e+03
1.000000e-08	-7.358485e-06	-2.891506e-08	-5.316546e+01	-1.893278e+03
2.000000e-08	-7.352126e-06	-2.890196e-08	-5.311953e+01	-1.892289e+03
3.000000e-08	-7.343362e-06	-2.888930e-08	-5.305620e+01	-1.891259e+03
4.000000e-08	-7.332001e-06	-2.887582e-08	-5.297412e+01	-1.890205e+03
5.000000e-08	-7.317982e-06	-2.885748e-08	-5.287283e+01	-1.889119e+03
6.000000e-08	-7.301361e-06	-2.883566e-08	-5.275274e+01	-1.887970e+03
7.000000e-08	-7.282505e-06	-2.881466e-08	-5.261651e+01	-1.886709e+03
8.000000e-08	-7.261524e-06	-2.880338e-08	-5.246492e+01	-1.885279e+03
9.000000e-08	-7.237950e-06	-2.880358e-08	-5.229459e+01	-1.883626e+03
1.000000e-07	-7.211371e-06	-2.875628e-08	-5.210256e+01	-1.881709e+03
1.100000e-07	-7.181936e-06	-2.867880e-08	-5.188989e+01	-1.879505e+03
1.200000e-07	-7.149978e-06	-2.863309e-08	-5.165899e+01	-1.877018e+03
1.300000e-07	-7.115549e-06	-2.859949e-08	-5.141024e+01	-1.874271e+03
1.400000e-07	-7.078949e-06	-2.854678e-08	-5.114581e+01	-1.871310e+03
1.500000e-07	-7.040529e-06	-2.848061e-08	-5.086822e+01	-1.868186e+03
1.600000e-07	-6.999928e-06	-2.846454e-08	-5.057487e+01	-1.864951e+03
1.700000e-07	-6.956799e-06	-2.840178e-08	-5.026326e+01	-1.861644e+03
1.800000e-07	-6.911303e-06	-2.829055e-08	-4.993455e+01	-1.858284e+03
1.900000e-07	-6.863185e-06	-2.827963e-08	-4.958689e+01	-1.854860e+03
2.000000e-07	-6.812115e-06	-2.823058e-08	-4.921791e+01	-1.851335e+03
2.100000e-07	-6.758416e-06	-2.817090e-08	-4.882994e+01	-1.847647e+03
2.200000e-07	-6.702268e-06	-2.813884e-08	-4.842426e+01	-1.843719e+03
2.300000e-07	-6.643568e-06	-2.805140e-08	-4.800015e+01	-1.839467e+03
2.400000e-07	-6.582383e-06	-2.795523e-08	-4.755809e+01	-1.834817e+03
2.500000e-07	-6.518799e-06	-2.785160e-08	-4.709869e+01	-1.829713e+03
2.600000e-07	-6.452769e-06	-2.776681e-08	-4.662162e+01	-1.824128e+03
2.700000e-07	-6.384282e-06	-2.767112e-08	-4.612680e+01	-1.818069e+03
2.800000e-07	-6.313458e-06	-2.758119e-08	-4.561509e+01	-1.811574e+03
2.900000e-07	-6.240219e-06	-2.748635e-08	-4.508593e+01	-1.804708e+03
3.000000e-07	-6.164363e-06	-2.737298e-08	-4.453787e+01	-1.797550e+03
3.100000e-07	-6.085802e-06	-2.727325e-08	-4.397026e+01	-1.790180e+03
3.200000e-07	-6.004807e-06	-2.716302e-08	-4.338507e+01	-1.782663e+03
3.300000e-07	-5.921784e-06	-2.705612e-08	-4.278522e+01	-1.775040e+03
3.400000e-07	-5.836826e-06	-2.694650e-08	-4.217139e+01	-1.767318e+03
3.500000e-07	-5.749954e-06	-2.682465e-08	-4.154374e+01	-1.759463e+03
3.600000e-07	-5.661070e-06	-2.669042e-08	-4.090155e+01	-1.751409e+03
3.700000e-07	-5.570033e-06	-2.654881e-08	-4.024380e+01	-1.743062e+03
3.800000e-07	-5.476945e-06	-2.640841e-08	-3.957123e+01	-1.734316e+03
3.900000e-07	-5.381928e-06	-2.626229e-08	-3.888473e+01	-1.725067e+03
4.000000e-07	-5.285027e-06	-2.610978e-08	-3.818462e+01	-1.715229e+03
4.100000e-07	-5.186248e-06	-2.594690e-08	-3.747093e+01	-1.704747e+03
4.200000e-07	-5.085651e-06	-2.577948e-08	-3.674411e+01	-1.693603e+03
4.300000e-07	-4.983237e-06	-2.560409e-08	-3.600416e+01	-1.681821e+03
4.400000e-07	-4.878981e-06	-2.541799e-08	-3.525091e+01	-1.669455e+03
4.500000e-07	-4.773033e-06	-2.522687e-08	-3.448543e+01	-1.656582e+03
4.600000e-07	-4.665413e-06	-2.503520e-08	-3.370787e+01	-1.643287e+03
4.700000e-07	-4.556178e-06	-2.483568e-08	-3.291864e+01	-1.629640e+03
4.800000e-07	-4.445407e-06	-2.462695e-08	-3.211832e+01	-1.615683e+03
4.900000e-07	-4.332992e-06	-2.441193e-08	-3.130611e+01	-1.601416e+03
5.000000e-07	-4.218777e-06	-2.418366e-08	-3.048090e+01	-1.586791e+03
5.100000e-07	-4.102765e-06	-2.393969e-08	-2.964271e+01	-1.571714e+03
5.200000e-07	-3.985175e-06	-2.368395e-08	-2.879311e+01	-1.556052e+03
5.300000e-07	-3.866169e-06	-2.342028e-08	-2.793329e+01	-1.539652e+03
5.400000e-07	-3.745763e-06	-2.314685e-08	-2.706335e+01	-1.522354e+03
5.500000e-07	-3.623908e-06	-2.286082e-08	-2.618294e+01	-1.504020e+03
5.600000e-07	-3.500622e-06	-2.256071e-08	-2.529219e+01	-1.484543e+03
5.700000e-07	-3.376036e-06	-2.224885e-08	-2.439205e+01	-1.463864e+03
5.800000e-07	-3.250291e-06	-2.192465e-08	-2.348354e+01	-1.441975e+03
5.900000e-07	-3.123410e-06	-2.158874e-08	-2.256681e+01	-1.418910e+03
6.000000e-07	-2.995253e-06	-2.123854e-08	-2.164087e+01	-1.394731e+03
6.100000e-07	-2.865926e-06	-2.086774e-08	-2.070647e+01	-1.369507e+03
6.200000e-07	-2.735575e-06	-2.047202e-08	-1.976469e+01	-1.343285e+03
6.300000e-07	-2.604173e-06	-2.005247e-08	-1.881530e+01	-1.316064e+03
6.400000e-07	-2.471777e-06	-1.961244e-08	-1.785873e+01	-1.287769e+03
6.500000e-07	-2.338538e-06	-1.914941e-08	-1.689607e+01	-1.258245e+03
6.600000e-07	-2.204566e-06	-1.866188e-08	-1.592812e+01	-1.227243e+03
6.700000e-07	-2.069866e-06	-1.814504e-08	-1.495490e+01	-1.194438e+03
6.800000e-07	-1.934361e-06	-1.759448e-08	-1.397587e+01	-1.159448e+03
6.900000e-07	-1.798049e-06	-1.700887e-08	-1.299100e+01	-1.121866e+03
7.000000e-07	-1.661118e-06	-1.638430e-08	-1.200167e+01	-1.081300e+03
7.100000e-07	-1.523636e-06	-1.571920e-08	-1.100836e+01	-1.037412e+03
7.200000e-07	-1.385633e-06	-1.501191e-08	-1.001128e+01	-9.899538e+02
7.300000e-07	-1.247125e-06	-1.425418e-08	-9.010548e+00	-9.387953e+02
7.400000e-07	-1.108145e-06	-1.343887e-08	-8.006408e+00	-8.839359e+02
7.500000e-07	-9.687296e-07	-1.256654e-08	-6.999125e+00	-8.255041e+02
7.600000e-07	-8.288966e-07	-1.163844e-08	-5.988824e+00	-7.637401e+02
7.700000e-07	-6.887326e-07	-1.065482e-08	-4.976131e+00	-6.989652e+02
7.800000e-07	-5.482545e-07	-9.618318e-09	-3.961169e+00	-6.315423e+02
7.900000e-07	-4.075624e-07	-8.534604e-09	-2.944661e+00	-5.618325e+02
8.000000e-07	-2.666906e-07	-7.412124e-09	-1.926855e+00	-4.901548e+02
8.100000e-07	-1.256547e-07	-6.260370e-09	-9.078626e-01	-4.167536e+02
8.200000e-07	1.546648e-08	-5.090738e-09	1.117462e-01	-3.417812e+02
8.300000e-07	1.565627e-07	-3.911353e-09	1.131174e+00	-2.652958e+02
8.400000e-07	2.975812e-07	-2.725997e-09	2.150041e+00	-1.872778e+02
8.500000e-07	4.385229e-07	-1.535894e-09	3.168352e+00	-1.076623e+02
8.600000e-07	5.793164e-07	-3.368001e-10	4.185593e+00	-2.638232e+01
8.700000e-07	7.198897e-07	8.815611e-10	5.201244e+00	5.658073e+01
8.800000e-07	8.602049e-07	2.132275e-09	6.215029e+00	1.411489e+02
8.900000e-07	1.000199e-06	3.422009e-09	7.226492e+00	2.271072e+02
9.000000e-07	1.139790e-06	4.747672e-09	8.235048e+00	3.140775e+02
9.100000e-07	1.278921e-06	6.100068e-09	9.240279e+00	4.015118e+02
9.200000e-07	1.417527e-06	7.463479e-09	1.024171e+01	4.887066e+02
9.300000e-07	1.555551e-06	8.815836e-09	1.123895e+01	5.748373e+02
9.400000e-07	1.693034e-06	1.013160e-08	1.223226e+01	6.590102e+02
9.500000e-07	1.829958e-06	1.138738e-08	1.322155e+01	7.403259e+02
9.600000e-07	1.966088e-06	1.256576e-08	1.420509e+01	8.179470e+02
9.700000e-07	2.101301e-06	1.365550e-08	1.518202e+01	8.911620e+02
9.800000e-07	2.235669e-06	1.465749e-08	1.615284e+01	9.594391e+02
9.900000e-07	2.369278e-06	1.557801e-08	1.711817e+01	1.022462e+03
1.000000e-06	2.502124e-06	1.642328e-08	1.807798e+01	1.080144e+03
1.010000e-06	2.634092e-06	1.720010e-08	1.903146e+01	1.132625e+03
1.020000e-06	2.765015e-06	1.791517e-08	1.997739e+01	1.180237e+03
1.030000e-06	2.894880e-06	1.857692e-08	2.091567e+01	1.223464e+03
1.040000e-06	3.023665e-06	1.919131e-08	2.184615e+01	1.262884e+03
1.050000e-06	3.151236e-06	1.976379e-08	2.276785e+01	1.299108e+03
1.060000e-06	3.277628e-06	2.029746e-08	2.368104e+01	1.332723e+03
1.070000e-06	3.402949e-06	2.079515e-08	2.458650e+01	1.364243e+03
1.080000e-06	3.527161e-06	2.125792e-08	2.548394e+01	1.394076e+03
1.090000e-06	3.650099e-06	2.169054e-08	2.637217e+01	1.422506e+03
1.100000e-06	3.771649e-06	2.209749e-08	2.725037e+01	1.449696e+03
1.110000e-06	3.891779e-06	2.248238e-08	2.811832e+01	1.475700e+03
1.120000e-06	4.010523e-06	2.284729e-08	2.897626e+01	1.500496e+03
1.130000e-06	4.127919e-06	2.319165e-08	2.982444e+01	1.524015e+03
1.140000e-06	4.243807e-06	2.351577e-08	3.066174e+01	1.546182e+03
1.150000e-06	4.358053e-06	2.382099e-08	3.148718e+01	1.566941e+03
1.160000e-06	4.470591e-06	2.411023e-08	3.230027e+01	1.586287e+03
1.170000e-06	4.581423e-06	2.438196e-08	3.310104e+01	1.604268e+03
1.180000e-06	4.690757e-06	2.463963e-08	3.389098e+01	1.620993e+03
1.190000e-06	4.798552e-06	2.488638e-08	3.466981e+01	1.636616e+03
1.200000e-06	4.904603e-06	2.512335e-08	3.543603e+01	1.651322e+03
1.210000e-06	5.008772e-06	2.534968e-08	3.618866e+01	1.665299e+03
1.220000e-06	5.111084e-06	2.556223e-08	3.692787e+01	1.678718e+03
1.230000e-06	5.211668e-06	2.576272e-08	3.765460e+01	1.691714e+03
1.240000e-06	5.310379e-06	2.595215e-08	3.836779e+01	1.704366e+03
1.250000e-06	5.407022e-06	2.613193e-08	3.906604e+01	1.716702e+03
1.260000e-06	5.501599e-06	2.630522e-08	3.974936e+01	1.728693e+03
1.270000e-06	5.594275e-06	2.647078e-08	4.041895e+01	1.740274e+03
1.280000e-06	5.685059e-06	2.662924e-08	4.107487e+01	1.751356e+03
1.290000e-06	5.773671e-06	2.678271e-08	4.171509e+01	1.761847e+03
1.300000e-06	5.860092e-06	2.693022e-08	4.233949e+01	1.771673e+03
1.310000e-06	5.944491e-06	2.707020e-08	4.294928e+01	1.780790e+03
1.320000e-06	6.026819e-06	2.720358e-08	4.354411e+01	1.789198e+03
1.330000e-06	6.106953e-06	2.732981e-08	4.412308e+01	1.796939e+03
1.340000e-06	6.184827e-06	2.744857e-08	4.468572e+01	1.804093e+03
1.350000e-06	6.260350e-06	2.755785e-08	4.523138e+01	1.810765e+03
1.360000e-06	6.333432e-06	2.765950e-08	4.575940e+01	1.817073e+03
1.370000e-06	6.404168e-06	2.775705e-08	4.627048e+01	1.823126e+03
1.380000e-06	6.472722e-06	2.784959e-08	4.676578e+01	1.829013e+03
1.390000e-06	6.539046e-06	2.793737e-08	4.724497e+01	1.834790e+03
1.400000e-06	6.602987e-06	2.802196e-08	4.770695e+01	1.840473e+03
1.410000e-06	6.664615e-06	2.810274e-08	4.815222e+01	1.846043e+03
1.420000e-06	6.723964e-06	2.817605e-08	4.858102e+01	1.851446e+03
1.430000e-06	6.780918e-06	2.824544e-08	4.899252e+01	1.856613e+03
1.440000e-06	6.835460e-06	2.831449e-08	4.938658e+01	1.861467e+03
1.450000e-06	6.887404e-06	2.838069e-08	4.976188e+01	1.865941e+03
1.460000e-06	6.936478e-06	2.844114e-08	5.011645e+01	1.869989e+03
1.470000e-06	6.982850e-06	2.849836e-08	5.045148e+01	1.873594e+03
1.480000e-06	7.026878e-06	2.855473e-08	5.076959e+01	1.876770e+03
1.490000e-06	7.068439e-06	2.860584e-08	5.106987e+01	1.879562e+03
1.500000e-06	7.107352e-06	2.865030e-08	5.135102e+01	1.882036e+03
1.510000e-06	7.143858e-06	2.868979e-08	5.161477e+01	1.884266e+03
1.520000e-06	7.177883e-06	2.872539e-08	5.186061e+01	1.886325e+03
1.530000e-06	7.209241e-06	2.875787e-08	5.208717e+01	1.888272e+03
1.540000e-06	7.238138e-06	2.878689e-08	5.229595e+01	1.890143e+03
1.550000e-06	7.264514e-06	2.881275e-08	5.248652e+01	1.891944e+03
1.560000e-06	7.288117e-06	2.883565e-08	5.265705e+01	1.893654e+03
1.570000e-06	7.309118e-06	2.885512e-08	5.280879e+01	1.895231e+03
1.580000e-06	7.327614e-06	2.887137e-08	5.294242e+01	1.896617e+03
1.590000e-06	7.343401e-06	2.888434e-08	5.305648e+01	1.897750e+03
1.600000e-06	7.356422e-06	2.889320e-08	5.315056e+01	1.898580e+03
1.610000e-06	7.366547e-06	2.889956e-08	5.322372e+01	1.899073e+03
1.620000e-06	7.373782e-06	2.890409e-08	5.327598e+01	1.899219e+03
1.630000e-06	7.378455e-06	2.890601e-08	5.330975e+01	1.899036e+03
1.640000e-06	7.380593e-06	2.890589e-08	5.332520e+01	1.898565e+03
1.650000e-06	7.380062e-06	2.890385e-08	5.332136e+01	1.897865e+03
1.660000e-06	7.377054e-06	2.889560e-08	5.329963e+01	1.897000e+03
1.670000e-06	7.371604e-06	2.888529e-08	5.326025e+01	1.896034e+03
1.680000e-06	7.363628e-06	2.887319e-08	5.320263e+01	1.895014e+03
1.690000e-06	7.353260e-06	2.885691e-08	5.312772e+01	1.893967e+03
1.700000e-06	7.340344e-06	2.883883e-08	5.303440e+01	1.892893e+03
1.710000e-06	7.324828e-06	2.881928e-08	5.292230e+01	1.891770e+03
1.720000e-06	7.307082e-06	2.879485e-08	5.279408e+01	1.890554e+03
1.730000e-06	7.287219e-06	2.874315e-08	5.265056e+01	1.889189e+03
1.740000e-06	7.264643e-06	2.867553e-08	5.248745e+01	1.887620e+03
1.750000e-06	7.238722e-06	2.867035e-08	5.230017e+01	1.885800e+03
1.760000e-06	7.209465e-06	2.866943e-08	5.208879e+01	1.883698e+03
1.770000e-06	7.177465e-06	2.862571e-08	5.185759e+01	1.881309e+03
1.780000e-06	7.143397e-06	2.859447e-08	5.161145e+01	1.878649e+03
1.790000e-06	7.107650e-06	2.860295e-08	5.135317e+01	1.875758e+03
1.800000e-06	7.070255e-06	2.854204e-08	5.108299e+01	1.872684e+03
1.810000e-06	7.030469e-06	2.849648e-08	5.079553e+01	1.869482e+03
1.820000e-06	6.988009e-06	2.853769e-08	5.048876e+01	1.866196e+03
1.830000e-06	6.943345e-06	2.845226e-08	5.016606e+01	1.862853e+03
1.840000e-06	6.896196e-06	2.841422e-08	4.982540e+01	1.859453e+03
1.850000e-06	6.846351e-06	2.834960e-08	4.946527e+01	1.855969e+03
1.860000e-06	6.793821e-06	2.823920e-08	4.908574e+01	1.852347e+03
1.870000e-06	6.738500e-06	2.820629e-08	4.868604e+01	1.848513e+03
1.880000e-06	6.680768e-06	2.812379e-08	4.826892e+01	1.844384e+03
1.890000e-06	6.620532e-06	2.809408e-08	4.783372e+01	1.839882e+03
1.900000e-06	6.557634e-06	2.802167e-08	4.737927e+01	1.834943e+03
1.910000e-06	6.492286e-06	2.792769e-08	4.690713e+01	1.829530e+03
1.920000e-06	6.424602e-06	2.783975e-08	4.641811e+01	1.823636e+03
1.930000e-06	6.354544e-06	2.771608e-08	4.591194e+01	1.817289e+03
1.940000e-06	6.281949e-06	2.765653e-08	4.538743e+01	1.810546e+03
1.950000e-06	6.206882e-06	2.755583e-08	4.484507e+01	1.803482e+03
1.960000e-06	6.129243e-06	2.745327e-08	4.428413e+01	1.796177e+03
1.970000e-06	6.049135e-06	2.734228e-08	4.370534e+01	1.788705e+03
1.980000e-06	5.966930e-06	2.721324e-08	4.311140e+01	1.781116e+03
1.990000e-06	5.882656e-06	2.710355e-08	4.250252e+01	1.773429e+03
2.000000e-06	5.796212e-06	2.697103e-08	4.187795e+01	1.765627e+03
2.010000e-06	5.707608e-06	2.685601e-08	4.123779e+01	1.757652e+03
2.020000e-06	5.617060e-06	2.672099e-08	4.058357e+01	1.749420e+03
2.030000e-06	5.524569e-06	2.658043e-08	3.991532e+01	1.740828e+03
2.040000e-06	5.430068e-06	2.642982e-08	3.923255e+01	1.731768e+03
2.050000e-06	5.333647e-06	2.627922e-08	3.853590e+01	1.722147e+03
2.060000e-06	5.235401e-06	2.612744e-08	3.782607e+01	1.711898e+03
2.070000e-06	5.135407e-06	2.596327e-08	3.710361e+01	1.700989e+03
2.080000e-06	5.033560e-06	2.580110e-08	3.636776e+01	1.689428e+03
2.090000e-06	4.929770e-06	2.562721e-08	3.561786e+01	1.677261e+03
2.100000e-06	4.824206e-06	2.544706e-08	3.485516e+01	1.664558e+03
2.110000e-06	4.717154e-06	2.525495e-08	3.408170e+01	1.651404e+03
2.120000e-06	4.608522e-06	2.505539e-08	3.329683e+01	1.637874e+03
2.130000e-06	4.498171e-06	2.483787e-08	3.249954e+01	1.624024e+03
2.140000e-06	4.386107e-06	2.461468e-08	3.168987e+01	1.609869e+03
2.150000e-06	4.272360e-06	2.438923e-08	3.086804e+01	1.595379e+03
2.160000e-06	4.156981e-06	2.416178e-08	3.003442e+01	1.580476e+03
2.170000e-06	4.039865e-06	2.392465e-08	2.918825e+01	1.565038e+03
2.180000e-06	3.921006e-06	2.367201e-08	2.832949e+01	1.548919e+03
2.190000e-06	3.800578e-06	2.340624e-08	2.745939e+01	1.531957e+03
2.200000e-06	3.678815e-06	2.312864e-08	2.657965e+01	1.514006e+03
2.210000e-06	3.555733e-06	2.284018e-08	2.569037e+01	1.494945e+03
2.220000e-06	3.431324e-06	2.253719e-08	2.479151e+01	1.474698e+03
2.230000e-06	3.305668e-06	2.221877e-08	2.388364e+01	1.453238e+03
2.240000e-06	3.178752e-06	2.187760e-08	2.296666e+01	1.430585e+03
2.250000e-06	3.050618e-06	2.152065e-08	2.204089e+01	1.406794e+03
2.260000e-06	2.921363e-06	2.115156e-08	2.110701e+01	1.381935e+03
2.270000e-06	2.791107e-06	2.077181e-08	2.016591e+01	1.356066e+03
2.280000e-06	2.659921e-06	2.037541e-08	1.921808e+01	1.329204e+03
2.290000e-06	2.527723e-06	1.995416e-08	1.826294e+01	1.301305e+03
2.300000e-06	2.394576e-06	1.950260e-08	1.730094e+01	1.272242e+03
2.310000e-06	2.260627e-06	1.902107e-08	1.633316e+01	1.241800e+03
2.320000e-06	2.125936e-06	1.851365e-08	1.536001e+01	1.209679e+03
2.330000e-06	1.990467e-06	1.797758e-08	1.438123e+01	1.175514e+03
2.340000e-06	1.854287e-06	1.740845e-08	1.339733e+01	1.138903e+03
2.350000e-06	1.717490e-06	1.680139e-08	1.240896e+01	1.099444e+03
2.360000e-06	1.580110e-06	1.615043e-08	1.141638e+01	1.056775e+03
2.370000e-06	1.442287e-06	1.545344e-08	1.042060e+01	1.010612e+03
2.380000e-06	1.304047e-06	1.471053e-08	9.421810e+00	9.607808e+02
2.390000e-06	1.165355e-06	1.391941e-08	8.419756e+00	9.072335e+02
2.400000e-06	1.026207e-06	1.307417e-08	7.414406e+00	8.500539e+02
2.410000e-06	8.866544e-07	1.217130e-08	6.406127e+00	7.894451e+02
2.420000e-06	7.467840e-07	1.120801e-08	5.395556e+00	7.257037e+02
2.430000e-06	6.066320e-07	1.018817e-08	4.382950e+00	6.591827e+02
2.440000e-06	4.662076e-07	9.119156e-09	3.368376e+00	5.902487e+02
2.450000e-06	3.255671e-07	8.005752e-09	2.352241e+00	5.192400e+02
2.460000e-06	1.847493e-07	6.858675e-09	1.334824e+00	4.464304e+02
2.470000e-06	4.380057e-08	5.689217e-09	3.164616e-01	3.720064e+02
2.480000e-06	-9.715846e-08	4.509362e-09	-7.019753e-01	2.960587e+02
2.490000e-06	-2.380580e-07	3.324036e-09	-1.719982e+00	2.185926e+02
2.500000e-06	-3.789232e-07	2.132472e-09	-2.737741e+00	1.395549e+02
2.510000e-06	-5.196980e-07	9.302781e-10	-3.754847e+00	5.887372e+01
2.520000e-06	-6.602463e-07	-2.904705e-10	-4.770316e+00	-2.349255e+01
2.530000e-06	-8.005515e-07	-1.536086e-09	-5.784030e+00	-1.075057e+02
2.540000e-06	-9.405169e-07	-2.813027e-09	-6.795287e+00	-1.930035e+02
2.550000e-06	-1.080072e-06	-4.125614e-09	-7.803583e+00	-2.796679e+02
2.560000e-06	-1.219197e-06	-5.472040e-09	-8.808768e+00	-3.670111e+02
2.570000e-06	-1.357853e-06	-6.841646e-09	-9.810561e+00	-4.543822e+02
2.580000e-06	-1.496002e-06	-8.213093e-09	-1.080870e+01	-5.409945e+02
2.590000e-06	-1.633630e-06	-9.557586e-09	-1.180307e+01	-6.259724e+02
2.600000e-06	-1.770714e-06	-1.084825e-08	-1.279351e+01	-7.084108e+02
2.610000e-06	-1.907125e-06	-1.206663e-08	-1.377908e+01	-7.874422e+02
2.620000e-06	-2.042727e-06	-1.320137e-08	-1.475882e+01	-8.623036e+02
2.630000e-06	-2.177504e-06	-1.425092e-08	-1.573259e+01	-9.323936e+02
2.640000e-06	-2.311569e-06	-1.521553e-08	-1.670122e+01	-9.973161e+02
2.650000e-06	-2.444780e-06	-1.609913e-08	-1.766367e+01	-1.056903e+03
2.660000e-06	-2.576946e-06	-1.690972e-08	-1.861858e+01	-1.111214e+03
2.670000e-06	-2.708063e-06	-1.765610e-08	-1.956591e+01	-1.160517e+03
2.680000e-06	-2.838255e-06	-1.834660e-08	-2.050655e+01	-1.205249e+03
2.690000e-06	-2.967532e-06	-1.898450e-08	-2.144059e+01	-1.245960e+03
2.700000e-06	-3.095738e-06	-1.957571e-08	-2.236688e+01	-1.283257e+03
2.710000e-06	-3.222817e-06	-2.012586e-08	-2.328503e+01	-1.317742e+03
2.720000e-06	-3.348743e-06	-2.063865e-08	-2.419485e+01	-1.349958e+03
2.730000e-06	-3.473396e-06	-2.111724e-08	-2.509548e+01	-1.380356e+03
2.740000e-06	-3.596732e-06	-2.156496e-08	-2.598659e+01	-1.409264e+03
2.750000e-06	-3.718853e-06	-2.198690e-08	-2.686892e+01	-1.436886e+03
2.760000e-06	-3.839623e-06	-2.238463e-08	-2.774149e+01	-1.463315e+03
2.770000e-06	-3.958940e-06	-2.275891e-08	-2.860356e+01	-1.488550e+03
2.780000e-06	-4.076845e-06	-2.310979e-08	-2.945544e+01	-1.512535e+03
2.790000e-06	-4.193153e-06	-2.343934e-08	-3.029577e+01	-1.535194e+03
2.800000e-06	-4.307707e-06	-2.375172e-08	-3.112342e+01	-1.556461e+03
2.810000e-06	-4.420547e-06	-2.404844e-08	-3.193870e+01	-1.576311e+03
2.820000e-06	-4.531635e-06	-2.433079e-08	-3.274131e+01	-1.594771e+03
2.830000e-06	-4.641032e-06	-2.459914e-08	-3.353171e+01	-1.611930e+03
2.840000e-06	-4.748965e-06	-2.485494e-08	-3.431154e+01	-1.627928e+03
2.850000e-06	-4.855416e-06	-2.509736e-08	-3.508066e+01	-1.642941e+03
2.860000e-06	-4.960148e-06	-2.532601e-08	-3.583735e+01	-1.657159e+03
2.870000e-06	-5.062969e-06	-2.554410e-08	-3.658023e+01	-1.670761e+03
2.880000e-06	-5.163810e-06	-2.575500e-08	-3.730881e+01	-1.683897e+03
2.890000e-06	-5.262764e-06	-2.595716e-08	-3.802376e+01	-1.696668e+03
2.900000e-06	-5.359982e-06	-2.614656e-08	-3.872617e+01	-1.709118e+03
2.910000e-06	-5.455327e-06	-2.632355e-08	-3.941505e+01	-1.721240e+03
2.920000e-06	-5.548636e-06	-2.649134e-08	-4.008921e+01	-1.732978e+03
2.930000e-06	-5.639974e-06	-2.665125e-08	-4.074913e+01	-1.744251e+03
2.940000e-06	-5.729344e-06	-2.680457e-08	-4.139483e+01	-1.754964e+03
