# Temperatura_=_66.56
# Concentracion g/m^3_=_28370.0
# C_Vs_to_Am_M_A/Vsm_=_65563218390.804596
# pendiente_HvsI_1/m_=_3716.3
# ordenada_HvsI_A/m_=_1297.0
# frecuencia_Hz_=_302374.6379482852

Tiempo_(s)	Campo_(V.s)	Magnetizacion_(V.s)	Campo_(kA/m)	Magnetizacion_(A/m)
0.000000e+00	-7.308799e-06	-2.502867e-08	-5.319322e+01	-1.638874e+03
1.000000e-08	-7.305212e-06	-2.502504e-08	-5.316712e+01	-1.638075e+03
2.000000e-08	-7.299211e-06	-2.501313e-08	-5.312344e+01	-1.637178e+03
3.000000e-08	-7.290881e-06	-2.500032e-08	-5.306281e+01	-1.636231e+03
4.000000e-08	-7.280015e-06	-2.498778e-08	-5.298374e+01	-1.635264e+03
5.000000e-08	-7.266413e-06	-2.497084e-08	-5.288474e+01	-1.634288e+03
6.000000e-08	-7.250147e-06	-2.494899e-08	-5.276636e+01	-1.633290e+03
7.000000e-08	-7.231659e-06	-2.492648e-08	-5.263180e+01	-1.632238e+03
8.000000e-08	-7.211111e-06	-2.490847e-08	-5.248225e+01	-1.631088e+03
9.000000e-08	-7.187981e-06	-2.493668e-08	-5.231391e+01	-1.629791e+03
1.000000e-07	-7.161854e-06	-2.492083e-08	-5.212376e+01	-1.628301e+03
1.100000e-07	-7.132885e-06	-2.483409e-08	-5.191292e+01	-1.626587e+03
1.200000e-07	-7.101394e-06	-2.478516e-08	-5.168374e+01	-1.624634e+03
1.300000e-07	-7.067435e-06	-2.476168e-08	-5.143658e+01	-1.622449e+03
1.400000e-07	-7.031239e-06	-2.470368e-08	-5.117315e+01	-1.620054e+03
1.500000e-07	-6.993231e-06	-2.462503e-08	-5.089653e+01	-1.617486e+03
1.600000e-07	-6.953231e-06	-2.467199e-08	-5.060540e+01	-1.614786e+03
1.700000e-07	-6.910775e-06	-2.463612e-08	-5.029641e+01	-1.611991e+03
1.800000e-07	-6.865894e-06	-2.449417e-08	-4.996977e+01	-1.609124e+03
1.900000e-07	-6.818469e-06	-2.452851e-08	-4.962462e+01	-1.606189e+03
2.000000e-07	-6.768141e-06	-2.445737e-08	-4.925833e+01	-1.603168e+03
2.100000e-07	-6.715104e-06	-2.437229e-08	-4.887233e+01	-1.600023e+03
2.200000e-07	-6.659614e-06	-2.436374e-08	-4.846847e+01	-1.596696e+03
2.300000e-07	-6.601615e-06	-2.427831e-08	-4.804636e+01	-1.593122e+03
2.400000e-07	-6.541155e-06	-2.422346e-08	-4.760633e+01	-1.589238e+03
2.500000e-07	-6.478332e-06	-2.413633e-08	-4.714911e+01	-1.584991e+03
2.600000e-07	-6.413083e-06	-2.406984e-08	-4.667423e+01	-1.580349e+03
2.700000e-07	-6.345371e-06	-2.398657e-08	-4.618142e+01	-1.575306e+03
2.800000e-07	-6.275296e-06	-2.391083e-08	-4.567141e+01	-1.569883e+03
2.900000e-07	-6.202847e-06	-2.384225e-08	-4.514414e+01	-1.564123e+03
3.000000e-07	-6.127894e-06	-2.373489e-08	-4.459863e+01	-1.558087e+03
3.100000e-07	-6.050415e-06	-2.366441e-08	-4.403474e+01	-1.551842e+03
3.200000e-07	-5.970468e-06	-2.356943e-08	-4.345289e+01	-1.545448e+03
3.300000e-07	-5.888282e-06	-2.346622e-08	-4.285474e+01	-1.538946e+03
3.400000e-07	-5.804142e-06	-2.336236e-08	-4.224237e+01	-1.532354e+03
3.500000e-07	-5.718143e-06	-2.325762e-08	-4.161648e+01	-1.525657e+03
3.600000e-07	-5.630124e-06	-2.315659e-08	-4.097587e+01	-1.518807e+03
3.700000e-07	-5.539971e-06	-2.303505e-08	-4.031975e+01	-1.511735e+03
3.800000e-07	-5.447834e-06	-2.291725e-08	-3.964917e+01	-1.504353e+03
3.900000e-07	-5.353814e-06	-2.279230e-08	-3.896490e+01	-1.496570e+03
4.000000e-07	-5.257896e-06	-2.265929e-08	-3.826681e+01	-1.488305e+03
4.100000e-07	-5.160063e-06	-2.251881e-08	-3.755479e+01	-1.479499e+03
4.200000e-07	-5.060346e-06	-2.237929e-08	-3.682904e+01	-1.470123e+03
4.300000e-07	-4.958886e-06	-2.223607e-08	-3.609062e+01	-1.460182e+03
4.400000e-07	-4.855729e-06	-2.207765e-08	-3.533985e+01	-1.449710e+03
4.500000e-07	-4.750855e-06	-2.191610e-08	-3.457658e+01	-1.438765e+03
4.600000e-07	-4.644230e-06	-2.175501e-08	-3.380056e+01	-1.427417e+03
4.700000e-07	-4.535876e-06	-2.158352e-08	-3.301197e+01	-1.415729e+03
4.800000e-07	-4.425991e-06	-2.140127e-08	-3.221223e+01	-1.403747e+03
4.900000e-07	-4.314494e-06	-2.121378e-08	-3.140076e+01	-1.391483e+03
5.000000e-07	-4.201320e-06	-2.101534e-08	-3.057708e+01	-1.378913e+03
5.100000e-07	-4.086410e-06	-2.080588e-08	-2.974077e+01	-1.365968e+03
5.200000e-07	-3.969793e-06	-2.058936e-08	-2.889204e+01	-1.352545e+03
5.300000e-07	-3.851704e-06	-2.036588e-08	-2.803259e+01	-1.338518e+03
5.400000e-07	-3.732246e-06	-2.013176e-08	-2.716318e+01	-1.323747e+03
5.500000e-07	-3.611463e-06	-1.988616e-08	-2.628412e+01	-1.308106e+03
5.600000e-07	-3.489312e-06	-1.962747e-08	-2.539511e+01	-1.291488e+03
5.700000e-07	-3.365726e-06	-1.935886e-08	-2.449565e+01	-1.273826e+03
5.800000e-07	-3.240879e-06	-1.907902e-08	-2.358702e+01	-1.255094e+03
5.900000e-07	-3.114890e-06	-1.878691e-08	-2.267008e+01	-1.235307e+03
6.000000e-07	-2.987744e-06	-1.848039e-08	-2.174471e+01	-1.214508e+03
6.100000e-07	-2.859485e-06	-1.815797e-08	-2.081125e+01	-1.192753e+03
6.200000e-07	-2.730195e-06	-1.781836e-08	-1.987028e+01	-1.170087e+03
6.300000e-07	-2.599891e-06	-1.745910e-08	-1.892193e+01	-1.146521e+03
6.400000e-07	-2.468527e-06	-1.707975e-08	-1.796586e+01	-1.122013e+03
6.500000e-07	-2.336250e-06	-1.667849e-08	-1.700316e+01	-1.096445e+03
6.600000e-07	-2.203194e-06	-1.625534e-08	-1.603478e+01	-1.069626e+03
6.700000e-07	-2.069453e-06	-1.580602e-08	-1.506142e+01	-1.041292e+03
6.800000e-07	-1.935078e-06	-1.533202e-08	-1.408344e+01	-1.011122e+03
6.900000e-07	-1.800056e-06	-1.483028e-08	-1.310075e+01	-9.787662e+02
7.000000e-07	-1.664349e-06	-1.429340e-08	-1.211309e+01	-9.438778e+02
7.100000e-07	-1.527910e-06	-1.371732e-08	-1.112008e+01	-9.061489e+02
7.200000e-07	-1.390885e-06	-1.310209e-08	-1.012282e+01	-8.653453e+02
7.300000e-07	-1.253487e-06	-1.244718e-08	-9.122838e+00	-8.213338e+02
7.400000e-07	-1.115781e-06	-1.174680e-08	-8.120623e+00	-7.740989e+02
7.500000e-07	-9.776935e-07	-1.099981e-08	-7.115624e+00	-7.237459e+02
7.600000e-07	-8.391585e-07	-1.020268e-08	-6.107370e+00	-6.704903e+02
7.700000e-07	-7.002685e-07	-9.356981e-09	-5.096533e+00	-6.146337e+02
7.800000e-07	-5.610768e-07	-8.465150e-09	-4.083500e+00	-5.565286e+02
7.900000e-07	-4.216290e-07	-7.534127e-09	-3.068604e+00	-4.965392e+02
8.000000e-07	-2.819501e-07	-6.574303e-09	-2.052024e+00	-4.350002e+02
8.100000e-07	-1.421081e-07	-5.592619e-09	-1.034259e+00	-3.721829e+02
8.200000e-07	-2.193883e-09	-4.597907e-09	-1.596702e-02	-3.082705e+02
8.300000e-07	1.377788e-07	-3.595599e-09	1.002750e+00	-2.433486e+02
8.400000e-07	2.777649e-07	-2.591216e-09	2.021565e+00	-1.774121e+02
8.500000e-07	4.176992e-07	-1.585280e-09	3.040002e+00	-1.103872e+02
8.600000e-07	5.574731e-07	-5.749213e-10	4.057272e+00	-4.216721e+01
8.700000e-07	6.969968e-07	4.484016e-10	5.072722e+00	2.734352e+01
8.800000e-07	8.362137e-07	1.495915e-09	6.085938e+00	9.818262e+01
8.900000e-07	9.751157e-07	2.573271e-09	7.096863e+00	1.702870e+02
9.000000e-07	1.113620e-06	3.681112e-09	8.104894e+00	2.434600e+02
9.100000e-07	1.251671e-06	4.816564e-09	9.109624e+00	3.173539e+02
9.200000e-07	1.389321e-06	5.970749e-09	1.011144e+01	3.914701e+02
9.300000e-07	1.526482e-06	7.125628e-09	1.110969e+01	4.651791e+02
9.400000e-07	1.663016e-06	8.262093e-09	1.210338e+01	5.377571e+02
9.500000e-07	1.798809e-06	9.357810e-09	1.309168e+01	6.084364e+02
9.600000e-07	1.933870e-06	1.039677e-08	1.407465e+01	6.764635e+02
9.700000e-07	2.068284e-06	1.136803e-08	1.505291e+01	7.411579e+02
9.800000e-07	2.201960e-06	1.226793e-08	1.602580e+01	8.019657e+02
9.900000e-07	2.334874e-06	1.309872e-08	1.699315e+01	8.584998e+02
1.000000e-06	2.466953e-06	1.386178e-08	1.795441e+01	9.105653e+02
1.010000e-06	2.598023e-06	1.456287e-08	1.890834e+01	9.581638e+02
1.020000e-06	2.728103e-06	1.520967e-08	1.985505e+01	1.001480e+03
1.030000e-06	2.857193e-06	1.580825e-08	2.079456e+01	1.040851e+03
1.040000e-06	2.985134e-06	1.636337e-08	2.172571e+01	1.076722e+03
1.050000e-06	3.111930e-06	1.687852e-08	2.264853e+01	1.109595e+03
1.060000e-06	3.237660e-06	1.735627e-08	2.356359e+01	1.139980e+03
1.070000e-06	3.362372e-06	1.780209e-08	2.447124e+01	1.168345e+03
1.080000e-06	3.485932e-06	1.822025e-08	2.537051e+01	1.195083e+03
1.090000e-06	3.608146e-06	1.861321e-08	2.625998e+01	1.220487e+03
1.100000e-06	3.729022e-06	1.898243e-08	2.713971e+01	1.244745e+03
1.110000e-06	3.848530e-06	1.933005e-08	2.800949e+01	1.267948e+03
1.120000e-06	3.966665e-06	1.965757e-08	2.886927e+01	1.290104e+03
1.130000e-06	4.083409e-06	1.996675e-08	2.971893e+01	1.311172e+03
1.140000e-06	4.198602e-06	2.025719e-08	3.055730e+01	1.331088e+03
1.150000e-06	4.312089e-06	2.052956e-08	3.138326e+01	1.349795e+03
1.160000e-06	4.423879e-06	2.078840e-08	3.219686e+01	1.367266e+03
1.170000e-06	4.534112e-06	2.103441e-08	3.299913e+01	1.383522e+03
1.180000e-06	4.642920e-06	2.126752e-08	3.379104e+01	1.398632e+03
1.190000e-06	4.750207e-06	2.148903e-08	3.457186e+01	1.412712e+03
1.200000e-06	4.855769e-06	2.169774e-08	3.534014e+01	1.425911e+03
1.210000e-06	4.959463e-06	2.189514e-08	3.609483e+01	1.438390e+03
1.220000e-06	5.061310e-06	2.208230e-08	3.683607e+01	1.450303e+03
1.230000e-06	5.161372e-06	2.226006e-08	3.756431e+01	1.461780e+03
1.240000e-06	5.259533e-06	2.242906e-08	3.827872e+01	1.472909e+03
1.250000e-06	5.355738e-06	2.259102e-08	3.897890e+01	1.483731e+03
1.260000e-06	5.449981e-06	2.274782e-08	3.966480e+01	1.494242e+03
1.270000e-06	5.542297e-06	2.289810e-08	4.033667e+01	1.504396e+03
1.280000e-06	5.632611e-06	2.304012e-08	4.099398e+01	1.514121e+03
1.290000e-06	5.720793e-06	2.317384e-08	4.163576e+01	1.523339e+03
1.300000e-06	5.806908e-06	2.330092e-08	4.226250e+01	1.531980e+03
1.310000e-06	5.891047e-06	2.342063e-08	4.287486e+01	1.539996e+03
1.320000e-06	5.973094e-06	2.353310e-08	4.347200e+01	1.547376e+03
1.330000e-06	6.052912e-06	2.363874e-08	4.405292e+01	1.554146e+03
1.340000e-06	6.130554e-06	2.373957e-08	4.461799e+01	1.560371e+03
1.350000e-06	6.205863e-06	2.383448e-08	4.516609e+01	1.566140e+03
1.360000e-06	6.278703e-06	2.392199e-08	4.569621e+01	1.571560e+03
1.370000e-06	6.349248e-06	2.400546e-08	4.620963e+01	1.576738e+03
1.380000e-06	6.417654e-06	2.408551e-08	4.670750e+01	1.581765e+03
1.390000e-06	6.483733e-06	2.416251e-08	4.718842e+01	1.586703e+03
1.400000e-06	6.547409e-06	2.423604e-08	4.765184e+01	1.591585e+03
1.410000e-06	6.608879e-06	2.430484e-08	4.809922e+01	1.596401e+03
1.420000e-06	6.668106e-06	2.437014e-08	4.853028e+01	1.601115e+03
1.430000e-06	6.724898e-06	2.443265e-08	4.894361e+01	1.605663e+03
1.440000e-06	6.779286e-06	2.449238e-08	4.933944e+01	1.609972e+03
1.450000e-06	6.831065e-06	2.455045e-08	4.971629e+01	1.613971e+03
1.460000e-06	6.880009e-06	2.460667e-08	5.007250e+01	1.617603e+03
1.470000e-06	6.926376e-06	2.466003e-08	5.040996e+01	1.620837e+03
1.480000e-06	6.970423e-06	2.470766e-08	5.073053e+01	1.623671e+03
1.490000e-06	7.011974e-06	2.474796e-08	5.103294e+01	1.626131e+03
1.500000e-06	7.050901e-06	2.478355e-08	5.131625e+01	1.628269e+03
1.510000e-06	7.087472e-06	2.481519e-08	5.158241e+01	1.630153e+03
1.520000e-06	7.121597e-06	2.484350e-08	5.183077e+01	1.631855e+03
1.530000e-06	7.153093e-06	2.487200e-08	5.206000e+01	1.633439e+03
1.540000e-06	7.182128e-06	2.489969e-08	5.227131e+01	1.634954e+03
1.550000e-06	7.208663e-06	2.492340e-08	5.246444e+01	1.636422e+03
1.560000e-06	7.232445e-06	2.494413e-08	5.263752e+01	1.637841e+03
1.570000e-06	7.253610e-06	2.496213e-08	5.279156e+01	1.639183e+03
1.580000e-06	7.272340e-06	2.497529e-08	5.292787e+01	1.640403e+03
1.590000e-06	7.288439e-06	2.498437e-08	5.304504e+01	1.641445e+03
1.600000e-06	7.301744e-06	2.499167e-08	5.314188e+01	1.642255e+03
1.610000e-06	7.312103e-06	2.499767e-08	5.321727e+01	1.642790e+03
1.620000e-06	7.319575e-06	2.500148e-08	5.327165e+01	1.643027e+03
1.630000e-06	7.324531e-06	2.500311e-08	5.330772e+01	1.642964e+03
1.640000e-06	7.326933e-06	2.500416e-08	5.332520e+01	1.642625e+03
1.650000e-06	7.326682e-06	2.500608e-08	5.332337e+01	1.642053e+03
1.660000e-06	7.324018e-06	2.499911e-08	5.330398e+01	1.641303e+03
1.670000e-06	7.318934e-06	2.498948e-08	5.326698e+01	1.640433e+03
1.680000e-06	7.311336e-06	2.498060e-08	5.321168e+01	1.639498e+03
1.690000e-06	7.301341e-06	2.496731e-08	5.313894e+01	1.638535e+03
1.700000e-06	7.288800e-06	2.495258e-08	5.304767e+01	1.637561e+03
1.710000e-06	7.273637e-06	2.493845e-08	5.293732e+01	1.636573e+03
1.720000e-06	7.256209e-06	2.492578e-08	5.281047e+01	1.635544e+03
1.730000e-06	7.236772e-06	2.489393e-08	5.266901e+01	1.634433e+03
1.740000e-06	7.214814e-06	2.479775e-08	5.250920e+01	1.633193e+03
1.750000e-06	7.189571e-06	2.478609e-08	5.232548e+01	1.631775e+03
1.760000e-06	7.160924e-06	2.481371e-08	5.211699e+01	1.630142e+03
1.770000e-06	7.129450e-06	2.477461e-08	5.188793e+01	1.628274e+03
1.780000e-06	7.095828e-06	2.474319e-08	5.164322e+01	1.626169e+03
1.790000e-06	7.060513e-06	2.479768e-08	5.138620e+01	1.623844e+03
1.800000e-06	7.023657e-06	2.471264e-08	5.111796e+01	1.621332e+03
1.810000e-06	6.984512e-06	2.461137e-08	5.083307e+01	1.618674e+03
1.820000e-06	6.942647e-06	2.471824e-08	5.052838e+01	1.615908e+03
1.830000e-06	6.898522e-06	2.459511e-08	5.020724e+01	1.613063e+03
1.840000e-06	6.851949e-06	2.459052e-08	4.986828e+01	1.610152e+03
1.850000e-06	6.802762e-06	2.458312e-08	4.951030e+01	1.607165e+03
1.860000e-06	6.750955e-06	2.444281e-08	4.913325e+01	1.604069e+03
1.870000e-06	6.696289e-06	2.447048e-08	4.873539e+01	1.600812e+03
1.880000e-06	6.639161e-06	2.434309e-08	4.831961e+01	1.597333e+03
1.890000e-06	6.579659e-06	2.431388e-08	4.788656e+01	1.593565e+03
1.900000e-06	6.517595e-06	2.427022e-08	4.743487e+01	1.589451e+03
1.910000e-06	6.453036e-06	2.415979e-08	4.696501e+01	1.584952e+03
1.920000e-06	6.386034e-06	2.413714e-08	4.647737e+01	1.580050e+03
1.930000e-06	6.316720e-06	2.400036e-08	4.597290e+01	1.574757e+03
1.940000e-06	6.244991e-06	2.396684e-08	4.545086e+01	1.569110e+03
1.950000e-06	6.170818e-06	2.387053e-08	4.491103e+01	1.563164e+03
1.960000e-06	6.094100e-06	2.376309e-08	4.435268e+01	1.556986e+03
1.970000e-06	6.014816e-06	2.370429e-08	4.377565e+01	1.550637e+03
1.980000e-06	5.933379e-06	2.357909e-08	4.318296e+01	1.544169e+03
1.990000e-06	5.849935e-06	2.351457e-08	4.257565e+01	1.537609e+03
2.000000e-06	5.764412e-06	2.338233e-08	4.195322e+01	1.530951e+03
2.010000e-06	5.676721e-06	2.328661e-08	4.131501e+01	1.524162e+03
2.020000e-06	5.587004e-06	2.317039e-08	4.066205e+01	1.517178e+03
2.030000e-06	5.495359e-06	2.304068e-08	3.999506e+01	1.509916e+03
2.040000e-06	5.401724e-06	2.293255e-08	3.931359e+01	1.502285e+03
2.050000e-06	5.306104e-06	2.280459e-08	3.861767e+01	1.494199e+03
2.060000e-06	5.208685e-06	2.268956e-08	3.790865e+01	1.485590e+03
2.070000e-06	5.109669e-06	2.253395e-08	3.718802e+01	1.476418e+03
2.080000e-06	5.008840e-06	2.239743e-08	3.645419e+01	1.466675e+03
2.090000e-06	4.906062e-06	2.224427e-08	3.570617e+01	1.456385e+03
2.100000e-06	4.801461e-06	2.209023e-08	3.494489e+01	1.445600e+03
2.110000e-06	4.695307e-06	2.192700e-08	3.417231e+01	1.434387e+03
2.120000e-06	4.587615e-06	2.175608e-08	3.338853e+01	1.422813e+03
2.130000e-06	4.478349e-06	2.157476e-08	3.259329e+01	1.410931e+03
2.140000e-06	4.367448e-06	2.138340e-08	3.178616e+01	1.398768e+03
2.150000e-06	4.254774e-06	2.119828e-08	3.096612e+01	1.386312e+03
2.160000e-06	4.140409e-06	2.100133e-08	3.013378e+01	1.373509e+03
2.170000e-06	4.024375e-06	2.080094e-08	2.928928e+01	1.360270e+03
2.180000e-06	3.906712e-06	2.058246e-08	2.843293e+01	1.346473e+03
2.190000e-06	3.787406e-06	2.035454e-08	2.756463e+01	1.331982e+03
2.200000e-06	3.666636e-06	2.011362e-08	2.668567e+01	1.316664e+03
2.210000e-06	3.544583e-06	1.986675e-08	2.579737e+01	1.300404e+03
2.220000e-06	3.421229e-06	1.960609e-08	2.489960e+01	1.283119e+03
2.230000e-06	3.296631e-06	1.933444e-08	2.399278e+01	1.264768e+03
2.240000e-06	3.170868e-06	1.904537e-08	2.307749e+01	1.245353e+03
2.250000e-06	3.043891e-06	1.874158e-08	2.215335e+01	1.224908e+03
2.260000e-06	2.915668e-06	1.842629e-08	2.122015e+01	1.203486e+03
2.270000e-06	2.786443e-06	1.809636e-08	2.027965e+01	1.181141e+03
2.280000e-06	2.656275e-06	1.775297e-08	1.933229e+01	1.157898e+03
2.290000e-06	2.525137e-06	1.738881e-08	1.837787e+01	1.133734e+03
2.300000e-06	2.393079e-06	1.700520e-08	1.741676e+01	1.108561e+03
2.310000e-06	2.260136e-06	1.659487e-08	1.644920e+01	1.082215e+03
2.320000e-06	2.126436e-06	1.615861e-08	1.547614e+01	1.054455e+03
2.330000e-06	1.992082e-06	1.569369e-08	1.449831e+01	1.024979e+03
2.340000e-06	1.857058e-06	1.519907e-08	1.351561e+01	9.934434e+02
2.350000e-06	1.721304e-06	1.467290e-08	1.252760e+01	9.594965e+02
2.360000e-06	1.584850e-06	1.411132e-08	1.153449e+01	9.228122e+02
2.370000e-06	1.447881e-06	1.351297e-08	1.053764e+01	8.831266e+02
2.380000e-06	1.310531e-06	1.287485e-08	9.538005e+00	8.402678e+02
2.390000e-06	1.172805e-06	1.219351e-08	8.535641e+00	7.941769e+02
2.400000e-06	1.034691e-06	1.146263e-08	7.530448e+00	7.449169e+02
2.410000e-06	8.961715e-07	1.068162e-08	6.522309e+00	6.926661e+02
2.420000e-06	7.573421e-07	9.851801e-09	5.511913e+00	6.376986e+02
2.430000e-06	6.182440e-07	8.975719e-09	4.499561e+00	5.803533e+02
2.440000e-06	4.789351e-07	8.058285e-09	3.485676e+00	5.209949e+02
2.450000e-06	3.394861e-07	7.104352e-09	2.470770e+00	4.599731e+02
2.460000e-06	1.998930e-07	6.123781e-09	1.454815e+00	3.975852e+02
2.470000e-06	6.021588e-08	5.124731e-09	4.382494e-01	3.340478e+02
2.480000e-06	-7.949318e-08	4.118318e-09	-5.785490e-01	2.694814e+02
2.490000e-06	-2.192353e-07	3.110989e-09	-1.595588e+00	2.039117e+02
2.500000e-06	-3.589653e-07	2.099928e-09	-2.612538e+00	1.372858e+02
2.510000e-06	-4.985671e-07	1.082095e-09	-3.628557e+00	6.950396e+01
2.520000e-06	-6.379903e-07	5.329420e-11	-4.643274e+00	4.613260e-01
2.530000e-06	-7.771740e-07	-9.914829e-10	-5.656249e+00	-6.990571e+01
2.540000e-06	-9.161244e-07	-2.061091e-09	-6.667526e+00	-1.415745e+02
2.550000e-06	-1.054765e-06	-3.159992e-09	-7.676547e+00	-2.143989e+02
2.560000e-06	-1.192975e-06	-4.286445e-09	-8.682433e+00	-2.880861e+02
2.570000e-06	-1.330788e-06	-5.437413e-09	-9.685434e+00	-3.621902e+02
2.580000e-06	-1.468190e-06	-6.601192e-09	-1.068544e+01	-4.361249e+02
2.590000e-06	-1.605098e-06	-7.755296e-09	-1.168186e+01	-5.091951e+02
2.600000e-06	-1.741318e-06	-8.877326e-09	-1.267326e+01	-5.806422e+02
2.610000e-06	-1.876723e-06	-9.950942e-09	-1.365873e+01	-6.497008e+02
2.620000e-06	-2.011407e-06	-1.096070e-08	-1.463896e+01	-7.156578e+02
2.630000e-06	-2.145388e-06	-1.189989e-08	-1.561407e+01	-7.779086e+02
2.640000e-06	-2.278554e-06	-1.276672e-08	-1.658325e+01	-8.360029e+02
2.650000e-06	-2.410828e-06	-1.356295e-08	-1.754594e+01	-8.896754e+02
2.660000e-06	-2.542197e-06	-1.429362e-08	-1.850203e+01	-9.388582e+02
2.670000e-06	-2.672641e-06	-1.496746e-08	-1.945140e+01	-9.836735e+02
2.680000e-06	-2.802144e-06	-1.559248e-08	-2.039392e+01	-1.024408e+03
2.690000e-06	-2.930621e-06	-1.617132e-08	-2.132898e+01	-1.061474e+03
2.700000e-06	-3.057974e-06	-1.670643e-08	-2.225585e+01	-1.095360e+03
2.710000e-06	-3.184280e-06	-1.720143e-08	-2.317509e+01	-1.126578e+03
2.720000e-06	-3.309427e-06	-1.766257e-08	-2.408591e+01	-1.155616e+03
2.730000e-06	-3.433281e-06	-1.809241e-08	-2.498732e+01	-1.182897e+03
2.740000e-06	-3.555927e-06	-1.849529e-08	-2.587993e+01	-1.208751e+03
2.750000e-06	-3.677378e-06	-1.887646e-08	-2.676385e+01	-1.233405e+03
2.760000e-06	-3.797477e-06	-1.923430e-08	-2.763793e+01	-1.256981e+03
2.770000e-06	-3.916133e-06	-1.956895e-08	-2.850150e+01	-1.279515e+03
2.780000e-06	-4.033286e-06	-1.988407e-08	-2.935414e+01	-1.300980e+03
2.790000e-06	-4.148843e-06	-2.018231e-08	-3.019515e+01	-1.321316e+03
2.800000e-06	-4.262706e-06	-2.046424e-08	-3.102385e+01	-1.340461e+03
2.810000e-06	-4.374821e-06	-2.072874e-08	-3.183982e+01	-1.358375e+03
2.820000e-06	-4.485303e-06	-2.097889e-08	-3.264390e+01	-1.375060e+03
2.830000e-06	-4.594287e-06	-2.122034e-08	-3.343709e+01	-1.390569e+03
2.840000e-06	-4.701785e-06	-2.145361e-08	-3.421945e+01	-1.405003e+03
2.850000e-06	-4.807717e-06	-2.167516e-08	-3.499042e+01	-1.418500e+03
2.860000e-06	-4.911903e-06	-2.188280e-08	-3.574868e+01	-1.431218e+03
2.870000e-06	-5.014166e-06	-2.207636e-08	-3.649295e+01	-1.443318e+03
2.880000e-06	-5.114527e-06	-2.225900e-08	-3.722337e+01	-1.454939e+03
2.890000e-06	-5.213070e-06	-2.243336e-08	-3.794057e+01	-1.466186e+03
2.900000e-06	-5.309860e-06	-2.259851e-08	-3.864500e+01	-1.477118e+03
2.910000e-06	-5.404762e-06	-2.275528e-08	-3.933570e+01	-1.487745e+03
2.920000e-06	-5.497650e-06	-2.290574e-08	-4.001173e+01	-1.498034e+03
2.930000e-06	-5.588604e-06	-2.304929e-08	-4.067370e+01	-1.507923e+03
2.940000e-06	-5.677518e-06	-2.318510e-08	-4.132081e+01	-1.517332e+03
