# Temperatura_=_61.11
# Concentracion g/m^3_=_28370.0
# C_Vs_to_Am_M_A/Vsm_=_65563218390.804596
# pendiente_HvsI_1/m_=_3716.3
# ordenada_HvsI_A/m_=_1297.0
# frecuencia_Hz_=_302372.9829485386

Tiempo_(s)	Campo_(V.s)	Magnetizacion_(V.s)	Campo_(kA/m)	Magnetizacion_(A/m)
0.000000e+00	-7.353759e-06	-2.458506e-08	-5.318368e+01	-1.609587e+03
1.000000e-08	-7.349410e-06	-2.457703e-08	-5.315223e+01	-1.608793e+03
2.000000e-08	-7.342759e-06	-2.456356e-08	-5.310412e+01	-1.607921e+03
3.000000e-08	-7.333669e-06	-2.455153e-08	-5.303839e+01	-1.607015e+03
4.000000e-08	-7.321947e-06	-2.453682e-08	-5.295361e+01	-1.606098e+03
5.000000e-08	-7.307444e-06	-2.451966e-08	-5.284872e+01	-1.605172e+03
6.000000e-08	-7.290319e-06	-2.450045e-08	-5.272487e+01	-1.604218e+03
7.000000e-08	-7.271061e-06	-2.447817e-08	-5.258560e+01	-1.603199e+03
8.000000e-08	-7.249651e-06	-2.449288e-08	-5.243075e+01	-1.602068e+03
9.000000e-08	-7.225573e-06	-2.450696e-08	-5.225661e+01	-1.600777e+03
1.000000e-07	-7.198518e-06	-2.443114e-08	-5.206095e+01	-1.599286e+03
1.100000e-07	-7.168708e-06	-2.436823e-08	-5.184536e+01	-1.597568e+03
1.200000e-07	-7.136369e-06	-2.434650e-08	-5.161147e+01	-1.595617e+03
1.300000e-07	-7.101577e-06	-2.430751e-08	-5.135985e+01	-1.593444e+03
1.400000e-07	-7.064678e-06	-2.422670e-08	-5.109299e+01	-1.591078e+03
1.500000e-07	-7.025988e-06	-2.420708e-08	-5.081318e+01	-1.588558e+03
1.600000e-07	-6.985073e-06	-2.425216e-08	-5.051728e+01	-1.585925e+03
1.700000e-07	-6.941630e-06	-2.410040e-08	-5.020309e+01	-1.583211e+03
1.800000e-07	-6.895784e-06	-2.408151e-08	-4.987153e+01	-1.580434e+03
1.900000e-07	-6.847233e-06	-2.408442e-08	-4.952040e+01	-1.577592e+03
2.000000e-07	-6.795799e-06	-2.399037e-08	-4.914841e+01	-1.574660e+03
2.100000e-07	-6.741762e-06	-2.400127e-08	-4.875761e+01	-1.571591e+03
2.200000e-07	-6.685220e-06	-2.392993e-08	-4.834869e+01	-1.568328e+03
2.300000e-07	-6.626126e-06	-2.386705e-08	-4.792131e+01	-1.564806e+03
2.400000e-07	-6.564596e-06	-2.376440e-08	-4.747631e+01	-1.560964e+03
2.500000e-07	-6.500676e-06	-2.368342e-08	-4.701404e+01	-1.556758e+03
2.600000e-07	-6.434268e-06	-2.363118e-08	-4.653376e+01	-1.552165e+03
2.700000e-07	-6.365393e-06	-2.355472e-08	-4.603564e+01	-1.547187e+03
2.800000e-07	-6.294161e-06	-2.349228e-08	-4.552048e+01	-1.541854e+03
2.900000e-07	-6.220497e-06	-2.339948e-08	-4.498773e+01	-1.536217e+03
3.000000e-07	-6.144245e-06	-2.331347e-08	-4.443626e+01	-1.530337e+03
3.100000e-07	-6.065348e-06	-2.321816e-08	-4.386567e+01	-1.524279e+03
3.200000e-07	-5.984043e-06	-2.312621e-08	-4.327765e+01	-1.518096e+03
3.300000e-07	-5.900675e-06	-2.306258e-08	-4.267472e+01	-1.511822e+03
3.400000e-07	-5.815437e-06	-2.295502e-08	-4.205826e+01	-1.505459e+03
3.500000e-07	-5.728312e-06	-2.285129e-08	-4.142816e+01	-1.498981e+03
3.600000e-07	-5.639137e-06	-2.274378e-08	-4.078323e+01	-1.492330e+03
3.700000e-07	-5.547842e-06	-2.262633e-08	-4.012297e+01	-1.485428e+03
3.800000e-07	-5.454606e-06	-2.251354e-08	-3.944867e+01	-1.478185e+03
3.900000e-07	-5.359507e-06	-2.239368e-08	-3.876090e+01	-1.470513e+03
4.000000e-07	-5.262432e-06	-2.226806e-08	-3.805884e+01	-1.462336e+03
4.100000e-07	-5.163456e-06	-2.211682e-08	-3.734303e+01	-1.453609e+03
4.200000e-07	-5.062715e-06	-2.198062e-08	-3.661445e+01	-1.444314e+03
4.300000e-07	-4.960208e-06	-2.183603e-08	-3.587310e+01	-1.434470e+03
4.400000e-07	-4.855867e-06	-2.168180e-08	-3.511849e+01	-1.424124e+03
4.500000e-07	-4.749816e-06	-2.152371e-08	-3.435151e+01	-1.413340e+03
4.600000e-07	-4.642037e-06	-2.136354e-08	-3.357203e+01	-1.402189e+03
4.700000e-07	-4.532582e-06	-2.119482e-08	-3.278043e+01	-1.390733e+03
4.800000e-07	-4.421558e-06	-2.101067e-08	-3.197749e+01	-1.379007e+03
4.900000e-07	-4.308857e-06	-2.083041e-08	-3.116241e+01	-1.367010e+03
5.000000e-07	-4.194398e-06	-2.063999e-08	-3.033462e+01	-1.354702e+03
5.100000e-07	-4.078193e-06	-2.043750e-08	-2.949421e+01	-1.341999e+03
5.200000e-07	-3.960465e-06	-2.021991e-08	-2.864278e+01	-1.328787e+03
5.300000e-07	-3.841321e-06	-1.999886e-08	-2.778111e+01	-1.314930e+03
5.400000e-07	-3.720700e-06	-1.976786e-08	-2.690876e+01	-1.300288e+03
5.500000e-07	-3.598731e-06	-1.951917e-08	-2.602666e+01	-1.284737e+03
5.600000e-07	-3.475418e-06	-1.926253e-08	-2.513483e+01	-1.268183e+03
5.700000e-07	-3.350704e-06	-1.899696e-08	-2.423288e+01	-1.250570e+03
5.800000e-07	-3.224769e-06	-1.872221e-08	-2.332210e+01	-1.231889e+03
5.900000e-07	-3.097723e-06	-1.843373e-08	-2.240328e+01	-1.212168e+03
6.000000e-07	-2.969542e-06	-1.813429e-08	-2.147625e+01	-1.191459e+03
6.100000e-07	-2.840232e-06	-1.781332e-08	-2.054106e+01	-1.169823e+03
6.200000e-07	-2.709894e-06	-1.747063e-08	-1.959843e+01	-1.147301e+03
6.300000e-07	-2.578495e-06	-1.710903e-08	-1.864813e+01	-1.123892e+03
6.400000e-07	-2.446026e-06	-1.672851e-08	-1.769009e+01	-1.099534e+03
6.500000e-07	-2.312735e-06	-1.633039e-08	-1.672611e+01	-1.074089e+03
6.600000e-07	-2.178792e-06	-1.591038e-08	-1.575741e+01	-1.047343e+03
6.700000e-07	-2.044105e-06	-1.546538e-08	-1.478333e+01	-1.019010e+03
6.800000e-07	-1.908617e-06	-1.498770e-08	-1.380346e+01	-9.887545e+02
6.900000e-07	-1.772393e-06	-1.448134e-08	-1.281826e+01	-9.562215e+02
7.000000e-07	-1.635490e-06	-1.394189e-08	-1.182815e+01	-9.210689e+02
7.100000e-07	-1.498002e-06	-1.336661e-08	-1.083381e+01	-8.830056e+02
7.200000e-07	-1.360032e-06	-1.275162e-08	-9.835993e+00	-8.418245e+02
7.300000e-07	-1.221673e-06	-1.209113e-08	-8.835356e+00	-7.974269e+02
7.400000e-07	-1.082921e-06	-1.138442e-08	-7.831877e+00	-7.498364e+02
7.500000e-07	-9.437447e-07	-1.062855e-08	-6.825328e+00	-6.991976e+02
7.600000e-07	-8.041366e-07	-9.825436e-09	-5.815657e+00	-6.457611e+02
7.700000e-07	-6.641278e-07	-8.975844e-09	-4.803089e+00	-5.898552e+02
7.800000e-07	-5.238124e-07	-8.085940e-09	-3.788303e+00	-5.318491e+02
7.900000e-07	-3.832804e-07	-7.159074e-09	-2.771951e+00	-4.721110e+02
8.000000e-07	-2.425997e-07	-6.203563e-09	-1.754524e+00	-4.109686e+02
8.100000e-07	-1.017587e-07	-5.227712e-09	-7.359371e-01	-3.486761e+02
8.200000e-07	3.920939e-08	-4.242629e-09	2.835692e-01	-2.853931e+02
8.300000e-07	1.801941e-07	-3.255853e-09	1.303195e+00	-2.211797e+02
8.400000e-07	3.211542e-07	-2.268388e-09	2.322644e+00	-1.560067e+02
8.500000e-07	4.619772e-07	-1.280184e-09	3.341101e+00	-8.978259e+01
8.600000e-07	6.025856e-07	-2.846031e-10	4.358005e+00	-2.239163e+01
8.700000e-07	7.429496e-07	7.259076e-10	5.373143e+00	4.626014e+01
8.800000e-07	8.830740e-07	1.762618e-09	6.386547e+00	1.161984e+02
8.900000e-07	1.022877e-06	2.828591e-09	7.397625e+00	1.873395e+02
9.000000e-07	1.162213e-06	3.924241e-09	8.405328e+00	2.594609e+02
9.100000e-07	1.301051e-06	5.045326e-09	9.409427e+00	3.321877e+02
9.200000e-07	1.439371e-06	6.179681e-09	1.040979e+01	4.049979e+02
9.300000e-07	1.577198e-06	7.311946e-09	1.140657e+01	4.772466e+02
9.400000e-07	1.714441e-06	8.420996e-09	1.239914e+01	5.482058e+02
9.500000e-07	1.850998e-06	9.486783e-09	1.338674e+01	6.171174e+02
9.600000e-07	1.986765e-06	1.049297e-08	1.436863e+01	6.832514e+02
9.700000e-07	2.121663e-06	1.143155e-08	1.534424e+01	7.459634e+02
9.800000e-07	2.255760e-06	1.229936e-08	1.631405e+01	8.047450e+02
9.900000e-07	2.389122e-06	1.309941e-08	1.727855e+01	8.592599e+02
1.000000e-06	2.521689e-06	1.383369e-08	1.823730e+01	9.093639e+02
1.010000e-06	2.653316e-06	1.450868e-08	1.918925e+01	9.551048e+02
1.020000e-06	2.783901e-06	1.513234e-08	2.013367e+01	9.967040e+02
1.030000e-06	2.913418e-06	1.571032e-08	2.107035e+01	1.034523e+03
1.040000e-06	3.041820e-06	1.624683e-08	2.199898e+01	1.069016e+03
1.050000e-06	3.169039e-06	1.674365e-08	2.291905e+01	1.100682e+03
1.060000e-06	3.295136e-06	1.720468e-08	2.383100e+01	1.130013e+03
1.070000e-06	3.420199e-06	1.763570e-08	2.473548e+01	1.157453e+03
1.080000e-06	3.544072e-06	1.803865e-08	2.563136e+01	1.183362e+03
1.090000e-06	3.666626e-06	1.841636e-08	2.651768e+01	1.208003e+03
1.100000e-06	3.787882e-06	1.877253e-08	2.739463e+01	1.231534e+03
1.110000e-06	3.907716e-06	1.910776e-08	2.826129e+01	1.254022e+03
1.120000e-06	4.026119e-06	1.942381e-08	2.911760e+01	1.275464e+03
1.130000e-06	4.143210e-06	1.972248e-08	2.996442e+01	1.295812e+03
1.140000e-06	4.258769e-06	2.000340e-08	3.080017e+01	1.315005e+03
1.150000e-06	4.372588e-06	2.026586e-08	3.162333e+01	1.332998e+03
1.160000e-06	4.484635e-06	2.051334e-08	3.243367e+01	1.349779e+03
1.170000e-06	4.595049e-06	2.074859e-08	3.323220e+01	1.365381e+03
1.180000e-06	4.703987e-06	2.097258e-08	3.402006e+01	1.379888e+03
1.190000e-06	4.811364e-06	2.118647e-08	3.479663e+01	1.393424e+03
1.200000e-06	4.917030e-06	2.139034e-08	3.556083e+01	1.406137e+03
1.210000e-06	5.020869e-06	2.158255e-08	3.631181e+01	1.418184e+03
1.220000e-06	5.122901e-06	2.176406e-08	3.704973e+01	1.429711e+03
1.230000e-06	5.223140e-06	2.193496e-08	3.777467e+01	1.440832e+03
1.240000e-06	5.321374e-06	2.209841e-08	3.848511e+01	1.451619e+03
1.250000e-06	5.417490e-06	2.225474e-08	3.918024e+01	1.462098e+03
1.260000e-06	5.511620e-06	2.240446e-08	3.986101e+01	1.472252e+03
1.270000e-06	5.603883e-06	2.254723e-08	4.052827e+01	1.482029e+03
1.280000e-06	5.694149e-06	2.268352e-08	4.118109e+01	1.491358e+03
1.290000e-06	5.782242e-06	2.281303e-08	4.181819e+01	1.500163e+03
1.300000e-06	5.868265e-06	2.293463e-08	4.244033e+01	1.508384e+03
1.310000e-06	5.952321e-06	2.304932e-08	4.304824e+01	1.515988e+03
1.320000e-06	6.034307e-06	2.315760e-08	4.364117e+01	1.522977e+03
1.330000e-06	6.114051e-06	2.325976e-08	4.421789e+01	1.529391e+03
1.340000e-06	6.191525e-06	2.335634e-08	4.477820e+01	1.535303e+03
1.350000e-06	6.266678e-06	2.344692e-08	4.532172e+01	1.540807e+03
1.360000e-06	6.339408e-06	2.353056e-08	4.584771e+01	1.546010e+03
1.370000e-06	6.409777e-06	2.360956e-08	4.635664e+01	1.551011e+03
1.380000e-06	6.477933e-06	2.368596e-08	4.684955e+01	1.555889e+03
1.390000e-06	6.543697e-06	2.375995e-08	4.732517e+01	1.560696e+03
1.400000e-06	6.607000e-06	2.383155e-08	4.778299e+01	1.565447e+03
1.410000e-06	6.668169e-06	2.389982e-08	4.822537e+01	1.570123e+03
1.420000e-06	6.727145e-06	2.396409e-08	4.865190e+01	1.574675e+03
1.430000e-06	6.783652e-06	2.402455e-08	4.906056e+01	1.579036e+03
1.440000e-06	6.837669e-06	2.408157e-08	4.945123e+01	1.583133e+03
1.450000e-06	6.888963e-06	2.413609e-08	4.982219e+01	1.586900e+03
1.460000e-06	6.937394e-06	2.418770e-08	5.017245e+01	1.590290e+03
1.470000e-06	6.983294e-06	2.423592e-08	5.050441e+01	1.593283e+03
1.480000e-06	7.026865e-06	2.428033e-08	5.081952e+01	1.595886e+03
1.490000e-06	7.067928e-06	2.431929e-08	5.111650e+01	1.598138e+03
1.500000e-06	7.106380e-06	2.435356e-08	5.139459e+01	1.600098e+03
1.510000e-06	7.142410e-06	2.438461e-08	5.165517e+01	1.601836e+03
1.520000e-06	7.175881e-06	2.441409e-08	5.189724e+01	1.603424e+03
1.530000e-06	7.206765e-06	2.444298e-08	5.212060e+01	1.604921e+03
1.540000e-06	7.235262e-06	2.446794e-08	5.232669e+01	1.606367e+03
1.550000e-06	7.261113e-06	2.448840e-08	5.251365e+01	1.607778e+03
1.560000e-06	7.284202e-06	2.450673e-08	5.268063e+01	1.609141e+03
1.570000e-06	7.304841e-06	2.452215e-08	5.282990e+01	1.610422e+03
1.580000e-06	7.322964e-06	2.453273e-08	5.296096e+01	1.611571e+03
1.590000e-06	7.338327e-06	2.454168e-08	5.307207e+01	1.612533e+03
1.600000e-06	7.350870e-06	2.455067e-08	5.316278e+01	1.613255e+03
1.610000e-06	7.360496e-06	2.455843e-08	5.323240e+01	1.613700e+03
1.620000e-06	7.367315e-06	2.456393e-08	5.328172e+01	1.613851e+03
1.630000e-06	7.371614e-06	2.456676e-08	5.331281e+01	1.613716e+03
1.640000e-06	7.373327e-06	2.456811e-08	5.332520e+01	1.613324e+03
1.650000e-06	7.372385e-06	2.456401e-08	5.331839e+01	1.612722e+03
1.660000e-06	7.369036e-06	2.455380e-08	5.329417e+01	1.611968e+03
1.670000e-06	7.363202e-06	2.454710e-08	5.325198e+01	1.611117e+03
1.680000e-06	7.354838e-06	2.453816e-08	5.319148e+01	1.610218e+03
1.690000e-06	7.344059e-06	2.452549e-08	5.311353e+01	1.609302e+03
1.700000e-06	7.330685e-06	2.451307e-08	5.301680e+01	1.608379e+03
1.710000e-06	7.314804e-06	2.450246e-08	5.290195e+01	1.607438e+03
1.720000e-06	7.296721e-06	2.448947e-08	5.277117e+01	1.606446e+03
1.730000e-06	7.276482e-06	2.441085e-08	5.262480e+01	1.605359e+03
1.740000e-06	7.253466e-06	2.436621e-08	5.245834e+01	1.604129e+03
1.750000e-06	7.227026e-06	2.439649e-08	5.226713e+01	1.602712e+03
1.760000e-06	7.197289e-06	2.437681e-08	5.205206e+01	1.601076e+03
1.770000e-06	7.164953e-06	2.432430e-08	5.181820e+01	1.599207e+03
1.780000e-06	7.130680e-06	2.434985e-08	5.157033e+01	1.597109e+03
1.790000e-06	7.094736e-06	2.435995e-08	5.131038e+01	1.594807e+03
1.800000e-06	7.057029e-06	2.422184e-08	5.103768e+01	1.592336e+03
1.810000e-06	7.016803e-06	2.428041e-08	5.074676e+01	1.589738e+03
1.820000e-06	6.973974e-06	2.425868e-08	5.043701e+01	1.587049e+03
1.830000e-06	6.928931e-06	2.417207e-08	5.011125e+01	1.584292e+03
1.840000e-06	6.881320e-06	2.420015e-08	4.976692e+01	1.581474e+03
1.850000e-06	6.831136e-06	2.405245e-08	4.940398e+01	1.578577e+03
1.860000e-06	6.778276e-06	2.404281e-08	4.902169e+01	1.575562e+03
1.870000e-06	6.722616e-06	2.398017e-08	4.861914e+01	1.572375e+03
1.880000e-06	6.664533e-06	2.391815e-08	4.819908e+01	1.568951e+03
1.890000e-06	6.603875e-06	2.393633e-08	4.776039e+01	1.565229e+03
1.900000e-06	6.540616e-06	2.381173e-08	4.730289e+01	1.561155e+03
1.910000e-06	6.474915e-06	2.377467e-08	4.682773e+01	1.556700e+03
1.920000e-06	6.406810e-06	2.365784e-08	4.633518e+01	1.551856e+03
1.930000e-06	6.336341e-06	2.358064e-08	4.582553e+01	1.546644e+03
1.940000e-06	6.263405e-06	2.354889e-08	4.529805e+01	1.541107e+03
1.950000e-06	6.187985e-06	2.345145e-08	4.475260e+01	1.535305e+03
1.960000e-06	6.109964e-06	2.340115e-08	4.418834e+01	1.529303e+03
1.970000e-06	6.029525e-06	2.325609e-08	4.360659e+01	1.523159e+03
1.980000e-06	5.946998e-06	2.317897e-08	4.300973e+01	1.516914e+03
1.990000e-06	5.862385e-06	2.307568e-08	4.239780e+01	1.510583e+03
2.000000e-06	5.775633e-06	2.297414e-08	4.177039e+01	1.504149e+03
2.010000e-06	5.686760e-06	2.289027e-08	4.112765e+01	1.497567e+03
2.020000e-06	5.595952e-06	2.276916e-08	4.047091e+01	1.490764e+03
2.030000e-06	5.503242e-06	2.265620e-08	3.980042e+01	1.483653e+03
2.040000e-06	5.408513e-06	2.250690e-08	3.911532e+01	1.476141e+03
2.050000e-06	5.311801e-06	2.240349e-08	3.841588e+01	1.468151e+03
2.060000e-06	5.213317e-06	2.227455e-08	3.770363e+01	1.459623e+03
2.070000e-06	5.113089e-06	2.214778e-08	3.697876e+01	1.450529e+03
2.080000e-06	5.010975e-06	2.200384e-08	3.624025e+01	1.440876e+03
2.090000e-06	4.906945e-06	2.185636e-08	3.548789e+01	1.430701e+03
2.100000e-06	4.801197e-06	2.170396e-08	3.472310e+01	1.420064e+03
2.110000e-06	4.693974e-06	2.154189e-08	3.394764e+01	1.409035e+03
2.120000e-06	4.585174e-06	2.138352e-08	3.316079e+01	1.397681e+03
2.130000e-06	4.474719e-06	2.119933e-08	3.236196e+01	1.386048e+03
2.140000e-06	4.362563e-06	2.101280e-08	3.155082e+01	1.374150e+03
2.150000e-06	4.248714e-06	2.081700e-08	3.072745e+01	1.361959e+03
2.160000e-06	4.133129e-06	2.063025e-08	2.989151e+01	1.349408e+03
2.170000e-06	4.015807e-06	2.042886e-08	2.904302e+01	1.336391e+03
2.180000e-06	3.896897e-06	2.022003e-08	2.818304e+01	1.322779e+03
2.190000e-06	3.776418e-06	1.999625e-08	2.731172e+01	1.308432e+03
2.200000e-06	3.654554e-06	1.976149e-08	2.643038e+01	1.293217e+03
2.210000e-06	3.531353e-06	1.951253e-08	2.553936e+01	1.277029e+03
2.220000e-06	3.406786e-06	1.925362e-08	2.463848e+01	1.259796e+03
2.230000e-06	3.280987e-06	1.898288e-08	2.372867e+01	1.241494e+03
2.240000e-06	3.153992e-06	1.868987e-08	2.281023e+01	1.222138e+03
2.250000e-06	3.025779e-06	1.838738e-08	2.188297e+01	1.201773e+03
2.260000e-06	2.896499e-06	1.807366e-08	2.094799e+01	1.180461e+03
2.270000e-06	2.766242e-06	1.775145e-08	2.000595e+01	1.158251e+03
2.280000e-06	2.634984e-06	1.741014e-08	1.905667e+01	1.135162e+03
2.290000e-06	2.502740e-06	1.704739e-08	1.810026e+01	1.111153e+03
2.300000e-06	2.369564e-06	1.665785e-08	1.713710e+01	1.086116e+03
2.310000e-06	2.235621e-06	1.624393e-08	1.616840e+01	1.059863e+03
2.320000e-06	2.100990e-06	1.580773e-08	1.519473e+01	1.032132e+03
2.330000e-06	1.965634e-06	1.534739e-08	1.421581e+01	1.002602e+03
2.340000e-06	1.829529e-06	1.485601e-08	1.323148e+01	9.709223e+02
2.350000e-06	1.692747e-06	1.432745e-08	1.224224e+01	9.367408e+02
2.360000e-06	1.555440e-06	1.376016e-08	1.124922e+01	8.997447e+02
2.370000e-06	1.417647e-06	1.315398e-08	1.025267e+01	8.596933e+02
2.380000e-06	1.279367e-06	1.251193e-08	9.252608e+00	8.164470e+02
2.390000e-06	1.140706e-06	1.182884e-08	8.249789e+00	7.699851e+02
2.400000e-06	1.001641e-06	1.109444e-08	7.244046e+00	7.204100e+02
2.410000e-06	8.621199e-07	1.030623e-08	6.235003e+00	6.679371e+02
2.420000e-06	7.222306e-07	9.468580e-09	5.223299e+00	6.128709e+02
2.430000e-06	5.820755e-07	8.588485e-09	4.209673e+00	5.555704e+02
2.440000e-06	4.416998e-07	7.671258e-09	3.194451e+00	4.964092e+02
2.450000e-06	3.011295e-07	6.723952e-09	2.177822e+00	4.357336e+02
2.460000e-06	1.604089e-07	5.754346e-09	1.160105e+00	3.738270e+02
2.470000e-06	1.961422e-08	4.768321e-09	1.418535e-01	3.108846e+02
2.480000e-06	-1.212109e-07	3.775232e-09	-8.766185e-01	2.470014e+02
2.490000e-06	-2.620464e-07	2.781533e-09	-1.895166e+00	1.821779e+02
2.500000e-06	-4.028557e-07	1.785724e-09	-2.913524e+00	1.163410e+02
2.510000e-06	-5.435471e-07	7.817614e-10	-3.931028e+00	4.937846e+01
2.520000e-06	-6.840086e-07	-2.347725e-10	-4.946870e+00	-1.881676e+01
2.530000e-06	-8.242003e-07	-1.268868e-09	-5.960762e+00	-8.829992e+01
2.540000e-06	-9.640642e-07	-2.327647e-09	-6.972282e+00	-1.590305e+02
2.550000e-06	-1.103463e-06	-3.415180e-09	-7.980439e+00	-2.308380e+02
2.560000e-06	-1.242310e-06	-4.529673e-09	-8.984603e+00	-3.034024e+02
2.570000e-06	-1.380650e-06	-5.665728e-09	-9.985101e+00	-3.762524e+02
2.580000e-06	-1.518550e-06	-6.809426e-09	-1.098242e+01	-4.487831e+02
2.590000e-06	-1.655961e-06	-7.938225e-09	-1.197620e+01	-5.202907e+02
2.600000e-06	-1.792794e-06	-9.030993e-09	-1.296581e+01	-5.900214e+02
2.610000e-06	-1.928940e-06	-1.007125e-08	-1.395043e+01	-6.572281e+02
2.620000e-06	-2.064278e-06	-1.104628e-08	-1.492922e+01	-7.212299e+02
2.630000e-06	-2.198774e-06	-1.195100e-08	-1.590192e+01	-7.814645e+02
2.640000e-06	-2.332472e-06	-1.278542e-08	-1.686885e+01	-8.375311e+02
2.650000e-06	-2.465313e-06	-1.355206e-08	-1.782958e+01	-8.892159e+02
2.660000e-06	-2.597207e-06	-1.425766e-08	-1.878346e+01	-9.364993e+02
2.670000e-06	-2.728110e-06	-1.490917e-08	-1.973017e+01	-9.795438e+02
2.680000e-06	-2.858036e-06	-1.551133e-08	-2.066982e+01	-1.018665e+03
2.690000e-06	-2.987005e-06	-1.606818e-08	-2.160255e+01	-1.054291e+03
2.700000e-06	-3.114903e-06	-1.658251e-08	-2.252752e+01	-1.086910e+03
2.710000e-06	-3.241675e-06	-1.706131e-08	-2.344437e+01	-1.117023e+03
2.720000e-06	-3.367321e-06	-1.750832e-08	-2.435306e+01	-1.145093e+03
2.730000e-06	-3.491698e-06	-1.792408e-08	-2.525257e+01	-1.171515e+03
2.740000e-06	-3.614709e-06	-1.831283e-08	-2.614221e+01	-1.196586e+03
2.750000e-06	-3.736500e-06	-1.867924e-08	-2.702303e+01	-1.220502e+03
2.760000e-06	-3.857016e-06	-1.902289e-08	-2.789462e+01	-1.243361e+03
2.770000e-06	-3.976063e-06	-1.934516e-08	-2.875559e+01	-1.265182e+03
2.780000e-06	-4.093636e-06	-1.965084e-08	-2.960590e+01	-1.285928e+03
2.790000e-06	-4.209577e-06	-1.994038e-08	-3.044440e+01	-1.305542e+03
2.800000e-06	-4.323722e-06	-2.021344e-08	-3.126992e+01	-1.323969e+03
2.810000e-06	-4.436082e-06	-2.046989e-08	-3.208253e+01	-1.341182e+03
2.820000e-06	-4.546720e-06	-2.071391e-08	-3.288268e+01	-1.357200e+03
2.830000e-06	-4.655789e-06	-2.094750e-08	-3.367149e+01	-1.372087e+03
2.840000e-06	-4.763396e-06	-2.116966e-08	-3.444972e+01	-1.385954e+03
2.850000e-06	-4.869466e-06	-2.138030e-08	-3.521684e+01	-1.398944e+03
2.860000e-06	-4.973776e-06	-2.158070e-08	-3.597122e+01	-1.411213e+03
2.870000e-06	-5.076144e-06	-2.176998e-08	-3.671156e+01	-1.422912e+03
2.880000e-06	-5.176559e-06	-2.194764e-08	-3.743779e+01	-1.434168e+03
2.890000e-06	-5.275157e-06	-2.211536e-08	-3.815086e+01	-1.445070e+03
2.900000e-06	-5.371994e-06	-2.227505e-08	-3.885121e+01	-1.455660e+03
2.910000e-06	-5.466925e-06	-2.242519e-08	-3.953777e+01	-1.465936e+03
2.920000e-06	-5.559796e-06	-2.256675e-08	-4.020942e+01	-1.475857e+03
2.930000e-06	-5.650657e-06	-2.270429e-08	-4.086655e+01	-1.485355e+03
2.940000e-06	-5.739539e-06	-2.283700e-08	-4.150936e+01	-1.494356e+03
