# Temperatura_=_83.3
# Concentracion g/m^3_=_28370.0
# C_Vs_to_Am_M_A/Vsm_=_65563218390.804596
# pendiente_HvsI_1/m_=_3716.3
# ordenada_HvsI_A/m_=_1297.0
# frecuencia_Hz_=_302372.0710319932

Tiempo_(s)	Campo_(V.s)	Magnetizacion_(V.s)	Campo_(kA/m)	Magnetizacion_(A/m)
0.000000e+00	-7.343802e-06	-2.918288e-08	-5.318513e+01	-1.910886e+03
1.000000e-08	-7.339503e-06	-2.917071e-08	-5.315400e+01	-1.909931e+03
2.000000e-08	-7.332877e-06	-2.915480e-08	-5.310601e+01	-1.908900e+03
3.000000e-08	-7.323840e-06	-2.913808e-08	-5.304056e+01	-1.907835e+03
4.000000e-08	-7.312165e-06	-2.912137e-08	-5.295601e+01	-1.906749e+03
5.000000e-08	-7.297679e-06	-2.910224e-08	-5.285110e+01	-1.905634e+03
6.000000e-08	-7.280600e-06	-2.908172e-08	-5.272741e+01	-1.904453e+03
7.000000e-08	-7.261447e-06	-2.905998e-08	-5.258870e+01	-1.903157e+03
8.000000e-08	-7.240125e-06	-2.906402e-08	-5.243429e+01	-1.901687e+03
9.000000e-08	-7.216056e-06	-2.904208e-08	-5.225997e+01	-1.899988e+03
1.000000e-07	-7.189000e-06	-2.898095e-08	-5.206403e+01	-1.898018e+03
1.100000e-07	-7.159245e-06	-2.892720e-08	-5.184854e+01	-1.895758e+03
1.200000e-07	-7.126995e-06	-2.888353e-08	-5.161498e+01	-1.893211e+03
1.300000e-07	-7.092250e-06	-2.883308e-08	-5.136335e+01	-1.890403e+03
1.400000e-07	-7.055383e-06	-2.877397e-08	-5.109635e+01	-1.887379e+03
1.500000e-07	-7.016724e-06	-2.875614e-08	-5.081637e+01	-1.884193e+03
1.600000e-07	-6.975837e-06	-2.870827e-08	-5.052026e+01	-1.880894e+03
1.700000e-07	-6.932433e-06	-2.862045e-08	-5.020593e+01	-1.877520e+03
1.800000e-07	-6.886641e-06	-2.857214e-08	-4.987429e+01	-1.874086e+03
1.900000e-07	-6.838162e-06	-2.851411e-08	-4.952320e+01	-1.870582e+03
2.000000e-07	-6.786823e-06	-2.846608e-08	-4.915139e+01	-1.866966e+03
2.100000e-07	-6.732892e-06	-2.840694e-08	-4.876081e+01	-1.863176e+03
2.200000e-07	-6.676389e-06	-2.834705e-08	-4.835160e+01	-1.859133e+03
2.300000e-07	-6.617320e-06	-2.829962e-08	-4.792382e+01	-1.854755e+03
2.400000e-07	-6.555884e-06	-2.817532e-08	-4.747889e+01	-1.849969e+03
2.500000e-07	-6.492067e-06	-2.808393e-08	-4.701671e+01	-1.844723e+03
2.600000e-07	-6.425724e-06	-2.800571e-08	-4.653624e+01	-1.838995e+03
2.700000e-07	-6.356933e-06	-2.790680e-08	-4.603805e+01	-1.832794e+03
2.800000e-07	-6.285830e-06	-2.781379e-08	-4.552310e+01	-1.826163e+03
2.900000e-07	-6.212306e-06	-2.771740e-08	-4.499063e+01	-1.819166e+03
3.000000e-07	-6.136234e-06	-2.762161e-08	-4.443971e+01	-1.811883e+03
3.100000e-07	-6.057492e-06	-2.750084e-08	-4.386944e+01	-1.804392e+03
3.200000e-07	-5.976288e-06	-2.739069e-08	-4.328135e+01	-1.796756e+03
3.300000e-07	-5.893078e-06	-2.727020e-08	-4.267873e+01	-1.789011e+03
3.400000e-07	-5.807980e-06	-2.715835e-08	-4.206243e+01	-1.781159e+03
3.500000e-07	-5.720947e-06	-2.704708e-08	-4.143212e+01	-1.773161e+03
3.600000e-07	-5.631903e-06	-2.690250e-08	-4.078725e+01	-1.764949e+03
3.700000e-07	-5.540741e-06	-2.675999e-08	-4.012704e+01	-1.756426e+03
3.800000e-07	-5.447571e-06	-2.661739e-08	-3.945228e+01	-1.747488e+03
3.900000e-07	-5.352499e-06	-2.646577e-08	-3.876376e+01	-1.738033e+03
4.000000e-07	-5.255484e-06	-2.630511e-08	-3.806116e+01	-1.727979e+03
4.100000e-07	-5.156620e-06	-2.614768e-08	-3.734517e+01	-1.717277e+03
4.200000e-07	-5.056005e-06	-2.597974e-08	-3.661650e+01	-1.705914e+03
4.300000e-07	-4.953632e-06	-2.579759e-08	-3.587509e+01	-1.693917e+03
4.400000e-07	-4.849493e-06	-2.561131e-08	-3.512090e+01	-1.681344e+03
4.500000e-07	-4.743576e-06	-2.542163e-08	-3.435383e+01	-1.668275e+03
4.600000e-07	-4.635880e-06	-2.522489e-08	-3.357388e+01	-1.654789e+03
4.700000e-07	-4.526578e-06	-2.501800e-08	-3.278229e+01	-1.640953e+03
4.800000e-07	-4.415796e-06	-2.480422e-08	-3.197999e+01	-1.626801e+03
4.900000e-07	-4.303342e-06	-2.458209e-08	-3.116557e+01	-1.612328e+03
5.000000e-07	-4.189053e-06	-2.434648e-08	-3.033788e+01	-1.597476e+03
5.100000e-07	-4.073040e-06	-2.410045e-08	-2.949769e+01	-1.582146e+03
5.200000e-07	-3.955503e-06	-2.384570e-08	-2.864646e+01	-1.566202e+03
5.300000e-07	-3.836507e-06	-2.357687e-08	-2.778467e+01	-1.549487e+03
5.400000e-07	-3.716082e-06	-2.329796e-08	-2.691253e+01	-1.531847e+03
5.500000e-07	-3.594276e-06	-2.300645e-08	-2.603039e+01	-1.513145e+03
5.600000e-07	-3.471070e-06	-2.270015e-08	-2.513811e+01	-1.493284e+03
5.700000e-07	-3.346491e-06	-2.237969e-08	-2.423589e+01	-1.472211e+03
5.800000e-07	-3.220746e-06	-2.204950e-08	-2.332522e+01	-1.449926e+03
5.900000e-07	-3.093968e-06	-2.170699e-08	-2.240707e+01	-1.426467e+03
6.000000e-07	-2.965993e-06	-2.134769e-08	-2.148025e+01	-1.401900e+03
6.100000e-07	-2.836847e-06	-2.097040e-08	-2.054496e+01	-1.376288e+03
6.200000e-07	-2.706637e-06	-2.057004e-08	-1.960195e+01	-1.349674e+03
6.300000e-07	-2.575330e-06	-2.014555e-08	-1.865100e+01	-1.322043e+03
6.400000e-07	-2.443018e-06	-1.969585e-08	-1.769278e+01	-1.293312e+03
6.500000e-07	-2.309883e-06	-1.922270e-08	-1.672858e+01	-1.263305e+03
6.600000e-07	-2.176073e-06	-1.872434e-08	-1.575951e+01	-1.231764e+03
6.700000e-07	-2.041628e-06	-1.819854e-08	-1.478584e+01	-1.198351e+03
6.800000e-07	-1.906437e-06	-1.764013e-08	-1.380676e+01	-1.162679e+03
6.900000e-07	-1.770469e-06	-1.704651e-08	-1.282206e+01	-1.124339e+03
7.000000e-07	-1.633816e-06	-1.641299e-08	-1.183239e+01	-1.082945e+03
7.100000e-07	-1.496563e-06	-1.573556e-08	-1.083838e+01	-1.038169e+03
7.200000e-07	-1.358831e-06	-1.501273e-08	-9.840899e+00	-9.897794e+02
7.300000e-07	-1.220654e-06	-1.423662e-08	-8.840193e+00	-9.376638e+02
7.400000e-07	-1.081996e-06	-1.340525e-08	-7.836012e+00	-8.818404e+02
7.500000e-07	-9.429172e-07	-1.251865e-08	-6.828776e+00	-8.224544e+02
7.600000e-07	-8.034371e-07	-1.157615e-08	-5.818636e+00	-7.597587e+02
7.700000e-07	-6.636213e-07	-1.057532e-08	-4.806064e+00	-6.940817e+02
7.800000e-07	-5.235861e-07	-9.523603e-09	-3.791905e+00	-6.257868e+02
7.900000e-07	-3.833235e-07	-8.426897e-09	-2.776097e+00	-5.552297e+02
8.000000e-07	-2.428634e-07	-7.293120e-09	-1.758860e+00	-4.827184e+02
8.100000e-07	-1.022570e-07	-6.131156e-09	-7.405634e-01	-4.084841e+02
8.200000e-07	3.839550e-08	-4.951410e-09	2.780671e-01	-3.326644e+02
8.300000e-07	1.790578e-07	-3.762952e-09	1.296769e+00	-2.553059e+02
8.400000e-07	3.197343e-07	-2.565790e-09	2.315573e+00	-1.763822e+02
8.500000e-07	4.602732e-07	-1.363405e-09	3.333381e+00	-9.582823e+01
8.600000e-07	6.006252e-07	-1.495023e-10	4.349835e+00	-1.358585e+01
8.700000e-07	7.407177e-07	1.086728e-09	5.364410e+00	7.034677e+01
8.800000e-07	8.804861e-07	2.354528e-09	6.376638e+00	1.558673e+02
8.900000e-07	1.019940e-06	3.658727e-09	7.386592e+00	2.427308e+02
9.000000e-07	1.159010e-06	4.996964e-09	8.393756e+00	3.305273e+02
9.100000e-07	1.297674e-06	6.361272e-09	9.397984e+00	4.186776e+02
9.200000e-07	1.435936e-06	7.733576e-09	1.039931e+01	5.064517e+02
9.300000e-07	1.573742e-06	9.091745e-09	1.139732e+01	5.930063e+02
9.400000e-07	1.710931e-06	1.041238e-08	1.239087e+01	6.774389e+02
9.500000e-07	1.847354e-06	1.167092e-08	1.337887e+01	7.588526e+02
9.600000e-07	1.982947e-06	1.284643e-08	1.436085e+01	8.364238e+02
9.700000e-07	2.117708e-06	1.393198e-08	1.533682e+01	9.094653e+02
9.800000e-07	2.251705e-06	1.492955e-08	1.630725e+01	9.774766e+02
9.900000e-07	2.385029e-06	1.584401e-08	1.727281e+01	1.040178e+03
1.000000e-06	2.517494e-06	1.668171e-08	1.823214e+01	1.097520e+03
1.010000e-06	2.648845e-06	1.745223e-08	1.918341e+01	1.149675e+03
1.020000e-06	2.779230e-06	1.816604e-08	2.012768e+01	1.197005e+03
1.030000e-06	2.908695e-06	1.882926e-08	2.106529e+01	1.240015e+03
1.040000e-06	3.036964e-06	1.944562e-08	2.199424e+01	1.279292e+03
1.050000e-06	3.163996e-06	2.001895e-08	2.291423e+01	1.315448e+03
1.060000e-06	3.289917e-06	2.055224e-08	2.382617e+01	1.349062e+03
1.070000e-06	3.414808e-06	2.104950e-08	2.473065e+01	1.380635e+03
1.080000e-06	3.538568e-06	2.151161e-08	2.562695e+01	1.410556e+03
1.090000e-06	3.661074e-06	2.194286e-08	2.651416e+01	1.439088e+03
1.100000e-06	3.782207e-06	2.234936e-08	2.739142e+01	1.466377e+03
1.110000e-06	3.901822e-06	2.273461e-08	2.825770e+01	1.492461e+03
1.120000e-06	4.020081e-06	2.310088e-08	2.911415e+01	1.517309e+03
1.130000e-06	4.137003e-06	2.344658e-08	2.996091e+01	1.540850e+03
1.140000e-06	4.252344e-06	2.377264e-08	3.079624e+01	1.563008e+03
1.150000e-06	4.365943e-06	2.408041e-08	3.161895e+01	1.583738e+03
1.160000e-06	4.477798e-06	2.437005e-08	3.242902e+01	1.603042e+03
1.170000e-06	4.588079e-06	2.464096e-08	3.322769e+01	1.620980e+03
1.180000e-06	4.696879e-06	2.489837e-08	3.401564e+01	1.637673e+03
1.190000e-06	4.804142e-06	2.514538e-08	3.479246e+01	1.653282e+03
1.200000e-06	4.909666e-06	2.538310e-08	3.555668e+01	1.667997e+03
1.210000e-06	5.013283e-06	2.560876e-08	3.630710e+01	1.682008e+03
1.220000e-06	5.115086e-06	2.582134e-08	3.704437e+01	1.695484e+03
1.230000e-06	5.215104e-06	2.602350e-08	3.776872e+01	1.708550e+03
1.240000e-06	5.313186e-06	2.621410e-08	3.847905e+01	1.721280e+03
1.250000e-06	5.409183e-06	2.639473e-08	3.917427e+01	1.733692e+03
1.260000e-06	5.503230e-06	2.656828e-08	3.985538e+01	1.745751e+03
1.270000e-06	5.595426e-06	2.673436e-08	4.052308e+01	1.757385e+03
1.280000e-06	5.685574e-06	2.689333e-08	4.117595e+01	1.768501e+03
1.290000e-06	5.773535e-06	2.704650e-08	4.181298e+01	1.779007e+03
1.300000e-06	5.859423e-06	2.719504e-08	4.243499e+01	1.788831e+03
1.310000e-06	5.943377e-06	2.733737e-08	4.304300e+01	1.797936e+03
1.320000e-06	6.025265e-06	2.747120e-08	4.363605e+01	1.806326e+03
1.330000e-06	6.104927e-06	2.759783e-08	4.421298e+01	1.814049e+03
1.340000e-06	6.182315e-06	2.771771e-08	4.477344e+01	1.821189e+03
1.350000e-06	6.257336e-06	2.782867e-08	4.531675e+01	1.827855e+03
1.360000e-06	6.329895e-06	2.793003e-08	4.584224e+01	1.834164e+03
1.370000e-06	6.400167e-06	2.802606e-08	4.635116e+01	1.840226e+03
1.380000e-06	6.468251e-06	2.811866e-08	4.684423e+01	1.846125e+03
1.390000e-06	6.533958e-06	2.820781e-08	4.732010e+01	1.851913e+03
1.400000e-06	6.597279e-06	2.829349e-08	4.777868e+01	1.857602e+03
1.410000e-06	6.658366e-06	2.837356e-08	4.822108e+01	1.863167e+03
1.420000e-06	6.717200e-06	2.844876e-08	4.864716e+01	1.868554e+03
1.430000e-06	6.773657e-06	2.851941e-08	4.905604e+01	1.873693e+03
1.440000e-06	6.827710e-06	2.858659e-08	4.944750e+01	1.878508e+03
1.450000e-06	6.879097e-06	2.865223e-08	4.981966e+01	1.882935e+03
1.460000e-06	6.927586e-06	2.871509e-08	5.017082e+01	1.886935e+03
1.470000e-06	6.973506e-06	2.877459e-08	5.050338e+01	1.890496e+03
1.480000e-06	7.017056e-06	2.882971e-08	5.081878e+01	1.893638e+03
1.490000e-06	7.058049e-06	2.887826e-08	5.111566e+01	1.896411e+03
1.500000e-06	7.096512e-06	2.892149e-08	5.139421e+01	1.898882e+03
1.510000e-06	7.132625e-06	2.896187e-08	5.165575e+01	1.901126e+03
1.520000e-06	7.166202e-06	2.899986e-08	5.189892e+01	1.903214e+03
1.530000e-06	7.197148e-06	2.903642e-08	5.212304e+01	1.905201e+03
1.540000e-06	7.225622e-06	2.906730e-08	5.232925e+01	1.907116e+03
1.550000e-06	7.251465e-06	2.909175e-08	5.251641e+01	1.908960e+03
1.560000e-06	7.274547e-06	2.911339e-08	5.268357e+01	1.910706e+03
1.570000e-06	7.295090e-06	2.913179e-08	5.283235e+01	1.912305e+03
1.580000e-06	7.313133e-06	2.914760e-08	5.296302e+01	1.913696e+03
1.590000e-06	7.328446e-06	2.915944e-08	5.307392e+01	1.914817e+03
1.600000e-06	7.340942e-06	2.916799e-08	5.316442e+01	1.915617e+03
1.610000e-06	7.350536e-06	2.917612e-08	5.323390e+01	1.916065e+03
1.620000e-06	7.357340e-06	2.918122e-08	5.328317e+01	1.916156e+03
1.630000e-06	7.361558e-06	2.918323e-08	5.331372e+01	1.915913e+03
1.640000e-06	7.363143e-06	2.918326e-08	5.332520e+01	1.915381e+03
1.650000e-06	7.362135e-06	2.917626e-08	5.331790e+01	1.914623e+03
1.660000e-06	7.358734e-06	2.916637e-08	5.329327e+01	1.913707e+03
1.670000e-06	7.352912e-06	2.915413e-08	5.325111e+01	1.912696e+03
1.680000e-06	7.344592e-06	2.914120e-08	5.319086e+01	1.911638e+03
1.690000e-06	7.333849e-06	2.912728e-08	5.311305e+01	1.910558e+03
1.700000e-06	7.320497e-06	2.911283e-08	5.301635e+01	1.909455e+03
1.710000e-06	7.304614e-06	2.909443e-08	5.290132e+01	1.908301e+03
1.720000e-06	7.286532e-06	2.906401e-08	5.277037e+01	1.907051e+03
1.730000e-06	7.266264e-06	2.899290e-08	5.262358e+01	1.905649e+03
1.740000e-06	7.243270e-06	2.896410e-08	5.245706e+01	1.904035e+03
1.750000e-06	7.216949e-06	2.895617e-08	5.226644e+01	1.902164e+03
1.760000e-06	7.187316e-06	2.892797e-08	5.205183e+01	1.900007e+03
1.770000e-06	7.155016e-06	2.889650e-08	5.181791e+01	1.897559e+03
1.780000e-06	7.120737e-06	2.888739e-08	5.156965e+01	1.894838e+03
1.790000e-06	7.084833e-06	2.883625e-08	5.130963e+01	1.891885e+03
1.800000e-06	7.047196e-06	2.878513e-08	5.103706e+01	1.888749e+03
1.810000e-06	7.007065e-06	2.879195e-08	5.074642e+01	1.885483e+03
1.820000e-06	6.964365e-06	2.873860e-08	5.043718e+01	1.882131e+03
1.830000e-06	6.919443e-06	2.872741e-08	5.011185e+01	1.878718e+03
1.840000e-06	6.871954e-06	2.864674e-08	4.976792e+01	1.875240e+03
1.850000e-06	6.821818e-06	2.856865e-08	4.940483e+01	1.871669e+03
1.860000e-06	6.768965e-06	2.853256e-08	4.902206e+01	1.867948e+03
1.870000e-06	6.713358e-06	2.839637e-08	4.861934e+01	1.864003e+03
1.880000e-06	6.655360e-06	2.837056e-08	4.819931e+01	1.859752e+03
1.890000e-06	6.594859e-06	2.832115e-08	4.776115e+01	1.855118e+03
1.900000e-06	6.531765e-06	2.821893e-08	4.730422e+01	1.850039e+03
1.910000e-06	6.466184e-06	2.816463e-08	4.682927e+01	1.844482e+03
1.920000e-06	6.398186e-06	2.804329e-08	4.633681e+01	1.838446e+03
1.930000e-06	6.327802e-06	2.795512e-08	4.582708e+01	1.831960e+03
1.940000e-06	6.254944e-06	2.784523e-08	4.529942e+01	1.825084e+03
1.950000e-06	6.179571e-06	2.776052e-08	4.475356e+01	1.817892e+03
1.960000e-06	6.101580e-06	2.766497e-08	4.418873e+01	1.810466e+03
1.970000e-06	6.021219e-06	2.753750e-08	4.360675e+01	1.802874e+03
1.980000e-06	5.938807e-06	2.744036e-08	4.300991e+01	1.795165e+03
1.990000e-06	5.854347e-06	2.728996e-08	4.239823e+01	1.787352e+03
2.000000e-06	5.767801e-06	2.717989e-08	4.177145e+01	1.779411e+03
2.010000e-06	5.679158e-06	2.704546e-08	4.112948e+01	1.771284e+03
2.020000e-06	5.588497e-06	2.691084e-08	4.047289e+01	1.762882e+03
2.030000e-06	5.495857e-06	2.677689e-08	3.980198e+01	1.754103e+03
2.040000e-06	5.401192e-06	2.662285e-08	3.911640e+01	1.744842e+03
2.050000e-06	5.304603e-06	2.647221e-08	3.841689e+01	1.735008e+03
2.060000e-06	5.206297e-06	2.630079e-08	3.770494e+01	1.724539e+03
2.070000e-06	5.106233e-06	2.615016e-08	3.698026e+01	1.713409e+03
2.080000e-06	5.004247e-06	2.597644e-08	3.624165e+01	1.701632e+03
2.090000e-06	4.900357e-06	2.580537e-08	3.548926e+01	1.689256e+03
2.100000e-06	4.794776e-06	2.561646e-08	3.472463e+01	1.676353e+03
2.110000e-06	4.687674e-06	2.542235e-08	3.394898e+01	1.663005e+03
2.120000e-06	4.579052e-06	2.521710e-08	3.316231e+01	1.649287e+03
2.130000e-06	4.468795e-06	2.499541e-08	3.236381e+01	1.635245e+03
2.140000e-06	4.356767e-06	2.477493e-08	3.155249e+01	1.620889e+03
2.150000e-06	4.243006e-06	2.454518e-08	3.072861e+01	1.606180e+03
2.160000e-06	4.127545e-06	2.431320e-08	2.989242e+01	1.591033e+03
2.170000e-06	4.010387e-06	2.406727e-08	2.904394e+01	1.575324e+03
2.180000e-06	3.891593e-06	2.381688e-08	2.818361e+01	1.558901e+03
2.190000e-06	3.771270e-06	2.354649e-08	2.731221e+01	1.541607e+03
2.200000e-06	3.649580e-06	2.326606e-08	2.643091e+01	1.523296e+03
2.210000e-06	3.526576e-06	2.296983e-08	2.554010e+01	1.503856e+03
2.220000e-06	3.402241e-06	2.266068e-08	2.463964e+01	1.483218e+03
2.230000e-06	3.276630e-06	2.233456e-08	2.372994e+01	1.461362e+03
2.240000e-06	3.149771e-06	2.199148e-08	2.281121e+01	1.438314e+03
2.250000e-06	3.021708e-06	2.163263e-08	2.188375e+01	1.414133e+03
2.260000e-06	2.892572e-06	2.125811e-08	2.094852e+01	1.388886e+03
2.270000e-06	2.762421e-06	2.087118e-08	2.000595e+01	1.362627e+03
2.280000e-06	2.631367e-06	2.046507e-08	1.905683e+01	1.335363e+03
2.290000e-06	2.499361e-06	2.003629e-08	1.810082e+01	1.307038e+03
2.300000e-06	2.366385e-06	1.957697e-08	1.713778e+01	1.277511e+03
2.310000e-06	2.232611e-06	1.908950e-08	1.616897e+01	1.246552e+03
2.320000e-06	2.098098e-06	1.857165e-08	1.519480e+01	1.213849e+03
2.330000e-06	1.962828e-06	1.802328e-08	1.421515e+01	1.179028e+03
2.340000e-06	1.826861e-06	1.744328e-08	1.323045e+01	1.141686e+03
2.350000e-06	1.690263e-06	1.682848e-08	1.224119e+01	1.101422e+03
2.360000e-06	1.553134e-06	1.616773e-08	1.124807e+01	1.057885e+03
2.370000e-06	1.415558e-06	1.545873e-08	1.025172e+01	1.010804e+03
2.380000e-06	1.277513e-06	1.470331e-08	9.251975e+00	9.600227e+02
2.390000e-06	1.139072e-06	1.389776e-08	8.249362e+00	9.055117e+02
2.400000e-06	1.000231e-06	1.303647e-08	7.243856e+00	8.473726e+02
2.410000e-06	8.609826e-07	1.211581e-08	6.235390e+00	7.858229e+02
2.420000e-06	7.214021e-07	1.113566e-08	5.224523e+00	7.211683e+02
2.430000e-06	5.815653e-07	1.010005e-08	4.211800e+00	6.537648e+02
2.440000e-06	4.415111e-07	9.015436e-09	3.197502e+00	5.839755e+02
2.450000e-06	3.011985e-07	7.889366e-09	2.181334e+00	5.121297e+02
2.460000e-06	1.606937e-07	6.730505e-09	1.163772e+00	4.384884e+02
2.470000e-06	2.012408e-08	5.549430e-09	1.457422e-01	3.632236e+02
2.480000e-06	-1.204722e-07	4.358209e-09	-8.724813e-01	2.864131e+02
2.490000e-06	-2.610899e-07	3.159999e-09	-1.890860e+00	2.080532e+02
2.500000e-06	-4.016609e-07	1.954702e-09	-2.908900e+00	1.280881e+02
2.510000e-06	-5.420470e-07	7.382284e-10	-3.925601e+00	4.645143e+01
2.520000e-06	-6.821797e-07	-4.963175e-10	-4.940468e+00	-3.688441e+01
2.530000e-06	-8.220255e-07	-1.756360e-09	-5.953256e+00	-1.218593e+02
2.540000e-06	-9.615054e-07	-3.049249e-09	-6.963394e+00	-2.082829e+02
2.550000e-06	-1.100568e-06	-4.377889e-09	-7.970510e+00	-2.958055e+02
2.560000e-06	-1.239178e-06	-5.738245e-09	-8.974348e+00	-3.839076e+02
2.570000e-06	-1.377397e-06	-7.118614e-09	-9.975358e+00	-4.719095e+02
2.580000e-06	-1.515267e-06	-8.497395e-09	-1.097384e+01	-5.590029e+02
2.590000e-06	-1.652567e-06	-9.846503e-09	-1.196819e+01	-6.442995e+02
2.600000e-06	-1.789139e-06	-1.114027e-08	-1.295726e+01	-7.268926e+02
2.610000e-06	-1.924962e-06	-1.235862e-08	-1.394092e+01	-8.059249e+02
2.620000e-06	-2.060031e-06	-1.348971e-08	-1.491911e+01	-8.806536e+02
2.630000e-06	-2.194446e-06	-1.453205e-08	-1.589257e+01	-9.505070e+02
2.640000e-06	-2.328123e-06	-1.548811e-08	-1.686068e+01	-1.015124e+03
2.650000e-06	-2.460810e-06	-1.636503e-08	-1.782162e+01	-1.074372e+03
2.660000e-06	-2.592440e-06	-1.717232e-08	-1.877491e+01	-1.128349e+03
2.670000e-06	-2.723107e-06	-1.791711e-08	-1.972123e+01	-1.177352e+03
2.680000e-06	-2.852933e-06	-1.860495e-08	-2.066145e+01	-1.221842e+03
2.690000e-06	-2.981799e-06	-1.924114e-08	-2.159472e+01	-1.262383e+03
2.700000e-06	-3.109473e-06	-1.983385e-08	-2.251936e+01	-1.299586e+03
2.710000e-06	-3.236072e-06	-2.038633e-08	-2.343622e+01	-1.334047e+03
2.720000e-06	-3.361593e-06	-2.090029e-08	-2.434526e+01	-1.366300e+03
2.730000e-06	-3.485777e-06	-2.137759e-08	-2.524462e+01	-1.396775e+03
2.740000e-06	-3.608668e-06	-2.182470e-08	-2.613462e+01	-1.425782e+03
2.750000e-06	-3.730331e-06	-2.224614e-08	-2.701572e+01	-1.453507e+03
2.760000e-06	-3.850587e-06	-2.264284e-08	-2.788664e+01	-1.480024e+03
2.770000e-06	-3.969464e-06	-2.301773e-08	-2.874757e+01	-1.505322e+03
2.780000e-06	-4.086856e-06	-2.337001e-08	-2.959774e+01	-1.529340e+03
2.790000e-06	-4.202510e-06	-2.370018e-08	-3.043533e+01	-1.552001e+03
2.800000e-06	-4.316453e-06	-2.401056e-08	-3.126053e+01	-1.573245e+03
2.810000e-06	-4.428685e-06	-2.430629e-08	-3.207333e+01	-1.593055e+03
2.820000e-06	-4.539144e-06	-2.458928e-08	-3.287329e+01	-1.611472e+03
2.830000e-06	-4.648044e-06	-2.485889e-08	-3.366196e+01	-1.628594e+03
2.840000e-06	-4.755545e-06	-2.511570e-08	-3.444051e+01	-1.644571e+03
2.850000e-06	-4.861484e-06	-2.535942e-08	-3.520774e+01	-1.659585e+03
2.860000e-06	-4.965663e-06	-2.558961e-08	-3.596222e+01	-1.673828e+03
2.870000e-06	-5.067919e-06	-2.580830e-08	-3.670278e+01	-1.687479e+03
2.880000e-06	-5.168219e-06	-2.601932e-08	-3.742917e+01	-1.700681e+03
2.890000e-06	-5.266704e-06	-2.622148e-08	-3.814241e+01	-1.713528e+03
2.900000e-06	-5.363385e-06	-2.641082e-08	-3.884259e+01	-1.726057e+03
2.910000e-06	-5.458134e-06	-2.658749e-08	-3.952878e+01	-1.738250e+03
2.920000e-06	-5.550868e-06	-2.675438e-08	-4.020038e+01	-1.750047e+03
2.930000e-06	-5.641650e-06	-2.691485e-08	-4.085784e+01	-1.761361e+03
2.940000e-06	-5.730485e-06	-2.707013e-08	-4.150120e+01	-1.772096e+03
