# Temperatura_=_41.1
# Concentracion g/m^3_=_28370.0
# C_Vs_to_Am_M_A/Vsm_=_65563218390.804596
# pendiente_HvsI_1/m_=_3716.3
# ordenada_HvsI_A/m_=_1297.0
# frecuencia_Hz_=_302369.9601694509

Tiempo_(s)	Campo_(V.s)	Magnetizacion_(V.s)	Campo_(kA/m)	Magnetizacion_(A/m)
0.000000e+00	-7.311698e-06	-2.217195e-08	-5.318540e+01	-1.451369e+03
1.000000e-08	-7.307359e-06	-2.216493e-08	-5.315383e+01	-1.450612e+03
2.000000e-08	-7.300770e-06	-2.215473e-08	-5.310590e+01	-1.449774e+03
3.000000e-08	-7.291791e-06	-2.214433e-08	-5.304059e+01	-1.448899e+03
4.000000e-08	-7.280169e-06	-2.213195e-08	-5.295605e+01	-1.448019e+03
5.000000e-08	-7.265766e-06	-2.211680e-08	-5.285129e+01	-1.447146e+03
6.000000e-08	-7.248768e-06	-2.209900e-08	-5.272764e+01	-1.446270e+03
7.000000e-08	-7.229653e-06	-2.207975e-08	-5.258860e+01	-1.445364e+03
8.000000e-08	-7.208385e-06	-2.207810e-08	-5.243390e+01	-1.444390e+03
9.000000e-08	-7.184441e-06	-2.208853e-08	-5.225973e+01	-1.443304e+03
1.000000e-07	-7.157499e-06	-2.204222e-08	-5.206375e+01	-1.442063e+03
1.100000e-07	-7.127817e-06	-2.198711e-08	-5.184784e+01	-1.440637e+03
1.200000e-07	-7.095677e-06	-2.196132e-08	-5.161405e+01	-1.439009e+03
1.300000e-07	-7.061091e-06	-2.193099e-08	-5.136248e+01	-1.437178e+03
1.400000e-07	-7.024394e-06	-2.187177e-08	-5.109554e+01	-1.435162e+03
1.500000e-07	-6.985853e-06	-2.183926e-08	-5.081519e+01	-1.432987e+03
1.600000e-07	-6.945127e-06	-2.187212e-08	-5.051895e+01	-1.430687e+03
1.700000e-07	-6.901916e-06	-2.178277e-08	-5.020463e+01	-1.428292e+03
1.800000e-07	-6.856324e-06	-2.173052e-08	-4.987300e+01	-1.425822e+03
1.900000e-07	-6.808185e-06	-2.173117e-08	-4.952284e+01	-1.423280e+03
2.000000e-07	-6.757189e-06	-2.165230e-08	-4.915189e+01	-1.420655e+03
2.100000e-07	-6.703461e-06	-2.161512e-08	-4.876107e+01	-1.417914e+03
2.200000e-07	-6.647159e-06	-2.158030e-08	-4.835153e+01	-1.415011e+03
2.300000e-07	-6.588363e-06	-2.154065e-08	-4.792385e+01	-1.411895e+03
2.400000e-07	-6.527215e-06	-2.146303e-08	-4.747905e+01	-1.408513e+03
2.500000e-07	-6.463683e-06	-2.138876e-08	-4.701692e+01	-1.404822e+03
2.600000e-07	-6.397616e-06	-2.133836e-08	-4.653635e+01	-1.400798e+03
2.700000e-07	-6.329089e-06	-2.125847e-08	-4.603788e+01	-1.396435e+03
2.800000e-07	-6.258280e-06	-2.119533e-08	-4.552282e+01	-1.391752e+03
2.900000e-07	-6.185105e-06	-2.113329e-08	-4.499054e+01	-1.386784e+03
3.000000e-07	-6.109404e-06	-2.105786e-08	-4.443989e+01	-1.381581e+03
3.100000e-07	-6.031120e-06	-2.097803e-08	-4.387045e+01	-1.376198e+03
3.200000e-07	-5.950350e-06	-2.089106e-08	-4.328293e+01	-1.370682e+03
3.300000e-07	-5.867468e-06	-2.081647e-08	-4.268004e+01	-1.365065e+03
3.400000e-07	-5.782733e-06	-2.072200e-08	-4.206368e+01	-1.359355e+03
3.500000e-07	-5.696118e-06	-2.063606e-08	-4.143364e+01	-1.353538e+03
3.600000e-07	-5.607482e-06	-2.054487e-08	-4.078890e+01	-1.347568e+03
3.700000e-07	-5.516689e-06	-2.043939e-08	-4.012847e+01	-1.341384e+03
3.800000e-07	-5.423913e-06	-2.033348e-08	-3.945362e+01	-1.334907e+03
3.900000e-07	-5.329258e-06	-2.021956e-08	-3.876510e+01	-1.328060e+03
4.000000e-07	-5.232737e-06	-2.010506e-08	-3.806300e+01	-1.320776e+03
4.100000e-07	-5.134401e-06	-1.997560e-08	-3.734771e+01	-1.313006e+03
4.200000e-07	-5.034203e-06	-1.985529e-08	-3.661887e+01	-1.304727e+03
4.300000e-07	-4.932201e-06	-1.972983e-08	-3.587690e+01	-1.295948e+03
4.400000e-07	-4.828486e-06	-1.959581e-08	-3.512247e+01	-1.286700e+03
4.500000e-07	-4.723081e-06	-1.945277e-08	-3.435576e+01	-1.277038e+03
4.600000e-07	-4.615893e-06	-1.930414e-08	-3.357607e+01	-1.267019e+03
4.700000e-07	-4.507070e-06	-1.914854e-08	-3.278449e+01	-1.256698e+03
4.800000e-07	-4.396745e-06	-1.898449e-08	-3.198199e+01	-1.246112e+03
4.900000e-07	-4.284790e-06	-1.882229e-08	-3.116762e+01	-1.235265e+03
5.000000e-07	-4.171122e-06	-1.864923e-08	-3.034080e+01	-1.224129e+03
5.100000e-07	-4.055687e-06	-1.846623e-08	-2.950112e+01	-1.212638e+03
5.200000e-07	-3.938642e-06	-1.827083e-08	-2.864974e+01	-1.200695e+03
5.300000e-07	-3.820143e-06	-1.807012e-08	-2.778778e+01	-1.188183e+03
5.400000e-07	-3.700242e-06	-1.786053e-08	-2.691561e+01	-1.174977e+03
5.500000e-07	-3.579013e-06	-1.764027e-08	-2.603379e+01	-1.160960e+03
5.600000e-07	-3.456382e-06	-1.741079e-08	-2.514177e+01	-1.146039e+03
5.700000e-07	-3.332321e-06	-1.716914e-08	-2.423935e+01	-1.130153e+03
5.800000e-07	-3.207057e-06	-1.691680e-08	-2.332818e+01	-1.113280e+03
5.900000e-07	-3.080682e-06	-1.665185e-08	-2.240893e+01	-1.095433e+03
6.000000e-07	-2.953138e-06	-1.637751e-08	-2.148117e+01	-1.076650e+03
6.100000e-07	-2.824576e-06	-1.608787e-08	-2.054601e+01	-1.056978e+03
6.200000e-07	-2.695020e-06	-1.578111e-08	-1.960362e+01	-1.036452e+03
6.300000e-07	-2.564306e-06	-1.545491e-08	-1.865280e+01	-1.015079e+03
6.400000e-07	-2.432517e-06	-1.510834e-08	-1.769417e+01	-9.928092e+02
6.500000e-07	-2.299946e-06	-1.474202e-08	-1.672984e+01	-9.695339e+02
6.600000e-07	-2.166700e-06	-1.435498e-08	-1.576061e+01	-9.450741e+02
6.700000e-07	-2.032734e-06	-1.394790e-08	-1.478613e+01	-9.191884e+02
6.800000e-07	-1.898035e-06	-1.351515e-08	-1.380634e+01	-8.915885e+02
6.900000e-07	-1.762569e-06	-1.305526e-08	-1.282095e+01	-8.619643e+02
7.000000e-07	-1.626465e-06	-1.256178e-08	-1.183093e+01	-8.300142e+02
7.100000e-07	-1.489894e-06	-1.203357e-08	-1.083751e+01	-7.954785e+02
7.200000e-07	-1.352869e-06	-1.147251e-08	-9.840790e+00	-7.581707e+02
7.300000e-07	-1.215394e-06	-1.087532e-08	-8.840791e+00	-7.180018e+02
7.400000e-07	-1.077474e-06	-1.023770e-08	-7.837562e+00	-6.749951e+02
7.500000e-07	-9.391240e-07	-9.556892e-09	-6.831201e+00	-6.292878e+02
7.600000e-07	-8.003866e-07	-8.834658e-09	-5.822024e+00	-5.811196e+02
7.700000e-07	-6.613044e-07	-8.070796e-09	-4.810337e+00	-5.308082e+02
7.800000e-07	-5.219182e-07	-7.270199e-09	-3.796440e+00	-4.787165e+02
7.900000e-07	-3.823148e-07	-6.440157e-09	-2.780963e+00	-4.252129e+02
8.000000e-07	-2.425398e-07	-5.590344e-09	-1.764238e+00	-3.706327e+02
8.100000e-07	-1.025390e-07	-4.726639e-09	-7.458699e-01	-3.152435e+02
8.200000e-07	3.757847e-08	-3.857351e-09	2.733463e-01	-2.592217e+02
8.300000e-07	1.776528e-07	-2.987590e-09	1.292249e+00	-2.026416e+02
8.400000e-07	3.177298e-07	-2.117136e-09	2.311171e+00	-1.454805e+02
8.500000e-07	4.577694e-07	-1.247423e-09	3.329821e+00	-8.763803e+01
8.600000e-07	5.976102e-07	-3.753939e-10	4.347025e+00	-2.896984e+01
8.700000e-07	7.371664e-07	5.057447e-10	5.362159e+00	3.067156e+01
8.800000e-07	8.764381e-07	1.406831e-09	6.375223e+00	9.139172e+01
8.900000e-07	1.015341e-06	2.333036e-09	7.385607e+00	1.532121e+02
9.000000e-07	1.153799e-06	3.284723e-09	8.392754e+00	2.160367e+02
9.100000e-07	1.291789e-06	4.259730e-09	9.396492e+00	2.796312e+02
9.200000e-07	1.429234e-06	5.250611e-09	1.039627e+01	3.436194e+02
9.300000e-07	1.566178e-06	6.245652e-09	1.139240e+01	4.074967e+02
9.400000e-07	1.702585e-06	7.229611e-09	1.238462e+01	4.706597e+02
9.500000e-07	1.838361e-06	8.184656e-09	1.337227e+01	5.324491e+02
9.600000e-07	1.973422e-06	9.096867e-09	1.435470e+01	5.922010e+02
9.700000e-07	2.107645e-06	9.958363e-09	1.533104e+01	6.492996e+02
9.800000e-07	2.241093e-06	1.076149e-08	1.630175e+01	7.032263e+02
9.900000e-07	2.373801e-06	1.150318e-08	1.726706e+01	7.535994e+02
1.000000e-06	2.505649e-06	1.218603e-08	1.822613e+01	8.001987e+02
1.010000e-06	2.636517e-06	1.281587e-08	1.917806e+01	8.429750e+02
1.020000e-06	2.766332e-06	1.339846e-08	2.012234e+01	8.820412e+02
1.030000e-06	2.895066e-06	1.393824e-08	2.105875e+01	9.176484e+02
1.040000e-06	3.022731e-06	1.443721e-08	2.198739e+01	9.501505e+02
1.050000e-06	3.149341e-06	1.489952e-08	2.290835e+01	9.799615e+02
1.060000e-06	3.274884e-06	1.533041e-08	2.382155e+01	1.007510e+03
1.070000e-06	3.399323e-06	1.573549e-08	2.472672e+01	1.033201e+03
1.080000e-06	3.522568e-06	1.611442e-08	2.562321e+01	1.057377e+03
1.090000e-06	3.644462e-06	1.647005e-08	2.650987e+01	1.080306e+03
1.100000e-06	3.764973e-06	1.680546e-08	2.738647e+01	1.102164e+03
1.110000e-06	3.884143e-06	1.711926e-08	2.825331e+01	1.123044e+03
1.120000e-06	4.001945e-06	1.741248e-08	2.911020e+01	1.142968e+03
1.130000e-06	4.118288e-06	1.768735e-08	2.995648e+01	1.161912e+03
1.140000e-06	4.233021e-06	1.794854e-08	3.079105e+01	1.179829e+03
1.150000e-06	4.346032e-06	1.819516e-08	3.161310e+01	1.196673e+03
1.160000e-06	4.457408e-06	1.842833e-08	3.242325e+01	1.212422e+03
1.170000e-06	4.567317e-06	1.864975e-08	3.322273e+01	1.227091e+03
1.180000e-06	4.675775e-06	1.885828e-08	3.401165e+01	1.240733e+03
1.190000e-06	4.782644e-06	1.905523e-08	3.478902e+01	1.253443e+03
1.200000e-06	4.887705e-06	1.924251e-08	3.555324e+01	1.265343e+03
1.210000e-06	4.990895e-06	1.942016e-08	3.630384e+01	1.276565e+03
1.220000e-06	5.092311e-06	1.958827e-08	3.704154e+01	1.287240e+03
1.230000e-06	5.191918e-06	1.974730e-08	3.776609e+01	1.297478e+03
1.240000e-06	5.289493e-06	1.990054e-08	3.847585e+01	1.307357e+03
1.250000e-06	5.385013e-06	2.004848e-08	3.917066e+01	1.316917e+03
1.260000e-06	5.478675e-06	2.018847e-08	3.985196e+01	1.326159e+03
1.270000e-06	5.570515e-06	2.031984e-08	4.052000e+01	1.335052e+03
1.280000e-06	5.660339e-06	2.044363e-08	4.117339e+01	1.343544e+03
1.290000e-06	5.748029e-06	2.055949e-08	4.181125e+01	1.351577e+03
1.300000e-06	5.833692e-06	2.066807e-08	4.243436e+01	1.359099e+03
1.310000e-06	5.917364e-06	2.077079e-08	4.304299e+01	1.366077e+03
1.320000e-06	5.998935e-06	2.086681e-08	4.363634e+01	1.372510e+03
1.330000e-06	6.078276e-06	2.095710e-08	4.421347e+01	1.378425e+03
1.340000e-06	6.155350e-06	2.104379e-08	4.477410e+01	1.383879e+03
1.350000e-06	6.230058e-06	2.112682e-08	4.531753e+01	1.388952e+03
1.360000e-06	6.302312e-06	2.120545e-08	4.584311e+01	1.393735e+03
1.370000e-06	6.372272e-06	2.127916e-08	4.635200e+01	1.398316e+03
1.380000e-06	6.440034e-06	2.134962e-08	4.684490e+01	1.402769e+03
1.390000e-06	6.505415e-06	2.141859e-08	4.732048e+01	1.407146e+03
1.400000e-06	6.568445e-06	2.148382e-08	4.777896e+01	1.411466e+03
1.410000e-06	6.629331e-06	2.154395e-08	4.822185e+01	1.415717e+03
1.420000e-06	6.687964e-06	2.160090e-08	4.864835e+01	1.419863e+03
1.430000e-06	6.744166e-06	2.165542e-08	4.905716e+01	1.423844e+03
1.440000e-06	6.797918e-06	2.170816e-08	4.944815e+01	1.427596e+03
1.450000e-06	6.848988e-06	2.175838e-08	4.981963e+01	1.431056e+03
1.460000e-06	6.897220e-06	2.180482e-08	5.017047e+01	1.434177e+03
1.470000e-06	6.942896e-06	2.184778e-08	5.050272e+01	1.436932e+03
1.480000e-06	6.986209e-06	2.188663e-08	5.081779e+01	1.439325e+03
1.490000e-06	7.026974e-06	2.192145e-08	5.111431e+01	1.441383e+03
1.500000e-06	7.065202e-06	2.195159e-08	5.139238e+01	1.443154e+03
1.510000e-06	7.101123e-06	2.197904e-08	5.165367e+01	1.444703e+03
1.520000e-06	7.134524e-06	2.200459e-08	5.189663e+01	1.446096e+03
1.530000e-06	7.165289e-06	2.202891e-08	5.212041e+01	1.447392e+03
1.540000e-06	7.193639e-06	2.205255e-08	5.232663e+01	1.448635e+03
1.550000e-06	7.219397e-06	2.207253e-08	5.251400e+01	1.449845e+03
1.560000e-06	7.242376e-06	2.208965e-08	5.268115e+01	1.451020e+03
1.570000e-06	7.262821e-06	2.210254e-08	5.282986e+01	1.452135e+03
1.580000e-06	7.280794e-06	2.211131e-08	5.296060e+01	1.453148e+03
1.590000e-06	7.296064e-06	2.211862e-08	5.307168e+01	1.454009e+03
1.600000e-06	7.308518e-06	2.212434e-08	5.316227e+01	1.454668e+03
1.610000e-06	7.318108e-06	2.213004e-08	5.323202e+01	1.455085e+03
1.620000e-06	7.324947e-06	2.213442e-08	5.328177e+01	1.455239e+03
1.630000e-06	7.329249e-06	2.213712e-08	5.331306e+01	1.455127e+03
1.640000e-06	7.330918e-06	2.213943e-08	5.332520e+01	1.454772e+03
1.650000e-06	7.329963e-06	2.213903e-08	5.331825e+01	1.454211e+03
1.660000e-06	7.326649e-06	2.213166e-08	5.329415e+01	1.453495e+03
1.670000e-06	7.320849e-06	2.212358e-08	5.325196e+01	1.452679e+03
1.680000e-06	7.312537e-06	2.211389e-08	5.319150e+01	1.451811e+03
1.690000e-06	7.301845e-06	2.210081e-08	5.311372e+01	1.450930e+03
1.700000e-06	7.288550e-06	2.208735e-08	5.301701e+01	1.450053e+03
1.710000e-06	7.272721e-06	2.207648e-08	5.290188e+01	1.449179e+03
1.720000e-06	7.254767e-06	2.206293e-08	5.277128e+01	1.448287e+03
1.730000e-06	7.234736e-06	2.201068e-08	5.262557e+01	1.447341e+03
1.740000e-06	7.211901e-06	2.196369e-08	5.245947e+01	1.446299e+03
1.750000e-06	7.185652e-06	2.197625e-08	5.226854e+01	1.445117e+03
1.760000e-06	7.156092e-06	2.196771e-08	5.205351e+01	1.443759e+03
1.770000e-06	7.123911e-06	2.193091e-08	5.181943e+01	1.442202e+03
1.780000e-06	7.089780e-06	2.193826e-08	5.157116e+01	1.440441e+03
1.790000e-06	7.054011e-06	2.194608e-08	5.131098e+01	1.438487e+03
1.800000e-06	7.016553e-06	2.185346e-08	5.103850e+01	1.436365e+03
1.810000e-06	6.976614e-06	2.186366e-08	5.074799e+01	1.434105e+03
1.820000e-06	6.934054e-06	2.186689e-08	5.043841e+01	1.431739e+03
1.830000e-06	6.889254e-06	2.179914e-08	5.011253e+01	1.429293e+03
1.840000e-06	6.841927e-06	2.181752e-08	4.976828e+01	1.426777e+03
1.850000e-06	6.792036e-06	2.174179e-08	4.940536e+01	1.424183e+03
1.860000e-06	6.739488e-06	2.170389e-08	4.902313e+01	1.421487e+03
1.870000e-06	6.684214e-06	2.164324e-08	4.862107e+01	1.418646e+03
1.880000e-06	6.626530e-06	2.157558e-08	4.820148e+01	1.415611e+03
1.890000e-06	6.566230e-06	2.157539e-08	4.776285e+01	1.412329e+03
1.900000e-06	6.503298e-06	2.148136e-08	4.730508e+01	1.408751e+03
1.910000e-06	6.437990e-06	2.145214e-08	4.683003e+01	1.404847e+03
1.920000e-06	6.370359e-06	2.138160e-08	4.633808e+01	1.400603e+03
1.930000e-06	6.300327e-06	2.129028e-08	4.582867e+01	1.396029e+03
1.940000e-06	6.227801e-06	2.124816e-08	4.530111e+01	1.391157e+03
1.950000e-06	6.152820e-06	2.115621e-08	4.475570e+01	1.386031e+03
1.960000e-06	6.075244e-06	2.109915e-08	4.419141e+01	1.380705e+03
1.970000e-06	5.995213e-06	2.100158e-08	4.360926e+01	1.375230e+03
1.980000e-06	5.913108e-06	2.093264e-08	4.301203e+01	1.369646e+03
1.990000e-06	5.829005e-06	2.084805e-08	4.240027e+01	1.363969e+03
2.000000e-06	5.742807e-06	2.074661e-08	4.177326e+01	1.358192e+03
2.010000e-06	5.654461e-06	2.066468e-08	4.113063e+01	1.352282e+03
2.020000e-06	5.564164e-06	2.055685e-08	4.047381e+01	1.346182e+03
2.030000e-06	5.471936e-06	2.046070e-08	3.980294e+01	1.339817e+03
2.040000e-06	5.377720e-06	2.034410e-08	3.911761e+01	1.333110e+03
2.050000e-06	5.281624e-06	2.024612e-08	3.841861e+01	1.325988e+03
2.060000e-06	5.183792e-06	2.012884e-08	3.770697e+01	1.318394e+03
2.070000e-06	5.084206e-06	2.000429e-08	3.698259e+01	1.310297e+03
2.080000e-06	4.982737e-06	1.987676e-08	3.624450e+01	1.301692e+03
2.090000e-06	4.879307e-06	1.974445e-08	3.549215e+01	1.292606e+03
2.100000e-06	4.774084e-06	1.961017e-08	3.472675e+01	1.283084e+03
2.110000e-06	4.667416e-06	1.946612e-08	3.395085e+01	1.273184e+03
2.120000e-06	4.559240e-06	1.932234e-08	3.316398e+01	1.262965e+03
2.130000e-06	4.449453e-06	1.915796e-08	3.236539e+01	1.252470e+03
2.140000e-06	4.337936e-06	1.899057e-08	3.155421e+01	1.241716e+03
2.150000e-06	4.224702e-06	1.881759e-08	3.073054e+01	1.230688e+03
2.160000e-06	4.109817e-06	1.864860e-08	2.989487e+01	1.219332e+03
2.170000e-06	3.993245e-06	1.846949e-08	2.904692e+01	1.207562e+03
2.180000e-06	3.875069e-06	1.827929e-08	2.818731e+01	1.195267e+03
2.190000e-06	3.755273e-06	1.807581e-08	2.731591e+01	1.182321e+03
2.200000e-06	3.634041e-06	1.786230e-08	2.643407e+01	1.168605e+03
2.210000e-06	3.511553e-06	1.763802e-08	2.554308e+01	1.154014e+03
2.220000e-06	3.387724e-06	1.740504e-08	2.464235e+01	1.138477e+03
2.230000e-06	3.262699e-06	1.716345e-08	2.373292e+01	1.121955e+03
2.240000e-06	3.136551e-06	1.690041e-08	2.281532e+01	1.104452e+03
2.250000e-06	3.009125e-06	1.662474e-08	2.188842e+01	1.085997e+03
2.260000e-06	2.880519e-06	1.633599e-08	2.095293e+01	1.066636e+03
2.270000e-06	2.750925e-06	1.603867e-08	2.001027e+01	1.046411e+03
2.280000e-06	2.620407e-06	1.572659e-08	1.906088e+01	1.025342e+03
2.290000e-06	2.488867e-06	1.539861e-08	1.810405e+01	1.003400e+03
2.300000e-06	2.356419e-06	1.504807e-08	1.714062e+01	9.805001e+02
2.310000e-06	2.223291e-06	1.467160e-08	1.617225e+01	9.564869e+02
2.320000e-06	2.089445e-06	1.427109e-08	1.519866e+01	9.311404e+02
2.330000e-06	1.954792e-06	1.384709e-08	1.421919e+01	9.041867e+02
2.340000e-06	1.819391e-06	1.339884e-08	1.323428e+01	8.753201e+02
2.350000e-06	1.683344e-06	1.292210e-08	1.224467e+01	8.442322e+02
2.360000e-06	1.546753e-06	1.241216e-08	1.125110e+01	8.106446e+02
2.370000e-06	1.409747e-06	1.186426e-08	1.025452e+01	7.743414e+02
2.380000e-06	1.272326e-06	1.127940e-08	9.254919e+00	7.351965e+02
2.390000e-06	1.134490e-06	1.065578e-08	8.252300e+00	6.931923e+02
2.400000e-06	9.962427e-07	9.989630e-09	7.246683e+00	6.484258e+02
2.410000e-06	8.575700e-07	9.281502e-09	6.237976e+00	6.011023e+02
2.420000e-06	7.186000e-07	8.532131e-09	5.227107e+00	5.515151e+02
2.430000e-06	5.793628e-07	7.744127e-09	4.214293e+00	5.000152e+02
2.440000e-06	4.398772e-07	6.921325e-09	3.199673e+00	4.469737e+02
2.450000e-06	3.002602e-07	6.071048e-09	2.184097e+00	3.927420e+02
2.460000e-06	1.605229e-07	5.205683e-09	1.167646e+00	3.376152e+02
2.470000e-06	2.063980e-08	4.333100e-09	1.501342e-01	2.818043e+02
2.480000e-06	-1.193329e-07	3.458944e-09	-8.680291e-01	2.254204e+02
2.490000e-06	-2.592769e-07	2.586379e-09	-1.885984e+00	1.684737e+02
2.500000e-06	-3.991295e-07	1.713994e-09	-2.903274e+00	1.108886e+02
2.510000e-06	-5.388624e-07	8.370701e-10	-3.919693e+00	5.253187e+01
2.520000e-06	-6.783882e-07	-4.953840e-11	-4.934605e+00	-6.747839e+00
2.530000e-06	-8.176495e-07	-9.493534e-10	-5.947594e+00	-6.707619e+01
2.540000e-06	-9.565795e-07	-1.868614e-09	-6.958173e+00	-1.285091e+02
2.550000e-06	-1.095125e-06	-2.812830e-09	-7.965955e+00	-1.909957e+02
2.560000e-06	-1.233260e-06	-3.781254e-09	-8.970752e+00	-2.543522e+02
2.570000e-06	-1.370924e-06	-4.772370e-09	-9.972124e+00	-3.182527e+02
2.580000e-06	-1.508101e-06	-5.777881e-09	-1.096995e+01	-3.822357e+02
2.590000e-06	-1.644814e-06	-6.780219e-09	-1.196440e+01	-4.457287e+02
2.600000e-06	-1.780951e-06	-7.758982e-09	-1.295466e+01	-5.080869e+02
2.610000e-06	-1.916354e-06	-8.697667e-09	-1.393959e+01	-5.686420e+02
2.620000e-06	-2.050876e-06	-9.587911e-09	-1.491810e+01	-6.267548e+02
2.630000e-06	-2.184526e-06	-1.042338e-08	-1.589027e+01	-6.818671e+02
2.640000e-06	-2.317450e-06	-1.119807e-08	-1.685716e+01	-7.335445e+02
2.650000e-06	-2.449571e-06	-1.191408e-08	-1.781821e+01	-7.815072e+02
2.660000e-06	-2.580720e-06	-1.257437e-08	-1.877220e+01	-8.256451e+02
2.670000e-06	-2.710890e-06	-1.318300e-08	-1.971905e+01	-8.660152e+02
2.680000e-06	-2.840148e-06	-1.374659e-08	-2.065928e+01	-9.028226e+02
2.690000e-06	-2.968432e-06	-1.426543e-08	-2.159242e+01	-9.363895e+02
2.700000e-06	-3.095583e-06	-1.474475e-08	-2.251732e+01	-9.671133e+02
2.710000e-06	-3.221563e-06	-1.519279e-08	-2.343369e+01	-9.954227e+02
2.720000e-06	-3.346393e-06	-1.561324e-08	-2.434171e+01	-1.021735e+03
2.730000e-06	-3.470013e-06	-1.600516e-08	-2.524093e+01	-1.046418e+03
2.740000e-06	-3.592353e-06	-1.636805e-08	-2.613083e+01	-1.069769e+03
2.750000e-06	-3.713482e-06	-1.670844e-08	-2.701192e+01	-1.091996e+03
2.760000e-06	-3.833327e-06	-1.703039e-08	-2.788368e+01	-1.113220e+03
2.770000e-06	-3.951652e-06	-1.733483e-08	-2.874437e+01	-1.133487e+03
2.780000e-06	-4.068401e-06	-1.762103e-08	-2.959361e+01	-1.152788e+03
2.790000e-06	-4.183528e-06	-1.789002e-08	-3.043104e+01	-1.171078e+03
2.800000e-06	-4.296960e-06	-1.814287e-08	-3.125615e+01	-1.188311e+03
2.810000e-06	-4.408665e-06	-1.838156e-08	-3.206869e+01	-1.204452e+03
2.820000e-06	-4.518674e-06	-1.861228e-08	-3.286890e+01	-1.219504e+03
2.830000e-06	-4.627184e-06	-1.883509e-08	-3.365821e+01	-1.233505e+03
2.840000e-06	-4.734276e-06	-1.904476e-08	-3.443719e+01	-1.246537e+03
2.850000e-06	-4.839765e-06	-1.923929e-08	-3.520452e+01	-1.258712e+03
2.860000e-06	-4.943409e-06	-1.942069e-08	-3.595843e+01	-1.270161e+03
2.870000e-06	-5.045148e-06	-1.959173e-08	-3.669848e+01	-1.281019e+03
2.880000e-06	-5.145076e-06	-1.975377e-08	-3.742536e+01	-1.291403e+03
2.890000e-06	-5.243243e-06	-1.990852e-08	-3.813942e+01	-1.301405e+03
2.900000e-06	-5.339598e-06	-2.005767e-08	-3.884031e+01	-1.311078e+03
2.910000e-06	-5.433966e-06	-2.019938e-08	-3.952675e+01	-1.320437e+03
2.920000e-06	-5.526342e-06	-2.033190e-08	-4.019869e+01	-1.329460e+03
2.930000e-06	-5.616775e-06	-2.045581e-08	-4.085650e+01	-1.338104e+03
2.940000e-06	-5.705192e-06	-2.057250e-08	-4.149965e+01	-1.346308e+03
