# Temperatura_=_70.74
# Concentracion g/m^3_=_28370.0
# C_Vs_to_Am_M_A/Vsm_=_65563218390.804596
# pendiente_HvsI_1/m_=_3716.3
# ordenada_HvsI_A/m_=_1297.0
# frecuencia_Hz_=_302373.49045367155

Tiempo_(s)	Campo_(V.s)	Magnetizacion_(V.s)	Campo_(kA/m)	Magnetizacion_(A/m)
0.000000e+00	-7.339370e-06	-2.533935e-08	-5.318899e+01	-1.659115e+03
1.000000e-08	-7.335277e-06	-2.533212e-08	-5.315934e+01	-1.658307e+03
2.000000e-08	-7.328828e-06	-2.532040e-08	-5.311260e+01	-1.657422e+03
3.000000e-08	-7.319925e-06	-2.530753e-08	-5.304808e+01	-1.656499e+03
4.000000e-08	-7.308427e-06	-2.529372e-08	-5.296475e+01	-1.655558e+03
5.000000e-08	-7.294219e-06	-2.527815e-08	-5.286178e+01	-1.654594e+03
6.000000e-08	-7.277403e-06	-2.526126e-08	-5.273992e+01	-1.653582e+03
7.000000e-08	-7.258364e-06	-2.524408e-08	-5.260194e+01	-1.652483e+03
8.000000e-08	-7.237180e-06	-2.523956e-08	-5.244841e+01	-1.651246e+03
9.000000e-08	-7.213355e-06	-2.523607e-08	-5.227575e+01	-1.649825e+03
1.000000e-07	-7.186499e-06	-2.518303e-08	-5.208113e+01	-1.648180e+03
1.100000e-07	-7.156876e-06	-2.511834e-08	-5.186645e+01	-1.646291e+03
1.200000e-07	-7.124848e-06	-2.508135e-08	-5.163434e+01	-1.644155e+03
1.300000e-07	-7.090389e-06	-2.504853e-08	-5.138461e+01	-1.641793e+03
1.400000e-07	-7.053668e-06	-2.499885e-08	-5.111849e+01	-1.639238e+03
1.500000e-07	-7.015050e-06	-2.496140e-08	-5.083862e+01	-1.636534e+03
1.600000e-07	-6.974257e-06	-2.494803e-08	-5.054299e+01	-1.633726e+03
1.700000e-07	-6.931013e-06	-2.485685e-08	-5.022960e+01	-1.630846e+03
1.800000e-07	-6.885417e-06	-2.479039e-08	-4.989916e+01	-1.627911e+03
1.900000e-07	-6.837212e-06	-2.478185e-08	-4.954982e+01	-1.624914e+03
2.000000e-07	-6.786141e-06	-2.473910e-08	-4.917970e+01	-1.621823e+03
2.100000e-07	-6.732402e-06	-2.470623e-08	-4.879025e+01	-1.618585e+03
2.200000e-07	-6.676156e-06	-2.465308e-08	-4.838263e+01	-1.615134e+03
2.300000e-07	-6.617350e-06	-2.457184e-08	-4.795646e+01	-1.611399e+03
2.400000e-07	-6.556118e-06	-2.447390e-08	-4.751271e+01	-1.607314e+03
2.500000e-07	-6.492564e-06	-2.439170e-08	-4.705212e+01	-1.602830e+03
2.600000e-07	-6.426483e-06	-2.433014e-08	-4.657323e+01	-1.597925e+03
2.700000e-07	-6.357908e-06	-2.425036e-08	-4.607626e+01	-1.592603e+03
2.800000e-07	-6.287036e-06	-2.417339e-08	-4.556265e+01	-1.586897e+03
2.900000e-07	-6.213711e-06	-2.408095e-08	-4.503125e+01	-1.580864e+03
3.000000e-07	-6.137787e-06	-2.397790e-08	-4.448103e+01	-1.574572e+03
3.100000e-07	-6.059340e-06	-2.388733e-08	-4.391252e+01	-1.568091e+03
3.200000e-07	-5.978477e-06	-2.379696e-08	-4.332650e+01	-1.561480e+03
3.300000e-07	-5.895482e-06	-2.370428e-08	-4.272502e+01	-1.554776e+03
3.400000e-07	-5.810586e-06	-2.359966e-08	-4.210977e+01	-1.547984e+03
3.500000e-07	-5.723755e-06	-2.349392e-08	-4.148050e+01	-1.541078e+03
3.600000e-07	-5.634873e-06	-2.337421e-08	-4.083637e+01	-1.533998e+03
3.700000e-07	-5.543921e-06	-2.325067e-08	-4.017724e+01	-1.526663e+03
3.800000e-07	-5.450996e-06	-2.313155e-08	-3.950380e+01	-1.518981e+03
3.900000e-07	-5.356115e-06	-2.300291e-08	-3.881619e+01	-1.510858e+03
4.000000e-07	-5.259262e-06	-2.286662e-08	-3.811428e+01	-1.502218e+03
4.100000e-07	-5.160538e-06	-2.272137e-08	-3.739882e+01	-1.493012e+03
4.200000e-07	-5.060080e-06	-2.257478e-08	-3.667080e+01	-1.483223e+03
4.300000e-07	-4.957869e-06	-2.241779e-08	-3.593007e+01	-1.472869e+03
4.400000e-07	-4.853859e-06	-2.225476e-08	-3.517630e+01	-1.461999e+03
4.500000e-07	-4.748168e-06	-2.208942e-08	-3.441035e+01	-1.450679e+03
4.600000e-07	-4.640746e-06	-2.192066e-08	-3.363185e+01	-1.438983e+03
4.700000e-07	-4.531648e-06	-2.174403e-08	-3.284121e+01	-1.426974e+03
4.800000e-07	-4.420989e-06	-2.155908e-08	-3.203926e+01	-1.414690e+03
4.900000e-07	-4.308731e-06	-2.136851e-08	-3.122572e+01	-1.402131e+03
5.000000e-07	-4.194780e-06	-2.116444e-08	-3.039990e+01	-1.389256e+03
5.100000e-07	-4.079018e-06	-2.095106e-08	-2.956097e+01	-1.375983e+03
5.200000e-07	-3.961621e-06	-2.072945e-08	-2.871018e+01	-1.362194e+03
5.300000e-07	-3.842742e-06	-2.049983e-08	-2.784866e+01	-1.347752e+03
5.400000e-07	-3.722464e-06	-2.025793e-08	-2.697699e+01	-1.332518e+03
5.500000e-07	-3.600848e-06	-2.000186e-08	-2.609563e+01	-1.316366e+03
5.600000e-07	-3.477834e-06	-1.973441e-08	-2.520413e+01	-1.299200e+03
5.700000e-07	-3.353435e-06	-1.945850e-08	-2.430261e+01	-1.280968e+03
5.800000e-07	-3.227828e-06	-1.917500e-08	-2.339232e+01	-1.261660e+03
5.900000e-07	-3.101098e-06	-1.887909e-08	-2.247390e+01	-1.241305e+03
6.000000e-07	-2.973210e-06	-1.856810e-08	-2.154709e+01	-1.219958e+03
6.100000e-07	-2.844210e-06	-1.823727e-08	-2.061221e+01	-1.197681e+03
6.200000e-07	-2.714120e-06	-1.788370e-08	-1.966944e+01	-1.174515e+03
6.300000e-07	-2.583003e-06	-1.751050e-08	-1.871923e+01	-1.150460e+03
6.400000e-07	-2.450916e-06	-1.712203e-08	-1.776198e+01	-1.125455e+03
6.500000e-07	-2.317937e-06	-1.671518e-08	-1.679827e+01	-1.099360e+03
6.600000e-07	-2.184244e-06	-1.628360e-08	-1.582939e+01	-1.071959e+03
6.700000e-07	-2.049842e-06	-1.582556e-08	-1.485537e+01	-1.042964e+03
6.800000e-07	-1.914693e-06	-1.533862e-08	-1.387593e+01	-1.012037e+03
6.900000e-07	-1.778823e-06	-1.482033e-08	-1.289127e+01	-9.788208e+02
7.000000e-07	-1.642267e-06	-1.426845e-08	-1.190164e+01	-9.429690e+02
7.100000e-07	-1.505123e-06	-1.368158e-08	-1.090774e+01	-9.041861e+02
7.200000e-07	-1.367453e-06	-1.305761e-08	-9.910039e+00	-8.622588e+02
7.300000e-07	-1.229337e-06	-1.238901e-08	-8.909103e+00	-8.170806e+02
7.400000e-07	-1.090830e-06	-1.167037e-08	-7.905331e+00	-7.686646e+02
7.500000e-07	-9.518964e-07	-1.090202e-08	-6.898469e+00	-7.171421e+02
7.600000e-07	-8.125672e-07	-1.008481e-08	-5.888739e+00	-6.627472e+02
7.700000e-07	-6.729228e-07	-9.218836e-09	-4.876725e+00	-6.057892e+02
7.800000e-07	-5.329964e-07	-8.308199e-09	-3.862667e+00	-5.466160e+02
7.900000e-07	-3.928471e-07	-7.359277e-09	-2.846994e+00	-4.855740e+02
8.000000e-07	-2.525069e-07	-6.380405e-09	-1.829938e+00	-4.229699e+02
8.100000e-07	-1.120317e-07	-5.379363e-09	-8.119023e-01	-3.590397e+02
8.200000e-07	2.855054e-08	-4.365505e-09	2.069080e-01	-2.939305e+02
8.300000e-07	1.692221e-07	-3.346531e-09	1.226366e+00	-2.276965e+02
8.400000e-07	3.098307e-07	-2.326075e-09	2.245368e+00	-1.603124e+02
8.500000e-07	4.503056e-07	-1.302709e-09	3.263400e+00	-9.170038e+01
8.600000e-07	5.906205e-07	-2.714764e-10	4.280273e+00	-2.176966e+01
8.700000e-07	7.306812e-07	7.767260e-10	5.295304e+00	4.953851e+01
8.800000e-07	8.704397e-07	1.853503e-09	6.308145e+00	1.222056e+02
8.900000e-07	1.009854e-06	2.962026e-09	7.318489e+00	1.960971e+02
9.000000e-07	1.148880e-06	4.103060e-09	8.326027e+00	2.709360e+02
9.100000e-07	1.287506e-06	5.269970e-09	9.330659e+00	3.462929e+02
9.200000e-07	1.425632e-06	6.448013e-09	1.033167e+01	4.215952e+02
9.300000e-07	1.563211e-06	7.616356e-09	1.132872e+01	4.961540e+02
9.400000e-07	1.700209e-06	8.754058e-09	1.232155e+01	5.692081e+02
9.500000e-07	1.836526e-06	9.843360e-09	1.330945e+01	6.399783e+02
9.600000e-07	1.972144e-06	1.086846e-08	1.429228e+01	7.077267e+02
9.700000e-07	2.106971e-06	1.182286e-08	1.526938e+01	7.718146e+02
9.800000e-07	2.240943e-06	1.270755e-08	1.624029e+01	8.317510e+02
9.900000e-07	2.374150e-06	1.352356e-08	1.720565e+01	8.872271e+02
1.000000e-06	2.506502e-06	1.427094e-08	1.816482e+01	9.381331e+02
1.010000e-06	2.637879e-06	1.495661e-08	1.911692e+01	9.845546e+02
1.020000e-06	2.768256e-06	1.558895e-08	2.006177e+01	1.026751e+03
1.030000e-06	2.897587e-06	1.617299e-08	2.099904e+01	1.065118e+03
1.040000e-06	3.025803e-06	1.671592e-08	2.192823e+01	1.100141e+03
1.050000e-06	3.152874e-06	1.722289e-08	2.284913e+01	1.132339e+03
1.060000e-06	3.278883e-06	1.769524e-08	2.376232e+01	1.162220e+03
1.070000e-06	3.403844e-06	1.813690e-08	2.466793e+01	1.190230e+03
1.080000e-06	3.527610e-06	1.855065e-08	2.556487e+01	1.216732e+03
1.090000e-06	3.650071e-06	1.893874e-08	2.645235e+01	1.241979e+03
1.100000e-06	3.771158e-06	1.930302e-08	2.732988e+01	1.266121e+03
1.110000e-06	3.890823e-06	1.964469e-08	2.819710e+01	1.289213e+03
1.120000e-06	4.009075e-06	1.996716e-08	2.905409e+01	1.311242e+03
1.130000e-06	4.125916e-06	2.027333e-08	2.990084e+01	1.332150e+03
1.140000e-06	4.241216e-06	2.056047e-08	3.073643e+01	1.351873e+03
1.150000e-06	4.354844e-06	2.083029e-08	3.155990e+01	1.370363e+03
1.160000e-06	4.466765e-06	2.108809e-08	3.237100e+01	1.387609e+03
1.170000e-06	4.577107e-06	2.133319e-08	3.317066e+01	1.403652e+03
1.180000e-06	4.686007e-06	2.156641e-08	3.395987e+01	1.418581e+03
1.190000e-06	4.793315e-06	2.178741e-08	3.473753e+01	1.432527e+03
1.200000e-06	4.898864e-06	2.199536e-08	3.550246e+01	1.445648e+03
1.210000e-06	5.002580e-06	2.219204e-08	3.625409e+01	1.458106e+03
1.220000e-06	5.104493e-06	2.237736e-08	3.699267e+01	1.470050e+03
1.230000e-06	5.204582e-06	2.255451e-08	3.771802e+01	1.481596e+03
1.240000e-06	5.302709e-06	2.272443e-08	3.842915e+01	1.492815e+03
1.250000e-06	5.398838e-06	2.288776e-08	3.912581e+01	1.503732e+03
1.260000e-06	5.493031e-06	2.304547e-08	3.980843e+01	1.514324e+03
1.270000e-06	5.585332e-06	2.319427e-08	4.047734e+01	1.524535e+03
1.280000e-06	5.675639e-06	2.333693e-08	4.113181e+01	1.534289e+03
1.290000e-06	5.763810e-06	2.347325e-08	4.177079e+01	1.543506e+03
1.300000e-06	5.849901e-06	2.360209e-08	4.239469e+01	1.552122e+03
1.310000e-06	5.933973e-06	2.372201e-08	4.300397e+01	1.560104e+03
1.320000e-06	6.015957e-06	2.383517e-08	4.359812e+01	1.567450e+03
1.330000e-06	6.095736e-06	2.394327e-08	4.417628e+01	1.574203e+03
1.340000e-06	6.173255e-06	2.404408e-08	4.473807e+01	1.580433e+03
1.350000e-06	6.248375e-06	2.413773e-08	4.528247e+01	1.586239e+03
1.360000e-06	6.321045e-06	2.422623e-08	4.580911e+01	1.591727e+03
1.370000e-06	6.391439e-06	2.431148e-08	4.631927e+01	1.596996e+03
1.380000e-06	6.459630e-06	2.439321e-08	4.681345e+01	1.602128e+03
1.390000e-06	6.525477e-06	2.447154e-08	4.729065e+01	1.607174e+03
1.400000e-06	6.588938e-06	2.454589e-08	4.775055e+01	1.612150e+03
1.410000e-06	6.650206e-06	2.461491e-08	4.819457e+01	1.617039e+03
1.420000e-06	6.709208e-06	2.467908e-08	4.862216e+01	1.621793e+03
1.430000e-06	6.765771e-06	2.474125e-08	4.903208e+01	1.626347e+03
1.440000e-06	6.819875e-06	2.480177e-08	4.942417e+01	1.630631e+03
1.450000e-06	6.871264e-06	2.486016e-08	4.979659e+01	1.634582e+03
1.460000e-06	6.919848e-06	2.491542e-08	5.014869e+01	1.638153e+03
1.470000e-06	6.965949e-06	2.496717e-08	5.048278e+01	1.641327e+03
1.480000e-06	7.009631e-06	2.501412e-08	5.079935e+01	1.644115e+03
1.490000e-06	7.050738e-06	2.505514e-08	5.109726e+01	1.646553e+03
1.500000e-06	7.089292e-06	2.509151e-08	5.137666e+01	1.648699e+03
1.510000e-06	7.125493e-06	2.512519e-08	5.163901e+01	1.650622e+03
1.520000e-06	7.159182e-06	2.515728e-08	5.188316e+01	1.652387e+03
1.530000e-06	7.190201e-06	2.518801e-08	5.210795e+01	1.654051e+03
1.540000e-06	7.218806e-06	2.521542e-08	5.231526e+01	1.655649e+03
1.550000e-06	7.244837e-06	2.523819e-08	5.250391e+01	1.657191e+03
1.560000e-06	7.268097e-06	2.525814e-08	5.267247e+01	1.658661e+03
1.570000e-06	7.288856e-06	2.527493e-08	5.282292e+01	1.660023e+03
1.580000e-06	7.307107e-06	2.528757e-08	5.295519e+01	1.661228e+03
1.590000e-06	7.322629e-06	2.529695e-08	5.306767e+01	1.662221e+03
1.600000e-06	7.335303e-06	2.530342e-08	5.315952e+01	1.662953e+03
1.610000e-06	7.345007e-06	2.530829e-08	5.322985e+01	1.663394e+03
1.620000e-06	7.351926e-06	2.531229e-08	5.327999e+01	1.663531e+03
1.630000e-06	7.356335e-06	2.531544e-08	5.331194e+01	1.663376e+03
1.640000e-06	7.358165e-06	2.531695e-08	5.332520e+01	1.662964e+03
1.650000e-06	7.357394e-06	2.531455e-08	5.331962e+01	1.662344e+03
1.660000e-06	7.354233e-06	2.530672e-08	5.329671e+01	1.661574e+03
1.670000e-06	7.348640e-06	2.529761e-08	5.325617e+01	1.660710e+03
1.680000e-06	7.340516e-06	2.528751e-08	5.319730e+01	1.659797e+03
1.690000e-06	7.329970e-06	2.527343e-08	5.312087e+01	1.658860e+03
1.700000e-06	7.316848e-06	2.525700e-08	5.302578e+01	1.657905e+03
1.710000e-06	7.301189e-06	2.523998e-08	5.291230e+01	1.656913e+03
1.720000e-06	7.283333e-06	2.521655e-08	5.278289e+01	1.655849e+03
1.730000e-06	7.263330e-06	2.516579e-08	5.263792e+01	1.654666e+03
1.740000e-06	7.240617e-06	2.511916e-08	5.247333e+01	1.653314e+03
1.750000e-06	7.214549e-06	2.512233e-08	5.228441e+01	1.651752e+03
1.760000e-06	7.185138e-06	2.511424e-08	5.207126e+01	1.649950e+03
1.770000e-06	7.153066e-06	2.507617e-08	5.183884e+01	1.647900e+03
1.780000e-06	7.118953e-06	2.506067e-08	5.159161e+01	1.645614e+03
1.790000e-06	7.083122e-06	2.505158e-08	5.133195e+01	1.643121e+03
1.800000e-06	7.045559e-06	2.498324e-08	5.105973e+01	1.640464e+03
1.810000e-06	7.005560e-06	2.497100e-08	5.076985e+01	1.637688e+03
1.820000e-06	6.962992e-06	2.497812e-08	5.046135e+01	1.634829e+03
1.830000e-06	6.918246e-06	2.491873e-08	5.013707e+01	1.631912e+03
1.840000e-06	6.870963e-06	2.488542e-08	4.979441e+01	1.628938e+03
1.850000e-06	6.821022e-06	2.479500e-08	4.943248e+01	1.625885e+03
1.860000e-06	6.768458e-06	2.473258e-08	4.905155e+01	1.622705e+03
1.870000e-06	6.713161e-06	2.469848e-08	4.865081e+01	1.619338e+03
1.880000e-06	6.655395e-06	2.464917e-08	4.823218e+01	1.615711e+03
1.890000e-06	6.595042e-06	2.462857e-08	4.779479e+01	1.611756e+03
1.900000e-06	6.532077e-06	2.453703e-08	4.733848e+01	1.607417e+03
1.910000e-06	6.466671e-06	2.445579e-08	4.686448e+01	1.602662e+03
1.920000e-06	6.398893e-06	2.436229e-08	4.637329e+01	1.597486e+03
1.930000e-06	6.328733e-06	2.426842e-08	4.586483e+01	1.591911e+03
1.940000e-06	6.256077e-06	2.422590e-08	4.533829e+01	1.585986e+03
1.950000e-06	6.181013e-06	2.414245e-08	4.479429e+01	1.579776e+03
1.960000e-06	6.103397e-06	2.405436e-08	4.423180e+01	1.573354e+03
1.970000e-06	6.023314e-06	2.394077e-08	4.365143e+01	1.566783e+03
1.980000e-06	5.941146e-06	2.383611e-08	4.305596e+01	1.560109e+03
1.990000e-06	5.856876e-06	2.373620e-08	4.244525e+01	1.553348e+03
2.000000e-06	5.770442e-06	2.362586e-08	4.181885e+01	1.546486e+03
2.010000e-06	5.681882e-06	2.352458e-08	4.117705e+01	1.539476e+03
2.020000e-06	5.591337e-06	2.340114e-08	4.052086e+01	1.532241e+03
2.030000e-06	5.498884e-06	2.327721e-08	3.985085e+01	1.524693e+03
2.040000e-06	5.404472e-06	2.314264e-08	3.916664e+01	1.516736e+03
2.050000e-06	5.308137e-06	2.301470e-08	3.846849e+01	1.508287e+03
2.060000e-06	5.210028e-06	2.288087e-08	3.775749e+01	1.499285e+03
2.070000e-06	5.110172e-06	2.274317e-08	3.703382e+01	1.489703e+03
2.080000e-06	5.008435e-06	2.260090e-08	3.629653e+01	1.479545e+03
2.090000e-06	4.904771e-06	2.244597e-08	3.554526e+01	1.468851e+03
2.100000e-06	4.799372e-06	2.228511e-08	3.478143e+01	1.457682e+03
2.110000e-06	4.692457e-06	2.211434e-08	3.400661e+01	1.446111e+03
2.120000e-06	4.584022e-06	2.193650e-08	3.322077e+01	1.434207e+03
2.130000e-06	4.473980e-06	2.174363e-08	3.242329e+01	1.422018e+03
2.140000e-06	4.362213e-06	2.155030e-08	3.161330e+01	1.409558e+03
2.150000e-06	4.248684e-06	2.135454e-08	3.079055e+01	1.396803e+03
2.160000e-06	4.133457e-06	2.115448e-08	2.995549e+01	1.383682e+03
2.170000e-06	4.016536e-06	2.094598e-08	2.910815e+01	1.370091e+03
2.180000e-06	3.897966e-06	2.072671e-08	2.824887e+01	1.355897e+03
2.190000e-06	3.777835e-06	2.049413e-08	2.737827e+01	1.340961e+03
2.200000e-06	3.656319e-06	2.024990e-08	2.649764e+01	1.325148e+03
2.210000e-06	3.533532e-06	1.999267e-08	2.560779e+01	1.308352e+03
2.220000e-06	3.409410e-06	1.972274e-08	2.470827e+01	1.290503e+03
2.230000e-06	3.283960e-06	1.943984e-08	2.379912e+01	1.271576e+03
2.240000e-06	3.157289e-06	1.913853e-08	2.288112e+01	1.251588e+03
2.250000e-06	3.029440e-06	1.882632e-08	2.195459e+01	1.230587e+03
2.260000e-06	2.900437e-06	1.850520e-08	2.101970e+01	1.208634e+03
2.270000e-06	2.770435e-06	1.817325e-08	2.007756e+01	1.185782e+03
2.280000e-06	2.639475e-06	1.782147e-08	1.912849e+01	1.162047e+03
2.290000e-06	2.507504e-06	1.744651e-08	1.817208e+01	1.137392e+03
2.300000e-06	2.374642e-06	1.704807e-08	1.720922e+01	1.111706e+03
2.310000e-06	2.240988e-06	1.662665e-08	1.624062e+01	1.084799e+03
2.320000e-06	2.106630e-06	1.618168e-08	1.526691e+01	1.056409e+03
2.330000e-06	1.971569e-06	1.570901e-08	1.428812e+01	1.026212e+03
2.340000e-06	1.835753e-06	1.520618e-08	1.330384e+01	9.938533e+02
2.350000e-06	1.699302e-06	1.466812e-08	1.231498e+01	9.589787e+02
2.360000e-06	1.562342e-06	1.408952e-08	1.132242e+01	9.212708e+02
2.370000e-06	1.424884e-06	1.347179e-08	1.032625e+01	8.804834e+02
2.380000e-06	1.286934e-06	1.281664e-08	9.326512e+00	8.364699e+02
2.390000e-06	1.148603e-06	1.211980e-08	8.324019e+00	7.891999e+02
2.400000e-06	1.009857e-06	1.137273e-08	7.318516e+00	7.387636e+02
2.410000e-06	8.706643e-07	1.057276e-08	6.309773e+00	6.853610e+02
2.420000e-06	7.311242e-07	9.722047e-09	5.298515e+00	6.292784e+02
2.430000e-06	5.913470e-07	8.826610e-09	4.285539e+00	5.708544e+02
2.440000e-06	4.513639e-07	7.890605e-09	3.271070e+00	5.104406e+02
2.450000e-06	3.111248e-07	6.918097e-09	2.254746e+00	4.483618e+02
2.460000e-06	1.707070e-07	5.919864e-09	1.237127e+00	3.848823e+02
2.470000e-06	3.023253e-08	4.905178e-09	2.190975e-01	3.201820e+02
2.480000e-06	-1.102802e-07	3.882754e-09	-7.992094e-01	2.543478e+02
2.490000e-06	-2.508272e-07	2.856004e-09	-1.817765e+00	1.873801e+02
2.500000e-06	-3.913017e-07	1.824667e-09	-2.835794e+00	1.192161e+02
2.510000e-06	-5.315927e-07	7.864099e-10	-3.852495e+00	4.976448e+01
2.520000e-06	-6.716866e-07	-2.657134e-10	-4.867766e+00	-2.105016e+01
2.530000e-06	-8.115626e-07	-1.339121e-09	-5.881458e+00	-9.324187e+01
2.540000e-06	-9.511056e-07	-2.437797e-09	-6.892737e+00	-1.667213e+02
2.550000e-06	-1.090231e-06	-3.564824e-09	-7.900987e+00	-2.412645e+02
2.560000e-06	-1.228943e-06	-4.721647e-09	-8.906245e+00	-3.164963e+02
2.570000e-06	-1.367190e-06	-5.901302e-09	-9.908135e+00	-3.918931e+02
2.580000e-06	-1.504937e-06	-7.084959e-09	-1.090639e+01	-4.668034e+02
2.590000e-06	-1.642146e-06	-8.248293e-09	-1.190076e+01	-5.404859e+02
2.600000e-06	-1.778743e-06	-9.370914e-09	-1.289069e+01	-6.121611e+02
2.610000e-06	-1.914611e-06	-1.043659e-08	-1.387534e+01	-6.810696e+02
2.620000e-06	-2.049706e-06	-1.143331e-08	-1.485438e+01	-7.465310e+02
2.630000e-06	-2.184083e-06	-1.235724e-08	-1.582822e+01	-8.079967e+02
2.640000e-06	-2.317675e-06	-1.320793e-08	-1.679638e+01	-8.650901e+02
2.650000e-06	-2.450328e-06	-1.398769e-08	-1.775772e+01	-9.176295e+02
2.660000e-06	-2.581970e-06	-1.470345e-08	-1.871174e+01	-9.656325e+02
2.670000e-06	-2.712648e-06	-1.536425e-08	-1.965877e+01	-1.009300e+03
2.680000e-06	-2.842423e-06	-1.597615e-08	-2.059926e+01	-1.048984e+03
2.690000e-06	-2.971199e-06	-1.654198e-08	-2.153251e+01	-1.085143e+03
2.700000e-06	-3.098817e-06	-1.706691e-08	-2.245737e+01	-1.118291e+03
2.710000e-06	-3.225369e-06	-1.755488e-08	-2.337451e+01	-1.148946e+03
2.720000e-06	-3.350819e-06	-1.801096e-08	-2.428365e+01	-1.177579e+03
2.730000e-06	-3.474932e-06	-1.843630e-08	-2.518311e+01	-1.204586e+03
2.740000e-06	-3.597716e-06	-1.883393e-08	-2.607293e+01	-1.230260e+03
2.750000e-06	-3.719288e-06	-1.921051e-08	-2.695398e+01	-1.254787e+03
2.760000e-06	-3.839545e-06	-1.956291e-08	-2.782548e+01	-1.278254e+03
2.770000e-06	-3.958412e-06	-1.989375e-08	-2.868692e+01	-1.300668e+03
2.780000e-06	-4.075837e-06	-2.020601e-08	-2.953791e+01	-1.321985e+03
2.790000e-06	-4.191632e-06	-2.050038e-08	-3.037709e+01	-1.342140e+03
2.800000e-06	-4.305644e-06	-2.077821e-08	-3.120335e+01	-1.361075e+03
2.810000e-06	-4.417885e-06	-2.104166e-08	-3.201676e+01	-1.378764e+03
2.820000e-06	-4.528430e-06	-2.129296e-08	-3.281789e+01	-1.395231e+03
2.830000e-06	-4.637387e-06	-2.153377e-08	-3.360751e+01	-1.410545e+03
2.840000e-06	-4.744898e-06	-2.176471e-08	-3.438665e+01	-1.424827e+03
2.850000e-06	-4.850892e-06	-2.198392e-08	-3.515480e+01	-1.438225e+03
2.860000e-06	-4.955128e-06	-2.219102e-08	-3.591020e+01	-1.450903e+03
2.870000e-06	-5.057441e-06	-2.238451e-08	-3.665168e+01	-1.463016e+03
2.880000e-06	-5.157857e-06	-2.256695e-08	-3.737940e+01	-1.474695e+03
2.890000e-06	-5.256478e-06	-2.274083e-08	-3.809411e+01	-1.486027e+03
2.900000e-06	-5.353316e-06	-2.290606e-08	-3.879590e+01	-1.497053e+03
2.910000e-06	-5.448245e-06	-2.306163e-08	-3.948386e+01	-1.507767e+03
2.920000e-06	-5.541125e-06	-2.320910e-08	-4.015697e+01	-1.518124e+03
2.930000e-06	-5.631968e-06	-2.335113e-08	-4.081532e+01	-1.528051e+03
2.940000e-06	-5.720815e-06	-2.348902e-08	-4.145920e+01	-1.537469e+03
