# Temperatura_=_43.2
# Concentracion g/m^3_=_28370.0
# C_Vs_to_Am_M_A/Vsm_=_65563218390.804596
# pendiente_HvsI_1/m_=_3716.3
# ordenada_HvsI_A/m_=_1297.0
# frecuencia_Hz_=_302373.0778952327

Tiempo_(s)	Campo_(V.s)	Magnetizacion_(V.s)	Campo_(kA/m)	Magnetizacion_(A/m)
0.000000e+00	-7.328926e-06	-2.215277e-08	-5.318462e+01	-1.450676e+03
1.000000e-08	-7.324889e-06	-2.214873e-08	-5.315533e+01	-1.449951e+03
2.000000e-08	-7.318572e-06	-2.213861e-08	-5.310949e+01	-1.449140e+03
3.000000e-08	-7.309893e-06	-2.212811e-08	-5.304650e+01	-1.448291e+03
4.000000e-08	-7.298605e-06	-2.211672e-08	-5.296459e+01	-1.447434e+03
5.000000e-08	-7.284540e-06	-2.210210e-08	-5.286252e+01	-1.446580e+03
6.000000e-08	-7.267759e-06	-2.208178e-08	-5.274075e+01	-1.445721e+03
7.000000e-08	-7.248775e-06	-2.205989e-08	-5.260298e+01	-1.444827e+03
8.000000e-08	-7.227762e-06	-2.205514e-08	-5.245050e+01	-1.443859e+03
9.000000e-08	-7.204177e-06	-2.208273e-08	-5.227934e+01	-1.442771e+03
1.000000e-07	-7.177575e-06	-2.203728e-08	-5.208629e+01	-1.441519e+03
1.100000e-07	-7.148164e-06	-2.196504e-08	-5.187286e+01	-1.440073e+03
1.200000e-07	-7.116261e-06	-2.193874e-08	-5.164135e+01	-1.438415e+03
1.300000e-07	-7.081859e-06	-2.191890e-08	-5.139171e+01	-1.436548e+03
1.400000e-07	-7.045286e-06	-2.185790e-08	-5.112630e+01	-1.434491e+03
1.500000e-07	-7.006949e-06	-2.180118e-08	-5.084810e+01	-1.432276e+03
1.600000e-07	-6.966414e-06	-2.186118e-08	-5.055394e+01	-1.429939e+03
1.700000e-07	-6.923324e-06	-2.176653e-08	-5.024124e+01	-1.427516e+03
1.800000e-07	-6.877909e-06	-2.167994e-08	-4.991168e+01	-1.425030e+03
1.900000e-07	-6.829871e-06	-2.171172e-08	-4.956307e+01	-1.422489e+03
2.000000e-07	-6.778879e-06	-2.163648e-08	-4.919303e+01	-1.419881e+03
2.100000e-07	-6.725264e-06	-2.161929e-08	-4.880396e+01	-1.417176e+03
2.200000e-07	-6.669189e-06	-2.160373e-08	-4.839704e+01	-1.414326e+03
2.300000e-07	-6.610587e-06	-2.154666e-08	-4.797177e+01	-1.411275e+03
2.400000e-07	-6.549556e-06	-2.146656e-08	-4.752888e+01	-1.407968e+03
2.500000e-07	-6.486203e-06	-2.136771e-08	-4.706914e+01	-1.404359e+03
2.600000e-07	-6.420388e-06	-2.131606e-08	-4.659153e+01	-1.400416e+03
2.700000e-07	-6.352082e-06	-2.124015e-08	-4.609585e+01	-1.396133e+03
2.800000e-07	-6.281496e-06	-2.118263e-08	-4.558362e+01	-1.391524e+03
2.900000e-07	-6.208486e-06	-2.112868e-08	-4.505380e+01	-1.386626e+03
3.000000e-07	-6.132897e-06	-2.104980e-08	-4.450527e+01	-1.381487e+03
3.100000e-07	-6.054670e-06	-2.097398e-08	-4.393759e+01	-1.376165e+03
3.200000e-07	-5.973905e-06	-2.087974e-08	-4.335149e+01	-1.370708e+03
3.300000e-07	-5.891078e-06	-2.081718e-08	-4.275043e+01	-1.365153e+03
3.400000e-07	-5.806393e-06	-2.072605e-08	-4.213589e+01	-1.359512e+03
3.500000e-07	-5.719810e-06	-2.063670e-08	-4.150757e+01	-1.353769e+03
3.600000e-07	-5.631157e-06	-2.055075e-08	-4.086424e+01	-1.347883e+03
3.700000e-07	-5.540372e-06	-2.044416e-08	-4.020543e+01	-1.341789e+03
3.800000e-07	-5.447605e-06	-2.033967e-08	-3.953223e+01	-1.335409e+03
3.900000e-07	-5.352917e-06	-2.022912e-08	-3.884510e+01	-1.328664e+03
4.000000e-07	-5.256325e-06	-2.012109e-08	-3.814415e+01	-1.321480e+03
4.100000e-07	-5.157857e-06	-1.998739e-08	-3.742959e+01	-1.313807e+03
4.200000e-07	-5.057580e-06	-1.986571e-08	-3.670190e+01	-1.305621e+03
4.300000e-07	-4.955520e-06	-1.974006e-08	-3.596127e+01	-1.296926e+03
4.400000e-07	-4.851743e-06	-1.960314e-08	-3.520818e+01	-1.287758e+03
4.500000e-07	-4.746199e-06	-1.945810e-08	-3.444227e+01	-1.278168e+03
4.600000e-07	-4.638907e-06	-1.931241e-08	-3.366367e+01	-1.268221e+03
4.700000e-07	-4.530040e-06	-1.916293e-08	-3.287364e+01	-1.257975e+03
4.800000e-07	-4.419652e-06	-1.900241e-08	-3.207257e+01	-1.247470e+03
4.900000e-07	-4.307667e-06	-1.884563e-08	-3.125992e+01	-1.236717e+03
5.000000e-07	-4.193861e-06	-1.867789e-08	-3.043405e+01	-1.225689e+03
5.100000e-07	-4.078240e-06	-1.849646e-08	-2.959501e+01	-1.214322e+03
5.200000e-07	-3.961038e-06	-1.829808e-08	-2.874450e+01	-1.202518e+03
5.300000e-07	-3.842424e-06	-1.809743e-08	-2.788374e+01	-1.190158e+03
5.400000e-07	-3.722473e-06	-1.788893e-08	-2.701328e+01	-1.177111e+03
5.500000e-07	-3.601098e-06	-1.766990e-08	-2.613249e+01	-1.163255e+03
5.600000e-07	-3.478310e-06	-1.744038e-08	-2.524143e+01	-1.148490e+03
5.700000e-07	-3.354171e-06	-1.719886e-08	-2.434058e+01	-1.132752e+03
5.800000e-07	-3.228811e-06	-1.694919e-08	-2.343087e+01	-1.116013e+03
5.900000e-07	-3.102339e-06	-1.669086e-08	-2.251309e+01	-1.098286e+03
6.000000e-07	-2.974791e-06	-1.642508e-08	-2.158750e+01	-1.079610e+03
6.100000e-07	-2.846144e-06	-1.614026e-08	-2.065393e+01	-1.060037e+03
6.200000e-07	-2.716315e-06	-1.583502e-08	-1.971178e+01	-1.039611e+03
6.300000e-07	-2.585399e-06	-1.550655e-08	-1.876175e+01	-1.018345e+03
6.400000e-07	-2.453526e-06	-1.515760e-08	-1.780477e+01	-9.962027e+02
6.500000e-07	-2.320780e-06	-1.479159e-08	-1.684146e+01	-9.730830e+02
6.600000e-07	-2.187231e-06	-1.441067e-08	-1.587232e+01	-9.488146e+02
6.700000e-07	-2.052979e-06	-1.400968e-08	-1.489808e+01	-9.231601e+02
6.800000e-07	-1.918141e-06	-1.357985e-08	-1.391959e+01	-8.958315e+02
6.900000e-07	-1.782681e-06	-1.312261e-08	-1.293658e+01	-8.665142e+02
7.000000e-07	-1.646504e-06	-1.263436e-08	-1.194837e+01	-8.348980e+02
7.100000e-07	-1.509628e-06	-1.211309e-08	-1.095508e+01	-8.007111e+02
7.200000e-07	-1.372157e-06	-1.155741e-08	-9.957485e+00	-7.637524e+02
7.300000e-07	-1.234214e-06	-1.096626e-08	-8.956457e+00	-7.239174e+02
7.400000e-07	-1.095843e-06	-1.033310e-08	-7.952326e+00	-6.812146e+02
7.500000e-07	-9.570535e-07	-9.655832e-09	-6.945155e+00	-6.357685e+02
7.600000e-07	-8.178813e-07	-8.937313e-09	-5.935209e+00	-5.878097e+02
7.700000e-07	-6.784319e-07	-8.178746e-09	-4.923251e+00	-5.376513e+02
7.800000e-07	-5.387677e-07	-7.383065e-09	-3.909734e+00	-4.856557e+02
7.900000e-07	-3.988518e-07	-6.555331e-09	-2.894391e+00	-4.321958e+02
8.000000e-07	-2.587469e-07	-5.706452e-09	-1.877677e+00	-3.776143e+02
8.100000e-07	-1.185093e-07	-4.842717e-09	-8.599991e-01	-3.221890e+02
8.200000e-07	2.185472e-08	-3.970554e-09	1.585955e-01	-2.661069e+02
8.300000e-07	1.622067e-07	-3.095918e-09	1.177103e+00	-2.094526e+02
8.400000e-07	3.024824e-07	-2.222003e-09	2.195057e+00	-1.522109e+02
8.500000e-07	4.426544e-07	-1.350305e-09	3.212259e+00	-9.428668e+01
8.600000e-07	5.826687e-07	-4.787399e-10	4.228316e+00	-3.553651e+01
8.700000e-07	7.225265e-07	3.993659e-10	5.243238e+00	2.418955e+01
8.800000e-07	8.621263e-07	1.297708e-09	6.256287e+00	8.500270e+01
8.900000e-07	1.001381e-06	2.224707e-09	7.266833e+00	1.469322e+02
9.000000e-07	1.140269e-06	3.181302e-09	8.274712e+00	2.098906e+02
9.100000e-07	1.278747e-06	4.160440e-09	9.279620e+00	2.736517e+02
9.200000e-07	1.416825e-06	5.154582e-09	1.028163e+01	3.378454e+02
9.300000e-07	1.554342e-06	6.152877e-09	1.127956e+01	4.019701e+02
9.400000e-07	1.691110e-06	7.140769e-09	1.227206e+01	4.654216e+02
9.500000e-07	1.827134e-06	8.103498e-09	1.325916e+01	5.275362e+02
9.600000e-07	1.962450e-06	9.023902e-09	1.424113e+01	5.876415e+02
9.700000e-07	2.096989e-06	9.890583e-09	1.521745e+01	6.451107e+02
9.800000e-07	2.230744e-06	1.069755e-08	1.618808e+01	6.994122e+02
9.900000e-07	2.363765e-06	1.144244e-08	1.715339e+01	7.501510e+02
1.000000e-06	2.495971e-06	1.212791e-08	1.811279e+01	7.970947e+02
1.010000e-06	2.627280e-06	1.276175e-08	1.906567e+01	8.401837e+02
1.020000e-06	2.757597e-06	1.335026e-08	2.001136e+01	8.795234e+02
1.030000e-06	2.886762e-06	1.389572e-08	2.094869e+01	9.153613e+02
1.040000e-06	3.014757e-06	1.439817e-08	2.187752e+01	9.480512e+02
1.050000e-06	3.141670e-06	1.486294e-08	2.279850e+01	9.780099e+02
1.060000e-06	3.267554e-06	1.529686e-08	2.371202e+01	1.005672e+03
1.070000e-06	3.392430e-06	1.570455e-08	2.461822e+01	1.031448e+03
1.080000e-06	3.516134e-06	1.608539e-08	2.551592e+01	1.055691e+03
1.090000e-06	3.638540e-06	1.644168e-08	2.640419e+01	1.078673e+03
1.100000e-06	3.759538e-06	1.677659e-08	2.728225e+01	1.100579e+03
1.110000e-06	3.879077e-06	1.709054e-08	2.814972e+01	1.121503e+03
1.120000e-06	3.997275e-06	1.738474e-08	2.900746e+01	1.141473e+03
1.130000e-06	4.114088e-06	1.766187e-08	2.985515e+01	1.160464e+03
1.140000e-06	4.229304e-06	1.792408e-08	3.069125e+01	1.178426e+03
1.150000e-06	4.342781e-06	1.817225e-08	3.151474e+01	1.195314e+03
1.160000e-06	4.454594e-06	1.840635e-08	3.232614e+01	1.211103e+03
1.170000e-06	4.564931e-06	1.862691e-08	3.312684e+01	1.225803e+03
1.180000e-06	4.673805e-06	1.883484e-08	3.391692e+01	1.239470e+03
1.190000e-06	4.781147e-06	1.903149e-08	3.469588e+01	1.252195e+03
1.200000e-06	4.886740e-06	1.921870e-08	3.546214e+01	1.264101e+03
1.210000e-06	4.990401e-06	1.939737e-08	3.621439e+01	1.275323e+03
1.220000e-06	5.092265e-06	1.956770e-08	3.695360e+01	1.285992e+03
1.230000e-06	5.192377e-06	1.972795e-08	3.768010e+01	1.296221e+03
1.240000e-06	5.290542e-06	1.988036e-08	3.839246e+01	1.306091e+03
1.250000e-06	5.386569e-06	2.002540e-08	3.908930e+01	1.315641e+03
1.260000e-06	5.480622e-06	2.016392e-08	3.977183e+01	1.324876e+03
1.270000e-06	5.572885e-06	2.029380e-08	4.044137e+01	1.333765e+03
1.280000e-06	5.663153e-06	2.041607e-08	4.109643e+01	1.342255e+03
1.290000e-06	5.751263e-06	2.053222e-08	4.173582e+01	1.350286e+03
1.300000e-06	5.837329e-06	2.064262e-08	4.236038e+01	1.357807e+03
1.310000e-06	5.921431e-06	2.074611e-08	4.297070e+01	1.364785e+03
1.320000e-06	6.003384e-06	2.084255e-08	4.356542e+01	1.371216e+03
1.330000e-06	6.083095e-06	2.093345e-08	4.414386e+01	1.377128e+03
1.340000e-06	6.160597e-06	2.101987e-08	4.470628e+01	1.382581e+03
1.350000e-06	6.235767e-06	2.110186e-08	4.525177e+01	1.387654e+03
1.360000e-06	6.308491e-06	2.117886e-08	4.577952e+01	1.392442e+03
1.370000e-06	6.378876e-06	2.125319e-08	4.629029e+01	1.397033e+03
1.380000e-06	6.447094e-06	2.132491e-08	4.678534e+01	1.401503e+03
1.390000e-06	6.512992e-06	2.139368e-08	4.726355e+01	1.405904e+03
1.400000e-06	6.576503e-06	2.145901e-08	4.772443e+01	1.410255e+03
1.410000e-06	6.637803e-06	2.152132e-08	4.816927e+01	1.414544e+03
1.420000e-06	6.696864e-06	2.158021e-08	4.859787e+01	1.418731e+03
1.430000e-06	6.753513e-06	2.163621e-08	4.900896e+01	1.422754e+03
1.440000e-06	6.807711e-06	2.168797e-08	4.940226e+01	1.426545e+03
1.450000e-06	6.859282e-06	2.173662e-08	4.977650e+01	1.430038e+03
1.460000e-06	6.908009e-06	2.178379e-08	5.013011e+01	1.433183e+03
1.470000e-06	6.954096e-06	2.182842e-08	5.046455e+01	1.435954e+03
1.480000e-06	6.997823e-06	2.186945e-08	5.078187e+01	1.438351e+03
1.490000e-06	7.039003e-06	2.190415e-08	5.108071e+01	1.440403e+03
1.500000e-06	7.077586e-06	2.193330e-08	5.136069e+01	1.442162e+03
1.510000e-06	7.113832e-06	2.195877e-08	5.162372e+01	1.443693e+03
1.520000e-06	7.147569e-06	2.198208e-08	5.186855e+01	1.445068e+03
1.530000e-06	7.178686e-06	2.200644e-08	5.209436e+01	1.446348e+03
1.540000e-06	7.207397e-06	2.203013e-08	5.230271e+01	1.447581e+03
1.550000e-06	7.233572e-06	2.205030e-08	5.249266e+01	1.448790e+03
1.560000e-06	7.256992e-06	2.206662e-08	5.266261e+01	1.449974e+03
1.570000e-06	7.277850e-06	2.207986e-08	5.281397e+01	1.451109e+03
1.580000e-06	7.296202e-06	2.209090e-08	5.294715e+01	1.452151e+03
1.590000e-06	7.311834e-06	2.209919e-08	5.306059e+01	1.453048e+03
1.600000e-06	7.324677e-06	2.210573e-08	5.315379e+01	1.453749e+03
1.610000e-06	7.334648e-06	2.211277e-08	5.322615e+01	1.454210e+03
1.620000e-06	7.341803e-06	2.211879e-08	5.327806e+01	1.454409e+03
1.630000e-06	7.346356e-06	2.212258e-08	5.331111e+01	1.454341e+03
1.640000e-06	7.348298e-06	2.212277e-08	5.332520e+01	1.454025e+03
1.650000e-06	7.347630e-06	2.212114e-08	5.332035e+01	1.453500e+03
1.660000e-06	7.344571e-06	2.211206e-08	5.329816e+01	1.452817e+03
1.670000e-06	7.339073e-06	2.210459e-08	5.325826e+01	1.452030e+03
1.680000e-06	7.331054e-06	2.209815e-08	5.320007e+01	1.451189e+03
1.690000e-06	7.320610e-06	2.208735e-08	5.312427e+01	1.450331e+03
1.700000e-06	7.307571e-06	2.207574e-08	5.302965e+01	1.449475e+03
1.710000e-06	7.291996e-06	2.206584e-08	5.291662e+01	1.448619e+03
1.720000e-06	7.274193e-06	2.205516e-08	5.278744e+01	1.447741e+03
1.730000e-06	7.254326e-06	2.200295e-08	5.264327e+01	1.446803e+03
1.740000e-06	7.231862e-06	2.193175e-08	5.248025e+01	1.445762e+03
1.750000e-06	7.206021e-06	2.195451e-08	5.229272e+01	1.444572e+03
1.760000e-06	7.176753e-06	2.196122e-08	5.208033e+01	1.443197e+03
1.770000e-06	7.144736e-06	2.191361e-08	5.184799e+01	1.441614e+03
1.780000e-06	7.110678e-06	2.191581e-08	5.160084e+01	1.439820e+03
1.790000e-06	7.074997e-06	2.195725e-08	5.134191e+01	1.437827e+03
1.800000e-06	7.037682e-06	2.183923e-08	5.107112e+01	1.435663e+03
1.810000e-06	6.997900e-06	2.183591e-08	5.078243e+01	1.433364e+03
1.820000e-06	6.955452e-06	2.188761e-08	5.047439e+01	1.430967e+03
1.830000e-06	6.910829e-06	2.177624e-08	5.015057e+01	1.428500e+03
1.840000e-06	6.863709e-06	2.181993e-08	4.980863e+01	1.425978e+03
1.850000e-06	6.813966e-06	2.172388e-08	4.944766e+01	1.423396e+03
1.860000e-06	6.761523e-06	2.165629e-08	4.906709e+01	1.420729e+03
1.870000e-06	6.706260e-06	2.163235e-08	4.866605e+01	1.417936e+03
1.880000e-06	6.648648e-06	2.152951e-08	4.824797e+01	1.414962e+03
1.890000e-06	6.588548e-06	2.158253e-08	4.781184e+01	1.411752e+03
1.900000e-06	6.525815e-06	2.150123e-08	4.735660e+01	1.408254e+03
1.910000e-06	6.460618e-06	2.144370e-08	4.688348e+01	1.404431e+03
1.920000e-06	6.393098e-06	2.138938e-08	4.639350e+01	1.400268e+03
1.930000e-06	6.323224e-06	2.127027e-08	4.588643e+01	1.395771e+03
1.940000e-06	6.250782e-06	2.124363e-08	4.536074e+01	1.390970e+03
1.950000e-06	6.175902e-06	2.115216e-08	4.481734e+01	1.385910e+03
1.960000e-06	6.098503e-06	2.111284e-08	4.425567e+01	1.380646e+03
1.970000e-06	6.018617e-06	2.101332e-08	4.367596e+01	1.375231e+03
1.980000e-06	5.936605e-06	2.092704e-08	4.308081e+01	1.369707e+03
1.990000e-06	5.852597e-06	2.085852e-08	4.247118e+01	1.364096e+03
2.000000e-06	5.766478e-06	2.073946e-08	4.184624e+01	1.358392e+03
2.010000e-06	5.678149e-06	2.066916e-08	4.120525e+01	1.352562e+03
2.020000e-06	5.587832e-06	2.055987e-08	4.054984e+01	1.346550e+03
2.030000e-06	5.495581e-06	2.046460e-08	3.988038e+01	1.340281e+03
2.040000e-06	5.401330e-06	2.034594e-08	3.919642e+01	1.333673e+03
2.050000e-06	5.305174e-06	2.024859e-08	3.849864e+01	1.326652e+03
2.060000e-06	5.207208e-06	2.014266e-08	3.778772e+01	1.319158e+03
2.070000e-06	5.107565e-06	2.001601e-08	3.706463e+01	1.311154e+03
2.080000e-06	5.006094e-06	1.989664e-08	3.632827e+01	1.302638e+03
2.090000e-06	4.902681e-06	1.976414e-08	3.557782e+01	1.293632e+03
2.100000e-06	4.797499e-06	1.963509e-08	3.481454e+01	1.284185e+03
2.110000e-06	4.690746e-06	1.948730e-08	3.403985e+01	1.274357e+03
2.120000e-06	4.582454e-06	1.934534e-08	3.325400e+01	1.264211e+03
2.130000e-06	4.472545e-06	1.917812e-08	3.245641e+01	1.253795e+03
2.140000e-06	4.360945e-06	1.900508e-08	3.164655e+01	1.243130e+03
2.150000e-06	4.247616e-06	1.883224e-08	3.082414e+01	1.232204e+03
2.160000e-06	4.132608e-06	1.866848e-08	2.998955e+01	1.220967e+03
2.170000e-06	4.015958e-06	1.849799e-08	2.914304e+01	1.209331e+03
2.180000e-06	3.897631e-06	1.831225e-08	2.828437e+01	1.197183e+03
2.190000e-06	3.777658e-06	1.811438e-08	2.741375e+01	1.184395e+03
2.200000e-06	3.656285e-06	1.790002e-08	2.653297e+01	1.170840e+03
2.210000e-06	3.533639e-06	1.767743e-08	2.564294e+01	1.156408e+03
2.220000e-06	3.409773e-06	1.744456e-08	2.474408e+01	1.141022e+03
2.230000e-06	3.284585e-06	1.720464e-08	2.383561e+01	1.124640e+03
2.240000e-06	3.158058e-06	1.694033e-08	2.291743e+01	1.107261e+03
2.250000e-06	3.030365e-06	1.666332e-08	2.199078e+01	1.088917e+03
2.260000e-06	2.901558e-06	1.637487e-08	2.105606e+01	1.069657e+03
2.270000e-06	2.771721e-06	1.608038e-08	2.011385e+01	1.049531e+03
2.280000e-06	2.640974e-06	1.577361e-08	1.916505e+01	1.028565e+03
2.290000e-06	2.509388e-06	1.544925e-08	1.821015e+01	1.006743e+03
2.300000e-06	2.376902e-06	1.510079e-08	1.724872e+01	9.839876e+02
2.310000e-06	2.243450e-06	1.472623e-08	1.628029e+01	9.601524e+02
2.320000e-06	2.109178e-06	1.433052e-08	1.530590e+01	9.350227e+02
2.330000e-06	1.974220e-06	1.391183e-08	1.432654e+01	9.083263e+02
2.340000e-06	1.838544e-06	1.346989e-08	1.334197e+01	8.797547e+02
2.350000e-06	1.702275e-06	1.299844e-08	1.235309e+01	8.489924e+02
2.360000e-06	1.565511e-06	1.249218e-08	1.136062e+01	8.157499e+02
2.370000e-06	1.428223e-06	1.194546e-08	1.036434e+01	7.797975e+02
2.380000e-06	1.290456e-06	1.136074e-08	9.364597e+00	7.409938e+02
2.390000e-06	1.152269e-06	1.074100e-08	8.361800e+00	6.993058e+02
2.400000e-06	1.013706e-06	1.008083e-08	7.356270e+00	6.548171e+02
2.410000e-06	8.747599e-07	9.378279e-09	6.347966e+00	6.077223e+02
2.420000e-06	7.355472e-07	8.633157e-09	5.337726e+00	5.583085e+02
2.430000e-06	5.961364e-07	7.848732e-09	4.326049e+00	5.069249e+02
2.440000e-06	4.564737e-07	7.029500e-09	3.312543e+00	4.539452e+02
2.450000e-06	3.166329e-07	6.179058e-09	2.297745e+00	3.997272e+02
2.460000e-06	1.766624e-07	5.311163e-09	1.282005e+00	3.445756e+02
2.470000e-06	3.658208e-08	4.435082e-09	2.654692e-01	2.887120e+02
2.480000e-06	-1.035780e-07	3.557473e-09	-7.516459e-01	2.322577e+02
2.490000e-06	-2.437645e-07	2.682472e-09	-1.768953e+00	1.752321e+02
2.500000e-06	-3.838767e-07	1.808526e-09	-2.785720e+00	1.175653e+02
2.510000e-06	-5.238364e-07	9.310723e-10	-3.801381e+00	5.912690e+01
2.520000e-06	-6.635939e-07	4.428591e-11	-4.815575e+00	-2.359524e-01
2.530000e-06	-8.031426e-07	-8.548910e-10	-5.828253e+00	-6.065346e+01
2.540000e-06	-9.424461e-07	-1.773858e-09	-6.839152e+00	-1.221887e+02
2.550000e-06	-1.081352e-06	-2.717070e-09	-7.847166e+00	-1.847992e+02
2.560000e-06	-1.219770e-06	-3.685426e-09	-8.851638e+00	-2.483098e+02
2.570000e-06	-1.357755e-06	-4.680242e-09	-9.852970e+00	-3.124013e+02
2.580000e-06	-1.495321e-06	-5.690937e-09	-1.085126e+01	-3.766165e+02
2.590000e-06	-1.632391e-06	-6.699576e-09	-1.184595e+01	-4.403836e+02
2.600000e-06	-1.768843e-06	-7.684870e-09	-1.283616e+01	-5.030546e+02
2.610000e-06	-1.904625e-06	-8.630465e-09	-1.382150e+01	-5.639541e+02
2.620000e-06	-2.039671e-06	-9.526104e-09	-1.480150e+01	-6.224327e+02
2.630000e-06	-2.173919e-06	-1.036497e-08	-1.577571e+01	-6.779198e+02
2.640000e-06	-2.307307e-06	-1.114376e-08	-1.674369e+01	-7.299676e+02
2.650000e-06	-2.439750e-06	-1.186444e-08	-1.770480e+01	-7.782836e+02
2.660000e-06	-2.571251e-06	-1.253081e-08	-1.865908e+01	-8.227464e+02
2.670000e-06	-2.701810e-06	-1.314552e-08	-1.960652e+01	-8.634045e+02
2.680000e-06	-2.831449e-06	-1.371293e-08	-2.054729e+01	-9.004582e+02
2.690000e-06	-2.960119e-06	-1.423470e-08	-2.148102e+01	-9.342279e+02
2.700000e-06	-3.087756e-06	-1.471738e-08	-2.240725e+01	-9.651132e+02
2.710000e-06	-3.214266e-06	-1.516594e-08	-2.332532e+01	-9.935473e+02
2.720000e-06	-3.339543e-06	-1.558424e-08	-2.423443e+01	-1.019954e+03
2.730000e-06	-3.463557e-06	-1.597558e-08	-2.513437e+01	-1.044710e+03
2.740000e-06	-3.586360e-06	-1.634103e-08	-2.602553e+01	-1.068118e+03
2.750000e-06	-3.707953e-06	-1.668350e-08	-2.690791e+01	-1.090393e+03
2.760000e-06	-3.828222e-06	-1.700519e-08	-2.778068e+01	-1.111663e+03
2.770000e-06	-3.947054e-06	-1.730924e-08	-2.864302e+01	-1.131976e+03
2.780000e-06	-4.064311e-06	-1.759587e-08	-2.949393e+01	-1.151322e+03
2.790000e-06	-4.179920e-06	-1.786512e-08	-3.033288e+01	-1.169659e+03
2.800000e-06	-4.293854e-06	-1.811805e-08	-3.115968e+01	-1.186936e+03
2.810000e-06	-4.406085e-06	-1.835705e-08	-3.197412e+01	-1.203119e+03
2.820000e-06	-4.516577e-06	-1.858657e-08	-3.277594e+01	-1.218205e+03
2.830000e-06	-4.625483e-06	-1.880706e-08	-3.356625e+01	-1.232233e+03
2.840000e-06	-4.732916e-06	-1.901605e-08	-3.434587e+01	-1.245283e+03
2.850000e-06	-4.838791e-06	-1.921220e-08	-3.511419e+01	-1.257468e+03
2.860000e-06	-4.942927e-06	-1.939604e-08	-3.586988e+01	-1.268919e+03
2.870000e-06	-5.045144e-06	-1.956816e-08	-3.661165e+01	-1.279772e+03
2.880000e-06	-5.145446e-06	-1.973077e-08	-3.733953e+01	-1.290149e+03
2.890000e-06	-5.243980e-06	-1.988661e-08	-3.805456e+01	-1.300141e+03
2.900000e-06	-5.340816e-06	-2.003420e-08	-3.875729e+01	-1.309804e+03
2.910000e-06	-5.435689e-06	-2.017203e-08	-3.944576e+01	-1.319155e+03
2.920000e-06	-5.528447e-06	-2.030253e-08	-4.011889e+01	-1.328173e+03
2.930000e-06	-5.619265e-06	-2.042766e-08	-4.077794e+01	-1.336813e+03
2.940000e-06	-5.708155e-06	-2.054701e-08	-4.142300e+01	-1.345017e+03
