# Temperatura_=_70.33
# Concentracion g/m^3_=_28370.0
# C_Vs_to_Am_M_A/Vsm_=_65563218390.804596
# pendiente_HvsI_1/m_=_3716.3
# ordenada_HvsI_A/m_=_1297.0
# frecuencia_Hz_=_302371.92567663244

Tiempo_(s)	Campo_(V.s)	Magnetizacion_(V.s)	Campo_(kA/m)	Magnetizacion_(A/m)
0.000000e+00	-7.334828e-06	-2.525070e-08	-5.318794e+01	-1.653007e+03
1.000000e-08	-7.330852e-06	-2.524426e-08	-5.315911e+01	-1.652207e+03
2.000000e-08	-7.324484e-06	-2.523273e-08	-5.311293e+01	-1.651323e+03
3.000000e-08	-7.315718e-06	-2.521954e-08	-5.304937e+01	-1.650395e+03
4.000000e-08	-7.304359e-06	-2.520471e-08	-5.296700e+01	-1.649446e+03
5.000000e-08	-7.290259e-06	-2.518754e-08	-5.286475e+01	-1.648476e+03
6.000000e-08	-7.273482e-06	-2.516949e-08	-5.274310e+01	-1.647464e+03
7.000000e-08	-7.254532e-06	-2.515289e-08	-5.260568e+01	-1.646372e+03
8.000000e-08	-7.233562e-06	-2.514618e-08	-5.245362e+01	-1.645151e+03
9.000000e-08	-7.209964e-06	-2.514729e-08	-5.228250e+01	-1.643754e+03
1.000000e-07	-7.183361e-06	-2.510382e-08	-5.208959e+01	-1.642140e+03
1.100000e-07	-7.153940e-06	-2.503420e-08	-5.187624e+01	-1.640285e+03
1.200000e-07	-7.122003e-06	-2.499191e-08	-5.164466e+01	-1.638185e+03
1.300000e-07	-7.087604e-06	-2.495927e-08	-5.139521e+01	-1.635853e+03
1.400000e-07	-7.051028e-06	-2.491034e-08	-5.112999e+01	-1.633323e+03
1.500000e-07	-7.012635e-06	-2.486455e-08	-5.085159e+01	-1.630636e+03
1.600000e-07	-6.972098e-06	-2.485828e-08	-5.055763e+01	-1.627834e+03
1.700000e-07	-6.929053e-06	-2.479672e-08	-5.024550e+01	-1.624954e+03
1.800000e-07	-6.883635e-06	-2.470843e-08	-4.991615e+01	-1.622013e+03
1.900000e-07	-6.835609e-06	-2.469371e-08	-4.956789e+01	-1.619008e+03
2.000000e-07	-6.784686e-06	-2.463720e-08	-4.919863e+01	-1.615913e+03
2.100000e-07	-6.731094e-06	-2.459108e-08	-4.881001e+01	-1.612679e+03
2.200000e-07	-6.674994e-06	-2.456878e-08	-4.840320e+01	-1.609243e+03
2.300000e-07	-6.616396e-06	-2.449452e-08	-4.797829e+01	-1.605535e+03
2.400000e-07	-6.555400e-06	-2.440695e-08	-4.753598e+01	-1.601493e+03
2.500000e-07	-6.492050e-06	-2.431323e-08	-4.707660e+01	-1.597066e+03
2.600000e-07	-6.426170e-06	-2.423929e-08	-4.659888e+01	-1.592229e+03
2.700000e-07	-6.357831e-06	-2.416245e-08	-4.610333e+01	-1.586984e+03
2.800000e-07	-6.287180e-06	-2.409119e-08	-4.559100e+01	-1.581359e+03
2.900000e-07	-6.214089e-06	-2.401166e-08	-4.506099e+01	-1.575407e+03
3.000000e-07	-6.138459e-06	-2.391797e-08	-4.451256e+01	-1.569194e+03
3.100000e-07	-6.060250e-06	-2.382710e-08	-4.394544e+01	-1.562789e+03
3.200000e-07	-5.979556e-06	-2.371907e-08	-4.336029e+01	-1.556248e+03
3.300000e-07	-5.896718e-06	-2.361953e-08	-4.275960e+01	-1.549612e+03
3.400000e-07	-5.811941e-06	-2.352767e-08	-4.214484e+01	-1.542886e+03
3.500000e-07	-5.725289e-06	-2.342444e-08	-4.151649e+01	-1.536049e+03
3.600000e-07	-5.636677e-06	-2.330846e-08	-4.087393e+01	-1.529044e+03
3.700000e-07	-5.545935e-06	-2.318890e-08	-4.021592e+01	-1.521794e+03
3.800000e-07	-5.453173e-06	-2.306730e-08	-3.954327e+01	-1.514206e+03
3.900000e-07	-5.358470e-06	-2.293725e-08	-3.885653e+01	-1.506190e+03
4.000000e-07	-5.261828e-06	-2.280206e-08	-3.815574e+01	-1.497669e+03
4.100000e-07	-5.163321e-06	-2.266134e-08	-3.744143e+01	-1.488590e+03
4.200000e-07	-5.063003e-06	-2.251673e-08	-3.671398e+01	-1.478932e+03
4.300000e-07	-4.960958e-06	-2.236292e-08	-3.597401e+01	-1.468712e+03
4.400000e-07	-4.857183e-06	-2.220141e-08	-3.522149e+01	-1.457971e+03
4.500000e-07	-4.751649e-06	-2.203838e-08	-3.445622e+01	-1.446775e+03
4.600000e-07	-4.644328e-06	-2.187326e-08	-3.367799e+01	-1.435194e+03
4.700000e-07	-4.535335e-06	-2.169658e-08	-3.288763e+01	-1.423291e+03
4.800000e-07	-4.424813e-06	-2.151169e-08	-3.208619e+01	-1.411103e+03
4.900000e-07	-4.312667e-06	-2.132257e-08	-3.127297e+01	-1.398633e+03
5.000000e-07	-4.198786e-06	-2.112205e-08	-3.044717e+01	-1.385844e+03
5.100000e-07	-4.083144e-06	-2.090931e-08	-2.960860e+01	-1.372657e+03
5.200000e-07	-3.965877e-06	-2.068686e-08	-2.875825e+01	-1.358957e+03
5.300000e-07	-3.847191e-06	-2.045742e-08	-2.789761e+01	-1.344612e+03
5.400000e-07	-3.727114e-06	-2.021830e-08	-2.702688e+01	-1.329482e+03
5.500000e-07	-3.605562e-06	-1.996689e-08	-2.614545e+01	-1.313443e+03
5.600000e-07	-3.482615e-06	-1.970314e-08	-2.525392e+01	-1.296398e+03
5.700000e-07	-3.358334e-06	-1.943054e-08	-2.435270e+01	-1.278292e+03
5.800000e-07	-3.232834e-06	-1.914689e-08	-2.344265e+01	-1.259113e+03
5.900000e-07	-3.106229e-06	-1.885034e-08	-2.252458e+01	-1.238888e+03
6.000000e-07	-2.978463e-06	-1.853959e-08	-2.159810e+01	-1.217671e+03
6.100000e-07	-2.849588e-06	-1.821271e-08	-2.066357e+01	-1.195522e+03
6.200000e-07	-2.719631e-06	-1.786497e-08	-1.972119e+01	-1.172486e+03
6.300000e-07	-2.588665e-06	-1.749573e-08	-1.877151e+01	-1.148566e+03
6.400000e-07	-2.456739e-06	-1.710870e-08	-1.781485e+01	-1.123704e+03
6.500000e-07	-2.323854e-06	-1.670293e-08	-1.685125e+01	-1.097768e+03
6.600000e-07	-2.190227e-06	-1.627620e-08	-1.588226e+01	-1.070547e+03
6.700000e-07	-2.055967e-06	-1.582287e-08	-1.490869e+01	-1.041758e+03
6.800000e-07	-1.920981e-06	-1.534028e-08	-1.392985e+01	-1.011068e+03
6.900000e-07	-1.785293e-06	-1.482563e-08	-1.294591e+01	-9.781184e+02
7.000000e-07	-1.648942e-06	-1.427669e-08	-1.195718e+01	-9.425630e+02
7.100000e-07	-1.511974e-06	-1.369296e-08	-1.096396e+01	-9.041019e+02
7.200000e-07	-1.374434e-06	-1.307160e-08	-9.966603e+00	-8.625152e+02
7.300000e-07	-1.236410e-06	-1.240711e-08	-8.965732e+00	-8.176887e+02
7.400000e-07	-1.097951e-06	-1.169489e-08	-7.961706e+00	-7.696270e+02
7.500000e-07	-9.590690e-07	-1.093255e-08	-6.954615e+00	-7.184539e+02
7.600000e-07	-8.198749e-07	-1.011991e-08	-5.945260e+00	-6.643982e+02
7.700000e-07	-6.804298e-07	-9.259711e-09	-4.934084e+00	-6.077664e+02
7.800000e-07	-5.407052e-07	-8.354724e-09	-3.920882e+00	-5.489072e+02
7.900000e-07	-4.007131e-07	-7.411712e-09	-2.905740e+00	-4.881712e+02
8.000000e-07	-2.605326e-07	-6.438501e-09	-1.889232e+00	-4.258719e+02
8.100000e-07	-1.202479e-07	-5.442959e-09	-8.719687e-01	-3.622544e+02
8.200000e-07	2.013834e-08	-4.435799e-09	1.460316e-01	-2.974749e+02
8.300000e-07	1.606120e-07	-3.422090e-09	1.164666e+00	-2.315960e+02
8.400000e-07	3.010820e-07	-2.404309e-09	2.183273e+00	-1.645977e+02
8.500000e-07	4.413952e-07	-1.384438e-09	3.200744e+00	-9.640389e+01
8.600000e-07	5.815006e-07	-3.580825e-10	4.216707e+00	-2.692041e+01
8.700000e-07	7.214269e-07	6.841559e-10	5.231372e+00	4.392008e+01
8.800000e-07	8.610928e-07	1.752803e-09	6.244148e+00	1.161124e+02
8.900000e-07	1.000436e-06	2.853248e-09	7.254584e+00	1.895393e+02
9.000000e-07	1.139462e-06	3.984902e-09	8.262722e+00	2.639429e+02
9.100000e-07	1.278122e-06	5.142580e-09	9.268201e+00	3.389137e+02
9.200000e-07	1.416320e-06	6.312994e-09	1.027033e+01	4.138967e+02
9.300000e-07	1.553929e-06	7.477858e-09	1.126820e+01	4.882172e+02
9.400000e-07	1.690894e-06	8.617080e-09	1.226139e+01	5.611227e+02
9.500000e-07	1.827131e-06	9.710091e-09	1.324930e+01	6.318362e+02
9.600000e-07	1.962569e-06	1.074087e-08	1.423142e+01	6.996156e+02
9.700000e-07	2.097271e-06	1.170048e-08	1.520820e+01	7.638115e+02
9.800000e-07	2.231230e-06	1.258816e-08	1.617959e+01	8.239169e+02
9.900000e-07	2.364382e-06	1.340587e-08	1.714514e+01	8.796039e+02
1.000000e-06	2.496623e-06	1.415531e-08	1.810407e+01	9.307417e+02
1.010000e-06	2.627953e-06	1.484293e-08	1.905640e+01	9.773956e+02
1.020000e-06	2.758367e-06	1.547774e-08	2.000208e+01	1.019807e+03
1.030000e-06	2.887716e-06	1.606621e-08	2.094005e+01	1.058359e+03
1.040000e-06	3.015901e-06	1.661301e-08	2.186958e+01	1.093526e+03
1.050000e-06	3.142957e-06	1.712165e-08	2.279091e+01	1.125825e+03
1.060000e-06	3.268973e-06	1.759387e-08	2.370471e+01	1.155766e+03
1.070000e-06	3.393924e-06	1.803551e-08	2.461078e+01	1.183801e+03
1.080000e-06	3.517689e-06	1.844936e-08	2.550825e+01	1.210300e+03
1.090000e-06	3.640198e-06	1.883754e-08	2.639662e+01	1.235528e+03
1.100000e-06	3.761359e-06	1.920240e-08	2.727520e+01	1.259645e+03
1.110000e-06	3.881113e-06	1.954546e-08	2.814359e+01	1.282715e+03
1.120000e-06	3.999462e-06	1.986865e-08	2.900179e+01	1.304729e+03
1.130000e-06	4.116384e-06	2.017478e-08	2.984964e+01	1.325634e+03
1.140000e-06	4.231817e-06	2.046423e-08	3.068669e+01	1.345366e+03
1.150000e-06	4.345520e-06	2.073590e-08	3.151120e+01	1.363875e+03
1.160000e-06	4.457431e-06	2.099200e-08	3.232272e+01	1.381147e+03
1.170000e-06	4.567763e-06	2.123371e-08	3.312278e+01	1.397215e+03
1.180000e-06	4.676648e-06	2.146319e-08	3.391235e+01	1.412166e+03
1.190000e-06	4.783997e-06	2.168253e-08	3.469079e+01	1.426126e+03
1.200000e-06	4.889630e-06	2.189190e-08	3.545677e+01	1.439252e+03
1.210000e-06	4.993405e-06	2.209042e-08	3.620929e+01	1.451705e+03
1.220000e-06	5.095327e-06	2.227779e-08	3.694837e+01	1.463636e+03
1.230000e-06	5.195469e-06	2.245497e-08	3.767455e+01	1.475164e+03
1.240000e-06	5.293704e-06	2.262392e-08	3.838689e+01	1.486364e+03
1.250000e-06	5.389912e-06	2.278594e-08	3.908453e+01	1.497264e+03
1.260000e-06	5.484151e-06	2.294253e-08	3.976790e+01	1.507846e+03
1.270000e-06	5.576506e-06	2.309264e-08	4.043760e+01	1.518055e+03
1.280000e-06	5.666850e-06	2.323511e-08	4.109273e+01	1.527816e+03
1.290000e-06	5.755029e-06	2.337006e-08	4.173215e+01	1.537049e+03
1.300000e-06	5.841106e-06	2.349833e-08	4.235633e+01	1.545688e+03
1.310000e-06	5.925223e-06	2.361979e-08	4.296630e+01	1.553695e+03
1.320000e-06	6.007270e-06	2.373454e-08	4.356126e+01	1.561067e+03
1.330000e-06	6.087059e-06	2.384280e-08	4.413984e+01	1.567841e+03
1.340000e-06	6.164606e-06	2.394497e-08	4.470216e+01	1.574088e+03
1.350000e-06	6.239805e-06	2.404009e-08	4.524747e+01	1.579903e+03
1.360000e-06	6.312590e-06	2.412826e-08	4.577526e+01	1.585394e+03
1.370000e-06	6.383080e-06	2.421203e-08	4.628641e+01	1.590662e+03
1.380000e-06	6.451374e-06	2.429255e-08	4.678164e+01	1.595792e+03
1.390000e-06	6.517325e-06	2.437013e-08	4.725988e+01	1.600837e+03
1.400000e-06	6.580842e-06	2.444477e-08	4.772047e+01	1.605817e+03
1.410000e-06	6.642105e-06	2.451558e-08	4.816471e+01	1.610717e+03
1.420000e-06	6.701174e-06	2.458115e-08	4.859305e+01	1.615489e+03
1.430000e-06	6.757886e-06	2.464330e-08	4.900429e+01	1.620069e+03
1.440000e-06	6.812147e-06	2.470320e-08	4.939776e+01	1.624384e+03
1.450000e-06	6.863725e-06	2.476105e-08	4.977177e+01	1.628367e+03
1.460000e-06	6.912443e-06	2.481543e-08	5.012505e+01	1.631970e+03
1.470000e-06	6.958617e-06	2.486682e-08	5.045988e+01	1.635170e+03
1.480000e-06	7.002478e-06	2.491425e-08	5.077793e+01	1.637974e+03
1.490000e-06	7.043800e-06	2.495571e-08	5.107757e+01	1.640417e+03
1.500000e-06	7.082501e-06	2.499307e-08	5.135821e+01	1.642555e+03
1.510000e-06	7.118814e-06	2.502609e-08	5.162154e+01	1.644458e+03
1.520000e-06	7.152628e-06	2.505705e-08	5.186673e+01	1.646195e+03
1.530000e-06	7.183857e-06	2.508754e-08	5.209318e+01	1.647826e+03
1.540000e-06	7.212624e-06	2.511459e-08	5.230179e+01	1.649389e+03
1.550000e-06	7.238813e-06	2.513840e-08	5.249170e+01	1.650901e+03
1.560000e-06	7.262263e-06	2.515914e-08	5.266174e+01	1.652350e+03
1.570000e-06	7.283192e-06	2.517482e-08	5.281351e+01	1.653702e+03
1.580000e-06	7.301634e-06	2.518622e-08	5.294724e+01	1.654910e+03
1.590000e-06	7.317305e-06	2.519613e-08	5.306087e+01	1.655918e+03
1.600000e-06	7.330144e-06	2.520404e-08	5.315398e+01	1.656677e+03
1.610000e-06	7.340083e-06	2.521029e-08	5.322605e+01	1.657150e+03
1.620000e-06	7.347214e-06	2.521593e-08	5.327776e+01	1.657322e+03
1.630000e-06	7.351784e-06	2.521969e-08	5.331089e+01	1.657201e+03
1.640000e-06	7.353757e-06	2.522121e-08	5.332520e+01	1.656817e+03
1.650000e-06	7.353138e-06	2.521996e-08	5.332071e+01	1.656218e+03
1.660000e-06	7.350121e-06	2.521194e-08	5.329884e+01	1.655460e+03
1.670000e-06	7.344671e-06	2.520070e-08	5.325932e+01	1.654599e+03
1.680000e-06	7.336731e-06	2.518875e-08	5.320174e+01	1.653682e+03
1.690000e-06	7.326316e-06	2.517592e-08	5.312621e+01	1.652738e+03
1.700000e-06	7.313286e-06	2.516295e-08	5.303173e+01	1.651776e+03
1.710000e-06	7.297744e-06	2.514667e-08	5.291903e+01	1.650782e+03
1.720000e-06	7.280036e-06	2.512467e-08	5.279062e+01	1.649722e+03
1.730000e-06	7.260238e-06	2.507860e-08	5.264706e+01	1.648551e+03
1.740000e-06	7.237739e-06	2.501898e-08	5.248391e+01	1.647221e+03
1.750000e-06	7.211866e-06	2.501503e-08	5.229629e+01	1.645687e+03
1.760000e-06	7.182639e-06	2.501633e-08	5.208435e+01	1.643919e+03
1.770000e-06	7.150670e-06	2.498293e-08	5.185253e+01	1.641904e+03
1.780000e-06	7.116628e-06	2.495978e-08	5.160568e+01	1.639651e+03
1.790000e-06	7.080919e-06	2.496896e-08	5.134674e+01	1.637186e+03
1.800000e-06	7.043548e-06	2.492080e-08	5.107575e+01	1.634549e+03
1.810000e-06	7.003802e-06	2.488263e-08	5.078753e+01	1.631782e+03
1.820000e-06	6.961456e-06	2.491273e-08	5.048046e+01	1.628925e+03
1.830000e-06	6.916889e-06	2.483717e-08	5.015729e+01	1.626004e+03
1.840000e-06	6.869787e-06	2.480911e-08	4.981573e+01	1.623023e+03
1.850000e-06	6.820046e-06	2.476286e-08	4.945504e+01	1.619963e+03
1.860000e-06	6.767643e-06	2.466844e-08	4.907504e+01	1.616784e+03
1.870000e-06	6.712415e-06	2.462965e-08	4.867456e+01	1.613427e+03
1.880000e-06	6.654806e-06	2.455370e-08	4.825682e+01	1.609823e+03
1.890000e-06	6.594739e-06	2.453598e-08	4.782124e+01	1.605906e+03
1.900000e-06	6.531993e-06	2.447399e-08	4.736624e+01	1.601619e+03
1.910000e-06	6.466786e-06	2.438222e-08	4.689340e+01	1.596929e+03
1.920000e-06	6.399221e-06	2.430658e-08	4.640346e+01	1.591826e+03
1.930000e-06	6.329231e-06	2.419492e-08	4.589593e+01	1.586331e+03
1.940000e-06	6.256739e-06	2.413779e-08	4.537026e+01	1.580488e+03
1.950000e-06	6.181852e-06	2.405744e-08	4.482722e+01	1.574359e+03
1.960000e-06	6.104415e-06	2.397570e-08	4.426569e+01	1.568013e+03
1.970000e-06	6.024506e-06	2.388604e-08	4.368624e+01	1.561514e+03
1.980000e-06	5.942516e-06	2.377058e-08	4.309170e+01	1.554908e+03
1.990000e-06	5.858400e-06	2.367048e-08	4.248174e+01	1.548214e+03
2.000000e-06	5.772131e-06	2.355137e-08	4.185617e+01	1.541421e+03
2.010000e-06	5.683782e-06	2.344994e-08	4.121551e+01	1.534482e+03
2.020000e-06	5.593479e-06	2.333567e-08	4.056068e+01	1.527329e+03
2.030000e-06	5.501209e-06	2.321668e-08	3.989159e+01	1.519871e+03
2.040000e-06	5.406916e-06	2.309157e-08	3.920783e+01	1.512017e+03
2.050000e-06	5.310705e-06	2.295940e-08	3.851017e+01	1.503682e+03
2.060000e-06	5.212728e-06	2.282685e-08	3.779969e+01	1.494805e+03
2.070000e-06	5.113045e-06	2.268374e-08	3.707685e+01	1.485353e+03
2.080000e-06	5.011440e-06	2.254098e-08	3.634007e+01	1.475329e+03
2.090000e-06	4.907896e-06	2.238733e-08	3.558923e+01	1.464766e+03
2.100000e-06	4.802623e-06	2.222914e-08	3.482585e+01	1.453724e+03
2.110000e-06	4.695830e-06	2.206127e-08	3.405145e+01	1.442271e+03
2.120000e-06	4.587532e-06	2.188667e-08	3.326614e+01	1.430476e+03
2.130000e-06	4.477622e-06	2.169901e-08	3.246913e+01	1.418386e+03
2.140000e-06	4.365988e-06	2.150831e-08	3.165962e+01	1.406018e+03
2.150000e-06	4.252621e-06	2.131464e-08	3.083755e+01	1.393349e+03
2.160000e-06	4.137598e-06	2.111466e-08	3.000348e+01	1.380314e+03
2.170000e-06	4.020830e-06	2.090559e-08	2.915674e+01	1.366811e+03
2.180000e-06	3.902394e-06	2.068248e-08	2.829791e+01	1.352711e+03
2.190000e-06	3.782431e-06	2.044898e-08	2.742801e+01	1.337875e+03
2.200000e-06	3.661057e-06	2.020675e-08	2.654787e+01	1.322172e+03
2.210000e-06	3.538381e-06	1.995658e-08	2.565830e+01	1.305494e+03
2.220000e-06	3.414415e-06	1.969181e-08	2.475937e+01	1.287770e+03
2.230000e-06	3.289163e-06	1.941115e-08	2.385111e+01	1.268971e+03
2.240000e-06	3.162654e-06	1.911140e-08	2.293374e+01	1.249114e+03
2.250000e-06	3.034964e-06	1.880038e-08	2.200781e+01	1.228242e+03
2.260000e-06	2.906147e-06	1.847929e-08	2.107370e+01	1.206419e+03
2.270000e-06	2.776309e-06	1.814591e-08	2.013219e+01	1.183695e+03
2.280000e-06	2.645489e-06	1.779627e-08	1.918356e+01	1.160093e+03
2.290000e-06	2.513693e-06	1.742485e-08	1.822785e+01	1.135578e+03
2.300000e-06	2.381021e-06	1.702987e-08	1.726579e+01	1.110044e+03
2.310000e-06	2.247502e-06	1.661053e-08	1.629758e+01	1.083310e+03
2.320000e-06	2.113225e-06	1.616729e-08	1.532389e+01	1.055116e+03
2.330000e-06	1.978239e-06	1.569822e-08	1.434505e+01	1.025144e+03
2.340000e-06	1.842536e-06	1.520007e-08	1.336100e+01	9.930410e+02
2.350000e-06	1.706185e-06	1.466679e-08	1.237227e+01	9.584528e+02
2.360000e-06	1.569277e-06	1.409346e-08	1.137949e+01	9.210582e+02
2.370000e-06	1.431861e-06	1.348032e-08	1.038303e+01	8.806057e+02
2.380000e-06	1.293969e-06	1.282792e-08	9.383115e+00	8.369408e+02
2.390000e-06	1.155724e-06	1.213431e-08	8.380643e+00	7.900251e+02
2.400000e-06	1.017125e-06	1.139331e-08	7.375601e+00	7.399408e+02
2.410000e-06	8.781043e-07	1.060257e-08	6.367506e+00	6.868816e+02
2.420000e-06	7.386568e-07	9.762202e-09	5.356313e+00	6.311299e+02
2.430000e-06	5.988891e-07	8.872969e-09	4.342798e+00	5.730240e+02
2.440000e-06	4.589830e-07	7.939231e-09	3.328280e+00	5.129184e+02
2.450000e-06	3.189045e-07	6.969046e-09	2.312511e+00	4.511440e+02
2.460000e-06	1.786218e-07	5.974467e-09	1.295262e+00	3.879732e+02
2.470000e-06	3.824490e-08	4.964633e-09	2.773299e-01	3.235956e+02
2.480000e-06	-1.021524e-07	3.947200e-09	-7.407506e-01	2.581065e+02
2.490000e-06	-2.425509e-07	2.925947e-09	-1.758839e+00	1.915133e+02
2.500000e-06	-3.828566e-07	1.900717e-09	-2.776255e+00	1.237561e+02
2.510000e-06	-5.229868e-07	8.676692e-10	-3.792398e+00	5.474213e+01
2.520000e-06	-6.629413e-07	-1.778097e-10	-4.807268e+00	-1.561081e+01
2.530000e-06	-8.026887e-07	-1.241023e-09	-5.820636e+00	-8.732847e+01
2.540000e-06	-9.421465e-07	-2.330795e-09	-6.831903e+00	-1.603375e+02
2.550000e-06	-1.081211e-06	-3.451182e-09	-7.840317e+00	-2.344325e+02
2.560000e-06	-1.219803e-06	-4.602735e-09	-8.845306e+00	-3.092585e+02
2.570000e-06	-1.357930e-06	-5.778771e-09	-9.846928e+00	-3.843103e+02
2.580000e-06	-1.495605e-06	-6.959355e-09	-1.084526e+01	-4.589520e+02
2.590000e-06	-1.632756e-06	-8.119931e-09	-1.183981e+01	-5.324532e+02
2.600000e-06	-1.769282e-06	-9.239013e-09	-1.282982e+01	-6.040391e+02
2.610000e-06	-1.905142e-06	-1.030293e-08	-1.381499e+01	-6.729481e+02
2.620000e-06	-2.040298e-06	-1.129955e-08	-1.479507e+01	-7.384915e+02
2.630000e-06	-2.174637e-06	-1.222413e-08	-1.576921e+01	-8.001066e+02
2.640000e-06	-2.308117e-06	-1.307664e-08	-1.673713e+01	-8.573982e+02
2.650000e-06	-2.440752e-06	-1.386098e-08	-1.769892e+01	-9.101644e+02
2.660000e-06	-2.572482e-06	-1.458356e-08	-1.865415e+01	-9.584016e+02
2.670000e-06	-2.703212e-06	-1.524872e-08	-1.960213e+01	-1.002292e+03
2.680000e-06	-2.832927e-06	-1.586263e-08	-2.054276e+01	-1.042173e+03
2.690000e-06	-2.961657e-06	-1.643061e-08	-2.147623e+01	-1.078491e+03
2.700000e-06	-3.089375e-06	-1.695756e-08	-2.240237e+01	-1.111756e+03
2.710000e-06	-3.216020e-06	-1.744506e-08	-2.332072e+01	-1.142485e+03
2.720000e-06	-3.341489e-06	-1.789950e-08	-2.423055e+01	-1.171154e+03
2.730000e-06	-3.465697e-06	-1.832496e-08	-2.513123e+01	-1.198167e+03
2.740000e-06	-3.588625e-06	-1.872415e-08	-2.602264e+01	-1.223827e+03
2.750000e-06	-3.710252e-06	-1.910114e-08	-2.690461e+01	-1.248330e+03
2.760000e-06	-3.830519e-06	-1.945411e-08	-2.777671e+01	-1.271772e+03
2.770000e-06	-3.949392e-06	-1.978494e-08	-2.863871e+01	-1.294169e+03
2.780000e-06	-4.066786e-06	-2.009716e-08	-2.948998e+01	-1.315479e+03
2.790000e-06	-4.182539e-06	-2.039234e-08	-3.032936e+01	-1.335638e+03
2.800000e-06	-4.296561e-06	-2.067123e-08	-3.115618e+01	-1.354589e+03
2.810000e-06	-4.408855e-06	-2.093446e-08	-3.197047e+01	-1.372302e+03
2.820000e-06	-4.519475e-06	-2.118512e-08	-3.277262e+01	-1.388794e+03
2.830000e-06	-4.628512e-06	-2.142553e-08	-3.356330e+01	-1.404133e+03
2.840000e-06	-4.736049e-06	-2.165685e-08	-3.434309e+01	-1.418432e+03
2.850000e-06	-4.842016e-06	-2.187675e-08	-3.511151e+01	-1.431838e+03
2.860000e-06	-4.946232e-06	-2.208271e-08	-3.586722e+01	-1.444514e+03
2.870000e-06	-5.048555e-06	-2.227682e-08	-3.660921e+01	-1.456617e+03
2.880000e-06	-5.148949e-06	-2.246153e-08	-3.733721e+01	-1.468279e+03
2.890000e-06	-5.247515e-06	-2.263738e-08	-3.805195e+01	-1.479591e+03
2.900000e-06	-5.344316e-06	-2.280272e-08	-3.875389e+01	-1.490600e+03
2.910000e-06	-5.439239e-06	-2.295896e-08	-3.944222e+01	-1.501301e+03
2.920000e-06	-5.532156e-06	-2.310630e-08	-4.011600e+01	-1.511653e+03
2.930000e-06	-5.623067e-06	-2.324737e-08	-4.077524e+01	-1.521585e+03
2.940000e-06	-5.711970e-06	-2.338484e-08	-4.141991e+01	-1.531016e+03
