# Temperatura_=_35.65
# Concentracion g/m^3_=_28370.0
# C_Vs_to_Am_M_A/Vsm_=_65563218390.804596
# pendiente_HvsI_1/m_=_3716.3
# ordenada_HvsI_A/m_=_1297.0
# frecuencia_Hz_=_302372.6494940733

Tiempo_(s)	Campo_(V.s)	Magnetizacion_(V.s)	Campo_(kA/m)	Magnetizacion_(A/m)
0.000000e+00	-7.339371e-06	-2.188058e-08	-5.319238e+01	-1.432277e+03
1.000000e-08	-7.335719e-06	-2.187844e-08	-5.316591e+01	-1.431564e+03
2.000000e-08	-7.329696e-06	-2.186621e-08	-5.312226e+01	-1.430769e+03
3.000000e-08	-7.321310e-06	-2.185347e-08	-5.306148e+01	-1.429941e+03
4.000000e-08	-7.310323e-06	-2.184278e-08	-5.298186e+01	-1.429112e+03
5.000000e-08	-7.296563e-06	-2.183052e-08	-5.288213e+01	-1.428298e+03
6.000000e-08	-7.280154e-06	-2.181447e-08	-5.276320e+01	-1.427490e+03
7.000000e-08	-7.261544e-06	-2.179683e-08	-5.262832e+01	-1.426659e+03
8.000000e-08	-7.240861e-06	-2.178151e-08	-5.247843e+01	-1.425764e+03
9.000000e-08	-7.217648e-06	-2.181197e-08	-5.231018e+01	-1.424757e+03
1.000000e-07	-7.191413e-06	-2.179393e-08	-5.212005e+01	-1.423591e+03
1.100000e-07	-7.162288e-06	-2.171233e-08	-5.190897e+01	-1.422228e+03
1.200000e-07	-7.130669e-06	-2.167436e-08	-5.167980e+01	-1.420648e+03
1.300000e-07	-7.096556e-06	-2.166220e-08	-5.143257e+01	-1.418849e+03
1.400000e-07	-7.060199e-06	-2.161335e-08	-5.116907e+01	-1.416847e+03
1.500000e-07	-7.022072e-06	-2.152587e-08	-5.089274e+01	-1.414673e+03
1.600000e-07	-6.981871e-06	-2.156953e-08	-5.060138e+01	-1.412363e+03
1.700000e-07	-6.939114e-06	-2.154673e-08	-5.029150e+01	-1.409956e+03
1.800000e-07	-6.893979e-06	-2.140370e-08	-4.996438e+01	-1.407480e+03
1.900000e-07	-6.846308e-06	-2.144965e-08	-4.961889e+01	-1.404949e+03
2.000000e-07	-6.795736e-06	-2.140366e-08	-4.925236e+01	-1.402357e+03
2.100000e-07	-6.742487e-06	-2.134281e-08	-4.886644e+01	-1.399678e+03
2.200000e-07	-6.686704e-06	-2.135887e-08	-4.846215e+01	-1.396868e+03
2.300000e-07	-6.628392e-06	-2.127741e-08	-4.803953e+01	-1.393874e+03
2.400000e-07	-6.567635e-06	-2.121309e-08	-4.759919e+01	-1.390640e+03
2.500000e-07	-6.504459e-06	-2.111527e-08	-4.714132e+01	-1.387116e+03
2.600000e-07	-6.438838e-06	-2.106736e-08	-4.666573e+01	-1.383268e+03
2.700000e-07	-6.370762e-06	-2.100329e-08	-4.617235e+01	-1.379083e+03
2.800000e-07	-6.300324e-06	-2.093470e-08	-4.566185e+01	-1.374569e+03
2.900000e-07	-6.227499e-06	-2.088772e-08	-4.513404e+01	-1.369756e+03
3.000000e-07	-6.152143e-06	-2.080089e-08	-4.458790e+01	-1.364692e+03
3.100000e-07	-6.074166e-06	-2.072347e-08	-4.402275e+01	-1.359430e+03
3.200000e-07	-5.993683e-06	-2.062974e-08	-4.343945e+01	-1.354021e+03
3.300000e-07	-5.911052e-06	-2.057030e-08	-4.284058e+01	-1.348504e+03
3.400000e-07	-5.826509e-06	-2.049234e-08	-4.222785e+01	-1.342896e+03
3.500000e-07	-5.740101e-06	-2.038715e-08	-4.160160e+01	-1.337190e+03
3.600000e-07	-5.651696e-06	-2.029980e-08	-4.096089e+01	-1.331350e+03
3.700000e-07	-5.561174e-06	-2.019811e-08	-4.030482e+01	-1.325318e+03
3.800000e-07	-5.468613e-06	-2.009107e-08	-3.963399e+01	-1.319021e+03
3.900000e-07	-5.374133e-06	-1.998817e-08	-3.894924e+01	-1.312381e+03
4.000000e-07	-5.277745e-06	-1.988537e-08	-3.825067e+01	-1.305326e+03
4.100000e-07	-5.179435e-06	-1.975694e-08	-3.753816e+01	-1.297803e+03
4.200000e-07	-5.079319e-06	-1.962515e-08	-3.681256e+01	-1.289783e+03
4.300000e-07	-4.977468e-06	-1.950043e-08	-3.607439e+01	-1.281265e+03
4.400000e-07	-4.873829e-06	-1.936654e-08	-3.532327e+01	-1.272276e+03
4.500000e-07	-4.768465e-06	-1.922567e-08	-3.455964e+01	-1.262867e+03
4.600000e-07	-4.661360e-06	-1.908923e-08	-3.378339e+01	-1.253096e+03
4.700000e-07	-4.552559e-06	-1.894442e-08	-3.299485e+01	-1.243019e+03
4.800000e-07	-4.442184e-06	-1.878375e-08	-3.219490e+01	-1.232679e+03
4.900000e-07	-4.330190e-06	-1.862015e-08	-3.138322e+01	-1.222090e+03
5.000000e-07	-4.216561e-06	-1.845370e-08	-3.055969e+01	-1.211229e+03
5.100000e-07	-4.101196e-06	-1.827487e-08	-2.972358e+01	-1.200040e+03
5.200000e-07	-3.984122e-06	-1.808187e-08	-2.887508e+01	-1.188430e+03
5.300000e-07	-3.865544e-06	-1.788534e-08	-2.801568e+01	-1.176283e+03
5.400000e-07	-3.745546e-06	-1.768274e-08	-2.714599e+01	-1.163472e+03
5.500000e-07	-3.624182e-06	-1.746982e-08	-2.626640e+01	-1.149876e+03
5.600000e-07	-3.501452e-06	-1.724432e-08	-2.537691e+01	-1.135393e+03
5.700000e-07	-3.377338e-06	-1.701067e-08	-2.447739e+01	-1.119953e+03
5.800000e-07	-3.252003e-06	-1.676566e-08	-2.356902e+01	-1.103525e+03
5.900000e-07	-3.125499e-06	-1.651082e-08	-2.265217e+01	-1.086115e+03
6.000000e-07	-2.997755e-06	-1.624404e-08	-2.172634e+01	-1.067759e+03
6.100000e-07	-2.868913e-06	-1.595950e-08	-2.079256e+01	-1.048509e+03
6.200000e-07	-2.739112e-06	-1.565638e-08	-1.985182e+01	-1.028409e+03
6.300000e-07	-2.608259e-06	-1.533418e-08	-1.890346e+01	-1.007478e+03
6.400000e-07	-2.476282e-06	-1.499602e-08	-1.794695e+01	-9.856894e+02
6.500000e-07	-2.343414e-06	-1.463926e-08	-1.698398e+01	-9.629524e+02
6.600000e-07	-2.209907e-06	-1.426669e-08	-1.601639e+01	-9.391090e+02
6.700000e-07	-2.075654e-06	-1.387331e-08	-1.504338e+01	-9.139346e+02
6.800000e-07	-1.940510e-06	-1.345173e-08	-1.406392e+01	-8.871517e+02
6.900000e-07	-1.804614e-06	-1.300028e-08	-1.307901e+01	-8.584530e+02
7.000000e-07	-1.668161e-06	-1.252073e-08	-1.209006e+01	-8.275306e+02
7.100000e-07	-1.531195e-06	-1.201001e-08	-1.109739e+01	-7.941099e+02
7.200000e-07	-1.393724e-06	-1.146498e-08	-1.010107e+01	-7.579814e+02
7.300000e-07	-1.255790e-06	-1.088540e-08	-9.101389e+00	-7.190282e+02
7.400000e-07	-1.117362e-06	-1.026563e-08	-8.098127e+00	-6.772432e+02
7.500000e-07	-9.785038e-07	-9.603663e-09	-7.091745e+00	-6.327344e+02
7.600000e-07	-8.393281e-07	-8.899383e-09	-6.083063e+00	-5.857168e+02
7.700000e-07	-6.997848e-07	-8.156496e-09	-5.071718e+00	-5.364915e+02
7.800000e-07	-5.599115e-07	-7.375411e-09	-4.057980e+00	-4.854136e+02
7.900000e-07	-4.197513e-07	-6.562639e-09	-3.042164e+00	-4.328543e+02
8.000000e-07	-2.793867e-07	-5.727402e-09	-2.024866e+00	-3.791609e+02
8.100000e-07	-1.389177e-07	-4.875658e-09	-1.006811e+00	-3.246210e+02
8.200000e-07	1.702135e-09	-4.016621e-09	1.233629e-02	-2.694351e+02
8.300000e-07	1.423710e-07	-3.156539e-09	1.031839e+00	-2.137026e+02
8.400000e-07	2.829571e-07	-2.299258e-09	2.050743e+00	-1.574225e+02
8.500000e-07	4.235245e-07	-1.443076e-09	3.069511e+00	-1.005099e+02
8.600000e-07	5.639787e-07	-5.849317e-10	4.087458e+00	-4.282575e+01
8.700000e-07	7.041788e-07	2.808889e-10	5.103564e+00	1.578287e+01
8.800000e-07	8.440367e-07	1.164282e-09	6.117189e+00	7.543844e+01
8.900000e-07	9.834769e-07	2.072771e-09	7.127787e+00	1.361894e+02
9.000000e-07	1.122577e-06	3.006696e-09	8.135921e+00	1.979741e+02
9.100000e-07	1.261302e-06	3.964060e-09	9.141335e+00	2.605964e+02
9.200000e-07	1.399559e-06	4.940468e-09	1.014336e+01	3.237177e+02
9.300000e-07	1.537292e-06	5.925240e-09	1.114158e+01	3.868667e+02
9.400000e-07	1.674450e-06	6.903866e-09	1.213564e+01	4.494646e+02
9.500000e-07	1.810965e-06	7.856601e-09	1.312504e+01	5.108659e+02
9.600000e-07	1.946751e-06	8.768793e-09	1.410915e+01	5.704078e+02
9.700000e-07	2.081695e-06	9.630293e-09	1.508717e+01	6.274630e+02
9.800000e-07	2.215766e-06	1.043637e-08	1.605885e+01	6.814901e+02
9.900000e-07	2.349048e-06	1.118292e-08	1.702482e+01	7.320761e+02
1.000000e-06	2.481527e-06	1.187087e-08	1.798497e+01	7.789644e+02
1.010000e-06	2.613059e-06	1.250617e-08	1.893825e+01	8.220680e+02
1.020000e-06	2.743544e-06	1.309349e-08	1.988395e+01	8.614644e+02
1.030000e-06	2.873039e-06	1.363768e-08	2.082246e+01	8.973751e+02
1.040000e-06	3.001509e-06	1.413925e-08	2.175355e+01	9.301327e+02
1.050000e-06	3.128850e-06	1.460345e-08	2.267646e+01	9.601388e+02
1.060000e-06	3.255071e-06	1.503611e-08	2.359126e+01	9.878194e+02
1.070000e-06	3.380167e-06	1.544202e-08	2.449789e+01	1.013583e+03
1.080000e-06	3.504058e-06	1.582179e-08	2.539580e+01	1.037787e+03
1.090000e-06	3.626648e-06	1.617722e-08	2.628428e+01	1.060712e+03
1.100000e-06	3.747932e-06	1.651212e-08	2.716328e+01	1.082550e+03
1.110000e-06	3.867902e-06	1.682804e-08	2.803277e+01	1.103410e+03
1.120000e-06	3.986460e-06	1.712401e-08	2.889202e+01	1.123325e+03
1.130000e-06	4.103563e-06	1.740284e-08	2.974074e+01	1.142276e+03
1.140000e-06	4.219175e-06	1.766454e-08	3.057864e+01	1.160219e+03
1.150000e-06	4.333155e-06	1.790955e-08	3.140471e+01	1.177105e+03
1.160000e-06	4.445431e-06	1.814103e-08	3.221843e+01	1.192905e+03
1.170000e-06	4.556085e-06	1.835998e-08	3.302040e+01	1.207625e+03
1.180000e-06	4.665244e-06	1.856875e-08	3.381154e+01	1.221311e+03
1.190000e-06	4.772868e-06	1.876686e-08	3.459154e+01	1.234050e+03
1.200000e-06	4.878760e-06	1.895541e-08	3.535900e+01	1.245959e+03
1.210000e-06	4.982846e-06	1.913244e-08	3.611337e+01	1.257170e+03
1.220000e-06	5.085101e-06	1.929893e-08	3.685447e+01	1.267816e+03
1.230000e-06	5.185540e-06	1.945958e-08	3.758240e+01	1.278011e+03
1.240000e-06	5.284105e-06	1.961347e-08	3.829676e+01	1.287841e+03
1.250000e-06	5.380631e-06	1.975925e-08	3.899633e+01	1.297352e+03
1.260000e-06	5.475138e-06	1.989735e-08	3.968128e+01	1.306555e+03
1.270000e-06	5.567724e-06	2.002785e-08	4.035230e+01	1.315422e+03
1.280000e-06	5.658326e-06	2.015020e-08	4.100894e+01	1.323906e+03
1.290000e-06	5.746808e-06	2.026401e-08	4.165021e+01	1.331948e+03
1.300000e-06	5.833223e-06	2.037216e-08	4.227652e+01	1.339492e+03
1.310000e-06	5.917630e-06	2.047607e-08	4.288826e+01	1.346504e+03
1.320000e-06	6.000035e-06	2.057461e-08	4.348549e+01	1.352973e+03
1.330000e-06	6.080283e-06	2.066524e-08	4.406709e+01	1.358921e+03
1.340000e-06	6.158197e-06	2.075021e-08	4.463177e+01	1.364400e+03
1.350000e-06	6.233764e-06	2.083083e-08	4.517945e+01	1.369487e+03
1.360000e-06	6.306880e-06	2.090705e-08	4.570936e+01	1.374269e+03
1.370000e-06	6.377672e-06	2.098005e-08	4.622242e+01	1.378835e+03
1.380000e-06	6.446314e-06	2.105076e-08	4.671991e+01	1.383264e+03
1.390000e-06	6.512634e-06	2.111982e-08	4.720057e+01	1.387608e+03
1.400000e-06	6.576497e-06	2.118616e-08	4.766342e+01	1.391892e+03
1.410000e-06	6.638102e-06	2.124801e-08	4.810991e+01	1.396111e+03
1.420000e-06	6.697499e-06	2.130404e-08	4.854038e+01	1.400229e+03
1.430000e-06	6.754491e-06	2.135716e-08	4.895344e+01	1.404192e+03
1.440000e-06	6.809047e-06	2.140764e-08	4.934884e+01	1.407933e+03
1.450000e-06	6.861065e-06	2.145651e-08	4.972584e+01	1.411392e+03
1.460000e-06	6.910278e-06	2.150353e-08	5.008251e+01	1.414516e+03
1.470000e-06	6.956771e-06	2.154748e-08	5.041947e+01	1.417279e+03
1.480000e-06	7.000865e-06	2.158792e-08	5.073904e+01	1.419679e+03
1.490000e-06	7.042471e-06	2.162220e-08	5.104059e+01	1.421742e+03
1.500000e-06	7.081499e-06	2.165163e-08	5.132344e+01	1.423517e+03
1.510000e-06	7.118193e-06	2.167866e-08	5.158939e+01	1.425066e+03
1.520000e-06	7.152432e-06	2.170419e-08	5.183753e+01	1.426457e+03
1.530000e-06	7.183992e-06	2.172831e-08	5.206627e+01	1.427752e+03
1.540000e-06	7.213075e-06	2.174985e-08	5.227705e+01	1.428998e+03
1.550000e-06	7.239643e-06	2.176869e-08	5.246960e+01	1.430219e+03
1.560000e-06	7.263448e-06	2.178574e-08	5.264212e+01	1.431414e+03
1.570000e-06	7.284656e-06	2.180000e-08	5.279583e+01	1.432559e+03
1.580000e-06	7.303415e-06	2.181045e-08	5.293179e+01	1.433613e+03
1.590000e-06	7.319503e-06	2.181880e-08	5.304838e+01	1.434524e+03
1.600000e-06	7.332787e-06	2.182535e-08	5.314466e+01	1.435240e+03
1.610000e-06	7.343137e-06	2.183008e-08	5.321967e+01	1.435718e+03
1.620000e-06	7.350560e-06	2.183450e-08	5.327347e+01	1.435932e+03
1.630000e-06	7.355425e-06	2.183798e-08	5.330873e+01	1.435878e+03
1.640000e-06	7.357697e-06	2.183884e-08	5.332520e+01	1.435576e+03
1.650000e-06	7.357297e-06	2.183880e-08	5.332230e+01	1.435063e+03
1.660000e-06	7.354545e-06	2.182942e-08	5.330235e+01	1.434392e+03
1.670000e-06	7.349453e-06	2.182011e-08	5.326545e+01	1.433619e+03
1.680000e-06	7.341807e-06	2.181325e-08	5.321003e+01	1.432797e+03
1.690000e-06	7.331714e-06	2.180294e-08	5.313688e+01	1.431965e+03
1.700000e-06	7.319074e-06	2.179124e-08	5.304527e+01	1.431144e+03
1.710000e-06	7.303817e-06	2.178178e-08	5.293470e+01	1.430335e+03
1.720000e-06	7.286288e-06	2.177361e-08	5.280766e+01	1.429515e+03
1.730000e-06	7.266705e-06	2.174138e-08	5.266573e+01	1.428648e+03
1.740000e-06	7.244606e-06	2.164761e-08	5.250556e+01	1.427686e+03
1.750000e-06	7.219190e-06	2.165203e-08	5.232136e+01	1.426580e+03
1.760000e-06	7.190334e-06	2.168290e-08	5.211223e+01	1.425289e+03
1.770000e-06	7.158672e-06	2.164185e-08	5.188276e+01	1.423787e+03
1.780000e-06	7.124914e-06	2.161596e-08	5.163809e+01	1.422065e+03
1.790000e-06	7.089432e-06	2.168669e-08	5.138094e+01	1.420131e+03
1.800000e-06	7.052275e-06	2.161178e-08	5.111164e+01	1.418013e+03
1.810000e-06	7.012853e-06	2.152637e-08	5.082592e+01	1.415746e+03
1.820000e-06	6.970784e-06	2.164260e-08	5.052103e+01	1.413369e+03
1.830000e-06	6.926450e-06	2.150765e-08	5.019972e+01	1.410914e+03
1.840000e-06	6.879658e-06	2.151346e-08	4.986059e+01	1.408402e+03
1.850000e-06	6.830211e-06	2.148717e-08	4.950223e+01	1.405832e+03
1.860000e-06	6.778129e-06	2.134228e-08	4.912475e+01	1.403187e+03
1.870000e-06	6.723230e-06	2.137597e-08	4.872688e+01	1.400428e+03
1.880000e-06	6.665912e-06	2.126534e-08	4.831146e+01	1.397506e+03
1.890000e-06	6.606141e-06	2.129332e-08	4.787826e+01	1.394362e+03
1.900000e-06	6.543696e-06	2.125798e-08	4.742569e+01	1.390946e+03
1.910000e-06	6.478800e-06	2.114751e-08	4.695536e+01	1.387216e+03
1.920000e-06	6.411527e-06	2.112257e-08	4.646779e+01	1.383150e+03
1.930000e-06	6.341890e-06	2.098359e-08	4.596310e+01	1.378750e+03
1.940000e-06	6.269738e-06	2.096936e-08	4.544017e+01	1.374038e+03
1.950000e-06	6.195150e-06	2.090458e-08	4.489960e+01	1.369057e+03
1.960000e-06	6.118074e-06	2.083858e-08	4.434098e+01	1.363858e+03
1.970000e-06	6.038465e-06	2.076846e-08	4.376401e+01	1.358495e+03
1.980000e-06	5.956708e-06	2.064348e-08	4.317148e+01	1.353013e+03
1.990000e-06	5.872829e-06	2.059551e-08	4.256356e+01	1.347436e+03
2.000000e-06	5.786851e-06	2.047998e-08	4.194043e+01	1.341766e+03
2.010000e-06	5.698762e-06	2.041593e-08	4.130200e+01	1.335978e+03
2.020000e-06	5.608647e-06	2.032391e-08	4.064889e+01	1.330022e+03
2.030000e-06	5.516590e-06	2.020918e-08	3.998170e+01	1.323827e+03
2.040000e-06	5.422501e-06	2.009138e-08	3.929979e+01	1.317317e+03
2.050000e-06	5.326468e-06	1.997744e-08	3.860379e+01	1.310417e+03
2.060000e-06	5.228685e-06	1.989204e-08	3.789510e+01	1.303065e+03
2.070000e-06	5.129187e-06	1.976859e-08	3.717399e+01	1.295223e+03
2.080000e-06	5.027824e-06	1.965672e-08	3.643935e+01	1.286880e+03
2.090000e-06	4.924537e-06	1.952351e-08	3.569077e+01	1.278054e+03
2.100000e-06	4.819432e-06	1.939191e-08	3.492903e+01	1.268787e+03
2.110000e-06	4.712821e-06	1.924723e-08	3.415635e+01	1.259137e+03
2.120000e-06	4.604746e-06	1.910690e-08	3.337308e+01	1.249163e+03
2.130000e-06	4.495050e-06	1.895364e-08	3.257805e+01	1.238913e+03
2.140000e-06	4.383645e-06	1.878420e-08	3.177064e+01	1.228412e+03
2.150000e-06	4.270556e-06	1.861719e-08	3.095102e+01	1.217652e+03
2.160000e-06	4.155726e-06	1.845107e-08	3.011878e+01	1.206588e+03
2.170000e-06	4.039152e-06	1.828352e-08	2.927392e+01	1.195139e+03
2.180000e-06	3.920945e-06	1.809619e-08	2.841721e+01	1.183197e+03
2.190000e-06	3.801099e-06	1.790111e-08	2.754861e+01	1.170637e+03
2.200000e-06	3.679819e-06	1.769084e-08	2.666964e+01	1.157333e+03
2.210000e-06	3.557266e-06	1.747212e-08	2.578142e+01	1.143176e+03
2.220000e-06	3.433362e-06	1.724222e-08	2.488342e+01	1.128082e+03
2.230000e-06	3.308147e-06	1.700661e-08	2.397592e+01	1.112007e+03
2.240000e-06	3.181747e-06	1.675053e-08	2.305983e+01	1.094944e+03
2.250000e-06	3.054156e-06	1.647843e-08	2.213512e+01	1.076919e+03
2.260000e-06	2.925409e-06	1.619691e-08	2.120202e+01	1.057982e+03
2.270000e-06	2.795684e-06	1.590849e-08	2.026183e+01	1.038180e+03
2.280000e-06	2.664987e-06	1.560861e-08	1.931460e+01	1.017545e+03
2.290000e-06	2.533193e-06	1.528613e-08	1.835941e+01	9.960688e+02
2.300000e-06	2.400479e-06	1.493999e-08	1.739757e+01	9.736839e+02
2.310000e-06	2.267051e-06	1.456904e-08	1.643054e+01	9.502571e+02
2.320000e-06	2.132906e-06	1.418199e-08	1.545832e+01	9.255865e+02
2.330000e-06	1.998005e-06	1.377602e-08	1.448062e+01	8.994114e+02
2.340000e-06	1.862362e-06	1.334534e-08	1.349754e+01	8.714319e+02
2.350000e-06	1.726054e-06	1.288423e-08	1.250964e+01	8.413366e+02
2.360000e-06	1.589125e-06	1.238661e-08	1.151724e+01	8.088351e+02
2.370000e-06	1.451669e-06	1.184855e-08	1.052103e+01	7.736914e+02
2.380000e-06	1.313777e-06	1.127499e-08	9.521647e+00	7.357527e+02
2.390000e-06	1.175495e-06	1.067123e-08	8.519448e+00	6.949716e+02
2.400000e-06	1.036840e-06	1.002848e-08	7.514539e+00	6.514150e+02
2.410000e-06	8.977572e-07	9.339693e-09	6.506530e+00	6.052617e+02
2.420000e-06	7.582295e-07	8.608305e-09	5.495298e+00	5.567851e+02
2.430000e-06	6.183645e-07	7.838278e-09	4.481621e+00	5.063251e+02
2.440000e-06	4.782233e-07	7.033717e-09	3.465942e+00	4.542519e+02
2.450000e-06	3.379382e-07	6.200254e-09	2.449220e+00	4.009257e+02
2.460000e-06	1.975897e-07	5.348596e-09	1.432039e+00	3.466591e+02
2.470000e-06	5.710492e-08	4.487932e-09	4.138701e-01	2.916861e+02
2.480000e-06	-8.343689e-08	3.623873e-09	-6.047121e-01	2.361428e+02
2.490000e-06	-2.239578e-07	2.760482e-09	-1.623143e+00	1.800632e+02
2.500000e-06	-3.644460e-07	1.897518e-09	-2.641336e+00	1.233893e+02
2.510000e-06	-5.048516e-07	1.032756e-09	-3.658932e+00	6.599744e+01
2.520000e-06	-6.450808e-07	1.617288e-10	-4.675248e+00	7.734562e+00
2.530000e-06	-7.850867e-07	-7.212429e-10	-5.689946e+00	-5.153787e+01
2.540000e-06	-9.248087e-07	-1.621815e-09	-6.702588e+00	-1.118994e+02
2.550000e-06	-1.064105e-06	-2.545489e-09	-7.712143e+00	-1.733311e+02
2.560000e-06	-1.202901e-06	-3.494156e-09	-8.718076e+00	-2.356868e+02
2.570000e-06	-1.341228e-06	-4.469071e-09	-9.720601e+00	-2.986786e+02
2.580000e-06	-1.479125e-06	-5.462186e-09	-1.072002e+01	-3.618803e+02
2.590000e-06	-1.616473e-06	-6.454444e-09	-1.171545e+01	-4.247477e+02
2.600000e-06	-1.753152e-06	-7.426698e-09	-1.270604e+01	-4.866537e+02
2.610000e-06	-1.889163e-06	-8.363297e-09	-1.369178e+01	-5.469358e+02
2.620000e-06	-2.024426e-06	-9.253456e-09	-1.467211e+01	-6.049477e+02
2.630000e-06	-2.158850e-06	-1.009069e-08	-1.564635e+01	-6.601121e+02
2.640000e-06	-2.292488e-06	-1.086877e-08	-1.661490e+01	-7.119662e+02
2.650000e-06	-2.425332e-06	-1.158798e-08	-1.757769e+01	-7.601950e+02
2.660000e-06	-2.557216e-06	-1.225194e-08	-1.853352e+01	-8.046507e+02
2.670000e-06	-2.688087e-06	-1.286416e-08	-1.948202e+01	-8.453536e+02
2.680000e-06	-2.818026e-06	-1.343066e-08	-2.042375e+01	-8.824770e+02
2.690000e-06	-2.947011e-06	-1.395266e-08	-2.135857e+01	-9.163183e+02
2.700000e-06	-3.074918e-06	-1.443482e-08	-2.228559e+01	-9.472595e+02
2.710000e-06	-3.201685e-06	-1.488234e-08	-2.320434e+01	-9.757230e+02
2.720000e-06	-3.327341e-06	-1.530014e-08	-2.411503e+01	-1.002128e+03
2.730000e-06	-3.451773e-06	-1.569293e-08	-2.501686e+01	-1.026854e+03
2.740000e-06	-3.574878e-06	-1.606037e-08	-2.590907e+01	-1.050210e+03
2.750000e-06	-3.696750e-06	-1.640387e-08	-2.679234e+01	-1.072420e+03
2.760000e-06	-3.817269e-06	-1.672572e-08	-2.766581e+01	-1.093623e+03
2.770000e-06	-3.936328e-06	-1.702912e-08	-2.852869e+01	-1.113876e+03
2.780000e-06	-4.053945e-06	-1.731581e-08	-2.938112e+01	-1.133177e+03
2.790000e-06	-4.169990e-06	-1.758479e-08	-3.022216e+01	-1.151488e+03
2.800000e-06	-4.284309e-06	-1.783721e-08	-3.105070e+01	-1.168757e+03
2.810000e-06	-4.396879e-06	-1.807674e-08	-3.186656e+01	-1.184947e+03
2.820000e-06	-4.507741e-06	-1.830642e-08	-3.267003e+01	-1.200050e+03
2.830000e-06	-4.617022e-06	-1.852557e-08	-3.346205e+01	-1.214099e+03
2.840000e-06	-4.724819e-06	-1.873338e-08	-3.424331e+01	-1.227165e+03
2.850000e-06	-4.831056e-06	-1.892956e-08	-3.501326e+01	-1.239357e+03
2.860000e-06	-4.935539e-06	-1.911248e-08	-3.577051e+01	-1.250803e+03
2.870000e-06	-5.038135e-06	-1.928330e-08	-3.651408e+01	-1.261637e+03
2.880000e-06	-5.138830e-06	-1.944700e-08	-3.724387e+01	-1.271982e+03
2.890000e-06	-5.237693e-06	-1.960515e-08	-3.796038e+01	-1.281936e+03
2.900000e-06	-5.334772e-06	-1.975431e-08	-3.866397e+01	-1.291560e+03
2.910000e-06	-5.429944e-06	-1.989368e-08	-3.935373e+01	-1.300875e+03
2.920000e-06	-5.523108e-06	-2.002467e-08	-4.002895e+01	-1.309868e+03
2.930000e-06	-5.614313e-06	-2.014988e-08	-4.068996e+01	-1.318496e+03
2.940000e-06	-5.703544e-06	-2.026892e-08	-4.133666e+01	-1.326704e+03
