# Temperatura_=_40.26
# Concentracion g/m^3_=_26700.0
# C_Vs_to_Am_M_A/Vsm_=_65563218390.804596
# pendiente_HvsI_1/m_=_3716.3
# ordenada_HvsI_A/m_=_1297.0
# frecuencia_Hz_=_301794.40555826813

Tiempo_(s)	Campo_(V.s)	Magnetizacion_(V.s)	Campo_(kA/m)	Magnetizacion_(A/m)
0.000000e+00	-5.220392e-06	-1.914425e-08	-3.829585e+01	-1.251740e+03
1.000000e-08	-5.218760e-06	-1.914895e-08	-3.828388e+01	-1.251882e+03
2.000000e-08	-5.215207e-06	-1.914796e-08	-3.825782e+01	-1.251850e+03
3.000000e-08	-5.209990e-06	-1.914524e-08	-3.821955e+01	-1.251639e+03
4.000000e-08	-5.203217e-06	-1.913963e-08	-3.816986e+01	-1.251231e+03
5.000000e-08	-5.194879e-06	-1.912684e-08	-3.810870e+01	-1.250601e+03
6.000000e-08	-5.184635e-06	-1.910855e-08	-3.803355e+01	-1.249724e+03
7.000000e-08	-5.172402e-06	-1.908407e-08	-3.794381e+01	-1.248586e+03
8.000000e-08	-5.158328e-06	-1.905710e-08	-3.784057e+01	-1.247193e+03
9.000000e-08	-5.142094e-06	-1.907293e-08	-3.772148e+01	-1.245567e+03
1.000000e-07	-5.123674e-06	-1.907781e-08	-3.758635e+01	-1.243751e+03
1.100000e-07	-5.103375e-06	-1.902142e-08	-3.743744e+01	-1.241796e+03
1.200000e-07	-5.081327e-06	-1.897982e-08	-3.727570e+01	-1.239757e+03
1.300000e-07	-5.057717e-06	-1.890496e-08	-3.710250e+01	-1.237674e+03
1.400000e-07	-5.032749e-06	-1.880477e-08	-3.691934e+01	-1.235569e+03
1.500000e-07	-5.006193e-06	-1.887198e-08	-3.672453e+01	-1.233437e+03
1.600000e-07	-4.977942e-06	-1.883725e-08	-3.651729e+01	-1.231250e+03
1.700000e-07	-4.948271e-06	-1.872742e-08	-3.629963e+01	-1.228956e+03
1.800000e-07	-4.917046e-06	-1.880716e-08	-3.607057e+01	-1.226499e+03
1.900000e-07	-4.883864e-06	-1.870208e-08	-3.582715e+01	-1.223821e+03
2.000000e-07	-4.848814e-06	-1.853459e-08	-3.557002e+01	-1.220881e+03
2.100000e-07	-4.812275e-06	-1.856430e-08	-3.530198e+01	-1.217658e+03
2.200000e-07	-4.774095e-06	-1.852177e-08	-3.502190e+01	-1.214155e+03
2.300000e-07	-4.734167e-06	-1.846093e-08	-3.472900e+01	-1.210396e+03
2.400000e-07	-4.692328e-06	-1.843302e-08	-3.442207e+01	-1.206418e+03
2.500000e-07	-4.648547e-06	-1.832472e-08	-3.410090e+01	-1.202262e+03
2.600000e-07	-4.603106e-06	-1.823762e-08	-3.376756e+01	-1.197963e+03
2.700000e-07	-4.555869e-06	-1.816259e-08	-3.342103e+01	-1.193542e+03
2.800000e-07	-4.506758e-06	-1.813803e-08	-3.306077e+01	-1.189004e+03
2.900000e-07	-4.455643e-06	-1.809326e-08	-3.268580e+01	-1.184340e+03
3.000000e-07	-4.402644e-06	-1.795861e-08	-3.229701e+01	-1.179529e+03
3.100000e-07	-4.348048e-06	-1.786360e-08	-3.189650e+01	-1.174549e+03
3.200000e-07	-4.291850e-06	-1.780223e-08	-3.148424e+01	-1.169381e+03
3.300000e-07	-4.233910e-06	-1.773772e-08	-3.105920e+01	-1.164017e+03
3.400000e-07	-4.174351e-06	-1.766084e-08	-3.062228e+01	-1.158459e+03
3.500000e-07	-4.113395e-06	-1.757183e-08	-3.017513e+01	-1.152717e+03
3.600000e-07	-4.051089e-06	-1.747697e-08	-2.971806e+01	-1.146808e+03
3.700000e-07	-3.987526e-06	-1.736089e-08	-2.925178e+01	-1.140748e+03
3.800000e-07	-3.922556e-06	-1.727225e-08	-2.877516e+01	-1.134549e+03
3.900000e-07	-3.855902e-06	-1.720499e-08	-2.828620e+01	-1.128211e+03
4.000000e-07	-3.787717e-06	-1.710919e-08	-2.778601e+01	-1.121728e+03
4.100000e-07	-3.718276e-06	-1.699448e-08	-2.727660e+01	-1.115087e+03
4.200000e-07	-3.647651e-06	-1.687179e-08	-2.675851e+01	-1.108271e+03
4.300000e-07	-3.575912e-06	-1.677098e-08	-2.623225e+01	-1.101269e+03
4.400000e-07	-3.502884e-06	-1.666943e-08	-2.569653e+01	-1.094072e+03
4.500000e-07	-3.428230e-06	-1.656338e-08	-2.514888e+01	-1.086684e+03
4.600000e-07	-3.352150e-06	-1.645073e-08	-2.459077e+01	-1.079111e+03
4.700000e-07	-3.274874e-06	-1.631443e-08	-2.402389e+01	-1.071366e+03
4.800000e-07	-3.196271e-06	-1.618324e-08	-2.344727e+01	-1.063461e+03
4.900000e-07	-3.116315e-06	-1.606220e-08	-2.286072e+01	-1.055405e+03
5.000000e-07	-3.035182e-06	-1.594679e-08	-2.226555e+01	-1.047197e+03
5.100000e-07	-2.953003e-06	-1.582149e-08	-2.166270e+01	-1.038829e+03
5.200000e-07	-2.869843e-06	-1.568911e-08	-2.105265e+01	-1.030287e+03
5.300000e-07	-2.785897e-06	-1.555596e-08	-2.043684e+01	-1.021553e+03
5.400000e-07	-2.701179e-06	-1.541691e-08	-1.981536e+01	-1.012610e+03
5.500000e-07	-2.615538e-06	-1.527744e-08	-1.918712e+01	-1.003447e+03
5.600000e-07	-2.528972e-06	-1.514113e-08	-1.855208e+01	-9.940570e+02
5.700000e-07	-2.441559e-06	-1.499850e-08	-1.791084e+01	-9.844413e+02
5.800000e-07	-2.353297e-06	-1.483867e-08	-1.726336e+01	-9.746046e+02
5.900000e-07	-2.264011e-06	-1.467133e-08	-1.660838e+01	-9.645527e+02
6.000000e-07	-2.173579e-06	-1.450986e-08	-1.594499e+01	-9.542891e+02
6.100000e-07	-2.082284e-06	-1.435104e-08	-1.527526e+01	-9.438124e+02
6.200000e-07	-1.990366e-06	-1.419007e-08	-1.460097e+01	-9.331153e+02
6.300000e-07	-1.897700e-06	-1.402722e-08	-1.392118e+01	-9.221859e+02
6.400000e-07	-1.804305e-06	-1.385711e-08	-1.323606e+01	-9.110100e+02
6.500000e-07	-1.710339e-06	-1.367987e-08	-1.254674e+01	-8.995748e+02
6.600000e-07	-1.615869e-06	-1.349912e-08	-1.185373e+01	-8.878714e+02
6.700000e-07	-1.520845e-06	-1.331503e-08	-1.115664e+01	-8.758963e+02
6.800000e-07	-1.425323e-06	-1.312548e-08	-1.045591e+01	-8.636507e+02
6.900000e-07	-1.329358e-06	-1.293019e-08	-9.751928e+00	-8.511388e+02
7.000000e-07	-1.232931e-06	-1.273352e-08	-9.044563e+00	-8.383636e+02
7.100000e-07	-1.136041e-06	-1.253702e-08	-8.333790e+00	-8.253243e+02
7.200000e-07	-1.038684e-06	-1.234049e-08	-7.619599e+00	-8.120135e+02
7.300000e-07	-9.408844e-07	-1.214024e-08	-6.902159e+00	-7.984167e+02
7.400000e-07	-8.426382e-07	-1.193196e-08	-6.181442e+00	-7.845141e+02
7.500000e-07	-7.440100e-07	-1.171528e-08	-5.457924e+00	-7.702834e+02
7.600000e-07	-6.450559e-07	-1.149331e-08	-4.732014e+00	-7.557041e+02
7.700000e-07	-5.458024e-07	-1.126569e-08	-4.003908e+00	-7.407606e+02
7.800000e-07	-4.463191e-07	-1.103134e-08	-3.274117e+00	-7.254441e+02
7.900000e-07	-3.467504e-07	-1.079148e-08	-2.543699e+00	-7.097517e+02
8.000000e-07	-2.471261e-07	-1.054516e-08	-1.812872e+00	-6.936839e+02
8.100000e-07	-1.474253e-07	-1.029363e-08	-1.081486e+00	-6.772396e+02
8.200000e-07	-4.765351e-08	-1.003873e-08	-3.495775e-01	-6.604113e+02
8.300000e-07	5.216653e-08	-9.780930e-09	3.826843e-01	-6.431812e+02
8.400000e-07	1.519764e-07	-9.516389e-09	1.114871e+00	-6.255191e+02
8.500000e-07	2.517469e-07	-9.240174e-09	1.846770e+00	-6.073831e+02
8.600000e-07	3.514627e-07	-8.953533e-09	2.578267e+00	-5.887233e+02
8.700000e-07	4.511230e-07	-8.658247e-09	3.309357e+00	-5.694867e+02
8.800000e-07	5.506690e-07	-8.353025e-09	4.039609e+00	-5.496226e+02
8.900000e-07	6.500469e-07	-8.039455e-09	4.768627e+00	-5.290870e+02
9.000000e-07	7.492133e-07	-7.719399e-09	5.496094e+00	-5.078444e+02
9.100000e-07	8.480771e-07	-7.389157e-09	6.221341e+00	-4.858668e+02
9.200000e-07	9.465565e-07	-7.045640e-09	6.943768e+00	-4.631305e+02
9.300000e-07	1.044452e-06	-6.689277e-09	7.661915e+00	-4.396098e+02
9.400000e-07	1.141771e-06	-6.319341e-09	8.375826e+00	-4.152721e+02
9.500000e-07	1.238603e-06	-5.934353e-09	9.086172e+00	-3.900727e+02
9.600000e-07	1.334936e-06	-5.534276e-09	9.792853e+00	-3.639526e+02
9.700000e-07	1.430777e-06	-5.119730e-09	1.049592e+01	-3.368394e+02
9.800000e-07	1.526072e-06	-4.689203e-09	1.119499e+01	-3.086504e+02
9.900000e-07	1.620834e-06	-4.240476e-09	1.189015e+01	-2.792981e+02
1.000000e-06	1.715054e-06	-3.771885e-09	1.258133e+01	-2.486965e+02
1.010000e-06	1.808746e-06	-3.284752e-09	1.326863e+01	-2.167666e+02
1.020000e-06	1.901834e-06	-2.779796e-09	1.395151e+01	-1.834416e+02
1.030000e-06	1.994251e-06	-2.252413e-09	1.462947e+01	-1.486690e+02
1.040000e-06	2.086050e-06	-1.698844e-09	1.530289e+01	-1.124131e+02
1.050000e-06	2.177161e-06	-1.120911e-09	1.597126e+01	-7.465539e+01
1.060000e-06	2.267342e-06	-5.199570e-10	1.663281e+01	-3.539672e+01
1.070000e-06	2.356444e-06	1.030862e-10	1.728645e+01	5.340665e+00
1.080000e-06	2.444624e-06	7.461944e-10	1.793332e+01	4.750894e+01
1.090000e-06	2.531997e-06	1.409164e-09	1.857427e+01	9.102975e+01
1.100000e-06	2.618597e-06	2.091554e-09	1.920956e+01	1.357892e+02
1.110000e-06	2.704364e-06	2.791527e-09	1.983873e+01	1.816340e+02
1.120000e-06	2.789188e-06	3.505092e-09	2.046098e+01	2.283702e+02
1.130000e-06	2.873188e-06	4.227211e-09	2.107719e+01	2.757652e+02
1.140000e-06	2.956375e-06	4.954257e-09	2.168744e+01	3.235543e+02
1.150000e-06	3.038503e-06	5.683050e-09	2.228991e+01	3.714494e+02
1.160000e-06	3.119391e-06	6.409370e-09	2.288329e+01	4.191516e+02
1.170000e-06	3.199069e-06	7.128430e-09	2.346779e+01	4.663635e+02
1.180000e-06	3.277654e-06	7.837270e-09	2.404428e+01	5.128012e+02
1.190000e-06	3.355133e-06	8.530060e-09	2.461265e+01	5.582038e+02
1.200000e-06	3.431488e-06	9.200585e-09	2.517278e+01	6.023406e+02
1.210000e-06	3.506629e-06	9.846481e-09	2.572400e+01	6.450148e+02
1.220000e-06	3.580272e-06	1.046665e-08	2.626423e+01	6.860650e+02
1.230000e-06	3.652354e-06	1.106067e-08	2.679301e+01	7.253643e+02
1.240000e-06	3.723078e-06	1.162822e-08	2.731183e+01	7.628196e+02
1.250000e-06	3.792576e-06	1.216704e-08	2.782165e+01	7.983697e+02
1.260000e-06	3.860867e-06	1.267662e-08	2.832263e+01	8.319838e+02
1.270000e-06	3.927815e-06	1.315810e-08	2.881375e+01	8.636605e+02
1.280000e-06	3.993146e-06	1.360881e-08	2.929300e+01	8.934257e+02
1.290000e-06	4.056864e-06	1.402879e-08	2.976042e+01	9.213295e+02
1.300000e-06	4.119210e-06	1.442156e-08	3.021778e+01	9.474425e+02
1.310000e-06	4.180252e-06	1.479090e-08	3.066557e+01	9.718503e+02
1.320000e-06	4.239995e-06	1.513720e-08	3.110384e+01	9.946471e+02
1.330000e-06	4.298218e-06	1.546108e-08	3.153095e+01	1.015930e+03
1.340000e-06	4.354666e-06	1.576223e-08	3.194505e+01	1.035793e+03
1.350000e-06	4.409487e-06	1.604062e-08	3.234720e+01	1.054323e+03
1.360000e-06	4.462793e-06	1.629937e-08	3.273824e+01	1.071599e+03
1.370000e-06	4.514342e-06	1.654142e-08	3.311640e+01	1.087693e+03
1.380000e-06	4.563814e-06	1.676882e-08	3.347932e+01	1.102669e+03
1.390000e-06	4.611376e-06	1.698024e-08	3.382823e+01	1.116589e+03
1.400000e-06	4.657354e-06	1.717512e-08	3.416551e+01	1.129512e+03
1.410000e-06	4.701846e-06	1.735629e-08	3.449189e+01	1.141497e+03
1.420000e-06	4.744776e-06	1.752453e-08	3.480682e+01	1.152605e+03
1.430000e-06	4.785865e-06	1.768038e-08	3.510825e+01	1.162891e+03
1.440000e-06	4.825219e-06	1.782528e-08	3.539694e+01	1.172411e+03
1.450000e-06	4.863014e-06	1.796022e-08	3.567420e+01	1.181214e+03
1.460000e-06	4.899273e-06	1.808593e-08	3.594018e+01	1.189343e+03
1.470000e-06	4.933805e-06	1.820012e-08	3.619351e+01	1.196837e+03
1.480000e-06	4.966398e-06	1.830270e-08	3.643260e+01	1.203731e+03
1.490000e-06	4.997252e-06	1.839579e-08	3.665894e+01	1.210058e+03
1.500000e-06	5.026459e-06	1.848133e-08	3.687320e+01	1.215853e+03
1.510000e-06	5.054003e-06	1.856126e-08	3.707525e+01	1.221151e+03
1.520000e-06	5.079632e-06	1.863542e-08	3.726327e+01	1.225991e+03
1.530000e-06	5.103297e-06	1.870352e-08	3.743687e+01	1.230410e+03
1.540000e-06	5.125230e-06	1.876517e-08	3.759777e+01	1.234440e+03
1.550000e-06	5.145496e-06	1.882152e-08	3.774643e+01	1.238108e+03
1.560000e-06	5.164071e-06	1.887268e-08	3.788270e+01	1.241429e+03
1.570000e-06	5.180701e-06	1.891770e-08	3.800469e+01	1.244411e+03
1.580000e-06	5.195305e-06	1.895759e-08	3.811182e+01	1.247051e+03
1.590000e-06	5.207983e-06	1.899337e-08	3.820483e+01	1.249346e+03
1.600000e-06	5.218578e-06	1.902326e-08	3.828255e+01	1.251293e+03
1.610000e-06	5.227071e-06	1.904558e-08	3.834485e+01	1.252897e+03
1.620000e-06	5.233686e-06	1.906328e-08	3.839338e+01	1.254171e+03
1.630000e-06	5.238569e-06	1.907777e-08	3.842920e+01	1.255142e+03
1.640000e-06	5.241661e-06	1.909021e-08	3.845188e+01	1.255843e+03
1.650000e-06	5.242768e-06	1.910023e-08	3.846000e+01	1.256311e+03
1.660000e-06	5.241975e-06	1.910353e-08	3.845418e+01	1.256578e+03
1.670000e-06	5.239533e-06	1.910236e-08	3.843627e+01	1.256665e+03
1.680000e-06	5.235567e-06	1.910296e-08	3.840718e+01	1.256577e+03
1.690000e-06	5.229872e-06	1.910075e-08	3.836540e+01	1.256307e+03
1.700000e-06	5.222277e-06	1.909373e-08	3.830969e+01	1.255831e+03
1.710000e-06	5.213084e-06	1.908567e-08	3.824225e+01	1.255124e+03
1.720000e-06	5.202342e-06	1.907925e-08	3.816345e+01	1.254165e+03
1.730000e-06	5.189796e-06	1.907351e-08	3.807141e+01	1.252945e+03
1.740000e-06	5.175285e-06	1.900569e-08	3.796496e+01	1.251475e+03
1.750000e-06	5.158694e-06	1.894087e-08	3.784325e+01	1.249783e+03
1.760000e-06	5.139803e-06	1.894065e-08	3.770467e+01	1.247918e+03
1.770000e-06	5.118347e-06	1.892283e-08	3.754728e+01	1.245931e+03
1.780000e-06	5.094836e-06	1.896794e-08	3.737480e+01	1.243875e+03
1.790000e-06	5.070331e-06	1.894471e-08	3.719504e+01	1.241785e+03
1.800000e-06	5.045076e-06	1.879199e-08	3.700977e+01	1.239674e+03
1.810000e-06	5.018210e-06	1.884761e-08	3.681268e+01	1.237530e+03
1.820000e-06	4.989379e-06	1.881703e-08	3.660118e+01	1.235316e+03
1.830000e-06	4.958867e-06	1.868900e-08	3.637736e+01	1.232977e+03
1.840000e-06	4.926486e-06	1.881624e-08	3.613981e+01	1.230455e+03
1.850000e-06	4.892305e-06	1.878444e-08	3.588907e+01	1.227698e+03
1.860000e-06	4.856628e-06	1.865865e-08	3.562735e+01	1.224669e+03
1.870000e-06	4.819109e-06	1.868684e-08	3.535212e+01	1.221355e+03
1.880000e-06	4.779664e-06	1.856483e-08	3.506275e+01	1.217768e+03
1.890000e-06	4.738587e-06	1.848546e-08	3.476142e+01	1.213935e+03
1.900000e-06	4.695816e-06	1.847619e-08	3.444766e+01	1.209896e+03
1.910000e-06	4.651504e-06	1.840457e-08	3.412260e+01	1.205692e+03
1.920000e-06	4.605476e-06	1.839881e-08	3.378494e+01	1.201353e+03
1.930000e-06	4.557643e-06	1.823512e-08	3.343405e+01	1.196896e+03
1.940000e-06	4.508245e-06	1.816261e-08	3.307167e+01	1.192321e+03
1.950000e-06	4.457016e-06	1.819743e-08	3.269586e+01	1.187613e+03
1.960000e-06	4.403839e-06	1.805904e-08	3.230577e+01	1.182751e+03
1.970000e-06	4.348752e-06	1.799560e-08	3.190166e+01	1.177713e+03
1.980000e-06	4.291981e-06	1.791392e-08	3.148520e+01	1.172484e+03
1.990000e-06	4.233764e-06	1.780816e-08	3.105813e+01	1.167058e+03
2.000000e-06	4.174149e-06	1.774350e-08	3.062080e+01	1.161439e+03
2.010000e-06	4.113207e-06	1.763863e-08	3.017375e+01	1.155643e+03
2.020000e-06	4.050620e-06	1.759973e-08	2.971462e+01	1.149685e+03
2.030000e-06	3.986349e-06	1.748071e-08	2.924314e+01	1.143581e+03
2.040000e-06	3.920744e-06	1.735082e-08	2.876188e+01	1.137338e+03
2.050000e-06	3.853850e-06	1.727360e-08	2.827115e+01	1.130956e+03
2.060000e-06	3.785718e-06	1.716822e-08	2.777135e+01	1.124425e+03
2.070000e-06	3.716083e-06	1.708975e-08	2.726052e+01	1.117730e+03
2.080000e-06	3.644838e-06	1.696526e-08	2.673787e+01	1.110857e+03
2.090000e-06	3.572313e-06	1.685950e-08	2.620585e+01	1.103793e+03
2.100000e-06	3.498618e-06	1.674777e-08	2.566523e+01	1.096536e+03
2.110000e-06	3.423733e-06	1.662514e-08	2.511589e+01	1.089087e+03
2.120000e-06	3.347539e-06	1.653574e-08	2.455694e+01	1.081459e+03
2.130000e-06	3.269863e-06	1.641065e-08	2.398713e+01	1.073663e+03
2.140000e-06	3.190757e-06	1.629250e-08	2.340682e+01	1.065710e+03
2.150000e-06	3.110512e-06	1.616552e-08	2.281816e+01	1.057606e+03
2.160000e-06	3.029242e-06	1.603854e-08	2.222197e+01	1.049349e+03
2.170000e-06	2.946938e-06	1.590374e-08	2.161821e+01	1.040927e+03
2.180000e-06	2.863672e-06	1.576447e-08	2.100738e+01	1.032327e+03
2.190000e-06	2.779481e-06	1.564684e-08	2.038977e+01	1.023528e+03
2.200000e-06	2.694197e-06	1.551147e-08	1.976414e+01	1.014517e+03
2.210000e-06	2.607585e-06	1.536491e-08	1.912877e+01	1.005282e+03
2.220000e-06	2.519873e-06	1.521228e-08	1.848534e+01	9.958204e+02
2.230000e-06	2.431335e-06	1.507236e-08	1.783583e+01	9.861340e+02
2.240000e-06	2.341998e-06	1.492890e-08	1.718048e+01	9.762285e+02
2.250000e-06	2.251941e-06	1.477272e-08	1.651983e+01	9.661094e+02
2.260000e-06	2.161189e-06	1.461971e-08	1.585409e+01	9.557788e+02
2.270000e-06	2.069725e-06	1.446066e-08	1.518313e+01	9.452333e+02
2.280000e-06	1.977623e-06	1.429415e-08	1.450749e+01	9.344640e+02
2.290000e-06	1.884931e-06	1.412468e-08	1.382752e+01	9.234579e+02
2.300000e-06	1.791486e-06	1.395992e-08	1.314202e+01	9.122010e+02
2.310000e-06	1.697141e-06	1.379268e-08	1.244992e+01	9.006813e+02
2.320000e-06	1.602010e-06	1.361354e-08	1.175206e+01	8.888917e+02
2.330000e-06	1.506315e-06	1.342317e-08	1.105005e+01	8.768303e+02
2.340000e-06	1.410222e-06	1.323088e-08	1.034513e+01	8.644997e+02
2.350000e-06	1.313799e-06	1.303973e-08	9.637796e+00	8.519040e+02
2.360000e-06	1.216998e-06	1.284465e-08	8.927681e+00	8.390453e+02
2.370000e-06	1.119761e-06	1.264383e-08	8.214364e+00	8.259209e+02
2.380000e-06	1.022185e-06	1.243797e-08	7.498564e+00	8.125211e+02
2.390000e-06	9.243230e-07	1.223012e-08	6.780667e+00	7.988293e+02
2.400000e-06	8.261037e-07	1.201640e-08	6.060148e+00	7.848247e+02
2.410000e-06	7.276197e-07	1.179551e-08	5.337687e+00	7.704850e+02
2.420000e-06	6.289437e-07	1.156983e-08	4.613818e+00	7.557911e+02
2.430000e-06	5.300879e-07	1.133654e-08	3.888629e+00	7.407294e+02
2.440000e-06	4.311481e-07	1.109560e-08	3.162825e+00	7.252932e+02
2.450000e-06	3.320833e-07	1.085286e-08	2.436104e+00	7.094811e+02
2.460000e-06	2.328692e-07	1.060959e-08	1.708287e+00	6.932936e+02
2.470000e-06	1.335666e-07	1.036082e-08	9.798207e-01	6.767281e+02
2.480000e-06	3.415745e-08	1.010332e-08	2.505729e-01	6.597742e+02
2.490000e-06	-6.527843e-08	9.839142e-09	-4.788708e-01	6.424101e+02
2.500000e-06	-1.646474e-07	9.569974e-09	-1.207824e+00	6.246017e+02
2.510000e-06	-2.639971e-07	9.291610e-09	-1.936635e+00	6.063041e+02
2.520000e-06	-3.632816e-07	9.002130e-09	-2.664969e+00	5.874657e+02
2.530000e-06	-4.624096e-07	8.700502e-09	-3.392154e+00	5.680338e+02
2.540000e-06	-5.614236e-07	8.388511e-09	-4.118502e+00	5.479592e+02
2.550000e-06	-6.602842e-07	8.069019e-09	-4.843726e+00	5.272008e+02
2.560000e-06	-7.589067e-07	7.742669e-09	-5.567203e+00	5.057258e+02
2.570000e-06	-8.572712e-07	7.406711e-09	-6.288787e+00	4.835079e+02
2.580000e-06	-9.553316e-07	7.057942e-09	-7.008140e+00	4.605234e+02
2.590000e-06	-1.053051e-06	6.696402e-09	-7.724991e+00	4.367453e+02
2.600000e-06	-1.150396e-06	6.320000e-09	-8.439100e+00	4.121371e+02
2.610000e-06	-1.247398e-06	5.929755e-09	-9.150688e+00	3.866499e+02
2.620000e-06	-1.344033e-06	5.525485e-09	-9.859584e+00	3.602201e+02
2.630000e-06	-1.440245e-06	5.105064e-09	-1.056538e+01	3.327715e+02
2.640000e-06	-1.536014e-06	4.667621e-09	-1.126792e+01	3.042192e+02
2.650000e-06	-1.631186e-06	4.213221e-09	-1.196609e+01	2.744755e+02
2.660000e-06	-1.725570e-06	3.742373e-09	-1.265847e+01	2.434561e+02
2.670000e-06	-1.819063e-06	3.251042e-09	-1.334432e+01	2.110855e+02
2.680000e-06	-1.911728e-06	2.735005e-09	-1.402409e+01	1.773011e+02
2.690000e-06	-2.003689e-06	2.196522e-09	-1.469870e+01	1.420558e+02
2.700000e-06	-2.094967e-06	1.636415e-09	-1.536830e+01	1.053193e+02
2.710000e-06	-2.185544e-06	1.053478e-09	-1.603276e+01	6.707916e+01
2.720000e-06	-2.275402e-06	4.468887e-10	-1.669194e+01	2.734264e+01
2.730000e-06	-2.364417e-06	-1.812372e-10	-1.734494e+01	-1.386023e+01
2.740000e-06	-2.452675e-06	-8.294050e-10	-1.799238e+01	-5.647239e+01
2.750000e-06	-2.540268e-06	-1.499984e-09	-1.863495e+01	-1.004046e+02
2.760000e-06	-2.626927e-06	-2.190281e-09	-1.927066e+01	-1.455306e+02
2.770000e-06	-2.712432e-06	-2.894883e-09	-1.989791e+01	-1.916839e+02
2.780000e-06	-2.796873e-06	-3.611161e-09	-2.051736e+01	-2.386579e+02
2.790000e-06	-2.880465e-06	-4.336338e-09	-2.113057e+01	-2.862088e+02
2.800000e-06	-2.963112e-06	-5.066472e-09	-2.173686e+01	-3.340631e+02
2.810000e-06	-3.044722e-06	-5.796726e-09	-2.233553e+01	-3.819280e+02
2.820000e-06	-3.125319e-06	-6.521508e-09	-2.292677e+01	-4.295036e+02
2.830000e-06	-3.204821e-06	-7.238693e-09	-2.350999e+01	-4.764957e+02
2.840000e-06	-3.283005e-06	-7.946880e-09	-2.408353e+01	-5.226267e+02
2.850000e-06	-3.359785e-06	-8.640367e-09	-2.464678e+01	-5.676450e+02
2.860000e-06	-3.435263e-06	-9.311140e-09	-2.520047e+01	-6.113305e+02
2.870000e-06	-3.509488e-06	-9.956344e-09	-2.574498e+01	-6.534976e+02
2.880000e-06	-3.582462e-06	-1.057723e-08	-2.628030e+01	-6.939962e+02
2.890000e-06	-3.654234e-06	-1.117153e-08	-2.680680e+01	-7.327103e+02
2.900000e-06	-3.724671e-06	-1.173614e-08	-2.732352e+01	-7.695574e+02
2.910000e-06	-3.793546e-06	-1.227237e-08	-2.782877e+01	-8.044861e+02
2.920000e-06	-3.860994e-06	-1.277907e-08	-2.832356e+01	-8.374753e+02
2.930000e-06	-3.927159e-06	-1.325572e-08	-2.880893e+01	-8.685325e+02
2.940000e-06	-3.992038e-06	-1.370416e-08	-2.928488e+01	-8.976918e+02
