# Temperatura_=_36.82
# Concentracion g/m^3_=_26700.0
# C_Vs_to_Am_M_A/Vsm_=_65563218390.804596
# pendiente_HvsI_1/m_=_3716.3
# ordenada_HvsI_A/m_=_1297.0
# frecuencia_Hz_=_301794.0002308466

Tiempo_(s)	Campo_(V.s)	Magnetizacion_(V.s)	Campo_(kA/m)	Magnetizacion_(A/m)
0.000000e+00	-5.244061e-06	-1.897455e-08	-3.830005e+01	-1.240866e+03
1.000000e-08	-5.242784e-06	-1.897895e-08	-3.829072e+01	-1.241012e+03
2.000000e-08	-5.239595e-06	-1.897836e-08	-3.826743e+01	-1.240974e+03
3.000000e-08	-5.234636e-06	-1.897255e-08	-3.823121e+01	-1.240749e+03
4.000000e-08	-5.228070e-06	-1.896591e-08	-3.818326e+01	-1.240324e+03
5.000000e-08	-5.219953e-06	-1.895494e-08	-3.812398e+01	-1.239680e+03
6.000000e-08	-5.209988e-06	-1.893901e-08	-3.805120e+01	-1.238798e+03
7.000000e-08	-5.198014e-06	-1.891904e-08	-3.796374e+01	-1.237668e+03
8.000000e-08	-5.184261e-06	-1.889301e-08	-3.786330e+01	-1.236292e+03
9.000000e-08	-5.168365e-06	-1.889501e-08	-3.774720e+01	-1.234692e+03
1.000000e-07	-5.150202e-06	-1.890758e-08	-3.761455e+01	-1.232902e+03
1.100000e-07	-5.130155e-06	-1.885859e-08	-3.746814e+01	-1.230967e+03
1.200000e-07	-5.108313e-06	-1.880589e-08	-3.730861e+01	-1.228934e+03
1.300000e-07	-5.084872e-06	-1.875331e-08	-3.713741e+01	-1.226838e+03
1.400000e-07	-5.060052e-06	-1.864970e-08	-3.695614e+01	-1.224702e+03
1.500000e-07	-5.033670e-06	-1.865731e-08	-3.676346e+01	-1.222524e+03
1.600000e-07	-5.005611e-06	-1.868230e-08	-3.655853e+01	-1.220285e+03
1.700000e-07	-4.976105e-06	-1.857149e-08	-3.634303e+01	-1.217945e+03
1.800000e-07	-4.945137e-06	-1.859532e-08	-3.611685e+01	-1.215458e+03
1.900000e-07	-4.912104e-06	-1.856479e-08	-3.587560e+01	-1.212776e+03
2.000000e-07	-4.877109e-06	-1.838118e-08	-3.562001e+01	-1.209863e+03
2.100000e-07	-4.840692e-06	-1.837141e-08	-3.535404e+01	-1.206696e+03
2.200000e-07	-4.802639e-06	-1.836352e-08	-3.507612e+01	-1.203273e+03
2.300000e-07	-4.762877e-06	-1.829550e-08	-3.478572e+01	-1.199607e+03
2.400000e-07	-4.721211e-06	-1.827114e-08	-3.448141e+01	-1.195725e+03
2.500000e-07	-4.677586e-06	-1.817198e-08	-3.416279e+01	-1.191654e+03
2.600000e-07	-4.632327e-06	-1.805968e-08	-3.383224e+01	-1.187424e+03
2.700000e-07	-4.585329e-06	-1.799278e-08	-3.348899e+01	-1.183051e+03
2.800000e-07	-4.536347e-06	-1.796078e-08	-3.313125e+01	-1.178543e+03
2.900000e-07	-4.485278e-06	-1.793800e-08	-3.275827e+01	-1.173896e+03
3.000000e-07	-4.432322e-06	-1.782047e-08	-3.237150e+01	-1.169097e+03
3.100000e-07	-4.377780e-06	-1.770262e-08	-3.197316e+01	-1.164133e+03
3.200000e-07	-4.321667e-06	-1.763965e-08	-3.156334e+01	-1.158989e+03
3.300000e-07	-4.263741e-06	-1.757569e-08	-3.114027e+01	-1.153661e+03
3.400000e-07	-4.204146e-06	-1.749652e-08	-3.070502e+01	-1.148147e+03
3.500000e-07	-4.143148e-06	-1.740911e-08	-3.025952e+01	-1.142454e+03
3.600000e-07	-4.080768e-06	-1.732702e-08	-2.980393e+01	-1.136593e+03
3.700000e-07	-4.017136e-06	-1.721107e-08	-2.933919e+01	-1.130573e+03
3.800000e-07	-3.952066e-06	-1.710902e-08	-2.886395e+01	-1.124399e+03
3.900000e-07	-3.885277e-06	-1.704759e-08	-2.837616e+01	-1.118073e+03
4.000000e-07	-3.816982e-06	-1.695880e-08	-2.787736e+01	-1.111588e+03
4.100000e-07	-3.747468e-06	-1.684291e-08	-2.736967e+01	-1.104935e+03
4.200000e-07	-3.676799e-06	-1.672105e-08	-2.685353e+01	-1.098105e+03
4.300000e-07	-3.604997e-06	-1.661593e-08	-2.632913e+01	-1.091090e+03
4.400000e-07	-3.531837e-06	-1.651441e-08	-2.579481e+01	-1.083886e+03
4.500000e-07	-3.457021e-06	-1.640501e-08	-2.524838e+01	-1.076497e+03
4.600000e-07	-3.380771e-06	-1.629349e-08	-2.469149e+01	-1.068929e+03
4.700000e-07	-3.303308e-06	-1.616125e-08	-2.412574e+01	-1.061192e+03
4.800000e-07	-3.224484e-06	-1.602901e-08	-2.355005e+01	-1.053293e+03
4.900000e-07	-3.144257e-06	-1.591142e-08	-2.296411e+01	-1.045236e+03
5.000000e-07	-3.062893e-06	-1.579629e-08	-2.236987e+01	-1.037018e+03
5.100000e-07	-2.980498e-06	-1.567030e-08	-2.176810e+01	-1.028631e+03
5.200000e-07	-2.897182e-06	-1.553534e-08	-2.115960e+01	-1.020061e+03
5.300000e-07	-2.813107e-06	-1.540332e-08	-2.054556e+01	-1.011295e+03
5.400000e-07	-2.728195e-06	-1.526351e-08	-1.992540e+01	-1.002320e+03
5.500000e-07	-2.642313e-06	-1.512045e-08	-1.929816e+01	-9.931271e+02
5.600000e-07	-2.555517e-06	-1.498405e-08	-1.866424e+01	-9.837139e+02
5.700000e-07	-2.467956e-06	-1.484041e-08	-1.802474e+01	-9.740815e+02
5.800000e-07	-2.379406e-06	-1.468159e-08	-1.737802e+01	-9.642339e+02
5.900000e-07	-2.289661e-06	-1.451671e-08	-1.672256e+01	-9.541746e+02
6.000000e-07	-2.198923e-06	-1.435888e-08	-1.605986e+01	-9.439035e+02
6.100000e-07	-2.107442e-06	-1.420141e-08	-1.539172e+01	-9.334159e+02
6.200000e-07	-2.015269e-06	-1.403885e-08	-1.471854e+01	-9.227017e+02
6.300000e-07	-1.922398e-06	-1.387344e-08	-1.404025e+01	-9.117474e+02
6.400000e-07	-1.828787e-06	-1.370142e-08	-1.335656e+01	-9.005389e+02
6.500000e-07	-1.734521e-06	-1.352218e-08	-1.266809e+01	-8.890646e+02
6.600000e-07	-1.639734e-06	-1.333977e-08	-1.197581e+01	-8.773181e+02
6.700000e-07	-1.544527e-06	-1.315645e-08	-1.128047e+01	-8.652993e+02
6.800000e-07	-1.448865e-06	-1.296925e-08	-1.058180e+01	-8.530134e+02
6.900000e-07	-1.352593e-06	-1.277543e-08	-9.878673e+00	-8.404687e+02
7.000000e-07	-1.255706e-06	-1.257748e-08	-9.171061e+00	-8.276723e+02
7.100000e-07	-1.158224e-06	-1.237850e-08	-8.459101e+00	-8.146267e+02
7.200000e-07	-1.060254e-06	-1.217881e-08	-7.743575e+00	-8.013272e+02
7.300000e-07	-9.618678e-07	-1.197722e-08	-7.025010e+00	-7.877605e+02
7.400000e-07	-8.630942e-07	-1.176896e-08	-6.303617e+00	-7.739066e+02
7.500000e-07	-7.640076e-07	-1.155326e-08	-5.579936e+00	-7.597410e+02
7.600000e-07	-6.646778e-07	-1.133241e-08	-4.854481e+00	-7.452397e+02
7.700000e-07	-5.651453e-07	-1.110525e-08	-4.127544e+00	-7.303825e+02
7.800000e-07	-4.654559e-07	-1.087237e-08	-3.399461e+00	-7.151555e+02
7.900000e-07	-3.656475e-07	-1.063499e-08	-2.670510e+00	-6.995518e+02
8.000000e-07	-2.657383e-07	-1.039174e-08	-1.940822e+00	-6.835694e+02
8.100000e-07	-1.657547e-07	-1.014150e-08	-1.210591e+00	-6.672074e+02
8.200000e-07	-6.568264e-08	-9.884959e-09	-4.797138e-01	-6.504611e+02
8.300000e-07	3.447726e-08	-9.624280e-09	2.518050e-01	-6.333179e+02
8.400000e-07	1.346231e-07	-9.359444e-09	9.832209e-01	-6.157544e+02
8.500000e-07	2.346808e-07	-9.086539e-09	1.713994e+00	-5.977358e+02
8.600000e-07	3.346916e-07	-8.804657e-09	2.444424e+00	-5.792179e+02
8.700000e-07	4.347075e-07	-8.514083e-09	3.174890e+00	-5.601510e+02
8.800000e-07	5.346744e-07	-8.213009e-09	3.904999e+00	-5.404848e+02
8.900000e-07	6.344762e-07	-7.902513e-09	4.633903e+00	-5.201731e+02
9.000000e-07	7.340767e-07	-7.583972e-09	5.361336e+00	-4.991759e+02
9.100000e-07	8.334616e-07	-7.255393e-09	6.087194e+00	-4.774609e+02
9.200000e-07	9.325411e-07	-6.914608e-09	6.810823e+00	-4.550007e+02
9.300000e-07	1.031205e-06	-6.562470e-09	7.531418e+00	-4.317692e+02
9.400000e-07	1.129421e-06	-6.196933e-09	8.248740e+00	-4.077363e+02
9.500000e-07	1.227117e-06	-5.815681e-09	8.962260e+00	-3.828634e+02
9.600000e-07	1.324233e-06	-5.419710e-09	9.671547e+00	-3.571000e+02
9.700000e-07	1.420747e-06	-5.010621e-09	1.037644e+01	-3.303826e+02
9.800000e-07	1.516647e-06	-4.588082e-09	1.107684e+01	-3.026363e+02
9.900000e-07	1.611992e-06	-4.150306e-09	1.177320e+01	-2.737786e+02
1.000000e-06	1.706774e-06	-3.694067e-09	1.246544e+01	-2.437248e+02
1.010000e-06	1.800956e-06	-3.217715e-09	1.315330e+01	-2.123931e+02
1.020000e-06	1.894526e-06	-2.720547e-09	1.383669e+01	-1.797109e+02
1.030000e-06	1.987449e-06	-2.199927e-09	1.451535e+01	-1.456187e+02
1.040000e-06	2.079750e-06	-1.656472e-09	1.518947e+01	-1.100739e+02
1.050000e-06	2.171439e-06	-1.091029e-09	1.585912e+01	-7.305304e+01
1.060000e-06	2.262357e-06	-5.035847e-10	1.652315e+01	-3.455471e+01
1.070000e-06	2.352220e-06	1.050556e-10	1.717946e+01	5.398567e+00
1.080000e-06	2.440957e-06	7.342127e-10	1.782755e+01	4.675718e+01
1.090000e-06	2.528799e-06	1.385047e-09	1.846910e+01	8.944129e+01
1.100000e-06	2.615874e-06	2.054970e-09	1.910506e+01	1.333377e+02
1.110000e-06	2.702149e-06	2.741149e-09	1.973517e+01	1.782975e+02
1.120000e-06	2.787514e-06	3.440111e-09	2.035863e+01	2.241357e+02
1.130000e-06	2.871962e-06	4.147751e-09	2.097540e+01	2.706331e+02
1.140000e-06	2.955553e-06	4.860790e-09	2.158591e+01	3.175408e+02
1.150000e-06	3.038194e-06	5.576890e-09	2.218948e+01	3.645877e+02
1.160000e-06	3.119756e-06	6.291782e-09	2.278517e+01	4.114902e+02
1.170000e-06	3.200122e-06	6.998030e-09	2.337212e+01	4.579626e+02
1.180000e-06	3.279319e-06	7.692159e-09	2.395054e+01	5.037277e+02
1.190000e-06	3.357364e-06	8.372649e-09	2.452054e+01	5.485263e+02
1.200000e-06	3.434218e-06	9.036120e-09	2.508184e+01	5.921253e+02
1.210000e-06	3.509883e-06	9.676616e-09	2.563446e+01	6.343226e+02
1.220000e-06	3.584190e-06	1.029159e-08	2.617716e+01	6.749508e+02
1.230000e-06	3.656874e-06	1.088098e-08	2.670802e+01	7.138781e+02
1.240000e-06	3.728115e-06	1.144347e-08	2.722833e+01	7.510083e+02
1.250000e-06	3.798105e-06	1.197657e-08	2.773949e+01	7.862793e+02
1.260000e-06	3.866807e-06	1.248100e-08	2.824126e+01	8.196613e+02
1.270000e-06	3.934270e-06	1.295807e-08	2.873398e+01	8.511540e+02
1.280000e-06	4.000260e-06	1.340726e-08	2.921593e+01	8.807832e+02
1.290000e-06	4.064591e-06	1.382824e-08	2.968578e+01	9.085972e+02
1.300000e-06	4.127437e-06	1.422302e-08	3.014478e+01	9.346621e+02
1.310000e-06	4.188921e-06	1.459279e-08	3.059382e+01	9.590564e+02
1.320000e-06	4.249060e-06	1.493909e-08	3.103305e+01	9.818666e+02
1.330000e-06	4.307797e-06	1.526408e-08	3.146203e+01	1.003181e+03
1.340000e-06	4.364826e-06	1.556621e-08	3.187855e+01	1.023088e+03
1.350000e-06	4.420125e-06	1.584614e-08	3.228243e+01	1.041671e+03
1.360000e-06	4.473859e-06	1.610685e-08	3.267487e+01	1.059007e+03
1.370000e-06	4.525905e-06	1.635029e-08	3.305499e+01	1.075169e+03
1.380000e-06	4.575980e-06	1.657722e-08	3.342072e+01	1.090223e+03
1.390000e-06	4.624076e-06	1.678891e-08	3.377198e+01	1.104233e+03
1.400000e-06	4.670513e-06	1.698605e-08	3.411113e+01	1.117260e+03
1.410000e-06	4.715470e-06	1.716856e-08	3.443948e+01	1.129359e+03
1.420000e-06	4.758904e-06	1.733797e-08	3.475670e+01	1.140587e+03
1.430000e-06	4.800569e-06	1.749594e-08	3.506100e+01	1.150993e+03
1.440000e-06	4.840428e-06	1.764327e-08	3.535211e+01	1.160626e+03
1.450000e-06	4.878628e-06	1.778010e-08	3.563111e+01	1.169528e+03
1.460000e-06	4.915239e-06	1.790671e-08	3.589850e+01	1.177739e+03
1.470000e-06	4.950259e-06	1.802257e-08	3.615426e+01	1.185296e+03
1.480000e-06	4.983382e-06	1.812681e-08	3.639618e+01	1.192235e+03
1.490000e-06	5.014624e-06	1.822095e-08	3.662436e+01	1.198594e+03
1.500000e-06	5.044236e-06	1.830753e-08	3.684062e+01	1.204413e+03
1.510000e-06	5.072248e-06	1.838762e-08	3.704521e+01	1.209734e+03
1.520000e-06	5.098397e-06	1.846149e-08	3.723619e+01	1.214597e+03
1.530000e-06	5.122462e-06	1.852931e-08	3.741195e+01	1.219043e+03
1.540000e-06	5.144697e-06	1.859157e-08	3.757434e+01	1.223105e+03
1.550000e-06	5.165287e-06	1.864941e-08	3.772472e+01	1.226809e+03
1.560000e-06	5.184217e-06	1.870193e-08	3.786298e+01	1.230168e+03
1.570000e-06	5.201250e-06	1.874778e-08	3.798738e+01	1.233190e+03
1.580000e-06	5.216255e-06	1.878799e-08	3.809697e+01	1.235871e+03
1.590000e-06	5.229275e-06	1.882363e-08	3.819206e+01	1.238207e+03
1.600000e-06	5.240216e-06	1.885367e-08	3.827197e+01	1.240195e+03
1.610000e-06	5.249009e-06	1.887692e-08	3.833619e+01	1.241839e+03
1.620000e-06	5.255905e-06	1.889545e-08	3.838655e+01	1.243153e+03
1.630000e-06	5.261084e-06	1.891064e-08	3.842438e+01	1.244160e+03
1.640000e-06	5.264490e-06	1.892418e-08	3.844925e+01	1.244892e+03
1.650000e-06	5.265962e-06	1.893569e-08	3.846000e+01	1.245382e+03
1.660000e-06	5.265510e-06	1.894099e-08	3.845670e+01	1.245661e+03
1.670000e-06	5.263360e-06	1.894077e-08	3.844100e+01	1.245748e+03
1.680000e-06	5.259671e-06	1.894044e-08	3.841406e+01	1.245651e+03
1.690000e-06	5.254285e-06	1.893639e-08	3.837472e+01	1.245365e+03
1.700000e-06	5.246953e-06	1.892794e-08	3.832117e+01	1.244873e+03
1.710000e-06	5.237949e-06	1.891808e-08	3.825541e+01	1.244156e+03
1.720000e-06	5.227422e-06	1.890906e-08	3.817853e+01	1.243195e+03
1.730000e-06	5.215184e-06	1.890338e-08	3.808915e+01	1.241986e+03
1.740000e-06	5.200975e-06	1.885676e-08	3.798537e+01	1.240536e+03
1.750000e-06	5.184698e-06	1.877914e-08	3.786649e+01	1.238871e+03
1.760000e-06	5.166161e-06	1.877086e-08	3.773111e+01	1.237031e+03
1.770000e-06	5.145049e-06	1.876156e-08	3.757692e+01	1.235061e+03
1.780000e-06	5.121760e-06	1.877258e-08	3.740682e+01	1.233005e+03
1.790000e-06	5.097266e-06	1.879647e-08	3.722793e+01	1.230896e+03
1.800000e-06	5.072074e-06	1.865985e-08	3.704394e+01	1.228749e+03
1.810000e-06	5.045496e-06	1.863684e-08	3.684983e+01	1.226556e+03
1.820000e-06	5.016866e-06	1.867639e-08	3.664073e+01	1.224290e+03
1.830000e-06	4.986497e-06	1.854094e-08	3.641893e+01	1.221909e+03
1.840000e-06	4.954332e-06	1.859001e-08	3.618401e+01	1.219365e+03
1.850000e-06	4.920287e-06	1.863726e-08	3.593536e+01	1.216613e+03
1.860000e-06	4.884730e-06	1.848916e-08	3.567567e+01	1.213621e+03
1.870000e-06	4.847332e-06	1.849258e-08	3.540253e+01	1.210372e+03
1.880000e-06	4.808024e-06	1.841807e-08	3.511545e+01	1.206870e+03
1.890000e-06	4.767166e-06	1.829597e-08	3.481704e+01	1.203133e+03
1.900000e-06	4.724523e-06	1.832692e-08	3.450560e+01	1.199188e+03
1.910000e-06	4.680218e-06	1.826785e-08	3.418202e+01	1.195064e+03
1.920000e-06	4.634229e-06	1.822349e-08	3.384614e+01	1.190788e+03
1.930000e-06	4.586443e-06	1.809921e-08	3.349713e+01	1.186372e+03
1.940000e-06	4.537111e-06	1.796913e-08	3.313684e+01	1.181822e+03
1.950000e-06	4.485950e-06	1.801816e-08	3.276318e+01	1.177128e+03
1.960000e-06	4.432852e-06	1.792103e-08	3.237538e+01	1.172279e+03
1.970000e-06	4.377880e-06	1.782740e-08	3.197389e+01	1.167259e+03
1.980000e-06	4.321122e-06	1.777103e-08	3.155936e+01	1.162058e+03
1.990000e-06	4.262892e-06	1.764864e-08	3.113407e+01	1.156670e+03
2.000000e-06	4.203331e-06	1.757987e-08	3.069907e+01	1.151099e+03
2.010000e-06	4.142392e-06	1.747149e-08	3.025400e+01	1.145352e+03
2.020000e-06	4.079730e-06	1.742565e-08	2.979635e+01	1.139440e+03
2.030000e-06	4.015391e-06	1.734111e-08	2.932644e+01	1.133371e+03
2.040000e-06	3.949717e-06	1.719217e-08	2.884680e+01	1.127150e+03
2.050000e-06	3.882711e-06	1.711796e-08	2.835742e+01	1.120774e+03
2.060000e-06	3.814440e-06	1.701231e-08	2.785880e+01	1.114238e+03
2.070000e-06	3.744664e-06	1.692830e-08	2.734919e+01	1.107530e+03
2.080000e-06	3.673264e-06	1.681489e-08	2.682772e+01	1.100642e+03
2.090000e-06	3.600641e-06	1.669665e-08	2.629732e+01	1.093567e+03
2.100000e-06	3.526841e-06	1.659601e-08	2.575832e+01	1.086305e+03
2.110000e-06	3.451784e-06	1.646735e-08	2.521014e+01	1.078858e+03
2.120000e-06	3.375398e-06	1.637763e-08	2.465225e+01	1.071236e+03
2.130000e-06	3.297529e-06	1.625610e-08	2.408354e+01	1.063447e+03
2.140000e-06	3.218261e-06	1.613115e-08	2.350460e+01	1.055499e+03
2.150000e-06	3.137844e-06	1.601105e-08	2.291727e+01	1.047391e+03
2.160000e-06	3.056364e-06	1.588392e-08	2.232218e+01	1.039121e+03
2.170000e-06	2.973790e-06	1.575080e-08	2.171911e+01	1.030678e+03
2.180000e-06	2.890351e-06	1.560474e-08	2.110970e+01	1.022047e+03
2.190000e-06	2.806019e-06	1.548666e-08	2.049379e+01	1.013216e+03
2.200000e-06	2.720490e-06	1.535480e-08	1.986912e+01	1.004173e+03
2.210000e-06	2.633697e-06	1.520806e-08	1.923523e+01	9.949106e+02
2.220000e-06	2.545836e-06	1.505916e-08	1.859354e+01	9.854277e+02
2.230000e-06	2.457142e-06	1.491774e-08	1.794576e+01	9.757268e+02
2.240000e-06	2.367639e-06	1.477366e-08	1.729207e+01	9.658119e+02
2.250000e-06	2.277375e-06	1.461268e-08	1.663283e+01	9.556858e+02
2.260000e-06	2.186404e-06	1.445870e-08	1.596842e+01	9.453470e+02
2.270000e-06	2.094786e-06	1.430064e-08	1.529929e+01	9.347889e+02
2.280000e-06	2.002508e-06	1.413563e-08	1.462534e+01	9.240002e+02
2.290000e-06	1.909429e-06	1.396727e-08	1.394553e+01	9.129667e+02
2.300000e-06	1.815486e-06	1.380072e-08	1.325942e+01	9.016749e+02
2.310000e-06	1.720767e-06	1.363045e-08	1.256764e+01	8.901146e+02
2.320000e-06	1.625413e-06	1.344709e-08	1.187122e+01	8.782813e+02
2.330000e-06	1.529538e-06	1.325535e-08	1.117100e+01	8.661770e+02
2.340000e-06	1.433204e-06	1.306515e-08	1.046742e+01	8.538080e+02
2.350000e-06	1.336410e-06	1.287934e-08	9.760486e+00	8.411828e+02
2.360000e-06	1.239159e-06	1.268769e-08	9.050211e+00	8.283074e+02
2.370000e-06	1.141476e-06	1.248563e-08	8.336782e+00	8.151822e+02
2.380000e-06	1.043420e-06	1.227664e-08	7.620626e+00	8.017997e+02
2.390000e-06	9.450889e-07	1.206826e-08	6.902466e+00	7.881442e+02
2.400000e-06	8.465237e-07	1.185597e-08	6.182594e+00	7.741939e+02
2.410000e-06	7.476846e-07	1.163622e-08	5.460721e+00	7.599240e+02
2.420000e-06	6.485856e-07	1.141289e-08	4.736951e+00	7.453113e+02
2.430000e-06	5.493289e-07	1.118222e-08	4.012029e+00	7.303375e+02
2.440000e-06	4.499914e-07	1.094239e-08	3.286516e+00	7.149909e+02
2.450000e-06	3.505405e-07	1.070061e-08	2.560176e+00	6.992667e+02
2.460000e-06	2.509735e-07	1.045906e-08	1.832987e+00	6.831635e+02
2.470000e-06	1.512954e-07	1.021244e-08	1.104987e+00	6.666798e+02
2.480000e-06	5.152797e-08	9.955173e-09	3.763350e-01	6.498088e+02
2.490000e-06	-4.822479e-08	9.690004e-09	-3.522102e-01	6.325347e+02
2.500000e-06	-1.479256e-07	9.420398e-09	-1.080376e+00	6.148303e+02
2.510000e-06	-2.475890e-07	9.142602e-09	-1.808269e+00	5.966574e+02
2.520000e-06	-3.472120e-07	8.855180e-09	-2.535866e+00	5.779697e+02
2.530000e-06	-4.467217e-07	8.556999e-09	-3.262636e+00	5.587166e+02
2.540000e-06	-5.461047e-07	8.249885e-09	-3.988481e+00	5.388488e+02
2.550000e-06	-6.453782e-07	7.935658e-09	-4.713526e+00	5.183217e+02
2.560000e-06	-7.444753e-07	7.613204e-09	-5.437282e+00	4.970981e+02
2.570000e-06	-8.433112e-07	7.280145e-09	-6.159131e+00	4.751475e+02
2.580000e-06	-9.418622e-07	6.934462e-09	-6.878899e+00	4.524434e+02
2.590000e-06	-1.040078e-06	6.577835e-09	-7.596217e+00	4.289589e+02
2.600000e-06	-1.137916e-06	6.207967e-09	-8.310781e+00	4.046619e+02
2.610000e-06	-1.235385e-06	5.823778e-09	-9.022645e+00	3.795100e+02
2.620000e-06	-1.332434e-06	5.425406e-09	-9.731447e+00	3.534485e+02
2.630000e-06	-1.429044e-06	5.011697e-09	-1.043704e+01	3.264100e+02
2.640000e-06	-1.525208e-06	4.582432e-09	-1.113937e+01	2.983168e+02
2.650000e-06	-1.620887e-06	4.134202e-09	-1.183816e+01	2.690849e+02
2.660000e-06	-1.715970e-06	3.668679e-09	-1.253261e+01	2.386299e+02
2.670000e-06	-1.810287e-06	3.186240e-09	-1.322145e+01	2.068726e+02
2.680000e-06	-1.903676e-06	2.682032e-09	-1.390352e+01	1.737440e+02
2.690000e-06	-1.996187e-06	2.154502e-09	-1.457917e+01	1.391897e+02
2.700000e-06	-2.087976e-06	1.605106e-09	-1.524955e+01	1.031731e+02
2.710000e-06	-2.179067e-06	1.035077e-09	-1.591484e+01	6.567747e+01
2.720000e-06	-2.269439e-06	4.403399e-10	-1.657487e+01	2.670885e+01
2.730000e-06	-2.358991e-06	-1.788814e-10	-1.722891e+01	-1.370188e+01
2.740000e-06	-2.447729e-06	-8.174483e-10	-1.787701e+01	-5.549573e+01
2.750000e-06	-2.535750e-06	-1.475370e-09	-1.851987e+01	-9.858246e+01
2.760000e-06	-2.622943e-06	-2.150384e-09	-1.915669e+01	-1.428376e+02
2.770000e-06	-2.709120e-06	-2.839851e-09	-1.978608e+01	-1.881006e+02
2.780000e-06	-2.794127e-06	-3.541276e-09	-2.040693e+01	-2.341751e+02
2.790000e-06	-2.878127e-06	-4.252005e-09	-2.102043e+01	-2.808316e+02
2.800000e-06	-2.961277e-06	-4.970361e-09	-2.162772e+01	-3.278134e+02
2.810000e-06	-3.043455e-06	-5.690924e-09	-2.222790e+01	-3.748441e+02
2.820000e-06	-3.124629e-06	-6.407369e-09	-2.282076e+01	-4.216382e+02
2.830000e-06	-3.204781e-06	-7.115183e-09	-2.340615e+01	-4.679117e+02
2.840000e-06	-3.283714e-06	-7.812399e-09	-2.398264e+01	-5.133922e+02
2.850000e-06	-3.361169e-06	-8.493973e-09	-2.454833e+01	-5.578282e+02
2.860000e-06	-3.437211e-06	-9.154785e-09	-2.510370e+01	-6.009960e+02
2.870000e-06	-3.511975e-06	-9.793060e-09	-2.564975e+01	-6.427045e+02
2.880000e-06	-3.585446e-06	-1.040770e-08	-2.618634e+01	-6.827976e+02
2.890000e-06	-3.657734e-06	-1.099730e-08	-2.671430e+01	-7.211550e+02
2.900000e-06	-3.728783e-06	-1.156060e-08	-2.723320e+01	-7.576917e+02
2.910000e-06	-3.798315e-06	-1.209483e-08	-2.774103e+01	-7.923562e+02
2.920000e-06	-3.866372e-06	-1.259632e-08	-2.823809e+01	-8.251286e+02
2.930000e-06	-3.933102e-06	-1.306854e-08	-2.872545e+01	-8.560173e+02
2.940000e-06	-3.998479e-06	-1.351465e-08	-2.920293e+01	-8.850557e+02
