# Temperatura_=_82.4
# Concentracion g/m^3_=_26700.0
# C_Vs_to_Am_M_A/Vsm_=_65563218390.804596
# pendiente_HvsI_1/m_=_3716.3
# ordenada_HvsI_A/m_=_1297.0
# frecuencia_Hz_=_301783.7144466276

Tiempo_(s)	Campo_(V.s)	Magnetizacion_(V.s)	Campo_(kA/m)	Magnetizacion_(A/m)
0.000000e+00	-5.231705e-06	-2.099155e-08	-3.830184e+01	-1.372544e+03
1.000000e-08	-5.230084e-06	-2.099713e-08	-3.828997e+01	-1.372641e+03
2.000000e-08	-5.226544e-06	-2.099481e-08	-3.826406e+01	-1.372577e+03
3.000000e-08	-5.221367e-06	-2.099012e-08	-3.822615e+01	-1.372346e+03
4.000000e-08	-5.214633e-06	-2.098401e-08	-3.817685e+01	-1.371936e+03
5.000000e-08	-5.206333e-06	-2.097231e-08	-3.811609e+01	-1.371324e+03
6.000000e-08	-5.196125e-06	-2.095599e-08	-3.804135e+01	-1.370492e+03
7.000000e-08	-5.183982e-06	-2.093237e-08	-3.795246e+01	-1.369428e+03
8.000000e-08	-5.170070e-06	-2.089798e-08	-3.785060e+01	-1.368132e+03
9.000000e-08	-5.154000e-06	-2.091938e-08	-3.773295e+01	-1.366622e+03
1.000000e-07	-5.135722e-06	-2.094074e-08	-3.759914e+01	-1.364930e+03
1.100000e-07	-5.115507e-06	-2.087635e-08	-3.745114e+01	-1.363102e+03
1.200000e-07	-5.093447e-06	-2.083343e-08	-3.728964e+01	-1.361185e+03
1.300000e-07	-5.069833e-06	-2.077311e-08	-3.711676e+01	-1.359222e+03
1.400000e-07	-5.044829e-06	-2.064921e-08	-3.693370e+01	-1.357243e+03
1.500000e-07	-5.018273e-06	-2.074897e-08	-3.673928e+01	-1.355258e+03
1.600000e-07	-4.990100e-06	-2.073383e-08	-3.653303e+01	-1.353253e+03
1.700000e-07	-4.960522e-06	-2.055169e-08	-3.631648e+01	-1.351197e+03
1.800000e-07	-4.929401e-06	-2.065349e-08	-3.608864e+01	-1.349039e+03
1.900000e-07	-4.896144e-06	-2.057273e-08	-3.584516e+01	-1.346724e+03
2.000000e-07	-4.861041e-06	-2.040494e-08	-3.558817e+01	-1.344202e+03
2.100000e-07	-4.824564e-06	-2.049944e-08	-3.532112e+01	-1.341431e+03
2.200000e-07	-4.786410e-06	-2.044406e-08	-3.504179e+01	-1.338388e+03
2.300000e-07	-4.746534e-06	-2.035752e-08	-3.474985e+01	-1.335070e+03
2.400000e-07	-4.704801e-06	-2.033522e-08	-3.444432e+01	-1.331493e+03
2.500000e-07	-4.661132e-06	-2.020410e-08	-3.412462e+01	-1.327683e+03
2.600000e-07	-4.615768e-06	-2.016703e-08	-3.379250e+01	-1.323676e+03
2.700000e-07	-4.568637e-06	-2.011227e-08	-3.344745e+01	-1.319502e+03
2.800000e-07	-4.519515e-06	-2.003534e-08	-3.308782e+01	-1.315189e+03
2.900000e-07	-4.468329e-06	-1.998989e-08	-3.271309e+01	-1.310750e+03
3.000000e-07	-4.415319e-06	-1.988266e-08	-3.232500e+01	-1.306190e+03
3.100000e-07	-4.360696e-06	-1.981083e-08	-3.192510e+01	-1.301502e+03
3.200000e-07	-4.304493e-06	-1.976253e-08	-3.151362e+01	-1.296675e+03
3.300000e-07	-4.246523e-06	-1.969008e-08	-3.108922e+01	-1.291694e+03
3.400000e-07	-4.186884e-06	-1.960600e-08	-3.065260e+01	-1.286548e+03
3.500000e-07	-4.125868e-06	-1.951962e-08	-3.020590e+01	-1.281229e+03
3.600000e-07	-4.063533e-06	-1.943430e-08	-2.974953e+01	-1.275735e+03
3.700000e-07	-3.999937e-06	-1.932797e-08	-2.928394e+01	-1.270068e+03
3.800000e-07	-3.934937e-06	-1.926149e-08	-2.880807e+01	-1.264232e+03
3.900000e-07	-3.868219e-06	-1.919395e-08	-2.831962e+01	-1.258233e+03
4.000000e-07	-3.799939e-06	-1.907954e-08	-2.781973e+01	-1.252075e+03
4.100000e-07	-3.730472e-06	-1.898346e-08	-2.731116e+01	-1.245760e+03
4.200000e-07	-3.659878e-06	-1.887678e-08	-2.679433e+01	-1.239288e+03
4.300000e-07	-3.588152e-06	-1.877743e-08	-2.626922e+01	-1.232655e+03
4.400000e-07	-3.515047e-06	-1.867164e-08	-2.573401e+01	-1.225859e+03
4.500000e-07	-3.440248e-06	-1.856321e-08	-2.518640e+01	-1.218897e+03
4.600000e-07	-3.364051e-06	-1.845574e-08	-2.462855e+01	-1.211765e+03
4.700000e-07	-3.286685e-06	-1.833305e-08	-2.406215e+01	-1.204462e+03
4.800000e-07	-3.207960e-06	-1.822182e-08	-2.348580e+01	-1.196987e+03
4.900000e-07	-3.127808e-06	-1.811135e-08	-2.289900e+01	-1.189338e+03
5.000000e-07	-3.046480e-06	-1.800055e-08	-2.230359e+01	-1.181510e+03
5.100000e-07	-2.964188e-06	-1.787634e-08	-2.170112e+01	-1.173498e+03
5.200000e-07	-2.880987e-06	-1.774678e-08	-2.109200e+01	-1.165297e+03
5.300000e-07	-2.796977e-06	-1.761723e-08	-2.047695e+01	-1.156898e+03
5.400000e-07	-2.712093e-06	-1.747971e-08	-1.985550e+01	-1.148292e+03
5.500000e-07	-2.626274e-06	-1.734190e-08	-1.922721e+01	-1.139472e+03
5.600000e-07	-2.539568e-06	-1.720620e-08	-1.859244e+01	-1.130432e+03
5.700000e-07	-2.451969e-06	-1.706501e-08	-1.795111e+01	-1.121164e+03
5.800000e-07	-2.363426e-06	-1.691518e-08	-1.730288e+01	-1.111665e+03
5.900000e-07	-2.273839e-06	-1.676330e-08	-1.664700e+01	-1.101929e+03
6.000000e-07	-2.183215e-06	-1.661363e-08	-1.598354e+01	-1.091952e+03
6.100000e-07	-2.091785e-06	-1.646063e-08	-1.531417e+01	-1.081728e+03
6.200000e-07	-1.999697e-06	-1.629938e-08	-1.463998e+01	-1.071252e+03
6.300000e-07	-1.906916e-06	-1.613375e-08	-1.396072e+01	-1.060518e+03
6.400000e-07	-1.813442e-06	-1.596233e-08	-1.327639e+01	-1.049523e+03
6.500000e-07	-1.719358e-06	-1.578647e-08	-1.258759e+01	-1.038262e+03
6.600000e-07	-1.624733e-06	-1.560746e-08	-1.189484e+01	-1.026733e+03
6.700000e-07	-1.529638e-06	-1.542629e-08	-1.119863e+01	-1.014936e+03
6.800000e-07	-1.434052e-06	-1.524176e-08	-1.049884e+01	-1.002867e+03
6.900000e-07	-1.337882e-06	-1.505170e-08	-9.794772e+00	-9.905241e+02
7.000000e-07	-1.241132e-06	-1.485927e-08	-9.086454e+00	-9.778993e+02
7.100000e-07	-1.143889e-06	-1.466418e-08	-8.374524e+00	-9.649821e+02
7.200000e-07	-1.046189e-06	-1.446593e-08	-7.659254e+00	-9.517573e+02
7.300000e-07	-9.480794e-07	-1.426056e-08	-6.940984e+00	-9.382068e+02
7.400000e-07	-8.496400e-07	-1.404753e-08	-6.220300e+00	-9.243110e+02
7.500000e-07	-7.508620e-07	-1.383046e-08	-5.497136e+00	-9.100504e+02
7.600000e-07	-6.517815e-07	-1.360965e-08	-4.771758e+00	-8.954080e+02
7.700000e-07	-5.524462e-07	-1.338191e-08	-4.044514e+00	-8.803697e+02
7.800000e-07	-4.529006e-07	-1.314593e-08	-3.315731e+00	-8.649242e+02
7.900000e-07	-3.532459e-07	-1.290432e-08	-2.586149e+00	-8.490613e+02
8.000000e-07	-2.535181e-07	-1.265471e-08	-1.856031e+00	-8.327699e+02
8.100000e-07	-1.537069e-07	-1.239812e-08	-1.125304e+00	-8.160341e+02
8.200000e-07	-5.380786e-08	-1.213637e-08	-3.939328e-01	-7.988311e+02
8.300000e-07	4.615496e-08	-1.186824e-08	3.379051e-01	-7.811287e+02
8.400000e-07	1.461242e-07	-1.159061e-08	1.069790e+00	-7.628856e+02
8.500000e-07	2.460421e-07	-1.130248e-08	1.801299e+00	-7.440517e+02
8.600000e-07	3.458976e-07	-1.100524e-08	2.532351e+00	-7.245712e+02
8.700000e-07	4.456587e-07	-1.069765e-08	3.262712e+00	-7.043850e+02
8.800000e-07	5.452930e-07	-1.037695e-08	3.992145e+00	-6.834335e+02
8.900000e-07	6.447881e-07	-1.004525e-08	4.720559e+00	-6.616586e+02
9.000000e-07	7.441300e-07	-9.703314e-09	5.447851e+00	-6.390037e+02
9.100000e-07	8.432225e-07	-9.344524e-09	6.173317e+00	-6.154119e+02
9.200000e-07	9.419640e-07	-8.967859e-09	6.896213e+00	-5.908236e+02
9.300000e-07	1.040295e-06	-8.574557e-09	7.616106e+00	-5.651724e+02
9.400000e-07	1.138150e-06	-8.165745e-09	8.332513e+00	-5.383812e+02
9.500000e-07	1.235502e-06	-7.741240e-09	9.045231e+00	-5.103596e+02
9.600000e-07	1.332326e-06	-7.297807e-09	9.754089e+00	-4.810020e+02
9.700000e-07	1.428503e-06	-6.829592e-09	1.045821e+01	-4.501887e+02
9.800000e-07	1.524031e-06	-6.333335e-09	1.115758e+01	-4.177875e+02
9.900000e-07	1.619017e-06	-5.810717e-09	1.185298e+01	-3.836583e+02
1.000000e-06	1.713461e-06	-5.260941e-09	1.254442e+01	-3.476578e+02
1.010000e-06	1.807354e-06	-4.682321e-09	1.323182e+01	-3.096459e+02
1.020000e-06	1.900581e-06	-4.071198e-09	1.391434e+01	-2.694932e+02
1.030000e-06	1.993143e-06	-3.423912e-09	1.459200e+01	-2.270881e+02
1.040000e-06	2.085161e-06	-2.740248e-09	1.526567e+01	-1.823464e+02
1.050000e-06	2.176632e-06	-2.020678e-09	1.593534e+01	-1.352199e+02
1.060000e-06	2.267286e-06	-1.265362e-09	1.659903e+01	-8.570765e+01
1.070000e-06	2.356823e-06	-4.740638e-10	1.725454e+01	-3.386541e+01
1.080000e-06	2.445259e-06	3.509925e-10	1.790199e+01	2.018486e+01
1.090000e-06	2.532803e-06	1.206971e-09	1.854291e+01	7.624839e+01
1.100000e-06	2.619562e-06	2.089310e-09	1.917808e+01	1.340548e+02
1.110000e-06	2.705435e-06	2.991858e-09	1.980676e+01	1.932606e+02
1.120000e-06	2.790382e-06	3.909771e-09	2.042866e+01	2.534576e+02
1.130000e-06	2.874497e-06	4.834996e-09	2.104448e+01	3.141873e+02
1.140000e-06	2.957848e-06	5.759339e-09	2.165470e+01	3.749600e+02
1.150000e-06	3.040171e-06	6.676445e-09	2.225740e+01	4.352775e+02
1.160000e-06	3.121332e-06	7.578717e-09	2.285158e+01	4.946564e+02
1.170000e-06	3.201404e-06	8.460870e-09	2.343780e+01	5.526492e+02
1.180000e-06	3.280361e-06	9.318071e-09	2.401585e+01	6.088625e+02
1.190000e-06	3.358163e-06	1.014202e-08	2.458545e+01	6.629687e+02
1.200000e-06	3.434761e-06	1.092773e-08	2.514623e+01	7.147115e+02
1.210000e-06	3.510133e-06	1.167126e-08	2.569803e+01	7.639064e+02
1.220000e-06	3.584022e-06	1.237331e-08	2.623898e+01	8.104354e+02
1.230000e-06	3.656319e-06	1.303540e-08	2.676828e+01	8.542393e+02
1.240000e-06	3.727235e-06	1.365623e-08	2.728746e+01	8.953088e+02
1.250000e-06	3.796841e-06	1.423629e-08	2.779706e+01	9.336747e+02
1.260000e-06	3.865177e-06	1.477710e-08	2.829735e+01	9.694014e+02
1.270000e-06	3.932291e-06	1.527887e-08	2.878870e+01	1.002580e+03
1.280000e-06	3.997959e-06	1.574223e-08	2.926946e+01	1.033322e+03
1.290000e-06	4.061990e-06	1.617173e-08	2.973824e+01	1.061759e+03
1.300000e-06	4.124524e-06	1.657000e-08	3.019606e+01	1.088034e+03
1.310000e-06	4.185699e-06	1.693880e-08	3.064392e+01	1.112299e+03
1.320000e-06	4.245606e-06	1.727839e-08	3.108251e+01	1.134710e+03
1.330000e-06	4.304016e-06	1.759029e-08	3.151013e+01	1.155419e+03
1.340000e-06	4.360622e-06	1.787721e-08	3.192455e+01	1.174569e+03
1.350000e-06	4.415568e-06	1.814304e-08	3.232682e+01	1.192293e+03
1.360000e-06	4.469008e-06	1.839193e-08	3.271806e+01	1.208706e+03
1.370000e-06	4.520724e-06	1.862428e-08	3.309667e+01	1.223908e+03
1.380000e-06	4.570429e-06	1.883751e-08	3.346057e+01	1.237983e+03
1.390000e-06	4.618248e-06	1.903120e-08	3.381066e+01	1.251004e+03
1.400000e-06	4.664478e-06	1.921046e-08	3.414911e+01	1.263035e+03
1.410000e-06	4.709183e-06	1.937817e-08	3.447640e+01	1.274137e+03
1.420000e-06	4.752333e-06	1.953422e-08	3.479231e+01	1.284368e+03
1.430000e-06	4.793647e-06	1.967870e-08	3.509477e+01	1.293786e+03
1.440000e-06	4.833151e-06	1.981216e-08	3.538399e+01	1.302449e+03
1.450000e-06	4.871106e-06	1.993394e-08	3.566186e+01	1.310416e+03
1.460000e-06	4.907501e-06	2.004450e-08	3.592831e+01	1.317741e+03
1.470000e-06	4.942235e-06	2.014435e-08	3.618260e+01	1.324477e+03
1.480000e-06	4.975024e-06	2.023490e-08	3.642265e+01	1.330671e+03
1.490000e-06	5.005996e-06	2.031997e-08	3.664940e+01	1.336366e+03
1.500000e-06	5.035365e-06	2.040050e-08	3.686442e+01	1.341599e+03
1.510000e-06	5.063146e-06	2.047461e-08	3.706780e+01	1.346403e+03
1.520000e-06	5.088994e-06	2.054034e-08	3.725704e+01	1.350804e+03
1.530000e-06	5.112737e-06	2.060037e-08	3.743086e+01	1.354825e+03
1.540000e-06	5.134697e-06	2.065765e-08	3.759164e+01	1.358486e+03
1.550000e-06	5.155045e-06	2.071022e-08	3.774060e+01	1.361799e+03
1.560000e-06	5.173691e-06	2.075684e-08	3.787711e+01	1.364774e+03
1.570000e-06	5.190406e-06	2.079767e-08	3.799948e+01	1.367416e+03
1.580000e-06	5.205156e-06	2.083224e-08	3.810747e+01	1.369729e+03
1.590000e-06	5.218007e-06	2.086188e-08	3.820155e+01	1.371718e+03
1.600000e-06	5.228801e-06	2.088674e-08	3.828058e+01	1.373390e+03
1.610000e-06	5.237410e-06	2.090675e-08	3.834361e+01	1.374757e+03
1.620000e-06	5.244066e-06	2.092285e-08	3.839233e+01	1.375840e+03
1.630000e-06	5.248973e-06	2.093536e-08	3.842826e+01	1.376662e+03
1.640000e-06	5.252124e-06	2.094678e-08	3.845133e+01	1.377254e+03
1.650000e-06	5.253309e-06	2.095801e-08	3.846000e+01	1.377643e+03
1.660000e-06	5.252578e-06	2.096241e-08	3.845465e+01	1.377852e+03
1.670000e-06	5.250210e-06	2.095984e-08	3.843732e+01	1.377898e+03
1.680000e-06	5.246380e-06	2.096069e-08	3.840928e+01	1.377782e+03
1.690000e-06	5.240867e-06	2.095911e-08	3.836891e+01	1.377497e+03
1.700000e-06	5.233360e-06	2.095238e-08	3.831396e+01	1.377025e+03
1.710000e-06	5.224168e-06	2.094313e-08	3.824666e+01	1.376345e+03
1.720000e-06	5.213475e-06	2.093535e-08	3.816838e+01	1.375440e+03
1.730000e-06	5.201084e-06	2.094206e-08	3.807766e+01	1.374301e+03
1.740000e-06	5.186720e-06	2.087532e-08	3.797250e+01	1.372934e+03
1.750000e-06	5.170239e-06	2.079297e-08	3.785184e+01	1.371362e+03
1.760000e-06	5.151483e-06	2.080662e-08	3.771452e+01	1.369622e+03
1.770000e-06	5.130190e-06	2.078854e-08	3.755864e+01	1.367761e+03
1.780000e-06	5.106799e-06	2.083731e-08	3.738739e+01	1.365826e+03
1.790000e-06	5.082339e-06	2.083660e-08	3.720832e+01	1.363856e+03
1.800000e-06	5.057124e-06	2.062162e-08	3.702371e+01	1.361876e+03
1.810000e-06	5.030334e-06	2.071722e-08	3.682758e+01	1.359888e+03
1.820000e-06	5.001667e-06	2.073721e-08	3.661771e+01	1.357872e+03
1.830000e-06	4.971337e-06	2.051963e-08	3.639566e+01	1.355789e+03
1.840000e-06	4.939041e-06	2.069500e-08	3.615922e+01	1.353588e+03
1.850000e-06	4.904894e-06	2.067905e-08	3.590922e+01	1.351213e+03
1.860000e-06	4.869248e-06	2.046737e-08	3.564825e+01	1.348615e+03
1.870000e-06	4.831678e-06	2.054246e-08	3.537320e+01	1.345759e+03
1.880000e-06	4.792206e-06	2.042806e-08	3.508422e+01	1.342628e+03
1.890000e-06	4.751162e-06	2.040207e-08	3.478374e+01	1.339225e+03
1.900000e-06	4.708326e-06	2.043980e-08	3.447013e+01	1.335571e+03
1.910000e-06	4.663934e-06	2.023858e-08	3.414513e+01	1.331695e+03
1.920000e-06	4.617823e-06	2.028874e-08	3.380754e+01	1.327631e+03
1.930000e-06	4.569898e-06	2.020793e-08	3.345668e+01	1.323411e+03
1.940000e-06	4.520468e-06	2.007615e-08	3.309480e+01	1.319057e+03
1.950000e-06	4.469233e-06	2.011888e-08	3.271970e+01	1.314580e+03
1.960000e-06	4.416094e-06	1.997153e-08	3.233067e+01	1.309981e+03
1.970000e-06	4.361105e-06	1.992853e-08	3.192809e+01	1.305251e+03
1.980000e-06	4.304360e-06	1.985524e-08	3.151265e+01	1.300376e+03
1.990000e-06	4.246088e-06	1.972664e-08	3.108604e+01	1.295344e+03
2.000000e-06	4.186441e-06	1.971059e-08	3.064936e+01	1.290144e+03
2.010000e-06	4.125416e-06	1.960142e-08	3.020259e+01	1.284770e+03
2.020000e-06	4.062682e-06	1.955130e-08	2.974331e+01	1.279220e+03
2.030000e-06	3.998314e-06	1.942660e-08	2.927206e+01	1.273499e+03
2.040000e-06	3.932599e-06	1.931677e-08	2.879095e+01	1.267611e+03
2.050000e-06	3.865551e-06	1.927097e-08	2.830009e+01	1.261561e+03
2.060000e-06	3.797222e-06	1.912900e-08	2.779984e+01	1.255354e+03
2.070000e-06	3.727410e-06	1.906482e-08	2.728875e+01	1.248989e+03
2.080000e-06	3.656078e-06	1.896382e-08	2.676652e+01	1.242467e+03
2.090000e-06	3.583521e-06	1.886888e-08	2.623532e+01	1.235783e+03
2.100000e-06	3.509765e-06	1.876674e-08	2.569534e+01	1.228934e+03
2.110000e-06	3.434775e-06	1.863875e-08	2.514634e+01	1.221918e+03
2.120000e-06	3.358481e-06	1.856176e-08	2.458778e+01	1.214733e+03
2.130000e-06	3.280754e-06	1.842857e-08	2.401873e+01	1.207376e+03
2.140000e-06	3.201606e-06	1.831208e-08	2.343928e+01	1.199846e+03
2.150000e-06	3.121286e-06	1.819263e-08	2.285125e+01	1.192140e+03
2.160000e-06	3.039901e-06	1.807637e-08	2.225542e+01	1.184254e+03
2.170000e-06	2.957429e-06	1.795419e-08	2.165163e+01	1.176184e+03
2.180000e-06	2.874024e-06	1.782013e-08	2.104102e+01	1.167920e+03
2.190000e-06	2.789724e-06	1.771474e-08	2.042385e+01	1.159456e+03
2.200000e-06	2.704355e-06	1.758154e-08	1.979885e+01	1.150783e+03
2.210000e-06	2.617713e-06	1.744365e-08	1.916454e+01	1.141894e+03
2.220000e-06	2.529937e-06	1.729869e-08	1.852192e+01	1.132782e+03
2.230000e-06	2.441305e-06	1.715982e-08	1.787304e+01	1.123442e+03
2.240000e-06	2.351931e-06	1.701664e-08	1.721872e+01	1.113868e+03
2.250000e-06	2.261799e-06	1.685951e-08	1.655886e+01	1.104055e+03
2.260000e-06	2.170911e-06	1.670853e-08	1.589346e+01	1.094000e+03
2.270000e-06	2.079325e-06	1.655351e-08	1.522295e+01	1.083697e+03
2.280000e-06	1.987068e-06	1.639725e-08	1.454753e+01	1.073139e+03
2.290000e-06	1.894168e-06	1.623597e-08	1.386740e+01	1.062323e+03
2.300000e-06	1.800556e-06	1.607319e-08	1.318205e+01	1.051243e+03
2.310000e-06	1.706117e-06	1.590449e-08	1.249065e+01	1.039897e+03
2.320000e-06	1.610911e-06	1.572605e-08	1.179364e+01	1.028283e+03
2.330000e-06	1.515121e-06	1.554119e-08	1.109235e+01	1.016399e+03
2.340000e-06	1.418888e-06	1.535630e-08	1.038782e+01	1.004244e+03
2.350000e-06	1.322256e-06	1.516884e-08	9.680367e+00	9.918119e+02
2.360000e-06	1.225268e-06	1.497354e-08	8.970308e+00	9.790953e+02
2.370000e-06	1.127930e-06	1.477551e-08	8.257692e+00	9.660818e+02
2.380000e-06	1.030186e-06	1.457352e-08	7.542097e+00	9.527552e+02
2.390000e-06	9.320737e-07	1.436712e-08	6.823805e+00	9.390967e+02
2.400000e-06	8.336567e-07	1.415138e-08	6.103285e+00	9.250865e+02
2.410000e-06	7.349475e-07	1.392748e-08	5.380624e+00	9.107057e+02
2.420000e-06	6.359745e-07	1.370045e-08	4.656033e+00	8.959383e+02
2.430000e-06	5.368278e-07	1.346703e-08	3.930170e+00	8.807710e+02
2.440000e-06	4.376381e-07	1.322715e-08	3.203993e+00	8.651932e+02
2.450000e-06	3.384361e-07	1.298356e-08	2.477725e+00	8.491948e+02
2.460000e-06	2.391595e-07	1.273474e-08	1.750911e+00	8.327634e+02
2.470000e-06	1.397647e-07	1.247844e-08	1.023232e+00	8.158811e+02
2.480000e-06	4.030112e-08	1.221562e-08	2.950485e-01	7.985223e+02
2.490000e-06	-5.918725e-08	1.194586e-08	-4.333158e-01	7.806519e+02
2.500000e-06	-1.586495e-07	1.166520e-08	-1.161489e+00	7.622255e+02
2.510000e-06	-2.580671e-07	1.137208e-08	-1.889335e+00	7.431909e+02
2.520000e-06	-3.574806e-07	1.107043e-08	-2.617151e+00	7.234909e+02
2.530000e-06	-4.568261e-07	1.075852e-08	-3.344470e+00	7.030659e+02
2.540000e-06	-5.560409e-07	1.043461e-08	-4.070831e+00	6.818568e+02
2.550000e-06	-6.550795e-07	1.009798e-08	-4.795903e+00	6.598060e+02
2.560000e-06	-7.539065e-07	9.746319e-09	-5.519426e+00	6.368570e+02
2.570000e-06	-8.524828e-07	9.379830e-09	-6.241112e+00	6.129525e+02
2.580000e-06	-9.507287e-07	8.999551e-09	-6.960380e+00	5.880310e+02
2.590000e-06	-1.048631e-06	8.606030e-09	-7.677130e+00	5.620232e+02
2.600000e-06	-1.146233e-06	8.194556e-09	-8.391689e+00	5.348479e+02
2.610000e-06	-1.243458e-06	7.760014e-09	-9.103483e+00	5.064098e+02
2.620000e-06	-1.340288e-06	7.302124e-09	-9.812380e+00	4.765989e+02
2.630000e-06	-1.436716e-06	6.822641e-09	-1.051834e+01	4.452909e+02
2.640000e-06	-1.532679e-06	6.319784e-09	-1.122090e+01	4.123506e+02
2.650000e-06	-1.628120e-06	5.788540e-09	-1.191963e+01	3.776363e+02
2.660000e-06	-1.722876e-06	5.228017e-09	-1.261335e+01	3.410050e+02
2.670000e-06	-1.816787e-06	4.637297e-09	-1.330088e+01	3.023192e+02
2.680000e-06	-1.909819e-06	4.014922e-09	-1.398198e+01	2.614544e+02
2.690000e-06	-2.002077e-06	3.360133e-09	-1.465741e+01	2.183067e+02
2.700000e-06	-2.093614e-06	2.670571e-09	-1.532756e+01	1.728024e+02
2.710000e-06	-2.184473e-06	1.943482e-09	-1.599275e+01	1.249075e+02
2.720000e-06	-2.274620e-06	1.177769e-09	-1.665272e+01	7.463800e+01
2.730000e-06	-2.363958e-06	3.736132e-10	-1.730678e+01	2.207014e+01
2.740000e-06	-2.452499e-06	-4.650627e-10	-1.795499e+01	-3.265131e+01
2.750000e-06	-2.540275e-06	-1.331931e-09	-1.859761e+01	-8.930735e+01
2.760000e-06	-2.627188e-06	-2.221078e-09	-1.923391e+01	-1.476036e+02
2.770000e-06	-2.712977e-06	-3.128188e-09	-1.986198e+01	-2.071744e+02
2.780000e-06	-2.797606e-06	-4.049387e-09	-2.048156e+01	-2.675938e+02
2.790000e-06	-2.881270e-06	-4.977126e-09	-2.109407e+01	-3.283908e+02
2.800000e-06	-2.964047e-06	-5.903802e-09	-2.170008e+01	-3.890705e+02
2.810000e-06	-3.045855e-06	-6.821113e-09	-2.229901e+01	-4.491369e+02
2.820000e-06	-3.126627e-06	-7.720800e-09	-2.289035e+01	-5.081159e+02
2.830000e-06	-3.206406e-06	-8.597747e-09	-2.347442e+01	-5.655759e+02
2.840000e-06	-3.285070e-06	-9.449910e-09	-2.405033e+01	-6.211435e+02
2.850000e-06	-3.362318e-06	-1.027130e-08	-2.461587e+01	-6.745136e+02
2.860000e-06	-3.438094e-06	-1.105542e-08	-2.517063e+01	-7.254534e+02
2.870000e-06	-3.512586e-06	-1.179781e-08	-2.571599e+01	-7.738005e+02
2.880000e-06	-3.585845e-06	-1.249801e-08	-2.625233e+01	-8.194567e+02
2.890000e-06	-3.657894e-06	-1.315687e-08	-2.677981e+01	-8.623798e+02
2.900000e-06	-3.728586e-06	-1.377366e-08	-2.729735e+01	-9.025743e+02
2.910000e-06	-3.797690e-06	-1.435167e-08	-2.780327e+01	-9.400828e+02
2.920000e-06	-3.865372e-06	-1.489071e-08	-2.829878e+01	-9.749784e+02
2.930000e-06	-3.931790e-06	-1.538877e-08	-2.878503e+01	-1.007360e+03
2.940000e-06	-3.996817e-06	-1.584919e-08	-2.926110e+01	-1.037345e+03
