# Temperatura_=_49.9
# Concentracion g/m^3_=_26700.0
# C_Vs_to_Am_M_A/Vsm_=_65563218390.804596
# pendiente_HvsI_1/m_=_3716.3
# ordenada_HvsI_A/m_=_1297.0
# frecuencia_Hz_=_301793.50790891156

Tiempo_(s)	Campo_(V.s)	Magnetizacion_(V.s)	Campo_(kA/m)	Magnetizacion_(A/m)
0.000000e+00	-5.228093e-06	-1.985929e-08	-3.830188e+01	-1.297038e+03
1.000000e-08	-5.226654e-06	-1.986055e-08	-3.829134e+01	-1.297211e+03
2.000000e-08	-5.223303e-06	-1.985717e-08	-3.826679e+01	-1.297217e+03
3.000000e-08	-5.218278e-06	-1.985292e-08	-3.822997e+01	-1.297053e+03
4.000000e-08	-5.211683e-06	-1.984538e-08	-3.818166e+01	-1.296698e+03
5.000000e-08	-5.203477e-06	-1.983501e-08	-3.812154e+01	-1.296121e+03
6.000000e-08	-5.193379e-06	-1.982264e-08	-3.804756e+01	-1.295293e+03
7.000000e-08	-5.181344e-06	-1.980377e-08	-3.795939e+01	-1.294193e+03
8.000000e-08	-5.167435e-06	-1.978318e-08	-3.785749e+01	-1.292824e+03
9.000000e-08	-5.151394e-06	-1.977731e-08	-3.773997e+01	-1.291212e+03
1.000000e-07	-5.133220e-06	-1.973870e-08	-3.760682e+01	-1.289402e+03
1.100000e-07	-5.113124e-06	-1.970192e-08	-3.745960e+01	-1.287458e+03
1.200000e-07	-5.091200e-06	-1.968178e-08	-3.729897e+01	-1.285443e+03
1.300000e-07	-5.067735e-06	-1.961398e-08	-3.712707e+01	-1.283409e+03
1.400000e-07	-5.042872e-06	-1.959426e-08	-3.694491e+01	-1.281386e+03
1.500000e-07	-5.016408e-06	-1.960672e-08	-3.675103e+01	-1.279373e+03
1.600000e-07	-4.988314e-06	-1.948425e-08	-3.654522e+01	-1.277339e+03
1.700000e-07	-4.958832e-06	-1.948151e-08	-3.632923e+01	-1.275229e+03
1.800000e-07	-4.927838e-06	-1.948017e-08	-3.610216e+01	-1.272975e+03
1.900000e-07	-4.894790e-06	-1.934652e-08	-3.586004e+01	-1.270509e+03
2.000000e-07	-4.859834e-06	-1.935329e-08	-3.560395e+01	-1.267780e+03
2.100000e-07	-4.823416e-06	-1.930209e-08	-3.533715e+01	-1.264759e+03
2.200000e-07	-4.785384e-06	-1.920513e-08	-3.505852e+01	-1.261444e+03
2.300000e-07	-4.745590e-06	-1.921230e-08	-3.476698e+01	-1.257856e+03
2.400000e-07	-4.703894e-06	-1.913999e-08	-3.446151e+01	-1.254031e+03
2.500000e-07	-4.660316e-06	-1.903243e-08	-3.414225e+01	-1.250012e+03
2.600000e-07	-4.615056e-06	-1.898819e-08	-3.381066e+01	-1.245834e+03
2.700000e-07	-4.568028e-06	-1.890424e-08	-3.346613e+01	-1.241518e+03
2.800000e-07	-4.519078e-06	-1.884165e-08	-3.310752e+01	-1.237068e+03
2.900000e-07	-4.468043e-06	-1.877981e-08	-3.273362e+01	-1.232473e+03
3.000000e-07	-4.415098e-06	-1.870171e-08	-3.234574e+01	-1.227713e+03
3.100000e-07	-4.360578e-06	-1.861700e-08	-3.194632e+01	-1.222766e+03
3.200000e-07	-4.304509e-06	-1.854122e-08	-3.153555e+01	-1.217614e+03
3.300000e-07	-4.246706e-06	-1.847362e-08	-3.111207e+01	-1.212255e+03
3.400000e-07	-4.187269e-06	-1.837148e-08	-3.067663e+01	-1.206693e+03
3.500000e-07	-4.126367e-06	-1.829441e-08	-3.023045e+01	-1.200948e+03
3.600000e-07	-4.064057e-06	-1.820557e-08	-2.977395e+01	-1.195040e+03
3.700000e-07	-4.000483e-06	-1.809810e-08	-2.930821e+01	-1.188989e+03
3.800000e-07	-3.935467e-06	-1.801336e-08	-2.883188e+01	-1.182807e+03
3.900000e-07	-3.868796e-06	-1.792348e-08	-2.834344e+01	-1.176494e+03
4.000000e-07	-3.800655e-06	-1.782475e-08	-2.784423e+01	-1.170041e+03
4.100000e-07	-3.731314e-06	-1.771581e-08	-2.733623e+01	-1.163433e+03
4.200000e-07	-3.660822e-06	-1.760878e-08	-2.681979e+01	-1.156651e+03
4.300000e-07	-3.589184e-06	-1.750840e-08	-2.629496e+01	-1.149680e+03
4.400000e-07	-3.516186e-06	-1.739713e-08	-2.576016e+01	-1.142515e+03
4.500000e-07	-3.441514e-06	-1.728252e-08	-2.521310e+01	-1.135158e+03
4.600000e-07	-3.365412e-06	-1.716511e-08	-2.465556e+01	-1.127619e+03
4.700000e-07	-3.288098e-06	-1.704412e-08	-2.408915e+01	-1.119909e+03
4.800000e-07	-3.209441e-06	-1.692337e-08	-2.351290e+01	-1.112041e+03
4.900000e-07	-3.129431e-06	-1.680292e-08	-2.292673e+01	-1.104020e+03
5.000000e-07	-3.048230e-06	-1.668528e-08	-2.233184e+01	-1.095841e+03
5.100000e-07	-2.965974e-06	-1.655272e-08	-2.172922e+01	-1.087493e+03
5.200000e-07	-2.882821e-06	-1.641773e-08	-2.112003e+01	-1.078958e+03
5.300000e-07	-2.798890e-06	-1.628782e-08	-2.050513e+01	-1.070216e+03
5.400000e-07	-2.714109e-06	-1.615084e-08	-1.988401e+01	-1.061251e+03
5.500000e-07	-2.628414e-06	-1.600974e-08	-1.925620e+01	-1.052055e+03
5.600000e-07	-2.541815e-06	-1.586583e-08	-1.862176e+01	-1.042626e+03
5.700000e-07	-2.454384e-06	-1.571778e-08	-1.798122e+01	-1.032970e+03
5.800000e-07	-2.366110e-06	-1.555981e-08	-1.733451e+01	-1.023094e+03
5.900000e-07	-2.276762e-06	-1.540233e-08	-1.667993e+01	-1.013005e+03
6.000000e-07	-2.186269e-06	-1.524614e-08	-1.601697e+01	-1.002705e+03
6.100000e-07	-2.094961e-06	-1.508777e-08	-1.534803e+01	-9.921859e+02
6.200000e-07	-2.003010e-06	-1.492221e-08	-1.467439e+01	-9.814343e+02
6.300000e-07	-1.910354e-06	-1.475026e-08	-1.399557e+01	-9.704316e+02
6.400000e-07	-1.817053e-06	-1.457572e-08	-1.331203e+01	-9.591593e+02
6.500000e-07	-1.723143e-06	-1.439680e-08	-1.262403e+01	-9.476034e+02
6.600000e-07	-1.628610e-06	-1.421466e-08	-1.193147e+01	-9.357577e+02
6.700000e-07	-1.533502e-06	-1.402871e-08	-1.123469e+01	-9.236247e+02
6.800000e-07	-1.437925e-06	-1.383920e-08	-1.053447e+01	-9.112137e+02
6.900000e-07	-1.341909e-06	-1.364348e-08	-9.831050e+00	-8.985366e+02
7.000000e-07	-1.245382e-06	-1.344609e-08	-9.123876e+00	-8.856024e+02
7.100000e-07	-1.148311e-06	-1.324705e-08	-8.412718e+00	-8.724125e+02
7.200000e-07	-1.050703e-06	-1.304562e-08	-7.697626e+00	-8.589577e+02
7.300000e-07	-9.526450e-07	-1.283946e-08	-6.979235e+00	-8.452181e+02
7.400000e-07	-8.541604e-07	-1.262404e-08	-6.257721e+00	-8.311662e+02
7.500000e-07	-7.553222e-07	-1.240260e-08	-5.533616e+00	-8.167721e+02
7.600000e-07	-6.562163e-07	-1.217886e-08	-4.807550e+00	-8.020091e+02
7.700000e-07	-5.568656e-07	-1.195056e-08	-4.079690e+00	-7.868586e+02
7.800000e-07	-4.573906e-07	-1.171406e-08	-3.350919e+00	-7.713117e+02
7.900000e-07	-3.578367e-07	-1.147136e-08	-2.621571e+00	-7.553682e+02
8.000000e-07	-2.581795e-07	-1.122159e-08	-1.891466e+00	-7.390323e+02
8.100000e-07	-1.584363e-07	-1.096599e-08	-1.160731e+00	-7.223057e+02
8.200000e-07	-5.861473e-08	-1.070626e-08	-4.294212e-01	-7.051814e+02
8.300000e-07	4.122356e-08	-1.044139e-08	3.020106e-01	-6.876386e+02
8.400000e-07	1.410545e-07	-1.016929e-08	1.033388e+00	-6.696408e+02
8.500000e-07	2.408862e-07	-9.886867e-09	1.764772e+00	-6.511374e+02
8.600000e-07	3.406636e-07	-9.597243e-09	2.495758e+00	-6.320694e+02
8.700000e-07	4.403910e-07	-9.299422e-09	3.226377e+00	-6.123758e+02
8.800000e-07	5.400453e-07	-8.990012e-09	3.956462e+00	-5.920002e+02
8.900000e-07	6.395480e-07	-8.668734e-09	4.685435e+00	-5.708962e+02
9.000000e-07	7.388673e-07	-8.336118e-09	5.413064e+00	-5.490284e+02
9.100000e-07	8.379524e-07	-7.992355e-09	6.138978e+00	-5.263698e+02
9.200000e-07	9.367108e-07	-7.635646e-09	6.862498e+00	-5.028962e+02
9.300000e-07	1.035046e-06	-7.266401e-09	7.582916e+00	-4.785789e+02
9.400000e-07	1.132866e-06	-6.882981e-09	8.299564e+00	-4.533775e+02
9.500000e-07	1.230074e-06	-6.484505e-09	9.011726e+00	-4.272354e+02
9.600000e-07	1.326695e-06	-6.070641e-09	9.719586e+00	-4.000777e+02
9.700000e-07	1.422808e-06	-5.641465e-09	1.042373e+01	-3.718147e+02
9.800000e-07	1.518362e-06	-5.193695e-09	1.112378e+01	-3.423469e+02
9.900000e-07	1.613346e-06	-4.724417e-09	1.181964e+01	-3.115727e+02
1.000000e-06	1.707779e-06	-4.232949e-09	1.251147e+01	-2.793958e+02
1.010000e-06	1.801690e-06	-3.720752e-09	1.319948e+01	-2.457311e+02
1.020000e-06	1.894957e-06	-3.186577e-09	1.388277e+01	-2.105083e+02
1.030000e-06	1.987497e-06	-2.626376e-09	1.456073e+01	-1.736729e+02
1.040000e-06	2.079471e-06	-2.040213e-09	1.523455e+01	-1.351863e+02
1.050000e-06	2.170836e-06	-1.427042e-09	1.590390e+01	-9.502526e+01
1.060000e-06	2.261367e-06	-7.869371e-10	1.656715e+01	-5.318379e+01
1.070000e-06	2.350852e-06	-1.231595e-10	1.722273e+01	-9.677042e+00
1.080000e-06	2.439275e-06	5.632718e-10	1.787054e+01	3.545176e+01
1.090000e-06	2.526827e-06	1.272224e-09	1.851196e+01	8.212272e+01
1.100000e-06	2.613568e-06	2.004257e-09	1.914744e+01	1.302106e+02
1.110000e-06	2.699459e-06	2.756470e-09	1.977668e+01	1.795385e+02
1.120000e-06	2.784467e-06	3.525648e-09	2.039947e+01	2.298757e+02
1.130000e-06	2.868634e-06	4.305157e-09	2.101609e+01	2.809412e+02
1.140000e-06	2.951968e-06	5.088392e-09	2.162661e+01	3.324133e+02
1.150000e-06	3.034301e-06	5.871784e-09	2.222980e+01	3.839440e+02
1.160000e-06	3.115471e-06	6.650850e-09	2.282446e+01	4.351767e+02
1.170000e-06	3.195477e-06	7.421149e-09	2.341060e+01	4.857631e+02
1.180000e-06	3.274304e-06	8.176252e-09	2.398809e+01	5.353794e+02
1.190000e-06	3.351943e-06	8.912407e-09	2.455689e+01	5.837379e+02
1.200000e-06	3.428440e-06	9.624014e-09	2.511732e+01	6.305927e+02
1.210000e-06	3.503777e-06	1.030690e-08	2.566925e+01	6.757426e+02
1.220000e-06	3.577677e-06	1.096125e-08	2.621065e+01	7.190288e+02
1.230000e-06	3.649997e-06	1.158666e-08	2.674049e+01	7.603316e+02
1.240000e-06	3.720945e-06	1.217945e-08	2.726026e+01	7.995665e+02
1.250000e-06	3.790617e-06	1.274051e-08	2.777069e+01	8.366817e+02
1.260000e-06	3.859049e-06	1.327027e-08	2.827203e+01	8.716561e+02
1.270000e-06	3.926197e-06	1.376776e-08	2.876397e+01	9.044989e+02
1.280000e-06	3.991822e-06	1.423198e-08	2.924475e+01	9.352486e+02
1.290000e-06	4.055852e-06	1.466381e-08	2.971384e+01	9.639713e+02
1.300000e-06	4.118448e-06	1.506758e-08	3.017244e+01	9.907562e+02
1.310000e-06	4.179651e-06	1.544411e-08	3.062082e+01	1.015710e+03
1.320000e-06	4.239531e-06	1.579447e-08	3.105950e+01	1.038949e+03
1.330000e-06	4.297959e-06	1.612235e-08	3.148756e+01	1.060591e+03
1.340000e-06	4.354652e-06	1.642833e-08	3.190290e+01	1.080746e+03
1.350000e-06	4.409668e-06	1.671171e-08	3.230596e+01	1.099514e+03
1.360000e-06	4.463141e-06	1.697403e-08	3.269771e+01	1.116982e+03
1.370000e-06	4.514897e-06	1.721907e-08	3.307688e+01	1.133225e+03
1.380000e-06	4.564656e-06	1.744724e-08	3.344143e+01	1.148308e+03
1.390000e-06	4.612535e-06	1.765641e-08	3.379220e+01	1.162295e+03
1.400000e-06	4.658790e-06	1.784910e-08	3.413107e+01	1.175247e+03
1.410000e-06	4.703547e-06	1.802876e-08	3.445897e+01	1.187229e+03
1.420000e-06	4.746774e-06	1.819597e-08	3.477565e+01	1.198309e+03
1.430000e-06	4.788201e-06	1.835181e-08	3.507915e+01	1.208554e+03
1.440000e-06	4.827826e-06	1.849762e-08	3.536946e+01	1.218030e+03
1.450000e-06	4.865819e-06	1.863333e-08	3.564779e+01	1.226792e+03
1.460000e-06	4.902252e-06	1.875841e-08	3.591471e+01	1.234890e+03
1.470000e-06	4.937015e-06	1.887087e-08	3.616939e+01	1.242363e+03
1.480000e-06	4.969879e-06	1.897044e-08	3.641016e+01	1.249244e+03
1.490000e-06	5.000962e-06	1.906089e-08	3.663788e+01	1.255559e+03
1.500000e-06	5.030418e-06	1.914569e-08	3.685368e+01	1.261338e+03
1.510000e-06	5.058240e-06	1.922556e-08	3.705751e+01	1.266614e+03
1.520000e-06	5.084198e-06	1.929956e-08	3.724768e+01	1.271421e+03
1.530000e-06	5.108108e-06	1.936746e-08	3.742285e+01	1.275799e+03
1.540000e-06	5.130187e-06	1.942883e-08	3.758460e+01	1.279787e+03
1.550000e-06	5.150596e-06	1.948459e-08	3.773412e+01	1.283415e+03
1.560000e-06	5.169221e-06	1.953446e-08	3.787057e+01	1.286708e+03
1.570000e-06	5.185913e-06	1.957837e-08	3.799286e+01	1.289676e+03
1.580000e-06	5.200686e-06	1.961736e-08	3.810109e+01	1.292318e+03
1.590000e-06	5.213585e-06	1.965149e-08	3.819559e+01	1.294630e+03
1.600000e-06	5.224463e-06	1.968037e-08	3.827528e+01	1.296604e+03
1.610000e-06	5.233202e-06	1.970366e-08	3.833931e+01	1.298238e+03
1.620000e-06	5.240008e-06	1.972257e-08	3.838917e+01	1.299543e+03
1.630000e-06	5.245068e-06	1.973723e-08	3.842624e+01	1.300541e+03
1.640000e-06	5.248331e-06	1.974979e-08	3.845014e+01	1.301267e+03
1.650000e-06	5.249676e-06	1.976052e-08	3.846000e+01	1.301759e+03
1.660000e-06	5.249134e-06	1.976709e-08	3.845603e+01	1.302052e+03
1.670000e-06	5.246862e-06	1.977156e-08	3.843938e+01	1.302172e+03
1.680000e-06	5.243038e-06	1.977217e-08	3.841137e+01	1.302126e+03
1.690000e-06	5.237500e-06	1.976920e-08	3.837079e+01	1.301905e+03
1.700000e-06	5.230055e-06	1.976296e-08	3.831625e+01	1.301483e+03
1.710000e-06	5.220963e-06	1.975265e-08	3.824964e+01	1.300829e+03
1.720000e-06	5.210374e-06	1.974088e-08	3.817207e+01	1.299916e+03
1.730000e-06	5.198097e-06	1.972907e-08	3.808212e+01	1.298730e+03
1.740000e-06	5.183883e-06	1.968264e-08	3.797799e+01	1.297280e+03
1.750000e-06	5.167546e-06	1.967270e-08	3.785830e+01	1.295599e+03
1.760000e-06	5.148881e-06	1.965026e-08	3.772156e+01	1.293740e+03
1.770000e-06	5.127744e-06	1.961189e-08	3.756670e+01	1.291767e+03
1.780000e-06	5.104497e-06	1.963117e-08	3.739639e+01	1.289742e+03
1.790000e-06	5.080119e-06	1.953674e-08	3.721779e+01	1.287711e+03
1.800000e-06	5.054931e-06	1.950298e-08	3.703327e+01	1.285695e+03
1.810000e-06	5.028216e-06	1.956751e-08	3.683755e+01	1.283681e+03
1.820000e-06	4.999627e-06	1.946296e-08	3.662810e+01	1.281631e+03
1.830000e-06	4.969326e-06	1.946339e-08	3.640611e+01	1.279483e+03
1.840000e-06	4.937173e-06	1.951218e-08	3.617055e+01	1.277168e+03
1.850000e-06	4.903218e-06	1.941037e-08	3.592179e+01	1.274624e+03
1.860000e-06	4.867710e-06	1.943801e-08	3.566165e+01	1.271804e+03
1.870000e-06	4.830304e-06	1.937964e-08	3.538761e+01	1.268689e+03
1.880000e-06	4.790936e-06	1.923902e-08	3.509920e+01	1.265284e+03
1.890000e-06	4.749943e-06	1.926538e-08	3.479887e+01	1.261616e+03
1.900000e-06	4.707251e-06	1.919257e-08	3.448611e+01	1.257726e+03
1.910000e-06	4.662940e-06	1.914120e-08	3.416147e+01	1.253653e+03
1.920000e-06	4.616935e-06	1.911797e-08	3.382443e+01	1.249430e+03
1.930000e-06	4.569178e-06	1.898966e-08	3.347455e+01	1.245073e+03
1.940000e-06	4.519866e-06	1.896953e-08	3.311329e+01	1.240579e+03
1.950000e-06	4.468813e-06	1.888787e-08	3.273927e+01	1.235935e+03
1.960000e-06	4.415869e-06	1.880318e-08	3.235139e+01	1.231118e+03
1.970000e-06	4.360998e-06	1.875287e-08	3.194940e+01	1.226107e+03
1.980000e-06	4.304347e-06	1.864413e-08	3.153436e+01	1.220890e+03
1.990000e-06	4.246184e-06	1.859528e-08	3.110825e+01	1.215465e+03
2.000000e-06	4.186669e-06	1.847782e-08	3.067223e+01	1.209844e+03
2.010000e-06	4.125788e-06	1.839426e-08	3.022621e+01	1.204045e+03
2.020000e-06	4.063227e-06	1.833497e-08	2.976787e+01	1.198091e+03
2.030000e-06	3.999017e-06	1.820806e-08	2.929746e+01	1.191998e+03
2.040000e-06	3.933461e-06	1.813304e-08	2.881719e+01	1.185775e+03
2.050000e-06	3.866592e-06	1.802509e-08	2.832730e+01	1.179420e+03
2.060000e-06	3.798429e-06	1.793703e-08	2.782792e+01	1.172920e+03
2.070000e-06	3.728878e-06	1.783591e-08	2.731838e+01	1.166259e+03
2.080000e-06	3.657798e-06	1.771003e-08	2.679764e+01	1.159418e+03
2.090000e-06	3.585324e-06	1.762477e-08	2.626668e+01	1.152387e+03
2.100000e-06	3.511594e-06	1.750412e-08	2.572652e+01	1.145161e+03
2.110000e-06	3.436624e-06	1.740365e-08	2.517728e+01	1.137745e+03
2.120000e-06	3.360409e-06	1.728885e-08	2.461891e+01	1.130150e+03
2.130000e-06	3.282762e-06	1.716528e-08	2.405006e+01	1.122390e+03
2.140000e-06	3.203626e-06	1.704381e-08	2.347030e+01	1.114473e+03
2.150000e-06	3.123325e-06	1.691380e-08	2.288200e+01	1.106403e+03
2.160000e-06	3.041981e-06	1.680310e-08	2.228606e+01	1.098173e+03
2.170000e-06	2.959614e-06	1.666490e-08	2.168262e+01	1.089768e+03
2.180000e-06	2.876350e-06	1.653198e-08	2.107262e+01	1.081169e+03
2.190000e-06	2.792184e-06	1.640447e-08	2.045601e+01	1.072358e+03
2.200000e-06	2.706926e-06	1.626857e-08	1.983139e+01	1.063321e+03
2.210000e-06	2.620389e-06	1.612677e-08	1.919740e+01	1.054051e+03
2.220000e-06	2.532738e-06	1.598028e-08	1.855526e+01	1.044550e+03
2.230000e-06	2.444250e-06	1.583981e-08	1.790698e+01	1.034823e+03
2.240000e-06	2.354970e-06	1.568435e-08	1.725290e+01	1.024879e+03
2.250000e-06	2.264943e-06	1.552507e-08	1.659335e+01	1.014724e+03
2.260000e-06	2.174210e-06	1.536772e-08	1.592862e+01	1.004355e+03
2.270000e-06	2.082716e-06	1.521268e-08	1.525832e+01	9.937645e+02
2.280000e-06	1.990533e-06	1.505085e-08	1.458297e+01	9.829354e+02
2.290000e-06	1.897740e-06	1.488400e-08	1.390315e+01	9.718491e+02
2.300000e-06	1.804253e-06	1.471596e-08	1.321826e+01	9.604880e+02
2.310000e-06	1.710009e-06	1.454041e-08	1.252781e+01	9.488403e+02
2.320000e-06	1.615003e-06	1.435593e-08	1.183178e+01	9.369027e+02
2.330000e-06	1.519318e-06	1.416407e-08	1.113078e+01	9.246802e+02
2.340000e-06	1.423151e-06	1.397497e-08	1.042624e+01	9.121835e+02
2.350000e-06	1.326594e-06	1.378394e-08	9.718850e+00	8.994242e+02
2.360000e-06	1.229657e-06	1.358727e-08	9.008672e+00	8.864092e+02
2.370000e-06	1.132314e-06	1.338397e-08	8.295517e+00	8.731369e+02
2.380000e-06	1.034600e-06	1.317603e-08	7.579650e+00	8.595942e+02
2.390000e-06	9.365705e-07	1.296523e-08	6.861471e+00	8.457586e+02
2.400000e-06	8.382221e-07	1.274786e-08	6.140954e+00	8.316011e+02
2.410000e-06	7.395857e-07	1.252475e-08	5.418327e+00	8.170921e+02
2.420000e-06	6.407403e-07	1.229798e-08	4.694170e+00	8.022073e+02
2.430000e-06	5.417634e-07	1.206417e-08	3.969049e+00	7.869310e+02
2.440000e-06	4.427049e-07	1.182198e-08	3.243330e+00	7.712574e+02
2.450000e-06	3.435918e-07	1.157527e-08	2.517210e+00	7.551884e+02
2.460000e-06	2.443751e-07	1.132480e-08	1.790332e+00	7.387281e+02
2.470000e-06	1.449990e-07	1.106879e-08	1.062287e+00	7.218762e+02
2.480000e-06	4.552350e-08	1.080568e-08	3.335127e-01	7.046216e+02
2.490000e-06	-5.392977e-08	1.053711e-08	-3.950984e-01	6.869383e+02
2.500000e-06	-1.533862e-07	1.026137e-08	-1.123733e+00	6.687851e+02
2.510000e-06	-2.528278e-07	9.973860e-09	-1.852258e+00	6.501081e+02
2.520000e-06	-3.521731e-07	9.676258e-09	-2.580079e+00	6.308467e+02
2.530000e-06	-4.514320e-07	9.368729e-09	-3.307266e+00	6.109407e+02
2.540000e-06	-5.506007e-07	9.053138e-09	-4.033792e+00	5.903366e+02
2.550000e-06	-6.495978e-07	8.728946e-09	-4.759061e+00	5.689916e+02
2.560000e-06	-7.484193e-07	8.392550e-09	-5.483044e+00	5.468734e+02
2.570000e-06	-8.470292e-07	8.042811e-09	-6.205476e+00	5.239566e+02
2.580000e-06	-9.453284e-07	7.678672e-09	-6.925633e+00	5.002165e+02
2.590000e-06	-1.043292e-06	7.301776e-09	-7.643332e+00	4.756213e+02
2.600000e-06	-1.140867e-06	6.913221e-09	-8.358183e+00	4.501257e+02
2.610000e-06	-1.238039e-06	6.511856e-09	-9.070079e+00	4.236672e+02
2.620000e-06	-1.334839e-06	6.092653e-09	-9.779251e+00	3.961658e+02
2.630000e-06	-1.431251e-06	5.652312e-09	-1.048558e+01	3.675278e+02
2.640000e-06	-1.527214e-06	5.192758e-09	-1.118863e+01	3.376522e+02
2.650000e-06	-1.622602e-06	4.714976e-09	-1.188745e+01	3.064382e+02
2.660000e-06	-1.717238e-06	4.216946e-09	-1.258077e+01	2.737928e+02
2.670000e-06	-1.811080e-06	3.695682e-09	-1.326827e+01	2.396353e+02
2.680000e-06	-1.904124e-06	3.150667e-09	-1.394993e+01	2.039005e+02
2.690000e-06	-1.996370e-06	2.582224e-09	-1.462574e+01	1.665390e+02
2.700000e-06	-2.087874e-06	1.987845e-09	-1.529611e+01	1.275171e+02
2.710000e-06	-2.178674e-06	1.366140e-09	-1.596133e+01	8.681675e+01
2.720000e-06	-2.268683e-06	7.177518e-10	-1.662075e+01	4.443829e+01
2.730000e-06	-2.357832e-06	4.386151e-11	-1.727387e+01	4.049966e-01
2.740000e-06	-2.446278e-06	-6.533209e-10	-1.792184e+01	-4.522911e+01
2.750000e-06	-2.534039e-06	-1.372850e-09	-1.856479e+01	-9.237044e+01
2.760000e-06	-2.620903e-06	-2.112181e-09	-1.920117e+01	-1.408777e+02
2.770000e-06	-2.706717e-06	-2.869087e-09	-1.982986e+01	-1.905566e+02
2.780000e-06	-2.791457e-06	-3.641103e-09	-2.045068e+01	-2.411596e+02
2.790000e-06	-2.875189e-06	-4.423545e-09	-2.106411e+01	-2.923913e+02
2.800000e-06	-2.957982e-06	-5.211995e-09	-2.167067e+01	-3.439199e+02
2.810000e-06	-3.039807e-06	-5.999184e-09	-2.227013e+01	-3.953925e+02
2.820000e-06	-3.120658e-06	-6.779119e-09	-2.286246e+01	-4.464534e+02
2.830000e-06	-3.200494e-06	-7.547771e-09	-2.344735e+01	-4.967607e+02
2.840000e-06	-3.279102e-06	-8.299976e-09	-2.402325e+01	-5.460010e+02
2.850000e-06	-3.356316e-06	-9.032756e-09	-2.458893e+01	-5.938997e+02
2.860000e-06	-3.432103e-06	-9.743713e-09	-2.514416e+01	-6.402253e+02
2.870000e-06	-3.506521e-06	-1.042866e-08	-2.568936e+01	-6.847904e+02
2.880000e-06	-3.579735e-06	-1.108419e-08	-2.622573e+01	-7.274492e+02
2.890000e-06	-3.651822e-06	-1.170906e-08	-2.675385e+01	-7.680938e+02
2.900000e-06	-3.722508e-06	-1.230287e-08	-2.727171e+01	-8.066504e+02
2.910000e-06	-3.791658e-06	-1.286478e-08	-2.777831e+01	-8.430772e+02
2.920000e-06	-3.859435e-06	-1.339363e-08	-2.827486e+01	-8.773629e+02
2.930000e-06	-3.925869e-06	-1.388725e-08	-2.876157e+01	-9.095262e+02
2.940000e-06	-3.990983e-06	-1.434875e-08	-2.923861e+01	-9.396148e+02
