# Temperatura_=_40.25
# Concentracion g/m^3_=_41000.0
# C_Vs_to_Am_M_A/Vsm_=_65563218390.804596
# pendiente_HvsI_1/m_=_3716.3
# ordenada_HvsI_A/m_=_1297.0
# frecuencia_Hz_=_302004.2129563357

Tiempo_(s)	Campo_(V.s)	Magnetizacion_(V.s)	Campo_(kA/m)	Magnetizacion_(A/m)
0.000000e+00	-6.716024e-06	-2.516520e-08	-4.747041e+01	-1.646622e+03
1.000000e-08	-6.712623e-06	-2.516226e-08	-4.744637e+01	-1.647082e+03
2.000000e-08	-6.706979e-06	-2.515212e-08	-4.740648e+01	-1.647316e+03
3.000000e-08	-6.699291e-06	-2.514212e-08	-4.735214e+01	-1.647124e+03
4.000000e-08	-6.689391e-06	-2.513087e-08	-4.728217e+01	-1.646406e+03
5.000000e-08	-6.677040e-06	-2.511526e-08	-4.719486e+01	-1.645193e+03
6.000000e-08	-6.662200e-06	-2.509333e-08	-4.708997e+01	-1.643642e+03
7.000000e-08	-6.645006e-06	-2.506251e-08	-4.696844e+01	-1.641983e+03
8.000000e-08	-6.625619e-06	-2.507557e-08	-4.683141e+01	-1.640452e+03
9.000000e-08	-6.603868e-06	-2.513717e-08	-4.667767e+01	-1.639218e+03
1.000000e-07	-6.579391e-06	-2.509054e-08	-4.650466e+01	-1.638336e+03
1.100000e-07	-6.552236e-06	-2.502146e-08	-4.631272e+01	-1.637729e+03
1.200000e-07	-6.522801e-06	-2.500567e-08	-4.610467e+01	-1.637217e+03
1.300000e-07	-6.491489e-06	-2.491496e-08	-4.588335e+01	-1.636572e+03
1.400000e-07	-6.458493e-06	-2.481615e-08	-4.565012e+01	-1.635589e+03
1.500000e-07	-6.423537e-06	-2.496955e-08	-4.540305e+01	-1.634144e+03
1.600000e-07	-6.386455e-06	-2.493290e-08	-4.514094e+01	-1.632237e+03
1.700000e-07	-6.347373e-06	-2.481979e-08	-4.486470e+01	-1.629975e+03
1.800000e-07	-6.305996e-06	-2.493073e-08	-4.457224e+01	-1.627544e+03
1.900000e-07	-6.262157e-06	-2.476523e-08	-4.426237e+01	-1.625138e+03
2.000000e-07	-6.216100e-06	-2.470908e-08	-4.393683e+01	-1.622897e+03
2.100000e-07	-6.167612e-06	-2.474513e-08	-4.359411e+01	-1.620860e+03
2.200000e-07	-6.116443e-06	-2.466532e-08	-4.323243e+01	-1.618949e+03
2.300000e-07	-6.062725e-06	-2.467490e-08	-4.285274e+01	-1.616995e+03
2.400000e-07	-6.006687e-06	-2.460535e-08	-4.245665e+01	-1.614790e+03
2.500000e-07	-5.948404e-06	-2.454429e-08	-4.204470e+01	-1.612155e+03
2.600000e-07	-5.887865e-06	-2.451567e-08	-4.161679e+01	-1.608996e+03
2.700000e-07	-5.825178e-06	-2.443785e-08	-4.117371e+01	-1.605339e+03
2.800000e-07	-5.760412e-06	-2.440152e-08	-4.071592e+01	-1.601318e+03
2.900000e-07	-5.693459e-06	-2.435265e-08	-4.024268e+01	-1.597138e+03
3.000000e-07	-5.624262e-06	-2.431107e-08	-3.975359e+01	-1.593007e+03
3.100000e-07	-5.552980e-06	-2.422399e-08	-3.924975e+01	-1.589069e+03
3.200000e-07	-5.479659e-06	-2.416869e-08	-3.873150e+01	-1.585358e+03
3.300000e-07	-5.404139e-06	-2.411809e-08	-3.819770e+01	-1.581784e+03
3.400000e-07	-5.326413e-06	-2.401470e-08	-3.764832e+01	-1.578159e+03
3.500000e-07	-5.246621e-06	-2.397195e-08	-3.708433e+01	-1.574256e+03
3.600000e-07	-5.164861e-06	-2.389820e-08	-3.650643e+01	-1.569878e+03
3.700000e-07	-5.081341e-06	-2.382201e-08	-3.591609e+01	-1.564923e+03
3.800000e-07	-4.996205e-06	-2.375209e-08	-3.531434e+01	-1.559416e+03
3.900000e-07	-4.909450e-06	-2.366794e-08	-3.470113e+01	-1.553502e+03
4.000000e-07	-4.821038e-06	-2.357724e-08	-3.407621e+01	-1.547401e+03
4.100000e-07	-4.730857e-06	-2.348582e-08	-3.343880e+01	-1.541337e+03
4.200000e-07	-4.638976e-06	-2.341079e-08	-3.278936e+01	-1.535464e+03
4.300000e-07	-4.545577e-06	-2.332016e-08	-3.212919e+01	-1.529813e+03
4.400000e-07	-4.450617e-06	-2.322511e-08	-3.145799e+01	-1.524278e+03
4.500000e-07	-4.353994e-06	-2.312160e-08	-3.077503e+01	-1.518643e+03
4.600000e-07	-4.255686e-06	-2.301061e-08	-3.008017e+01	-1.512648e+03
4.700000e-07	-4.155827e-06	-2.290422e-08	-2.937434e+01	-1.506066e+03
4.800000e-07	-4.054592e-06	-2.279569e-08	-2.865879e+01	-1.498779e+03
4.900000e-07	-3.951967e-06	-2.268765e-08	-2.793342e+01	-1.490814e+03
5.000000e-07	-3.847936e-06	-2.257094e-08	-2.719810e+01	-1.482336e+03
5.100000e-07	-3.742461e-06	-2.244584e-08	-2.645258e+01	-1.473596e+03
5.200000e-07	-3.635496e-06	-2.231379e-08	-2.569653e+01	-1.464849e+03
5.300000e-07	-3.527128e-06	-2.218045e-08	-2.493056e+01	-1.456270e+03
5.400000e-07	-3.417518e-06	-2.204789e-08	-2.415581e+01	-1.447884e+03
5.500000e-07	-3.306721e-06	-2.191071e-08	-2.337267e+01	-1.439556e+03
5.600000e-07	-3.194703e-06	-2.176660e-08	-2.258090e+01	-1.431016e+03
5.700000e-07	-3.081383e-06	-2.161012e-08	-2.177993e+01	-1.421938e+03
5.800000e-07	-2.966669e-06	-2.144605e-08	-2.096910e+01	-1.412039e+03
5.900000e-07	-2.850653e-06	-2.127814e-08	-2.014908e+01	-1.401165e+03
6.000000e-07	-2.733481e-06	-2.110738e-08	-1.932087e+01	-1.389337e+03
6.100000e-07	-2.615294e-06	-2.093248e-08	-1.848551e+01	-1.376753e+03
6.200000e-07	-2.496174e-06	-2.075031e-08	-1.764353e+01	-1.363718e+03
6.300000e-07	-2.376137e-06	-2.055678e-08	-1.679509e+01	-1.350546e+03
6.400000e-07	-2.255307e-06	-2.035143e-08	-1.594104e+01	-1.337447e+03
6.500000e-07	-2.133701e-06	-2.014080e-08	-1.508149e+01	-1.324449e+03
6.600000e-07	-2.011236e-06	-1.992358e-08	-1.421588e+01	-1.311364e+03
6.700000e-07	-1.887941e-06	-1.969846e-08	-1.334440e+01	-1.297827e+03
6.800000e-07	-1.763943e-06	-1.946260e-08	-1.246795e+01	-1.283395e+03
6.900000e-07	-1.639395e-06	-1.921405e-08	-1.158763e+01	-1.267672e+03
7.000000e-07	-1.514351e-06	-1.895515e-08	-1.070378e+01	-1.250428e+03
7.100000e-07	-1.388901e-06	-1.868352e-08	-9.817072e+00	-1.231667e+03
7.200000e-07	-1.263060e-06	-1.840081e-08	-8.927600e+00	-1.211629e+03
7.300000e-07	-1.136835e-06	-1.810533e-08	-8.035410e+00	-1.190698e+03
7.400000e-07	-1.010251e-06	-1.779167e-08	-7.140685e+00	-1.169268e+03
7.500000e-07	-8.832967e-07	-1.745732e-08	-6.243345e+00	-1.147583e+03
7.600000e-07	-7.560318e-07	-1.710300e-08	-5.343808e+00	-1.125607e+03
7.700000e-07	-6.284350e-07	-1.672791e-08	-4.441924e+00	-1.102978e+03
7.800000e-07	-5.006013e-07	-1.633220e-08	-3.538366e+00	-1.079054e+03
7.900000e-07	-3.726387e-07	-1.591530e-08	-2.633896e+00	-1.053055e+03
8.000000e-07	-2.445172e-07	-1.547161e-08	-1.728304e+00	-1.024254e+03
8.100000e-07	-1.162615e-07	-1.499426e-08	-8.217629e-01	-9.921723e+02
8.200000e-07	1.206175e-08	-1.447870e-08	8.525524e-02	-9.566927e+02
8.300000e-07	1.404154e-07	-1.392339e-08	9.924882e-01	-9.180605e+02
8.400000e-07	2.687411e-07	-1.332280e-08	1.899524e+00	-8.767366e+02
8.500000e-07	3.969876e-07	-1.266990e-08	2.806000e+00	-8.331307e+02
8.600000e-07	5.251524e-07	-1.195812e-08	3.711899e+00	-7.872731e+02
8.700000e-07	6.531899e-07	-1.117536e-08	4.616897e+00	-7.385160e+02
8.800000e-07	7.810293e-07	-1.030956e-08	5.520496e+00	-6.853585e+02
8.900000e-07	9.086186e-07	-9.344945e-09	6.422327e+00	-6.254711e+02
9.000000e-07	1.035894e-06	-8.259077e-09	7.321937e+00	-5.559547e+02
9.100000e-07	1.162740e-06	-7.019416e-09	8.218515e+00	-4.738110e+02
9.200000e-07	1.289116e-06	-5.585280e-09	9.111768e+00	-3.765474e+02
9.300000e-07	1.415115e-06	-3.913608e-09	1.000236e+01	-2.627954e+02
9.400000e-07	1.540751e-06	-1.969547e-09	1.089038e+01	-1.328090e+02
9.500000e-07	1.665854e-06	2.438077e-10	1.177464e+01	1.128051e+01
9.600000e-07	1.790412e-06	2.638673e-09	1.265504e+01	1.655245e+02
9.700000e-07	1.914414e-06	5.094639e-09	1.353152e+01	3.245464e+02
9.800000e-07	2.037667e-06	7.540301e-09	1.440270e+01	4.821977e+02
9.900000e-07	2.160071e-06	9.866380e-09	1.526788e+01	6.323660e+02
1.000000e-06	2.281635e-06	1.193464e-08	1.612712e+01	7.697800e+02
1.010000e-06	2.402288e-06	1.368938e-08	1.697992e+01	8.906635e+02
1.020000e-06	2.521958e-06	1.514743e-08	1.782578e+01	9.931174e+02
1.030000e-06	2.640638e-06	1.635160e-08	1.866464e+01	1.077172e+03
1.040000e-06	2.758371e-06	1.734648e-08	1.949681e+01	1.144517e+03
1.050000e-06	2.875173e-06	1.817446e-08	2.032239e+01	1.197991e+03
1.060000e-06	2.990900e-06	1.886741e-08	2.114038e+01	1.240945e+03
1.070000e-06	3.105354e-06	1.945383e-08	2.194936e+01	1.276620e+03
1.080000e-06	3.218473e-06	1.995576e-08	2.274891e+01	1.307659e+03
1.090000e-06	3.330302e-06	2.038808e-08	2.353935e+01	1.335837e+03
1.100000e-06	3.440947e-06	2.076661e-08	2.432141e+01	1.362028e+03
1.110000e-06	3.550509e-06	2.110055e-08	2.509582e+01	1.386373e+03
1.120000e-06	3.658997e-06	2.139859e-08	2.586264e+01	1.408583e+03
1.130000e-06	3.766250e-06	2.167115e-08	2.662073e+01	1.428270e+03
1.140000e-06	3.872078e-06	2.192081e-08	2.736875e+01	1.445222e+03
1.150000e-06	3.976447e-06	2.214688e-08	2.810645e+01	1.459559e+03
1.160000e-06	4.079392e-06	2.235214e-08	2.883408e+01	1.471742e+03
1.170000e-06	4.180956e-06	2.254106e-08	2.955196e+01	1.482464e+03
1.180000e-06	4.281117e-06	2.271668e-08	3.025993e+01	1.492464e+03
1.190000e-06	4.379678e-06	2.288060e-08	3.095658e+01	1.502336e+03
1.200000e-06	4.476489e-06	2.303490e-08	3.164086e+01	1.512394e+03
1.210000e-06	4.571648e-06	2.317725e-08	3.231347e+01	1.522625e+03
1.220000e-06	4.665271e-06	2.330993e-08	3.297521e+01	1.532743e+03
1.230000e-06	4.757396e-06	2.343438e-08	3.362638e+01	1.542317e+03
1.240000e-06	4.847849e-06	2.354948e-08	3.426572e+01	1.550932e+03
1.250000e-06	4.936431e-06	2.365568e-08	3.489183e+01	1.558332e+03
1.260000e-06	5.023213e-06	2.375646e-08	3.550523e+01	1.564505e+03
1.270000e-06	5.108308e-06	2.385268e-08	3.610670e+01	1.569683e+03
1.280000e-06	5.191682e-06	2.394215e-08	3.669601e+01	1.574271e+03
1.290000e-06	5.273137e-06	2.402563e-08	3.727175e+01	1.578723e+03
1.300000e-06	5.352562e-06	2.410383e-08	3.783315e+01	1.583410e+03
1.310000e-06	5.430017e-06	2.417879e-08	3.838062e+01	1.588520e+03
1.320000e-06	5.505435e-06	2.425147e-08	3.891369e+01	1.594017e+03
1.330000e-06	5.578663e-06	2.432120e-08	3.943128e+01	1.599669e+03
1.340000e-06	5.649820e-06	2.438856e-08	3.993424e+01	1.605137e+03
1.350000e-06	5.719043e-06	2.445304e-08	4.042352e+01	1.610083e+03
1.360000e-06	5.786256e-06	2.451253e-08	4.089859e+01	1.614282e+03
1.370000e-06	5.851302e-06	2.456770e-08	4.135835e+01	1.617685e+03
1.380000e-06	5.914235e-06	2.462009e-08	4.180318e+01	1.620427e+03
1.390000e-06	5.975260e-06	2.467074e-08	4.223452e+01	1.622782e+03
1.400000e-06	6.034313e-06	2.472012e-08	4.265192e+01	1.625070e+03
1.410000e-06	6.091186e-06	2.476559e-08	4.305391e+01	1.627557e+03
1.420000e-06	6.145835e-06	2.480600e-08	4.344019e+01	1.630378e+03
1.430000e-06	6.198186e-06	2.484319e-08	4.381021e+01	1.633498e+03
1.440000e-06	6.247890e-06	2.487962e-08	4.416154e+01	1.636734e+03
1.450000e-06	6.295105e-06	2.491473e-08	4.449526e+01	1.639816e+03
1.460000e-06	6.340273e-06	2.494730e-08	4.481452e+01	1.642477e+03
1.470000e-06	6.383336e-06	2.497737e-08	4.511889e+01	1.644539e+03
1.480000e-06	6.423990e-06	2.500388e-08	4.540625e+01	1.645968e+03
1.490000e-06	6.462335e-06	2.502661e-08	4.567728e+01	1.646880e+03
1.500000e-06	6.498568e-06	2.504709e-08	4.593338e+01	1.647507e+03
1.510000e-06	6.532451e-06	2.506649e-08	4.617288e+01	1.648119e+03
1.520000e-06	6.563935e-06	2.508494e-08	4.639541e+01	1.648943e+03
1.530000e-06	6.593194e-06	2.510344e-08	4.660222e+01	1.650093e+03
1.540000e-06	6.620209e-06	2.512022e-08	4.679317e+01	1.651537e+03
1.550000e-06	6.644732e-06	2.513407e-08	4.696651e+01	1.653118e+03
1.560000e-06	6.666758e-06	2.514511e-08	4.712219e+01	1.654598e+03
1.570000e-06	6.686511e-06	2.515430e-08	4.726181e+01	1.655743e+03
1.580000e-06	6.703908e-06	2.516405e-08	4.738478e+01	1.656395e+03
1.590000e-06	6.718847e-06	2.517326e-08	4.749036e+01	1.656520e+03
1.600000e-06	6.731280e-06	2.518143e-08	4.757824e+01	1.656223e+03
1.610000e-06	6.741019e-06	2.518835e-08	4.764708e+01	1.655709e+03
1.620000e-06	6.748193e-06	2.519258e-08	4.769779e+01	1.655218e+03
1.630000e-06	6.753068e-06	2.519570e-08	4.773225e+01	1.654952e+03
1.640000e-06	6.755604e-06	2.519815e-08	4.775017e+01	1.655012e+03
1.650000e-06	6.755686e-06	2.520177e-08	4.775075e+01	1.655363e+03
1.660000e-06	6.753472e-06	2.519472e-08	4.773510e+01	1.655847e+03
1.670000e-06	6.749146e-06	2.518760e-08	4.770453e+01	1.656234e+03
1.680000e-06	6.742504e-06	2.518423e-08	4.765758e+01	1.656294e+03
1.690000e-06	6.733628e-06	2.517714e-08	4.759484e+01	1.655865e+03
1.700000e-06	6.722653e-06	2.517104e-08	4.751727e+01	1.654907e+03
1.710000e-06	6.709341e-06	2.517155e-08	4.742318e+01	1.653515e+03
1.720000e-06	6.693696e-06	2.518662e-08	4.731259e+01	1.651886e+03
1.730000e-06	6.676001e-06	2.513649e-08	4.718752e+01	1.650262e+03
1.740000e-06	6.656079e-06	2.502062e-08	4.704671e+01	1.648857e+03
1.750000e-06	6.633127e-06	2.504344e-08	4.688448e+01	1.647791e+03
1.760000e-06	6.607044e-06	2.506517e-08	4.670012e+01	1.647056e+03
1.770000e-06	6.578502e-06	2.504035e-08	4.649837e+01	1.646523e+03
1.780000e-06	6.547901e-06	2.516154e-08	4.628208e+01	1.645981e+03
1.790000e-06	6.515756e-06	2.509830e-08	4.605487e+01	1.645204e+03
1.800000e-06	6.482043e-06	2.492143e-08	4.581658e+01	1.644017e+03
1.810000e-06	6.445959e-06	2.504184e-08	4.556153e+01	1.642354e+03
1.820000e-06	6.407452e-06	2.492728e-08	4.528935e+01	1.640265e+03
1.830000e-06	6.366839e-06	2.492940e-08	4.500229e+01	1.637903e+03
1.840000e-06	6.324107e-06	2.507486e-08	4.470025e+01	1.635464e+03
1.850000e-06	6.279256e-06	2.487179e-08	4.438324e+01	1.633125e+03
1.860000e-06	6.232031e-06	2.492982e-08	4.404944e+01	1.630984e+03
1.870000e-06	6.182473e-06	2.484949e-08	4.369915e+01	1.629025e+03
1.880000e-06	6.130665e-06	2.474093e-08	4.333296e+01	1.627122e+03
1.890000e-06	6.076159e-06	2.482280e-08	4.294769e+01	1.625080e+03
1.900000e-06	6.019211e-06	2.467471e-08	4.254518e+01	1.622696e+03
1.910000e-06	5.960105e-06	2.472874e-08	4.212740e+01	1.619825e+03
1.920000e-06	5.898785e-06	2.468987e-08	4.169398e+01	1.616428e+03
1.930000e-06	5.835334e-06	2.457031e-08	4.124549e+01	1.612582e+03
1.940000e-06	5.769712e-06	2.456793e-08	4.078166e+01	1.608463e+03
1.950000e-06	5.701988e-06	2.444347e-08	4.030297e+01	1.604285e+03
1.960000e-06	5.631936e-06	2.447140e-08	3.980783e+01	1.600234e+03
1.970000e-06	5.559642e-06	2.436270e-08	3.929683e+01	1.596408e+03
1.980000e-06	5.485383e-06	2.431677e-08	3.877196e+01	1.592782e+03
1.990000e-06	5.409030e-06	2.428760e-08	3.823227e+01	1.589215e+03
2.000000e-06	5.330534e-06	2.416021e-08	3.767745e+01	1.585492e+03
2.010000e-06	5.249990e-06	2.413678e-08	3.710814e+01	1.581391e+03
2.020000e-06	5.167656e-06	2.401211e-08	3.652619e+01	1.576753e+03
2.030000e-06	5.083563e-06	2.397611e-08	3.593180e+01	1.571534e+03
2.040000e-06	4.997604e-06	2.390538e-08	3.532422e+01	1.565816e+03
2.050000e-06	4.909803e-06	2.382572e-08	3.470362e+01	1.559789e+03
2.060000e-06	4.820314e-06	2.375252e-08	3.407110e+01	1.553683e+03
2.070000e-06	4.729323e-06	2.364053e-08	3.342795e+01	1.547697e+03
2.080000e-06	4.636746e-06	2.356711e-08	3.277359e+01	1.541935e+03
2.090000e-06	4.542454e-06	2.344784e-08	3.210712e+01	1.536362e+03
2.100000e-06	4.446485e-06	2.337053e-08	3.142878e+01	1.530815e+03
2.110000e-06	4.349049e-06	2.327338e-08	3.074009e+01	1.525048e+03
2.120000e-06	4.250211e-06	2.318378e-08	3.004147e+01	1.518806e+03
2.130000e-06	4.149903e-06	2.307569e-08	2.933247e+01	1.511906e+03
2.140000e-06	4.047992e-06	2.295549e-08	2.861215e+01	1.504295e+03
2.150000e-06	3.944387e-06	2.284733e-08	2.787984e+01	1.496067e+03
2.160000e-06	3.839346e-06	2.272907e-08	2.713739e+01	1.487437e+03
2.170000e-06	3.733076e-06	2.261791e-08	2.638624e+01	1.478668e+03
2.180000e-06	3.625588e-06	2.248569e-08	2.562649e+01	1.469988e+03
2.190000e-06	3.516845e-06	2.235828e-08	2.485787e+01	1.461508e+03
2.200000e-06	3.406771e-06	2.221398e-08	2.407984e+01	1.453178e+03
2.210000e-06	3.295230e-06	2.207635e-08	2.329145e+01	1.444793e+03
2.220000e-06	3.182408e-06	2.193265e-08	2.249400e+01	1.436047e+03
2.230000e-06	3.068432e-06	2.178886e-08	2.168839e+01	1.426620e+03
2.240000e-06	2.953228e-06	2.163403e-08	2.087410e+01	1.416280e+03
2.250000e-06	2.836868e-06	2.146725e-08	2.005164e+01	1.404952e+03
2.260000e-06	2.719364e-06	2.129184e-08	1.922110e+01	1.392743e+03
2.270000e-06	2.600650e-06	2.111077e-08	1.838199e+01	1.379911e+03
2.280000e-06	2.480773e-06	2.093165e-08	1.753467e+01	1.366780e+03
2.290000e-06	2.360055e-06	2.074113e-08	1.668141e+01	1.353628e+03
2.300000e-06	2.238656e-06	2.054550e-08	1.582334e+01	1.340589e+03
2.310000e-06	2.116533e-06	2.033445e-08	1.496014e+01	1.327589e+03
2.320000e-06	1.993718e-06	2.011465e-08	1.409206e+01	1.314350e+03
2.330000e-06	1.870226e-06	1.988260e-08	1.321919e+01	1.300456e+03
2.340000e-06	1.746037e-06	1.964381e-08	1.234139e+01	1.285469e+03
2.350000e-06	1.621255e-06	1.939594e-08	1.145940e+01	1.269058e+03
2.360000e-06	1.496028e-06	1.913564e-08	1.057427e+01	1.251097e+03
2.370000e-06	1.370397e-06	1.885967e-08	9.686283e+00	1.231704e+03
2.380000e-06	1.244319e-06	1.856795e-08	8.795138e+00	1.211202e+03
2.390000e-06	1.117762e-06	1.826331e-08	7.900598e+00	1.189999e+03
2.400000e-06	9.906937e-07	1.793995e-08	7.002452e+00	1.168438e+03
2.410000e-06	8.631356e-07	1.760327e-08	6.100842e+00	1.146645e+03
2.420000e-06	7.352358e-07	1.724907e-08	5.196817e+00	1.124433e+03
2.430000e-06	6.071215e-07	1.687280e-08	4.291275e+00	1.101298e+03
2.440000e-06	4.788413e-07	1.647094e-08	3.384561e+00	1.076512e+03
2.450000e-06	3.504181e-07	1.603971e-08	2.476836e+00	1.049294e+03
2.460000e-06	2.218729e-07	1.557917e-08	1.568249e+00	1.019012e+03
2.470000e-06	9.324738e-08	1.508860e-08	6.590941e-01	9.853463e+02
2.480000e-06	-3.543732e-08	1.456376e-08	-2.504792e-01	9.483573e+02
2.490000e-06	-1.641174e-07	1.399444e-08	-1.160020e+00	9.084168e+02
2.500000e-06	-2.927488e-07	1.337608e-08	-2.069217e+00	8.660006e+02
2.510000e-06	-4.212766e-07	1.270214e-08	-2.977681e+00	8.213835e+02
2.520000e-06	-5.497052e-07	1.196291e-08	-3.885444e+00	7.743129e+02
2.530000e-06	-6.780467e-07	1.114892e-08	-4.792591e+00	7.237558e+02
2.540000e-06	-8.061823e-07	1.024587e-08	-5.698283e+00	6.678096e+02
2.550000e-06	-9.340904e-07	9.235820e-09	-6.602367e+00	6.038340e+02
2.560000e-06	-1.061623e-06	8.094387e-09	-7.503795e+00	5.288149e+02
2.570000e-06	-1.188595e-06	6.786407e-09	-8.401261e+00	4.399095e+02
2.580000e-06	-1.315008e-06	5.270408e-09	-9.294782e+00	3.350745e+02
2.590000e-06	-1.440894e-06	3.504585e-09	-1.018457e+01	2.136450e+02
2.600000e-06	-1.566272e-06	1.458476e-09	-1.107078e+01	7.673293e+01
2.610000e-06	-1.691141e-06	-8.490112e-10	-1.195338e+01	-7.265860e+01
2.620000e-06	-1.815361e-06	-3.322164e-09	-1.283139e+01	-2.298512e+02
2.630000e-06	-1.938766e-06	-5.844088e-09	-1.370365e+01	-3.890159e+02
2.640000e-06	-2.061369e-06	-8.308759e-09	-1.457023e+01	-5.439169e+02
2.650000e-06	-2.183223e-06	-1.058125e-08	-1.543153e+01	-6.887380e+02
2.660000e-06	-2.304281e-06	-1.255721e-08	-1.628719e+01	-8.188352e+02
2.670000e-06	-2.424509e-06	-1.421727e-08	-1.713699e+01	-9.312756e+02
2.680000e-06	-2.543927e-06	-1.558889e-08	-1.798106e+01	-1.025070e+03
2.690000e-06	-2.662368e-06	-1.671889e-08	-1.881824e+01	-1.101069e+03
2.700000e-06	-2.779727e-06	-1.765656e-08	-1.964775e+01	-1.161572e+03
2.710000e-06	-2.895892e-06	-1.844191e-08	-2.046883e+01	-1.209736e+03
2.720000e-06	-3.010763e-06	-1.910456e-08	-2.128077e+01	-1.248931e+03
2.730000e-06	-3.124477e-06	-1.966537e-08	-2.208452e+01	-1.282171e+03
2.740000e-06	-3.236937e-06	-2.014298e-08	-2.287942e+01	-1.311715e+03
2.750000e-06	-3.348068e-06	-2.055629e-08	-2.366492e+01	-1.338909e+03
2.760000e-06	-3.457989e-06	-2.091811e-08	-2.444186e+01	-1.364257e+03
2.770000e-06	-3.566694e-06	-2.123848e-08	-2.521022e+01	-1.387657e+03
2.780000e-06	-3.674237e-06	-2.152588e-08	-2.597036e+01	-1.408735e+03
2.790000e-06	-3.780602e-06	-2.178466e-08	-2.672217e+01	-1.427158e+03
2.800000e-06	-3.885699e-06	-2.202046e-08	-2.746502e+01	-1.442856e+03
2.810000e-06	-3.989422e-06	-2.223915e-08	-2.819816e+01	-1.456115e+03
2.820000e-06	-4.091526e-06	-2.244222e-08	-2.891986e+01	-1.467524e+03
2.830000e-06	-4.192044e-06	-2.262779e-08	-2.963034e+01	-1.477820e+03
2.840000e-06	-4.291175e-06	-2.279844e-08	-3.033102e+01	-1.487699e+03
2.850000e-06	-4.388939e-06	-2.295679e-08	-3.102204e+01	-1.497635e+03
2.860000e-06	-4.485253e-06	-2.310419e-08	-3.170280e+01	-1.507791e+03
2.870000e-06	-4.579944e-06	-2.324218e-08	-3.237210e+01	-1.518015e+03
2.880000e-06	-4.672898e-06	-2.337058e-08	-3.302913e+01	-1.527934e+03
2.890000e-06	-4.764147e-06	-2.349165e-08	-3.367409e+01	-1.537104e+03
2.900000e-06	-4.853788e-06	-2.360390e-08	-3.430770e+01	-1.545170e+03
2.910000e-06	-4.941706e-06	-2.370741e-08	-3.492912e+01	-1.551983e+03
2.920000e-06	-5.027659e-06	-2.380566e-08	-3.553665e+01	-1.557650e+03
2.930000e-06	-5.111687e-06	-2.389889e-08	-3.613059e+01	-1.562495e+03
2.940000e-06	-5.193991e-06	-2.398711e-08	-3.671233e+01	-1.566962e+03
