# Temperatura_=_63.3
# Concentracion g/m^3_=_41000.0
# C_Vs_to_Am_M_A/Vsm_=_65563218390.804596
# pendiente_HvsI_1/m_=_3716.3
# ordenada_HvsI_A/m_=_1297.0
# frecuencia_Hz_=_302004.7020189776

Tiempo_(s)	Campo_(V.s)	Magnetizacion_(V.s)	Campo_(kA/m)	Magnetizacion_(A/m)
0.000000e+00	-6.722977e-06	-2.341381e-08	-4.746901e+01	-1.533892e+03
1.000000e-08	-6.719996e-06	-2.341471e-08	-4.744796e+01	-1.534223e+03
2.000000e-08	-6.714774e-06	-2.340742e-08	-4.741109e+01	-1.534073e+03
3.000000e-08	-6.707476e-06	-2.340015e-08	-4.735956e+01	-1.533366e+03
4.000000e-08	-6.697928e-06	-2.339142e-08	-4.729215e+01	-1.532168e+03
5.000000e-08	-6.685928e-06	-2.337605e-08	-4.720742e+01	-1.530670e+03
6.000000e-08	-6.671532e-06	-2.335407e-08	-4.710578e+01	-1.529130e+03
7.000000e-08	-6.654821e-06	-2.331377e-08	-4.698778e+01	-1.527786e+03
8.000000e-08	-6.635896e-06	-2.330723e-08	-4.685416e+01	-1.526792e+03
9.000000e-08	-6.614634e-06	-2.339938e-08	-4.670403e+01	-1.526166e+03
1.000000e-07	-6.590684e-06	-2.337358e-08	-4.653493e+01	-1.525787e+03
1.100000e-07	-6.564014e-06	-2.327764e-08	-4.634662e+01	-1.525437e+03
1.200000e-07	-6.534985e-06	-2.327312e-08	-4.614166e+01	-1.524869e+03
1.300000e-07	-6.504040e-06	-2.322183e-08	-4.592316e+01	-1.523884e+03
1.400000e-07	-6.471356e-06	-2.307420e-08	-4.569239e+01	-1.522396e+03
1.500000e-07	-6.436699e-06	-2.322121e-08	-4.544768e+01	-1.520454e+03
1.600000e-07	-6.399952e-06	-2.325783e-08	-4.518822e+01	-1.518225e+03
1.700000e-07	-6.361256e-06	-2.303160e-08	-4.491500e+01	-1.515940e+03
1.800000e-07	-6.320345e-06	-2.316861e-08	-4.462614e+01	-1.513818e+03
1.900000e-07	-6.276926e-06	-2.306745e-08	-4.431957e+01	-1.511990e+03
2.000000e-07	-6.231198e-06	-2.297629e-08	-4.399670e+01	-1.510457e+03
2.100000e-07	-6.183123e-06	-2.308949e-08	-4.365725e+01	-1.509087e+03
2.200000e-07	-6.132388e-06	-2.296447e-08	-4.329903e+01	-1.507648e+03
2.300000e-07	-6.079086e-06	-2.294473e-08	-4.292268e+01	-1.505885e+03
2.400000e-07	-6.023434e-06	-2.291412e-08	-4.252974e+01	-1.503596e+03
2.500000e-07	-5.965447e-06	-2.283366e-08	-4.212031e+01	-1.500696e+03
2.600000e-07	-5.905231e-06	-2.281931e-08	-4.169514e+01	-1.497245e+03
2.700000e-07	-5.842966e-06	-2.275546e-08	-4.125550e+01	-1.493430e+03
2.800000e-07	-5.778660e-06	-2.270948e-08	-4.080146e+01	-1.489509e+03
2.900000e-07	-5.712105e-06	-2.263516e-08	-4.033153e+01	-1.485730e+03
3.000000e-07	-5.643321e-06	-2.261598e-08	-3.984587e+01	-1.482251e+03
3.100000e-07	-5.572450e-06	-2.257297e-08	-3.934547e+01	-1.479094e+03
3.200000e-07	-5.499523e-06	-2.249185e-08	-3.883055e+01	-1.476130e+03
3.300000e-07	-5.424413e-06	-2.244804e-08	-3.830022e+01	-1.473122e+03
3.400000e-07	-5.347076e-06	-2.235178e-08	-3.775417e+01	-1.469795e+03
3.500000e-07	-5.267619e-06	-2.231299e-08	-3.719314e+01	-1.465924e+03
3.600000e-07	-5.186106e-06	-2.224910e-08	-3.661760e+01	-1.461402e+03
3.700000e-07	-5.102838e-06	-2.217183e-08	-3.602967e+01	-1.456275e+03
3.800000e-07	-5.017985e-06	-2.211328e-08	-3.543055e+01	-1.450727e+03
3.900000e-07	-4.931513e-06	-2.201919e-08	-3.482000e+01	-1.445026e+03
4.000000e-07	-4.843336e-06	-2.193520e-08	-3.419741e+01	-1.439432e+03
4.100000e-07	-4.753365e-06	-2.186150e-08	-3.356215e+01	-1.434120e+03
4.200000e-07	-4.661725e-06	-2.179892e-08	-3.291510e+01	-1.429117e+03
4.300000e-07	-4.568516e-06	-2.170492e-08	-3.225698e+01	-1.424291e+03
4.400000e-07	-4.473720e-06	-2.160411e-08	-3.158765e+01	-1.419387e+03
4.500000e-07	-4.377322e-06	-2.151204e-08	-3.090701e+01	-1.414106e+03
4.600000e-07	-4.279151e-06	-2.141009e-08	-3.021385e+01	-1.408200e+03
4.700000e-07	-4.179365e-06	-2.132059e-08	-2.950930e+01	-1.401545e+03
4.800000e-07	-4.078292e-06	-2.122743e-08	-2.879565e+01	-1.394186e+03
4.900000e-07	-3.975859e-06	-2.112666e-08	-2.807240e+01	-1.386322e+03
5.000000e-07	-3.872002e-06	-2.100789e-08	-2.733910e+01	-1.378246e+03
5.100000e-07	-3.766734e-06	-2.088841e-08	-2.659583e+01	-1.370246e+03
5.200000e-07	-3.659926e-06	-2.076908e-08	-2.584169e+01	-1.362508e+03
5.300000e-07	-3.551687e-06	-2.064379e-08	-2.507744e+01	-1.355054e+03
5.400000e-07	-3.442248e-06	-2.051807e-08	-2.430473e+01	-1.347719e+03
5.500000e-07	-3.331599e-06	-2.038640e-08	-2.352346e+01	-1.340195e+03
5.600000e-07	-3.219692e-06	-2.024946e-08	-2.273332e+01	-1.332122e+03
5.700000e-07	-3.106439e-06	-2.010070e-08	-2.193367e+01	-1.323193e+03
5.800000e-07	-2.991762e-06	-1.995333e-08	-2.112397e+01	-1.313255e+03
5.900000e-07	-2.875812e-06	-1.980296e-08	-2.030528e+01	-1.302355e+03
6.000000e-07	-2.758753e-06	-1.964522e-08	-1.947876e+01	-1.290728e+03
6.100000e-07	-2.640663e-06	-1.947903e-08	-1.864496e+01	-1.278722e+03
6.200000e-07	-2.521617e-06	-1.930415e-08	-1.780442e+01	-1.266685e+03
6.300000e-07	-2.401711e-06	-1.912056e-08	-1.695779e+01	-1.254839e+03
6.400000e-07	-2.280996e-06	-1.892718e-08	-1.610546e+01	-1.243196e+03
6.500000e-07	-2.159466e-06	-1.872824e-08	-1.524737e+01	-1.231533e+03
6.600000e-07	-2.037016e-06	-1.851960e-08	-1.438279e+01	-1.219441e+03
6.700000e-07	-1.913648e-06	-1.830271e-08	-1.351172e+01	-1.206435e+03
6.800000e-07	-1.789637e-06	-1.807760e-08	-1.263611e+01	-1.192104e+03
6.900000e-07	-1.665123e-06	-1.784157e-08	-1.175696e+01	-1.176227e+03
7.000000e-07	-1.540132e-06	-1.759354e-08	-1.087443e+01	-1.158853e+03
7.100000e-07	-1.414658e-06	-1.733471e-08	-9.988491e+00	-1.140282e+03
7.200000e-07	-1.288726e-06	-1.706589e-08	-9.099326e+00	-1.120965e+03
7.300000e-07	-1.162447e-06	-1.678410e-08	-8.207704e+00	-1.101344e+03
7.400000e-07	-1.035797e-06	-1.648476e-08	-7.313467e+00	-1.081676e+03
7.500000e-07	-9.087585e-07	-1.616326e-08	-6.416483e+00	-1.061900e+03
7.600000e-07	-7.814407e-07	-1.581917e-08	-5.517529e+00	-1.041597e+03
7.700000e-07	-6.538222e-07	-1.545208e-08	-4.616451e+00	-1.020045e+03
7.800000e-07	-5.259058e-07	-1.506426e-08	-3.713270e+00	-9.963934e+02
7.900000e-07	-3.978789e-07	-1.465555e-08	-2.809309e+00	-9.698759e+02
8.000000e-07	-2.697785e-07	-1.422023e-08	-1.904828e+00	-9.400187e+02
8.100000e-07	-1.415290e-07	-1.374946e-08	-9.992957e-01	-9.067634e+02
8.200000e-07	-1.319034e-08	-1.323643e-08	-9.313319e-02	-8.704517e+02
8.300000e-07	1.151725e-07	-1.267767e-08	8.131997e-01	-8.316547e+02
8.400000e-07	2.435464e-07	-1.206818e-08	1.719611e+00	-7.908724e+02
8.500000e-07	3.718542e-07	-1.140395e-08	2.625556e+00	-7.481750e+02
8.600000e-07	5.000533e-07	-1.067308e-08	3.530733e+00	-7.028847e+02
8.700000e-07	6.281496e-07	-9.857879e-09	4.435184e+00	-6.533990e+02
8.800000e-07	7.560808e-07	-8.943290e-09	5.338469e+00	-5.972366e+02
8.900000e-07	8.837940e-07	-7.908288e-09	6.240216e+00	-5.313344e+02
9.000000e-07	1.011203e-06	-6.722322e-09	7.139814e+00	-4.525655e+02
9.100000e-07	1.138163e-06	-5.347622e-09	8.036239e+00	-3.583901e+02
9.200000e-07	1.264746e-06	-3.741377e-09	8.930009e+00	-2.475039e+02
9.300000e-07	1.390974e-06	-1.864535e-09	9.821269e+00	-1.203427e+02
9.400000e-07	1.516738e-06	2.848003e-10	1.070925e+01	2.068467e+01
9.500000e-07	1.641997e-06	2.638867e-09	1.159367e+01	1.713056e+02
9.600000e-07	1.766761e-06	5.078314e-09	1.247459e+01	3.258367e+02
9.700000e-07	1.890980e-06	7.474221e-09	1.335166e+01	4.779076e+02
9.800000e-07	2.014539e-06	9.687553e-09	1.422408e+01	6.213228e+02
9.900000e-07	2.137331e-06	1.161396e-08	1.509108e+01	7.508962e+02
1.000000e-06	2.259207e-06	1.322624e-08	1.595161e+01	8.631012e+02
1.010000e-06	2.380101e-06	1.454872e-08	1.680521e+01	9.564162e+02
1.020000e-06	2.500043e-06	1.562504e-08	1.765209e+01	1.031316e+03
1.030000e-06	2.619044e-06	1.650333e-08	1.849232e+01	1.089930e+03
1.040000e-06	2.737131e-06	1.722514e-08	1.932610e+01	1.135460e+03
1.050000e-06	2.854295e-06	1.782536e-08	2.015336e+01	1.171493e+03
1.060000e-06	2.970389e-06	1.833022e-08	2.097306e+01	1.201360e+03
1.070000e-06	3.085185e-06	1.876140e-08	2.178361e+01	1.227646e+03
1.080000e-06	3.198572e-06	1.913546e-08	2.258420e+01	1.251965e+03
1.090000e-06	3.310685e-06	1.946412e-08	2.337579e+01	1.274965e+03
1.100000e-06	3.421682e-06	1.975320e-08	2.415952e+01	1.296563e+03
1.110000e-06	3.531536e-06	2.000996e-08	2.493516e+01	1.316284e+03
1.120000e-06	3.640244e-06	2.024261e-08	2.570272e+01	1.333625e+03
1.130000e-06	3.747887e-06	2.045746e-08	2.646276e+01	1.348334e+03
1.140000e-06	3.854254e-06	2.065529e-08	2.721378e+01	1.360552e+03
1.150000e-06	3.959082e-06	2.083732e-08	2.795394e+01	1.370794e+03
1.160000e-06	4.062403e-06	2.100678e-08	2.868346e+01	1.379808e+03
1.170000e-06	4.164325e-06	2.116287e-08	2.940311e+01	1.388363e+03
1.180000e-06	4.264869e-06	2.130846e-08	3.011301e+01	1.397045e+03
1.190000e-06	4.363935e-06	2.144430e-08	3.081249e+01	1.406120e+03
1.200000e-06	4.461244e-06	2.157231e-08	3.149957e+01	1.415504e+03
1.210000e-06	4.556763e-06	2.168870e-08	3.217399e+01	1.424833e+03
1.220000e-06	4.650703e-06	2.179725e-08	3.283728e+01	1.433619e+03
1.230000e-06	4.743197e-06	2.190088e-08	3.349035e+01	1.441420e+03
1.240000e-06	4.834186e-06	2.199791e-08	3.413280e+01	1.447991e+03
1.250000e-06	4.923348e-06	2.208635e-08	3.476235e+01	1.453360e+03
1.260000e-06	5.010621e-06	2.217167e-08	3.537855e+01	1.457812e+03
1.270000e-06	5.096101e-06	2.225682e-08	3.598210e+01	1.461799e+03
1.280000e-06	5.179860e-06	2.233899e-08	3.657350e+01	1.465802e+03
1.290000e-06	5.261782e-06	2.241600e-08	3.715193e+01	1.470183e+03
1.300000e-06	5.341700e-06	2.248621e-08	3.771621e+01	1.475096e+03
1.310000e-06	5.419673e-06	2.255129e-08	3.826675e+01	1.480446e+03
1.320000e-06	5.495663e-06	2.261305e-08	3.880330e+01	1.485942e+03
1.330000e-06	5.569436e-06	2.267341e-08	3.932419e+01	1.491195e+03
1.340000e-06	5.641001e-06	2.273238e-08	3.982949e+01	1.495849e+03
1.350000e-06	5.710627e-06	2.278936e-08	4.032110e+01	1.499685e+03
1.360000e-06	5.778371e-06	2.284304e-08	4.079942e+01	1.502691e+03
1.370000e-06	5.844005e-06	2.289251e-08	4.126284e+01	1.505055e+03
1.380000e-06	5.907433e-06	2.293877e-08	4.171069e+01	1.507098e+03
1.390000e-06	5.968888e-06	2.298307e-08	4.214460e+01	1.509176e+03
1.400000e-06	6.028406e-06	2.302589e-08	4.256485e+01	1.511563e+03
1.410000e-06	6.085746e-06	2.306568e-08	4.296970e+01	1.514377e+03
1.420000e-06	6.140859e-06	2.310085e-08	4.335884e+01	1.517546e+03
1.430000e-06	6.193735e-06	2.313332e-08	4.373219e+01	1.520840e+03
1.440000e-06	6.244062e-06	2.316509e-08	4.408753e+01	1.523951e+03
1.450000e-06	6.291834e-06	2.319580e-08	4.442484e+01	1.526589e+03
1.460000e-06	6.337411e-06	2.322504e-08	4.474664e+01	1.528579e+03
1.470000e-06	6.380945e-06	2.325292e-08	4.505402e+01	1.529907e+03
1.480000e-06	6.422145e-06	2.327872e-08	4.534492e+01	1.530726e+03
1.490000e-06	6.460948e-06	2.330151e-08	4.561890e+01	1.531303e+03
1.500000e-06	6.497622e-06	2.332125e-08	4.587784e+01	1.531934e+03
1.510000e-06	6.532059e-06	2.333882e-08	4.612100e+01	1.532850e+03
1.520000e-06	6.564068e-06	2.335549e-08	4.634700e+01	1.534152e+03
1.530000e-06	6.593802e-06	2.337240e-08	4.655695e+01	1.535779e+03
1.540000e-06	6.621391e-06	2.338853e-08	4.675174e+01	1.537533e+03
1.550000e-06	6.646505e-06	2.340215e-08	4.692906e+01	1.539148e+03
1.560000e-06	6.669060e-06	2.341335e-08	4.708832e+01	1.540371e+03
1.570000e-06	6.689404e-06	2.342238e-08	4.723196e+01	1.541048e+03
1.580000e-06	6.707413e-06	2.343115e-08	4.735912e+01	1.541167e+03
1.590000e-06	6.722887e-06	2.344085e-08	4.746838e+01	1.540862e+03
1.600000e-06	6.735856e-06	2.345055e-08	4.755994e+01	1.540370e+03
1.610000e-06	6.746107e-06	2.345847e-08	4.763232e+01	1.539954e+03
1.620000e-06	6.753756e-06	2.346239e-08	4.768634e+01	1.539820e+03
1.630000e-06	6.759152e-06	2.346460e-08	4.772443e+01	1.540056e+03
1.640000e-06	6.762255e-06	2.346594e-08	4.774634e+01	1.540598e+03
1.650000e-06	6.762879e-06	2.346952e-08	4.775075e+01	1.541259e+03
1.660000e-06	6.761118e-06	2.346188e-08	4.773831e+01	1.541784e+03
1.670000e-06	6.757229e-06	2.345129e-08	4.771085e+01	1.541930e+03
1.680000e-06	6.751047e-06	2.344994e-08	4.766720e+01	1.541546e+03
1.690000e-06	6.742592e-06	2.344622e-08	4.760751e+01	1.540614e+03
1.700000e-06	6.732080e-06	2.344194e-08	4.753329e+01	1.539262e+03
1.710000e-06	6.719335e-06	2.344081e-08	4.744329e+01	1.537717e+03
1.720000e-06	6.704195e-06	2.346168e-08	4.733639e+01	1.536238e+03
1.730000e-06	6.686907e-06	2.343492e-08	4.721433e+01	1.535036e+03
1.740000e-06	6.667473e-06	2.327490e-08	4.707711e+01	1.534208e+03
1.750000e-06	6.645098e-06	2.328216e-08	4.691913e+01	1.533712e+03
1.760000e-06	6.619475e-06	2.334695e-08	4.673821e+01	1.533379e+03
1.770000e-06	6.591301e-06	2.330041e-08	4.653928e+01	1.532967e+03
1.780000e-06	6.561038e-06	2.342014e-08	4.632561e+01	1.532243e+03
1.790000e-06	6.529161e-06	2.342530e-08	4.610053e+01	1.531048e+03
1.800000e-06	6.495840e-06	2.315430e-08	4.586526e+01	1.529354e+03
1.810000e-06	6.460288e-06	2.331231e-08	4.561424e+01	1.527266e+03
1.820000e-06	6.422281e-06	2.326394e-08	4.534589e+01	1.524987e+03
1.830000e-06	6.382120e-06	2.314230e-08	4.506232e+01	1.522752e+03
1.840000e-06	6.339743e-06	2.338079e-08	4.476311e+01	1.520749e+03
1.850000e-06	6.295273e-06	2.310734e-08	4.444911e+01	1.519059e+03
1.860000e-06	6.248443e-06	2.311071e-08	4.411846e+01	1.517622e+03
1.870000e-06	6.199183e-06	2.317235e-08	4.377065e+01	1.516256e+03
1.880000e-06	6.147812e-06	2.300413e-08	4.340794e+01	1.514712e+03
1.890000e-06	6.093827e-06	2.314635e-08	4.302676e+01	1.512745e+03
1.900000e-06	6.037337e-06	2.296841e-08	4.262790e+01	1.510199e+03
1.910000e-06	5.978649e-06	2.294591e-08	4.221353e+01	1.507050e+03
1.920000e-06	5.917720e-06	2.300684e-08	4.178332e+01	1.503417e+03
1.930000e-06	5.854600e-06	2.285910e-08	4.133765e+01	1.499527e+03
1.940000e-06	5.789278e-06	2.288639e-08	4.087643e+01	1.495643e+03
1.950000e-06	5.721890e-06	2.271702e-08	4.040062e+01	1.491983e+03
1.960000e-06	5.652256e-06	2.275918e-08	3.990895e+01	1.488652e+03
1.970000e-06	5.580357e-06	2.269610e-08	3.940130e+01	1.485604e+03
1.980000e-06	5.506417e-06	2.259332e-08	3.887923e+01	1.482657e+03
1.990000e-06	5.430397e-06	2.262439e-08	3.834247e+01	1.479547e+03
2.000000e-06	5.352206e-06	2.247908e-08	3.779039e+01	1.476012e+03
2.010000e-06	5.271916e-06	2.246444e-08	3.722348e+01	1.471870e+03
2.020000e-06	5.189813e-06	2.234064e-08	3.664378e+01	1.467077e+03
2.030000e-06	5.106011e-06	2.229905e-08	3.605208e+01	1.461743e+03
2.040000e-06	5.020349e-06	2.226590e-08	3.544724e+01	1.456098e+03
2.050000e-06	4.932781e-06	2.215285e-08	3.482895e+01	1.450417e+03
2.060000e-06	4.843513e-06	2.208976e-08	3.419866e+01	1.444933e+03
2.070000e-06	4.752722e-06	2.198410e-08	3.355761e+01	1.439763e+03
2.080000e-06	4.660351e-06	2.194038e-08	3.290540e+01	1.434863e+03
2.090000e-06	4.566254e-06	2.182744e-08	3.224101e+01	1.430042e+03
2.100000e-06	4.470486e-06	2.174393e-08	3.156482e+01	1.425015e+03
2.110000e-06	4.373250e-06	2.165265e-08	3.087826e+01	1.419494e+03
2.120000e-06	4.274579e-06	2.155447e-08	3.018158e+01	1.413275e+03
2.130000e-06	4.174459e-06	2.145749e-08	2.947465e+01	1.406306e+03
2.140000e-06	4.072756e-06	2.134133e-08	2.875656e+01	1.398702e+03
2.150000e-06	3.969348e-06	2.124556e-08	2.802642e+01	1.390713e+03
2.160000e-06	3.864484e-06	2.113149e-08	2.728601e+01	1.382640e+03
2.170000e-06	3.758341e-06	2.103487e-08	2.653657e+01	1.374741e+03
2.180000e-06	3.650906e-06	2.091102e-08	2.577800e+01	1.367137e+03
2.190000e-06	3.542188e-06	2.079272e-08	2.501037e+01	1.359766e+03
2.200000e-06	3.432155e-06	2.065824e-08	2.423346e+01	1.352396e+03
2.210000e-06	3.320734e-06	2.053096e-08	2.344675e+01	1.344683e+03
2.220000e-06	3.208029e-06	2.039492e-08	2.265097e+01	1.336277e+03
2.230000e-06	3.094119e-06	2.025323e-08	2.184668e+01	1.326926e+03
2.240000e-06	2.979012e-06	2.010635e-08	2.103395e+01	1.316561e+03
2.250000e-06	2.862768e-06	1.994530e-08	2.021318e+01	1.305314e+03
2.260000e-06	2.745345e-06	1.978045e-08	1.938409e+01	1.293482e+03
2.270000e-06	2.626688e-06	1.961121e-08	1.854629e+01	1.281428e+03
2.280000e-06	2.506878e-06	1.944868e-08	1.770034e+01	1.269459e+03
2.290000e-06	2.386191e-06	1.926747e-08	1.684821e+01	1.257716e+03
2.300000e-06	2.264838e-06	1.907692e-08	1.599137e+01	1.246107e+03
2.310000e-06	2.142789e-06	1.887286e-08	1.512962e+01	1.234321e+03
2.320000e-06	2.020022e-06	1.866680e-08	1.426280e+01	1.221898e+03
2.330000e-06	1.896592e-06	1.844852e-08	1.339129e+01	1.208369e+03
2.340000e-06	1.772503e-06	1.821912e-08	1.251513e+01	1.193390e+03
2.350000e-06	1.647792e-06	1.797991e-08	1.163458e+01	1.176853e+03
2.360000e-06	1.522530e-06	1.772932e-08	1.075014e+01	1.158920e+03
2.370000e-06	1.396746e-06	1.746820e-08	9.862021e+00	1.139974e+03
2.380000e-06	1.270462e-06	1.719044e-08	8.970365e+00	1.120482e+03
2.390000e-06	1.143733e-06	1.689938e-08	8.075571e+00	1.100828e+03
2.400000e-06	1.016513e-06	1.658826e-08	7.177309e+00	1.081146e+03
2.410000e-06	8.888746e-07	1.626082e-08	6.276088e+00	1.061218e+03
2.420000e-06	7.609357e-07	1.591572e-08	5.372749e+00	1.040483e+03
2.430000e-06	6.327442e-07	1.554897e-08	4.467625e+00	1.018139e+03
2.440000e-06	5.043538e-07	1.515672e-08	3.561098e+00	9.933430e+02
2.450000e-06	3.758253e-07	1.473347e-08	2.653595e+00	9.654323e+02
2.460000e-06	2.471544e-07	1.427824e-08	1.745086e+00	9.341034e+02
2.470000e-06	1.183962e-07	1.379045e-08	8.359619e-01	8.994802e+02
2.480000e-06	-1.042210e-08	1.326515e-08	-7.358745e-02	8.620325e+02
2.490000e-06	-1.392961e-07	1.269060e-08	-9.835301e-01	8.223431e+02
2.500000e-06	-2.681112e-07	1.205902e-08	-1.893056e+00	7.807718e+02
2.510000e-06	-3.968784e-07	1.136487e-08	-2.802244e+00	7.371012e+02
2.520000e-06	-5.255548e-07	1.059899e-08	-3.710792e+00	6.902670e+02
2.530000e-06	-6.540979e-07	9.748021e-09	-4.618397e+00	6.382700e+02
2.540000e-06	-7.824255e-07	8.790899e-09	-5.524482e+00	5.783290e+02
2.550000e-06	-9.104358e-07	7.704336e-09	-6.428326e+00	5.072796e+02
2.560000e-06	-1.038072e-06	6.454080e-09	-7.329530e+00	4.221637e+02
2.570000e-06	-1.165305e-06	4.998584e-09	-8.227882e+00	3.208967e+02
2.580000e-06	-1.292071e-06	3.296667e-09	-9.122940e+00	2.028717e+02
2.590000e-06	-1.418297e-06	1.317805e-09	-1.001419e+01	6.936062e+01
2.600000e-06	-1.544037e-06	-9.244780e-10	-1.090200e+01	-7.639477e+01
2.610000e-06	-1.669222e-06	-3.349768e-09	-1.178590e+01	-2.294434e+02
2.620000e-06	-1.793638e-06	-5.825242e-09	-1.266436e+01	-3.837073e+02
2.630000e-06	-1.917266e-06	-8.197988e-09	-1.353726e+01	-5.327833e+02
2.640000e-06	-2.040155e-06	-1.033139e-08	-1.440495e+01	-6.708136e+02
2.650000e-06	-2.162270e-06	-1.215700e-08	-1.526717e+01	-7.932595e+02
2.660000e-06	-2.283619e-06	-1.367367e-08	-1.612398e+01	-8.974317e+02
2.670000e-06	-2.404196e-06	-1.491212e-08	-1.697534e+01	-9.826859e+02
2.680000e-06	-2.523956e-06	-1.591927e-08	-1.782093e+01	-1.050264e+03
2.690000e-06	-2.642706e-06	-1.674154e-08	-1.865939e+01	-1.102837e+03
2.700000e-06	-2.760270e-06	-1.742242e-08	-1.948948e+01	-1.143857e+03
2.710000e-06	-2.876663e-06	-1.799387e-08	-2.031129e+01	-1.176872e+03
2.720000e-06	-2.991899e-06	-1.847641e-08	-2.112494e+01	-1.204939e+03
2.730000e-06	-3.105922e-06	-1.889025e-08	-2.193003e+01	-1.230241e+03
2.740000e-06	-3.218702e-06	-1.924865e-08	-2.272633e+01	-1.253962e+03
2.750000e-06	-3.330203e-06	-1.956260e-08	-2.351361e+01	-1.276400e+03
2.760000e-06	-3.440354e-06	-1.983862e-08	-2.429135e+01	-1.297258e+03
2.770000e-06	-3.549301e-06	-2.008420e-08	-2.506060e+01	-1.316008e+03
2.780000e-06	-3.657192e-06	-2.031005e-08	-2.582239e+01	-1.332227e+03
2.790000e-06	-3.763949e-06	-2.051808e-08	-2.657616e+01	-1.345825e+03
2.800000e-06	-3.869424e-06	-2.070824e-08	-2.732089e+01	-1.357112e+03
2.810000e-06	-3.973498e-06	-2.088357e-08	-2.805573e+01	-1.366727e+03
2.820000e-06	-4.076076e-06	-2.104746e-08	-2.878000e+01	-1.375454e+03
2.830000e-06	-4.177021e-06	-2.120032e-08	-2.949274e+01	-1.384005e+03
2.840000e-06	-4.276462e-06	-2.134324e-08	-3.019487e+01	-1.392841e+03
2.850000e-06	-4.374511e-06	-2.147569e-08	-3.088717e+01	-1.402075e+03
2.860000e-06	-4.471122e-06	-2.159863e-08	-3.156931e+01	-1.411488e+03
2.870000e-06	-4.566205e-06	-2.171281e-08	-3.224066e+01	-1.420643e+03
2.880000e-06	-4.659550e-06	-2.181787e-08	-3.289974e+01	-1.429049e+03
2.890000e-06	-4.751173e-06	-2.191605e-08	-3.354667e+01	-1.436335e+03
2.900000e-06	-4.841178e-06	-2.200859e-08	-3.418217e+01	-1.442368e+03
2.910000e-06	-4.929495e-06	-2.209758e-08	-3.480575e+01	-1.447294e+03
2.920000e-06	-5.015899e-06	-2.218324e-08	-3.541582e+01	-1.451483e+03
2.930000e-06	-5.100344e-06	-2.226478e-08	-3.601207e+01	-1.455419e+03
2.940000e-06	-5.183067e-06	-2.234207e-08	-3.659615e+01	-1.459547e+03
