# Temperatura_=_86.37
# Concentracion g/m^3_=_41000.0
# C_Vs_to_Am_M_A/Vsm_=_65563218390.804596
# pendiente_HvsI_1/m_=_3716.3
# ordenada_HvsI_A/m_=_1297.0
# frecuencia_Hz_=_302002.3997321661

Tiempo_(s)	Campo_(V.s)	Magnetizacion_(V.s)	Campo_(kA/m)	Magnetizacion_(A/m)
0.000000e+00	-6.723877e-06	-2.363045e-08	-4.747008e+01	-1.547921e+03
1.000000e-08	-6.720888e-06	-2.363029e-08	-4.744898e+01	-1.548097e+03
2.000000e-08	-6.715675e-06	-2.362143e-08	-4.741217e+01	-1.547717e+03
3.000000e-08	-6.708462e-06	-2.360983e-08	-4.736125e+01	-1.546756e+03
4.000000e-08	-6.699029e-06	-2.359682e-08	-4.729466e+01	-1.545332e+03
5.000000e-08	-6.687132e-06	-2.358007e-08	-4.721066e+01	-1.543668e+03
6.000000e-08	-6.672758e-06	-2.355908e-08	-4.710918e+01	-1.542022e+03
7.000000e-08	-6.656020e-06	-2.352330e-08	-4.699101e+01	-1.540608e+03
8.000000e-08	-6.637080e-06	-2.352253e-08	-4.685729e+01	-1.539533e+03
9.000000e-08	-6.615825e-06	-2.359750e-08	-4.670724e+01	-1.538769e+03
1.000000e-07	-6.591917e-06	-2.356803e-08	-4.653845e+01	-1.538163e+03
1.100000e-07	-6.565270e-06	-2.347521e-08	-4.635032e+01	-1.537490e+03
1.200000e-07	-6.536245e-06	-2.345536e-08	-4.614541e+01	-1.536530e+03
1.300000e-07	-6.505258e-06	-2.338958e-08	-4.592665e+01	-1.535132e+03
1.400000e-07	-6.472501e-06	-2.324995e-08	-4.569538e+01	-1.533266e+03
1.500000e-07	-6.437845e-06	-2.338666e-08	-4.545071e+01	-1.531025e+03
1.600000e-07	-6.401142e-06	-2.341412e-08	-4.519159e+01	-1.528594e+03
1.700000e-07	-6.362456e-06	-2.323367e-08	-4.491847e+01	-1.526184e+03
1.800000e-07	-6.321520e-06	-2.334282e-08	-4.462947e+01	-1.523963e+03
1.900000e-07	-6.278076e-06	-2.323015e-08	-4.432275e+01	-1.521992e+03
2.000000e-07	-6.232358e-06	-2.312473e-08	-4.399999e+01	-1.520206e+03
2.100000e-07	-6.184328e-06	-2.316861e-08	-4.366090e+01	-1.518427e+03
2.200000e-07	-6.133667e-06	-2.304185e-08	-4.330324e+01	-1.516422e+03
2.300000e-07	-6.080433e-06	-2.303237e-08	-4.292741e+01	-1.513971e+03
2.400000e-07	-6.024820e-06	-2.302230e-08	-4.253478e+01	-1.510942e+03
2.500000e-07	-5.966880e-06	-2.296084e-08	-4.212573e+01	-1.507333e+03
2.600000e-07	-5.906723e-06	-2.292893e-08	-4.170103e+01	-1.503273e+03
2.700000e-07	-5.844491e-06	-2.284479e-08	-4.126168e+01	-1.498986e+03
2.800000e-07	-5.780145e-06	-2.277935e-08	-4.080740e+01	-1.494721e+03
2.900000e-07	-5.713543e-06	-2.270883e-08	-4.033720e+01	-1.490670e+03
3.000000e-07	-5.644744e-06	-2.269414e-08	-3.985148e+01	-1.486910e+03
3.100000e-07	-5.573890e-06	-2.264276e-08	-3.935126e+01	-1.483372e+03
3.200000e-07	-5.500970e-06	-2.254295e-08	-3.883644e+01	-1.479864e+03
3.300000e-07	-5.425856e-06	-2.246941e-08	-3.830614e+01	-1.476129e+03
3.400000e-07	-5.348545e-06	-2.237166e-08	-3.776034e+01	-1.471922e+03
3.500000e-07	-5.269089e-06	-2.232658e-08	-3.719938e+01	-1.467096e+03
3.600000e-07	-5.187591e-06	-2.225574e-08	-3.662401e+01	-1.461642e+03
3.700000e-07	-5.104331e-06	-2.217129e-08	-3.603621e+01	-1.455704e+03
3.800000e-07	-5.019480e-06	-2.209107e-08	-3.543716e+01	-1.449527e+03
3.900000e-07	-4.932982e-06	-2.198282e-08	-3.482649e+01	-1.443389e+03
4.000000e-07	-4.844808e-06	-2.189100e-08	-3.420399e+01	-1.437505e+03
4.100000e-07	-4.754935e-06	-2.181769e-08	-3.356949e+01	-1.431960e+03
4.200000e-07	-4.663343e-06	-2.175002e-08	-3.292286e+01	-1.426676e+03
4.300000e-07	-4.570113e-06	-2.165012e-08	-3.226466e+01	-1.421426e+03
4.400000e-07	-4.475316e-06	-2.154456e-08	-3.159540e+01	-1.415909e+03
4.500000e-07	-4.378900e-06	-2.144313e-08	-3.091471e+01	-1.409831e+03
4.600000e-07	-4.280771e-06	-2.133058e-08	-3.022193e+01	-1.403006e+03
4.700000e-07	-4.181061e-06	-2.122593e-08	-2.951798e+01	-1.395411e+03
4.800000e-07	-4.079972e-06	-2.111833e-08	-2.880431e+01	-1.387196e+03
4.900000e-07	-3.977498e-06	-2.100234e-08	-2.808085e+01	-1.378641e+03
5.000000e-07	-3.873588e-06	-2.087399e-08	-2.734725e+01	-1.370068e+03
5.100000e-07	-3.768258e-06	-2.074760e-08	-2.660362e+01	-1.361733e+03
5.200000e-07	-3.661402e-06	-2.062011e-08	-2.584923e+01	-1.353744e+03
5.300000e-07	-3.553142e-06	-2.048626e-08	-2.508492e+01	-1.346015e+03
5.400000e-07	-3.443697e-06	-2.035492e-08	-2.431225e+01	-1.338281e+03
5.500000e-07	-3.333107e-06	-2.021998e-08	-2.353149e+01	-1.330176e+03
5.600000e-07	-3.221270e-06	-2.007569e-08	-2.274193e+01	-1.321340e+03
5.700000e-07	-3.108065e-06	-1.991836e-08	-2.194271e+01	-1.311532e+03
5.800000e-07	-2.993459e-06	-1.975586e-08	-2.113360e+01	-1.300704e+03
5.900000e-07	-2.877517e-06	-1.958791e-08	-2.031506e+01	-1.289025e+03
6.000000e-07	-2.760450e-06	-1.941721e-08	-1.948858e+01	-1.276824e+03
6.100000e-07	-2.642425e-06	-1.924635e-08	-1.865533e+01	-1.264492e+03
6.200000e-07	-2.523506e-06	-1.907140e-08	-1.781577e+01	-1.252345e+03
6.300000e-07	-2.403618e-06	-1.888569e-08	-1.696937e+01	-1.240516e+03
6.400000e-07	-2.282796e-06	-1.868796e-08	-1.611637e+01	-1.228894e+03
6.500000e-07	-2.161193e-06	-1.848373e-08	-1.525786e+01	-1.217137e+03
6.600000e-07	-2.038805e-06	-1.827163e-08	-1.439381e+01	-1.204760e+03
6.700000e-07	-1.915568e-06	-1.805351e-08	-1.352377e+01	-1.191278e+03
6.800000e-07	-1.791554e-06	-1.782804e-08	-1.264824e+01	-1.176351e+03
6.900000e-07	-1.666969e-06	-1.759119e-08	-1.176868e+01	-1.159888e+03
7.000000e-07	-1.541948e-06	-1.734072e-08	-1.088604e+01	-1.142084e+03
7.100000e-07	-1.416499e-06	-1.707702e-08	-1.000038e+01	-1.123351e+03
7.200000e-07	-1.290600e-06	-1.680296e-08	-9.111542e+00	-1.104183e+03
7.300000e-07	-1.164283e-06	-1.651696e-08	-8.219750e+00	-1.084969e+03
7.400000e-07	-1.037590e-06	-1.621612e-08	-7.325309e+00	-1.065831e+03
7.500000e-07	-9.105419e-07	-1.589566e-08	-6.428359e+00	-1.046526e+03
7.600000e-07	-7.831800e-07	-1.555442e-08	-5.529193e+00	-1.026455e+03
7.700000e-07	-6.555692e-07	-1.519049e-08	-4.628270e+00	-1.004788e+03
7.800000e-07	-5.277084e-07	-1.480308e-08	-3.725583e+00	-9.806701e+02
7.900000e-07	-3.996491e-07	-1.439228e-08	-2.821493e+00	-9.534492e+02
8.000000e-07	-2.714283e-07	-1.395300e-08	-1.916264e+00	-9.228532e+02
8.100000e-07	-1.430884e-07	-1.347754e-08	-1.010194e+00	-8.890471e+02
8.200000e-07	-1.464020e-08	-1.296033e-08	-1.033587e-01	-8.525322e+02
8.300000e-07	1.139224e-07	-1.239759e-08	8.042840e-01	-8.138910e+02
8.400000e-07	2.424685e-07	-1.178136e-08	1.711810e+00	-7.734319e+02
8.500000e-07	3.709552e-07	-1.110256e-08	2.618916e+00	-7.308243e+02
8.600000e-07	4.993299e-07	-1.034594e-08	3.525232e+00	-6.848326e+02
8.700000e-07	6.275482e-07	-9.493278e-09	4.430444e+00	-6.332465e+02
8.800000e-07	7.555881e-07	-8.527418e-09	5.334396e+00	-5.730671e+02
8.900000e-07	8.833597e-07	-7.421725e-09	6.236455e+00	-5.009475e+02
9.000000e-07	1.010745e-06	-6.137398e-09	7.135787e+00	-4.138238e+02
9.100000e-07	1.137704e-06	-4.627422e-09	8.032107e+00	-3.096161e+02
9.200000e-07	1.264266e-06	-2.844453e-09	8.925626e+00	-1.878499e+02
9.300000e-07	1.390424e-06	-7.617555e-10	9.816291e+00	-5.005191e+01
9.400000e-07	1.516185e-06	1.567417e-09	1.070416e+01	1.001849e+02
9.500000e-07	1.641481e-06	4.007561e-09	1.158874e+01	2.575080e+02
9.600000e-07	1.766279e-06	6.452578e-09	1.246980e+01	4.154434e+02
9.700000e-07	1.890555e-06	8.818213e-09	1.334718e+01	5.672545e+02
9.800000e-07	2.014155e-06	1.096084e-08	1.421979e+01	7.068594e+02
9.900000e-07	2.136908e-06	1.276908e-08	1.508641e+01	8.296330e+02
1.000000e-06	2.258719e-06	1.423563e-08	1.594639e+01	9.329430e+02
1.010000e-06	2.379666e-06	1.540845e-08	1.680026e+01	1.016328e+03
1.020000e-06	2.499692e-06	1.634712e-08	1.764764e+01	1.081304e+03
1.030000e-06	2.618718e-06	1.710459e-08	1.848796e+01	1.130853e+03
1.040000e-06	2.736813e-06	1.772359e-08	1.932170e+01	1.168736e+03
1.050000e-06	2.853958e-06	1.823696e-08	2.014873e+01	1.198758e+03
1.060000e-06	2.970009e-06	1.866947e-08	2.096805e+01	1.224158e+03
1.070000e-06	3.084791e-06	1.904132e-08	2.177840e+01	1.247214e+03
1.080000e-06	3.198312e-06	1.936782e-08	2.257985e+01	1.269124e+03
1.090000e-06	3.310622e-06	1.965823e-08	2.337275e+01	1.290140e+03
1.100000e-06	3.421678e-06	1.991721e-08	2.415679e+01	1.309886e+03
1.110000e-06	3.531532e-06	2.014959e-08	2.493235e+01	1.327748e+03
1.120000e-06	3.640306e-06	2.036040e-08	2.570029e+01	1.343230e+03
1.130000e-06	3.747943e-06	2.055682e-08	2.646020e+01	1.356197e+03
1.140000e-06	3.854219e-06	2.074112e-08	2.721051e+01	1.366942e+03
1.150000e-06	3.959056e-06	2.091290e-08	2.795064e+01	1.376110e+03
1.160000e-06	4.062473e-06	2.107350e-08	2.868076e+01	1.384502e+03
1.170000e-06	4.164449e-06	2.122337e-08	2.940071e+01	1.392849e+03
1.180000e-06	4.264992e-06	2.136461e-08	3.011053e+01	1.401619e+03
1.190000e-06	4.364048e-06	2.149796e-08	3.080986e+01	1.410918e+03
1.200000e-06	4.461423e-06	2.162295e-08	3.149732e+01	1.420504e+03
1.210000e-06	4.557140e-06	2.173866e-08	3.217308e+01	1.429909e+03
1.220000e-06	4.651265e-06	2.184834e-08	3.283759e+01	1.438607e+03
1.230000e-06	4.743815e-06	2.195271e-08	3.349099e+01	1.446198e+03
1.240000e-06	4.834785e-06	2.205020e-08	3.413323e+01	1.452530e+03
1.250000e-06	4.923931e-06	2.214133e-08	3.476259e+01	1.457743e+03
1.260000e-06	5.011201e-06	2.223001e-08	3.537871e+01	1.462212e+03
1.270000e-06	5.096752e-06	2.231815e-08	3.598270e+01	1.466432e+03
1.280000e-06	5.180580e-06	2.240352e-08	3.657451e+01	1.470864e+03
1.290000e-06	5.262462e-06	2.248471e-08	3.715260e+01	1.475799e+03
1.300000e-06	5.342303e-06	2.256128e-08	3.771626e+01	1.481291e+03
1.310000e-06	5.420218e-06	2.263329e-08	3.826634e+01	1.487148e+03
1.320000e-06	5.496208e-06	2.270056e-08	3.880282e+01	1.493018e+03
1.330000e-06	5.570009e-06	2.276462e-08	3.932385e+01	1.498500e+03
1.340000e-06	5.641642e-06	2.282693e-08	3.982958e+01	1.503275e+03
1.350000e-06	5.711332e-06	2.288796e-08	4.032159e+01	1.507203e+03
1.360000e-06	5.779054e-06	2.294661e-08	4.079970e+01	1.510358e+03
1.370000e-06	5.844658e-06	2.300347e-08	4.126286e+01	1.512996e+03
1.380000e-06	5.908130e-06	2.305913e-08	4.171096e+01	1.515466e+03
1.390000e-06	5.969622e-06	2.311198e-08	4.214509e+01	1.518102e+03
1.400000e-06	6.029074e-06	2.316011e-08	4.256482e+01	1.521117e+03
1.410000e-06	6.086310e-06	2.320362e-08	4.296890e+01	1.524544e+03
1.420000e-06	6.141395e-06	2.324510e-08	4.335780e+01	1.528230e+03
1.430000e-06	6.194284e-06	2.328485e-08	4.373119e+01	1.531893e+03
1.440000e-06	6.244604e-06	2.332308e-08	4.408644e+01	1.535217e+03
1.450000e-06	6.292382e-06	2.335831e-08	4.442375e+01	1.537948e+03
1.460000e-06	6.338007e-06	2.339094e-08	4.474586e+01	1.539977e+03
1.470000e-06	6.381561e-06	2.342269e-08	4.505335e+01	1.541369e+03
1.480000e-06	6.422752e-06	2.345165e-08	4.534416e+01	1.542339e+03
1.490000e-06	6.461566e-06	2.347833e-08	4.561818e+01	1.543185e+03
1.500000e-06	6.498279e-06	2.350435e-08	4.587737e+01	1.544188e+03
1.510000e-06	6.532753e-06	2.352847e-08	4.612075e+01	1.545532e+03
1.520000e-06	6.564792e-06	2.354912e-08	4.634695e+01	1.547244e+03
1.530000e-06	6.594553e-06	2.356693e-08	4.655706e+01	1.549196e+03
1.540000e-06	6.622138e-06	2.358267e-08	4.675181e+01	1.551144e+03
1.550000e-06	6.647279e-06	2.359619e-08	4.692930e+01	1.552812e+03
1.560000e-06	6.669878e-06	2.360943e-08	4.708885e+01	1.553977e+03
1.570000e-06	6.690212e-06	2.362197e-08	4.723240e+01	1.554540e+03
1.580000e-06	6.708189e-06	2.363365e-08	4.735932e+01	1.554560e+03
1.590000e-06	6.723609e-06	2.364467e-08	4.746819e+01	1.554227e+03
1.600000e-06	6.736560e-06	2.365281e-08	4.755962e+01	1.553806e+03
1.610000e-06	6.746879e-06	2.365859e-08	4.763247e+01	1.553553e+03
1.620000e-06	6.754534e-06	2.366153e-08	4.768651e+01	1.553634e+03
1.630000e-06	6.759903e-06	2.366306e-08	4.772442e+01	1.554074e+03
1.640000e-06	6.763011e-06	2.366433e-08	4.774636e+01	1.554754e+03
1.650000e-06	6.763633e-06	2.366834e-08	4.775075e+01	1.555442e+03
1.660000e-06	6.761893e-06	2.366348e-08	4.773847e+01	1.555873e+03
1.670000e-06	6.758073e-06	2.365516e-08	4.771150e+01	1.555825e+03
1.680000e-06	6.752010e-06	2.365187e-08	4.766870e+01	1.555193e+03
1.690000e-06	6.743600e-06	2.364522e-08	4.760932e+01	1.554015e+03
1.700000e-06	6.733026e-06	2.363700e-08	4.753467e+01	1.552459e+03
1.710000e-06	6.720194e-06	2.363240e-08	4.744407e+01	1.550774e+03
1.720000e-06	6.705027e-06	2.364778e-08	4.733700e+01	1.549209e+03
1.730000e-06	6.687790e-06	2.361201e-08	4.721530e+01	1.547937e+03
1.740000e-06	6.668377e-06	2.346880e-08	4.707825e+01	1.547010e+03
1.750000e-06	6.645967e-06	2.346366e-08	4.692004e+01	1.546340e+03
1.760000e-06	6.620361e-06	2.350955e-08	4.673926e+01	1.545737e+03
1.770000e-06	6.592243e-06	2.347254e-08	4.654075e+01	1.544968e+03
1.780000e-06	6.561997e-06	2.358719e-08	4.632722e+01	1.543834e+03
1.790000e-06	6.530104e-06	2.357528e-08	4.610205e+01	1.542234e+03
1.800000e-06	6.496781e-06	2.333574e-08	4.586679e+01	1.540192e+03
1.810000e-06	6.461245e-06	2.344818e-08	4.561592e+01	1.537846e+03
1.820000e-06	6.423239e-06	2.338748e-08	4.534759e+01	1.535401e+03
1.830000e-06	6.383061e-06	2.331527e-08	4.506394e+01	1.533059e+03
1.840000e-06	6.340668e-06	2.351040e-08	4.476465e+01	1.530948e+03
1.850000e-06	6.296167e-06	2.329839e-08	4.445047e+01	1.529074e+03
1.860000e-06	6.249382e-06	2.331819e-08	4.412018e+01	1.527320e+03
1.870000e-06	6.200207e-06	2.334109e-08	4.377301e+01	1.525476e+03
1.880000e-06	6.148807e-06	2.317599e-08	4.341013e+01	1.523305e+03
1.890000e-06	6.094786e-06	2.323182e-08	4.302874e+01	1.520618e+03
1.900000e-06	6.038258e-06	2.305791e-08	4.262966e+01	1.517335e+03
1.910000e-06	5.979524e-06	2.306307e-08	4.221500e+01	1.513512e+03
1.920000e-06	5.918600e-06	2.311694e-08	4.178488e+01	1.509327e+03
1.930000e-06	5.855528e-06	2.299094e-08	4.133959e+01	1.505023e+03
1.940000e-06	5.790234e-06	2.296575e-08	4.087863e+01	1.500834e+03
1.950000e-06	5.722833e-06	2.279272e-08	4.040278e+01	1.496909e+03
1.960000e-06	5.653203e-06	2.281311e-08	3.991120e+01	1.493263e+03
1.970000e-06	5.581246e-06	2.274993e-08	3.940319e+01	1.489770e+03
1.980000e-06	5.507207e-06	2.265709e-08	3.888048e+01	1.486199e+03
1.990000e-06	5.431152e-06	2.265873e-08	3.834353e+01	1.482290e+03
2.000000e-06	5.352979e-06	2.252222e-08	3.779164e+01	1.477831e+03
2.010000e-06	5.272711e-06	2.247361e-08	3.722495e+01	1.472730e+03
2.020000e-06	5.190641e-06	2.234883e-08	3.664554e+01	1.467046e+03
2.030000e-06	5.106861e-06	2.231093e-08	3.605406e+01	1.460974e+03
2.040000e-06	5.021237e-06	2.227185e-08	3.544956e+01	1.454784e+03
2.050000e-06	4.933730e-06	2.215459e-08	3.483177e+01	1.448737e+03
2.060000e-06	4.844465e-06	2.206718e-08	3.420156e+01	1.443000e+03
2.070000e-06	4.753664e-06	2.195567e-08	3.356052e+01	1.437588e+03
2.080000e-06	4.661286e-06	2.189016e-08	3.290834e+01	1.432355e+03
2.090000e-06	4.567261e-06	2.177022e-08	3.224452e+01	1.427032e+03
2.100000e-06	4.471500e-06	2.167785e-08	3.156846e+01	1.421308e+03
2.110000e-06	4.374165e-06	2.158293e-08	3.088129e+01	1.414927e+03
2.120000e-06	4.275482e-06	2.148170e-08	3.018459e+01	1.407766e+03
2.130000e-06	4.175326e-06	2.137543e-08	2.947749e+01	1.399880e+03
2.140000e-06	4.073597e-06	2.125097e-08	2.875930e+01	1.391483e+03
2.150000e-06	3.970204e-06	2.114231e-08	2.802935e+01	1.382885e+03
2.160000e-06	3.865315e-06	2.102550e-08	2.728884e+01	1.374391e+03
2.170000e-06	3.759179e-06	2.092019e-08	2.653953e+01	1.366205e+03
2.180000e-06	3.651804e-06	2.078461e-08	2.578147e+01	1.358352e+03
2.190000e-06	3.543106e-06	2.064811e-08	2.501407e+01	1.350663e+03
2.200000e-06	3.433103e-06	2.050283e-08	2.423746e+01	1.342820e+03
2.210000e-06	3.321687e-06	2.036632e-08	2.345087e+01	1.334444e+03
2.220000e-06	3.208912e-06	2.022720e-08	2.265469e+01	1.325213e+03
2.230000e-06	3.095020e-06	2.008660e-08	2.185061e+01	1.314963e+03
2.240000e-06	2.979932e-06	1.994116e-08	2.103810e+01	1.303741e+03
2.250000e-06	2.863623e-06	1.977526e-08	2.021697e+01	1.291794e+03
2.260000e-06	2.746189e-06	1.959743e-08	1.938789e+01	1.279493e+03
2.270000e-06	2.627626e-06	1.941641e-08	1.855085e+01	1.267212e+03
2.280000e-06	2.507911e-06	1.924226e-08	1.770567e+01	1.255201e+03
2.290000e-06	2.387266e-06	1.905602e-08	1.685392e+01	1.243492e+03
2.300000e-06	2.265882e-06	1.886196e-08	1.599696e+01	1.231867e+03
2.310000e-06	2.143803e-06	1.865721e-08	1.513509e+01	1.219909e+03
2.320000e-06	2.021074e-06	1.844828e-08	1.426863e+01	1.207115e+03
2.330000e-06	1.897648e-06	1.822630e-08	1.339725e+01	1.193045e+03
2.340000e-06	1.773469e-06	1.799335e-08	1.252056e+01	1.177456e+03
2.350000e-06	1.648646e-06	1.775301e-08	1.163932e+01	1.160382e+03
2.360000e-06	1.523345e-06	1.750362e-08	1.075470e+01	1.142123e+03
2.370000e-06	1.397619e-06	1.724233e-08	9.867089e+00	1.123148e+03
2.380000e-06	1.271454e-06	1.696326e-08	8.976368e+00	1.103927e+03
2.390000e-06	1.144814e-06	1.666958e-08	8.082304e+00	1.084754e+03
2.400000e-06	1.017697e-06	1.635887e-08	7.184867e+00	1.065598e+03
2.410000e-06	8.901288e-07	1.603404e-08	6.284244e+00	1.046058e+03
2.420000e-06	7.622071e-07	1.569170e-08	5.381126e+00	1.025414e+03
2.430000e-06	6.340054e-07	1.532812e-08	4.476032e+00	1.002797e+03
2.440000e-06	5.055757e-07	1.493805e-08	3.569327e+00	9.774119e+02
2.450000e-06	3.769936e-07	1.451382e-08	2.661547e+00	9.487543e+02
2.460000e-06	2.482417e-07	1.405572e-08	1.752568e+00	9.167410e+02
2.470000e-06	1.193794e-07	1.356572e-08	8.428099e-01	8.817030e+02
2.480000e-06	-9.460077e-09	1.303761e-08	-6.678745e-02	8.442151e+02
2.490000e-06	-1.382379e-07	1.245563e-08	-9.759496e-01	8.047889e+02
2.500000e-06	-2.670164e-07	1.181138e-08	-1.885116e+00	7.635003e+02
2.510000e-06	-3.957734e-07	1.110045e-08	-2.794131e+00	7.196540e+02
2.520000e-06	-5.244641e-07	1.031025e-08	-3.702678e+00	6.715910e+02
2.530000e-06	-6.530491e-07	9.422781e-09	-4.610478e+00	6.167246e+02
2.540000e-06	-7.814272e-07	8.410796e-09	-5.516819e+00	5.518396e+02
2.550000e-06	-9.094953e-07	7.242547e-09	-6.420970e+00	4.736257e+02
2.560000e-06	-1.037139e-06	5.879097e-09	-7.322124e+00	3.793561e+02
2.570000e-06	-1.164319e-06	4.273650e-09	-8.220005e+00	2.675729e+02
2.580000e-06	-1.290969e-06	2.382060e-09	-9.114147e+00	1.386282e+02
2.590000e-06	-1.417076e-06	1.907103e-10	-1.000445e+01	-5.051926e+00
2.600000e-06	-1.542737e-06	-2.226850e-09	-1.089161e+01	-1.590619e+02
2.610000e-06	-1.667876e-06	-4.732897e-09	-1.177508e+01	-3.174742e+02
2.620000e-06	-1.792328e-06	-7.216996e-09	-1.265370e+01	-4.735898e+02
2.630000e-06	-1.915988e-06	-9.554333e-09	-1.352673e+01	-6.208431e+02
2.640000e-06	-2.038871e-06	-1.159993e-08	-1.439428e+01	-7.536909e+02
2.650000e-06	-2.160988e-06	-1.329607e-08	-1.525642e+01	-8.683161e+02
2.660000e-06	-2.282332e-06	-1.466663e-08	-1.611310e+01	-9.630175e+02
2.670000e-06	-2.403000e-06	-1.576183e-08	-1.696500e+01	-1.038225e+03
2.680000e-06	-2.522797e-06	-1.663906e-08	-1.781076e+01	-1.096159e+03
2.690000e-06	-2.641468e-06	-1.735011e-08	-1.864857e+01	-1.140227e+03
2.700000e-06	-2.759052e-06	-1.793562e-08	-1.947871e+01	-1.174294e+03
2.710000e-06	-2.875502e-06	-1.842435e-08	-2.030083e+01	-1.201986e+03
2.720000e-06	-2.990780e-06	-1.883784e-08	-2.111469e+01	-1.226163e+03
2.730000e-06	-3.104902e-06	-1.919286e-08	-2.192038e+01	-1.248639e+03
2.740000e-06	-3.217727e-06	-1.950303e-08	-2.271692e+01	-1.270178e+03
2.750000e-06	-3.329214e-06	-1.977941e-08	-2.350400e+01	-1.290717e+03
2.760000e-06	-3.439418e-06	-2.002736e-08	-2.428204e+01	-1.309729e+03
2.770000e-06	-3.548433e-06	-2.025322e-08	-2.505167e+01	-1.326612e+03
2.780000e-06	-3.656316e-06	-2.046092e-08	-2.581333e+01	-1.341005e+03
2.790000e-06	-3.763079e-06	-2.065093e-08	-2.656706e+01	-1.352957e+03
2.800000e-06	-3.868618e-06	-2.082500e-08	-2.731216e+01	-1.362931e+03
2.810000e-06	-3.972731e-06	-2.098750e-08	-2.804719e+01	-1.371665e+03
2.820000e-06	-4.075260e-06	-2.114201e-08	-2.877104e+01	-1.379957e+03
2.830000e-06	-4.176239e-06	-2.128803e-08	-2.948394e+01	-1.388446e+03
2.840000e-06	-4.275775e-06	-2.142517e-08	-3.018666e+01	-1.397449e+03
2.850000e-06	-4.373867e-06	-2.155479e-08	-3.087918e+01	-1.406915e+03
2.860000e-06	-4.470543e-06	-2.167795e-08	-3.156171e+01	-1.416486e+03
2.870000e-06	-4.565659e-06	-2.179341e-08	-3.223322e+01	-1.425647e+03
2.880000e-06	-4.659022e-06	-2.190074e-08	-3.289235e+01	-1.433904e+03
2.890000e-06	-4.750728e-06	-2.200185e-08	-3.353979e+01	-1.440955e+03
2.900000e-06	-4.840768e-06	-2.209703e-08	-3.417547e+01	-1.446772e+03
2.910000e-06	-4.929044e-06	-2.218770e-08	-3.479869e+01	-1.451607e+03
2.920000e-06	-5.015452e-06	-2.227563e-08	-3.540872e+01	-1.455906e+03
2.930000e-06	-5.099956e-06	-2.235917e-08	-3.600531e+01	-1.460165e+03
2.940000e-06	-5.182678e-06	-2.243834e-08	-3.658933e+01	-1.464787e+03
