# Temperatura_=_61.43
# Concentracion g/m^3_=_41000.0
# C_Vs_to_Am_M_A/Vsm_=_65563218390.804596
# pendiente_HvsI_1/m_=_3716.3
# ordenada_HvsI_A/m_=_1297.0
# frecuencia_Hz_=_302003.294065678

Tiempo_(s)	Campo_(V.s)	Magnetizacion_(V.s)	Campo_(kA/m)	Magnetizacion_(A/m)
0.000000e+00	-6.738266e-06	-2.516694e-08	-4.746508e+01	-1.647556e+03
1.000000e-08	-6.734793e-06	-2.516328e-08	-4.744062e+01	-1.647865e+03
2.000000e-08	-6.729186e-06	-2.515344e-08	-4.740112e+01	-1.647770e+03
3.000000e-08	-6.721499e-06	-2.514384e-08	-4.734698e+01	-1.647166e+03
4.000000e-08	-6.711426e-06	-2.513204e-08	-4.727602e+01	-1.646078e+03
5.000000e-08	-6.698839e-06	-2.511773e-08	-4.718736e+01	-1.644644e+03
6.000000e-08	-6.683851e-06	-2.509730e-08	-4.708178e+01	-1.643081e+03
7.000000e-08	-6.666534e-06	-2.507103e-08	-4.695980e+01	-1.641612e+03
8.000000e-08	-6.647036e-06	-2.508810e-08	-4.682245e+01	-1.640403e+03
9.000000e-08	-6.625144e-06	-2.513005e-08	-4.666824e+01	-1.639514e+03
1.000000e-07	-6.600467e-06	-2.507853e-08	-4.649441e+01	-1.638884e+03
1.100000e-07	-6.573132e-06	-2.501435e-08	-4.630186e+01	-1.638353e+03
1.200000e-07	-6.543595e-06	-2.499663e-08	-4.609380e+01	-1.637714e+03
1.300000e-07	-6.512190e-06	-2.491858e-08	-4.587258e+01	-1.636777e+03
1.400000e-07	-6.479015e-06	-2.485630e-08	-4.563889e+01	-1.635430e+03
1.500000e-07	-6.443829e-06	-2.497772e-08	-4.539103e+01	-1.633665e+03
1.600000e-07	-6.406566e-06	-2.492378e-08	-4.512856e+01	-1.631581e+03
1.700000e-07	-6.367315e-06	-2.483552e-08	-4.485207e+01	-1.629341e+03
1.800000e-07	-6.325751e-06	-2.489952e-08	-4.455929e+01	-1.627119e+03
1.900000e-07	-6.281725e-06	-2.476802e-08	-4.424916e+01	-1.625039e+03
2.000000e-07	-6.235402e-06	-2.473544e-08	-4.392285e+01	-1.623129e+03
2.100000e-07	-6.186611e-06	-2.473369e-08	-4.357917e+01	-1.621312e+03
2.200000e-07	-6.135153e-06	-2.464174e-08	-4.321669e+01	-1.619430e+03
2.300000e-07	-6.081181e-06	-2.464535e-08	-4.283651e+01	-1.617289e+03
2.400000e-07	-6.024912e-06	-2.461804e-08	-4.244014e+01	-1.614727e+03
2.500000e-07	-5.966347e-06	-2.456639e-08	-4.202760e+01	-1.611664e+03
2.600000e-07	-5.905553e-06	-2.451181e-08	-4.159937e+01	-1.608131e+03
2.700000e-07	-5.842705e-06	-2.444215e-08	-4.115666e+01	-1.604258e+03
2.800000e-07	-5.777746e-06	-2.439011e-08	-4.069907e+01	-1.600241e+03
2.900000e-07	-5.710572e-06	-2.433532e-08	-4.022589e+01	-1.596273e+03
3.000000e-07	-5.641264e-06	-2.431872e-08	-3.973768e+01	-1.592485e+03
3.100000e-07	-5.569846e-06	-2.424923e-08	-3.923461e+01	-1.588904e+03
3.200000e-07	-5.496265e-06	-2.416029e-08	-3.871629e+01	-1.585436e+03
3.300000e-07	-5.420478e-06	-2.408579e-08	-3.818244e+01	-1.581901e+03
3.400000e-07	-5.342430e-06	-2.401055e-08	-3.763266e+01	-1.578084e+03
3.500000e-07	-5.262234e-06	-2.396554e-08	-3.706775e+01	-1.573803e+03
3.600000e-07	-5.180146e-06	-2.388983e-08	-3.648952e+01	-1.568970e+03
3.700000e-07	-5.096378e-06	-2.381635e-08	-3.589945e+01	-1.563617e+03
3.800000e-07	-5.010940e-06	-2.373042e-08	-3.529761e+01	-1.557890e+03
3.900000e-07	-4.923822e-06	-2.363329e-08	-3.468394e+01	-1.552003e+03
4.000000e-07	-4.835054e-06	-2.355306e-08	-3.405865e+01	-1.546168e+03
4.100000e-07	-4.744471e-06	-2.348326e-08	-3.342057e+01	-1.540527e+03
4.200000e-07	-4.652178e-06	-2.340510e-08	-3.277045e+01	-1.535100e+03
4.300000e-07	-4.558379e-06	-2.330435e-08	-3.210972e+01	-1.529774e+03
4.400000e-07	-4.462968e-06	-2.320699e-08	-3.143763e+01	-1.524333e+03
4.500000e-07	-4.365909e-06	-2.310491e-08	-3.075394e+01	-1.518523e+03
4.600000e-07	-4.267210e-06	-2.299763e-08	-3.005870e+01	-1.512126e+03
4.700000e-07	-4.167016e-06	-2.289359e-08	-2.935292e+01	-1.505032e+03
4.800000e-07	-4.065456e-06	-2.278628e-08	-2.863752e+01	-1.497272e+03
4.900000e-07	-3.962424e-06	-2.267005e-08	-2.791175e+01	-1.489012e+03
5.000000e-07	-3.857945e-06	-2.254537e-08	-2.717579e+01	-1.480498e+03
5.100000e-07	-3.752059e-06	-2.242069e-08	-2.642991e+01	-1.471978e+03
5.200000e-07	-3.644700e-06	-2.229004e-08	-2.567366e+01	-1.463616e+03
5.300000e-07	-3.535999e-06	-2.215637e-08	-2.490797e+01	-1.455435e+03
5.400000e-07	-3.426065e-06	-2.202317e-08	-2.413358e+01	-1.447296e+03
5.500000e-07	-3.314873e-06	-2.188412e-08	-2.335033e+01	-1.438935e+03
5.600000e-07	-3.202422e-06	-2.173423e-08	-2.255821e+01	-1.430035e+03
5.700000e-07	-3.088652e-06	-2.157375e-08	-2.175681e+01	-1.420323e+03
5.800000e-07	-2.973465e-06	-2.140726e-08	-2.094542e+01	-1.409654e+03
5.900000e-07	-2.856952e-06	-2.123545e-08	-2.012468e+01	-1.398055e+03
6.000000e-07	-2.739408e-06	-2.105915e-08	-1.929669e+01	-1.385722e+03
6.100000e-07	-2.620973e-06	-2.088031e-08	-1.846242e+01	-1.372954e+03
6.200000e-07	-2.501578e-06	-2.069498e-08	-1.762139e+01	-1.360055e+03
6.300000e-07	-2.381204e-06	-2.049814e-08	-1.677346e+01	-1.347227e+03
6.400000e-07	-2.259944e-06	-2.029065e-08	-1.591929e+01	-1.334487e+03
6.500000e-07	-2.137863e-06	-2.007490e-08	-1.505934e+01	-1.321646e+03
6.600000e-07	-2.014911e-06	-1.985054e-08	-1.419325e+01	-1.308345e+03
6.700000e-07	-1.891165e-06	-1.961837e-08	-1.332157e+01	-1.294148e+03
6.800000e-07	-1.766805e-06	-1.937580e-08	-1.244556e+01	-1.278671e+03
6.900000e-07	-1.641844e-06	-1.912039e-08	-1.156533e+01	-1.261693e+03
7.000000e-07	-1.516351e-06	-1.885359e-08	-1.068134e+01	-1.243220e+03
7.100000e-07	-1.390469e-06	-1.857283e-08	-9.794619e+00	-1.223488e+03
7.200000e-07	-1.264214e-06	-1.827565e-08	-8.905263e+00	-1.202871e+03
7.300000e-07	-1.137570e-06	-1.796213e-08	-8.013166e+00	-1.181745e+03
7.400000e-07	-1.010517e-06	-1.763330e-08	-7.118196e+00	-1.160339e+03
7.500000e-07	-8.831180e-07	-1.728726e-08	-6.220780e+00	-1.138605e+03
7.600000e-07	-7.554036e-07	-1.691823e-08	-5.321145e+00	-1.116178e+03
7.700000e-07	-6.273847e-07	-1.652413e-08	-4.419366e+00	-1.092420e+03
7.800000e-07	-4.991532e-07	-1.610913e-08	-3.516090e+00	-1.066563e+03
7.900000e-07	-3.707845e-07	-1.567014e-08	-2.611847e+00	-1.037897e+03
8.000000e-07	-2.422498e-07	-1.519811e-08	-1.706434e+00	-1.005950e+03
8.100000e-07	-1.135421e-07	-1.468630e-08	-7.998027e-01	-9.706059e+02
8.200000e-07	1.525106e-08	-1.413127e-08	1.074302e-01	-9.320912e+02
8.300000e-07	1.440511e-07	-1.352877e-08	1.014712e+00	-8.908290e+02
8.400000e-07	2.727843e-07	-1.287302e-08	1.921522e+00	-8.471738e+02
8.500000e-07	4.014361e-07	-1.215672e-08	2.827760e+00	-8.010888e+02
8.600000e-07	5.299956e-07	-1.136812e-08	3.733347e+00	-7.518565e+02
8.700000e-07	6.584137e-07	-1.049299e-08	4.637938e+00	-6.979134e+02
8.800000e-07	7.866583e-07	-9.513921e-09	5.541308e+00	-6.368851e+02
8.900000e-07	9.146355e-07	-8.406480e-09	6.442793e+00	-5.658531e+02
9.000000e-07	1.042265e-06	-7.138875e-09	7.341828e+00	-4.818291e+02
9.100000e-07	1.169492e-06	-5.670933e-09	8.238031e+00	-3.823605e+02
9.200000e-07	1.296283e-06	-3.955764e-09	9.131157e+00	-2.661461e+02
9.300000e-07	1.422633e-06	-1.954029e-09	1.002118e+01	-1.335278e+02
9.400000e-07	1.548555e-06	3.142239e-10	1.090819e+01	1.326021e+01
9.500000e-07	1.674056e-06	2.735031e-09	1.179224e+01	1.701600e+02
9.600000e-07	1.799021e-06	5.193788e-09	1.267250e+01	3.316850e+02
9.700000e-07	1.923348e-06	7.643420e-09	1.354828e+01	4.915830e+02
9.800000e-07	2.047008e-06	1.000196e-08	1.441935e+01	6.436484e+02
9.900000e-07	2.169902e-06	1.211652e-08	1.528503e+01	7.825335e+02
1.000000e-06	2.291879e-06	1.390042e-08	1.614425e+01	9.044070e+02
1.010000e-06	2.412908e-06	1.536889e-08	1.699679e+01	1.007341e+03
1.020000e-06	2.532986e-06	1.656723e-08	1.784263e+01	1.091366e+03
1.030000e-06	2.652045e-06	1.754768e-08	1.868129e+01	1.158208e+03
1.040000e-06	2.770119e-06	1.835521e-08	1.951302e+01	1.210771e+03
1.050000e-06	2.887211e-06	1.902449e-08	2.033783e+01	1.252498e+03
1.060000e-06	3.003225e-06	1.958588e-08	2.115505e+01	1.286744e+03
1.070000e-06	3.118073e-06	2.006510e-08	2.196405e+01	1.316272e+03
1.080000e-06	3.231652e-06	2.048080e-08	2.276411e+01	1.342970e+03
1.090000e-06	3.343928e-06	2.084464e-08	2.355499e+01	1.367804e+03
1.100000e-06	3.454962e-06	2.116756e-08	2.433713e+01	1.390980e+03
1.110000e-06	3.564836e-06	2.145599e-08	2.511110e+01	1.412238e+03
1.120000e-06	3.673584e-06	2.171538e-08	2.587713e+01	1.431181e+03
1.130000e-06	3.781164e-06	2.195149e-08	2.663493e+01	1.447564e+03
1.140000e-06	3.887380e-06	2.216723e-08	2.738313e+01	1.461453e+03
1.150000e-06	3.992102e-06	2.236691e-08	2.812080e+01	1.473254e+03
1.160000e-06	4.095355e-06	2.255159e-08	2.884813e+01	1.483610e+03
1.170000e-06	4.197157e-06	2.272205e-08	2.956523e+01	1.493229e+03
1.180000e-06	4.297612e-06	2.288124e-08	3.027285e+01	1.502696e+03
1.190000e-06	4.396592e-06	2.303040e-08	3.097008e+01	1.512338e+03
1.200000e-06	4.493842e-06	2.316979e-08	3.165512e+01	1.522167e+03
1.210000e-06	4.589337e-06	2.329847e-08	3.232779e+01	1.531929e+03
1.220000e-06	4.683222e-06	2.341896e-08	3.298913e+01	1.541220e+03
1.230000e-06	4.775601e-06	2.353277e-08	3.363986e+01	1.549639e+03
1.240000e-06	4.866335e-06	2.363923e-08	3.427900e+01	1.556931e+03
1.250000e-06	4.955199e-06	2.373755e-08	3.490497e+01	1.563066e+03
1.260000e-06	5.042236e-06	2.383074e-08	3.551806e+01	1.568251e+03
1.270000e-06	5.127578e-06	2.392185e-08	3.611922e+01	1.572860e+03
1.280000e-06	5.211140e-06	2.400889e-08	3.670784e+01	1.577320e+03
1.290000e-06	5.292791e-06	2.409077e-08	3.728300e+01	1.581987e+03
1.300000e-06	5.372459e-06	2.416700e-08	3.784419e+01	1.587046e+03
1.310000e-06	5.450168e-06	2.423896e-08	3.839158e+01	1.592469e+03
1.320000e-06	5.525853e-06	2.430691e-08	3.892472e+01	1.598043e+03
1.330000e-06	5.599359e-06	2.437226e-08	3.944250e+01	1.603445e+03
1.340000e-06	5.670747e-06	2.443472e-08	3.994537e+01	1.608355e+03
1.350000e-06	5.740131e-06	2.449299e-08	4.043411e+01	1.612554e+03
1.360000e-06	5.807491e-06	2.454867e-08	4.090861e+01	1.615991e+03
1.370000e-06	5.872722e-06	2.460174e-08	4.136810e+01	1.618792e+03
1.380000e-06	5.935807e-06	2.465274e-08	4.181248e+01	1.621213e+03
1.390000e-06	5.996950e-06	2.470188e-08	4.224317e+01	1.623560e+03
1.400000e-06	6.056138e-06	2.474751e-08	4.266010e+01	1.626091e+03
1.410000e-06	6.113111e-06	2.478960e-08	4.306143e+01	1.628936e+03
1.420000e-06	6.167860e-06	2.482767e-08	4.344708e+01	1.632067e+03
1.430000e-06	6.220314e-06	2.486261e-08	4.381658e+01	1.635311e+03
1.440000e-06	6.270199e-06	2.489656e-08	4.416797e+01	1.638413e+03
1.450000e-06	6.317601e-06	2.492894e-08	4.450188e+01	1.641117e+03
1.460000e-06	6.362829e-06	2.495998e-08	4.482046e+01	1.643251e+03
1.470000e-06	6.405922e-06	2.498917e-08	4.512402e+01	1.644779e+03
1.480000e-06	6.446637e-06	2.501541e-08	4.541082e+01	1.645811e+03
1.490000e-06	6.485031e-06	2.503876e-08	4.568127e+01	1.646564e+03
1.500000e-06	6.521327e-06	2.506117e-08	4.593694e+01	1.647299e+03
1.510000e-06	6.555325e-06	2.508240e-08	4.617643e+01	1.648231e+03
1.520000e-06	6.586882e-06	2.510130e-08	4.639872e+01	1.649473e+03
1.530000e-06	6.616210e-06	2.511983e-08	4.660531e+01	1.650998e+03
1.540000e-06	6.643302e-06	2.513656e-08	4.679614e+01	1.652651e+03
1.550000e-06	6.667861e-06	2.515014e-08	4.696915e+01	1.654207e+03
1.560000e-06	6.689915e-06	2.516188e-08	4.712449e+01	1.655439e+03
1.570000e-06	6.709679e-06	2.517207e-08	4.726371e+01	1.656190e+03
1.580000e-06	6.727100e-06	2.518237e-08	4.738643e+01	1.656427e+03
1.590000e-06	6.742067e-06	2.519236e-08	4.749186e+01	1.656244e+03
1.600000e-06	6.754467e-06	2.520051e-08	4.757921e+01	1.655838e+03
1.610000e-06	6.764180e-06	2.520650e-08	4.764762e+01	1.655441e+03
1.620000e-06	6.771328e-06	2.520996e-08	4.769798e+01	1.655252e+03
1.630000e-06	6.776185e-06	2.521284e-08	4.773219e+01	1.655371e+03
1.640000e-06	6.778728e-06	2.521514e-08	4.775010e+01	1.655771e+03
1.650000e-06	6.778820e-06	2.521701e-08	4.775075e+01	1.656306e+03
1.660000e-06	6.776584e-06	2.521087e-08	4.773500e+01	1.656758e+03
1.670000e-06	6.772203e-06	2.520604e-08	4.770414e+01	1.656902e+03
1.680000e-06	6.765549e-06	2.520337e-08	4.765727e+01	1.656579e+03
1.690000e-06	6.756670e-06	2.519545e-08	4.759472e+01	1.655743e+03
1.700000e-06	6.745656e-06	2.518629e-08	4.751714e+01	1.654473e+03
1.710000e-06	6.732223e-06	2.518332e-08	4.742252e+01	1.652953e+03
1.720000e-06	6.716465e-06	2.519050e-08	4.731151e+01	1.651410e+03
1.730000e-06	6.698708e-06	2.513634e-08	4.718643e+01	1.650050e+03
1.740000e-06	6.678652e-06	2.504332e-08	4.704516e+01	1.648992e+03
1.750000e-06	6.655494e-06	2.506408e-08	4.688203e+01	1.648241e+03
1.760000e-06	6.629176e-06	2.508241e-08	4.669664e+01	1.647683e+03
1.770000e-06	6.600381e-06	2.506966e-08	4.649381e+01	1.647131e+03
1.780000e-06	6.569603e-06	2.515853e-08	4.627700e+01	1.646376e+03
1.790000e-06	6.537360e-06	2.508301e-08	4.604988e+01	1.645260e+03
1.800000e-06	6.503546e-06	2.494656e-08	4.581169e+01	1.643716e+03
1.810000e-06	6.467339e-06	2.503499e-08	4.555664e+01	1.641788e+03
1.820000e-06	6.428736e-06	2.494967e-08	4.528472e+01	1.639612e+03
1.830000e-06	6.387997e-06	2.496667e-08	4.499775e+01	1.637363e+03
1.840000e-06	6.345051e-06	2.504329e-08	4.469523e+01	1.635199e+03
1.850000e-06	6.299984e-06	2.487185e-08	4.437778e+01	1.633203e+03
1.860000e-06	6.252590e-06	2.492383e-08	4.404393e+01	1.631355e+03
1.870000e-06	6.202844e-06	2.487421e-08	4.369351e+01	1.629534e+03
1.880000e-06	6.150755e-06	2.478336e-08	4.332659e+01	1.627557e+03
1.890000e-06	6.095973e-06	2.479554e-08	4.294070e+01	1.625240e+03
1.900000e-06	6.038802e-06	2.466743e-08	4.253799e+01	1.622452e+03
1.910000e-06	5.979506e-06	2.471132e-08	4.212029e+01	1.619163e+03
1.920000e-06	5.917990e-06	2.468267e-08	4.168697e+01	1.615453e+03
1.930000e-06	5.854188e-06	2.459116e-08	4.123754e+01	1.611490e+03
1.940000e-06	5.788199e-06	2.454044e-08	4.077271e+01	1.607477e+03
1.950000e-06	5.720167e-06	2.442251e-08	4.029348e+01	1.603585e+03
1.960000e-06	5.649820e-06	2.444353e-08	3.979795e+01	1.599900e+03
1.970000e-06	5.577249e-06	2.435687e-08	3.928675e+01	1.596391e+03
1.980000e-06	5.502643e-06	2.431006e-08	3.876122e+01	1.592921e+03
1.990000e-06	5.425874e-06	2.427516e-08	3.822045e+01	1.589285e+03
2.000000e-06	5.346976e-06	2.416319e-08	3.766468e+01	1.585273e+03
2.010000e-06	5.266102e-06	2.410600e-08	3.709500e+01	1.580742e+03
2.020000e-06	5.183448e-06	2.400399e-08	3.651277e+01	1.575659e+03
2.030000e-06	5.098980e-06	2.398065e-08	3.591777e+01	1.570111e+03
2.040000e-06	5.012547e-06	2.391048e-08	3.530893e+01	1.564284e+03
2.050000e-06	4.924295e-06	2.381109e-08	3.468727e+01	1.558401e+03
2.060000e-06	4.834481e-06	2.372563e-08	3.405461e+01	1.552648e+03
2.070000e-06	4.743128e-06	2.363397e-08	3.341111e+01	1.547114e+03
2.080000e-06	4.650078e-06	2.355744e-08	3.275566e+01	1.541758e+03
2.090000e-06	4.555286e-06	2.344580e-08	3.208793e+01	1.536413e+03
2.100000e-06	4.458869e-06	2.336195e-08	3.140876e+01	1.530834e+03
2.110000e-06	4.361024e-06	2.326424e-08	3.071953e+01	1.524776e+03
2.120000e-06	4.261791e-06	2.316697e-08	3.002052e+01	1.518063e+03
2.130000e-06	4.161056e-06	2.305673e-08	2.931093e+01	1.510650e+03
2.140000e-06	4.058657e-06	2.294340e-08	2.858963e+01	1.502634e+03
2.150000e-06	3.954640e-06	2.283368e-08	2.785692e+01	1.494226e+03
2.160000e-06	3.849268e-06	2.272085e-08	2.711466e+01	1.485684e+03
2.170000e-06	3.742643e-06	2.260764e-08	2.636358e+01	1.477227e+03
2.180000e-06	3.634745e-06	2.247127e-08	2.560354e+01	1.468959e+03
2.190000e-06	3.525570e-06	2.233443e-08	2.483450e+01	1.460827e+03
2.200000e-06	3.415086e-06	2.219038e-08	2.405624e+01	1.452626e+03
2.210000e-06	3.303172e-06	2.205493e-08	2.326791e+01	1.444056e+03
2.220000e-06	3.189915e-06	2.191208e-08	2.247011e+01	1.434810e+03
2.230000e-06	3.075435e-06	2.176611e-08	2.166370e+01	1.424664e+03
2.240000e-06	2.959701e-06	2.160885e-08	2.084846e+01	1.413551e+03
2.250000e-06	2.842747e-06	2.143645e-08	2.002462e+01	1.401582e+03
2.260000e-06	2.724605e-06	2.125568e-08	1.919242e+01	1.389010e+03
2.270000e-06	2.605319e-06	2.107479e-08	1.835216e+01	1.376150e+03
2.280000e-06	2.485002e-06	2.089333e-08	1.750462e+01	1.363271e+03
2.290000e-06	2.363868e-06	2.069773e-08	1.665134e+01	1.350496e+03
2.300000e-06	2.242065e-06	2.049148e-08	1.579335e+01	1.337748e+03
2.310000e-06	2.119578e-06	2.027469e-08	1.493054e+01	1.324748e+03
2.320000e-06	1.996391e-06	2.005201e-08	1.406280e+01	1.311088e+03
2.330000e-06	1.872478e-06	1.981527e-08	1.318994e+01	1.296340e+03
2.340000e-06	1.747852e-06	1.956862e-08	1.231206e+01	1.280183e+03
2.350000e-06	1.622624e-06	1.931308e-08	1.142994e+01	1.262497e+03
2.360000e-06	1.496942e-06	1.904743e-08	1.054462e+01	1.243402e+03
2.370000e-06	1.370830e-06	1.876451e-08	9.656277e+00	1.223211e+03
2.380000e-06	1.244191e-06	1.846188e-08	8.764217e+00	1.202320e+03
2.390000e-06	1.117040e-06	1.814236e-08	7.868552e+00	1.181053e+03
2.400000e-06	9.894781e-07	1.780303e-08	6.969992e+00	1.159522e+03
2.410000e-06	8.615753e-07	1.744903e-08	6.069031e+00	1.137534e+03
2.420000e-06	7.334016e-07	1.707954e-08	5.166161e+00	1.114582e+03
2.430000e-06	6.050083e-07	1.668736e-08	4.261745e+00	1.089949e+03
2.440000e-06	4.763627e-07	1.626428e-08	3.355551e+00	1.062868e+03
2.450000e-06	3.475295e-07	1.580461e-08	2.448036e+00	1.032720e+03
2.460000e-06	2.185874e-07	1.530808e-08	1.539753e+00	9.991905e+02
2.470000e-06	8.953297e-08	1.477747e-08	6.306801e-01	9.623319e+02
2.480000e-06	-3.957618e-08	1.420811e-08	-2.787789e-01	9.224886e+02
2.490000e-06	-1.687061e-07	1.358785e-08	-1.188384e+00	8.800901e+02
2.500000e-06	-2.977765e-07	1.290987e-08	-2.097570e+00	8.353496e+02
2.510000e-06	-4.267064e-07	1.216715e-08	-3.005767e+00	7.879448e+02
2.520000e-06	-5.555170e-07	1.134710e-08	-3.913123e+00	7.367751e+02
2.530000e-06	-6.842120e-07	1.043501e-08	-4.819664e+00	6.798824e+02
2.540000e-06	-8.127294e-07	9.410858e-09	-5.724955e+00	6.145925e+02
2.550000e-06	-9.409021e-07	8.248534e-09	-6.627817e+00	5.378851e+02
2.560000e-06	-1.068665e-06	6.911836e-09	-7.527795e+00	4.469418e+02
2.570000e-06	-1.196050e-06	5.356762e-09	-8.425104e+00	3.397723e+02
2.580000e-06	-1.322991e-06	3.538456e-09	-9.319292e+00	2.157895e+02
2.590000e-06	-1.449427e-06	1.427758e-09	-1.020992e+01	7.620108e+01
2.600000e-06	-1.575349e-06	-9.374653e-10	-1.109693e+01	-7.588311e+01
2.610000e-06	-1.700636e-06	-3.434928e-09	-1.197946e+01	-2.356743e+02
2.620000e-06	-1.825218e-06	-5.959359e-09	-1.285704e+01	-3.972356e+02
2.630000e-06	-1.949043e-06	-8.444941e-09	-1.372927e+01	-5.542318e+02
2.640000e-06	-2.072000e-06	-1.076200e-08	-1.459540e+01	-7.007608e+02
2.650000e-06	-2.194177e-06	-1.277908e-08	-1.545602e+01	-8.321113e+02
2.660000e-06	-2.315609e-06	-1.446368e-08	-1.631140e+01	-9.453068e+02
2.670000e-06	-2.436242e-06	-1.584360e-08	-1.716115e+01	-1.039343e+03
2.680000e-06	-2.555969e-06	-1.696720e-08	-1.800453e+01	-1.115087e+03
2.690000e-06	-2.674691e-06	-1.788676e-08	-1.884082e+01	-1.174887e+03
2.700000e-06	-2.792317e-06	-1.864786e-08	-1.966938e+01	-1.221980e+03
2.710000e-06	-2.908774e-06	-1.928470e-08	-2.048972e+01	-1.259841e+03
2.720000e-06	-3.024035e-06	-1.982022e-08	-2.130163e+01	-1.291599e+03
2.730000e-06	-3.138030e-06	-2.027511e-08	-2.210463e+01	-1.319633e+03
2.740000e-06	-3.250774e-06	-2.066884e-08	-2.289881e+01	-1.345395e+03
2.750000e-06	-3.362202e-06	-2.101524e-08	-2.368372e+01	-1.369467e+03
2.760000e-06	-3.472316e-06	-2.132250e-08	-2.445937e+01	-1.391798e+03
2.770000e-06	-3.581297e-06	-2.159879e-08	-2.522705e+01	-1.412023e+03
2.780000e-06	-3.689143e-06	-2.184923e-08	-2.598673e+01	-1.429789e+03
2.790000e-06	-3.795822e-06	-2.207743e-08	-2.673819e+01	-1.444982e+03
2.800000e-06	-3.901254e-06	-2.228578e-08	-2.748086e+01	-1.457831e+03
2.810000e-06	-4.005223e-06	-2.247511e-08	-2.821323e+01	-1.468869e+03
2.820000e-06	-4.107691e-06	-2.264976e-08	-2.893503e+01	-1.478796e+03
2.830000e-06	-4.208631e-06	-2.281272e-08	-2.964606e+01	-1.488282e+03
2.840000e-06	-4.308049e-06	-2.296704e-08	-3.034637e+01	-1.497806e+03
2.850000e-06	-4.406030e-06	-2.311312e-08	-3.103656e+01	-1.507549e+03
2.860000e-06	-4.502551e-06	-2.324870e-08	-3.171647e+01	-1.517389e+03
2.870000e-06	-4.597513e-06	-2.337443e-08	-3.238538e+01	-1.526983e+03
2.880000e-06	-4.690735e-06	-2.348943e-08	-3.304205e+01	-1.535910e+03
2.890000e-06	-4.782255e-06	-2.359635e-08	-3.368673e+01	-1.543822e+03
2.900000e-06	-4.872163e-06	-2.369584e-08	-3.432005e+01	-1.550563e+03
2.910000e-06	-4.960338e-06	-2.378994e-08	-3.494116e+01	-1.556216e+03
2.920000e-06	-5.046581e-06	-2.388107e-08	-3.554867e+01	-1.561078e+03
2.930000e-06	-5.130885e-06	-2.396620e-08	-3.614251e+01	-1.565564e+03
2.940000e-06	-5.213424e-06	-2.404787e-08	-3.672393e+01	-1.570082e+03
