# Temperatura_=_59.61
# Concentracion g/m^3_=_41000.0
# C_Vs_to_Am_M_A/Vsm_=_65563218390.804596
# pendiente_HvsI_1/m_=_3716.3
# ordenada_HvsI_A/m_=_1297.0
# frecuencia_Hz_=_302002.836339276

Tiempo_(s)	Campo_(V.s)	Magnetizacion_(V.s)	Campo_(kA/m)	Magnetizacion_(A/m)
0.000000e+00	-6.742871e-06	-2.566219e-08	-4.746833e+01	-1.680149e+03
1.000000e-08	-6.739705e-06	-2.566090e-08	-4.744605e+01	-1.680470e+03
2.000000e-08	-6.734320e-06	-2.565234e-08	-4.740813e+01	-1.680426e+03
3.000000e-08	-6.726853e-06	-2.564306e-08	-4.735557e+01	-1.679901e+03
4.000000e-08	-6.717061e-06	-2.563218e-08	-4.728663e+01	-1.678897e+03
5.000000e-08	-6.704809e-06	-2.561702e-08	-4.720039e+01	-1.677533e+03
6.000000e-08	-6.690135e-06	-2.559493e-08	-4.709708e+01	-1.676007e+03
7.000000e-08	-6.673097e-06	-2.556351e-08	-4.697714e+01	-1.674534e+03
8.000000e-08	-6.653870e-06	-2.557494e-08	-4.684178e+01	-1.673286e+03
9.000000e-08	-6.632260e-06	-2.562828e-08	-4.668965e+01	-1.672332e+03
1.000000e-07	-6.607940e-06	-2.558156e-08	-4.651845e+01	-1.671627e+03
1.100000e-07	-6.580948e-06	-2.551015e-08	-4.632843e+01	-1.671022e+03
1.200000e-07	-6.551635e-06	-2.549641e-08	-4.612208e+01	-1.670316e+03
1.300000e-07	-6.520444e-06	-2.542640e-08	-4.590250e+01	-1.669318e+03
1.400000e-07	-6.487453e-06	-2.534259e-08	-4.567025e+01	-1.667906e+03
1.500000e-07	-6.452449e-06	-2.546291e-08	-4.542383e+01	-1.666063e+03
1.600000e-07	-6.415415e-06	-2.542323e-08	-4.516312e+01	-1.663880e+03
1.700000e-07	-6.376407e-06	-2.530086e-08	-4.488851e+01	-1.661524e+03
1.800000e-07	-6.335069e-06	-2.537261e-08	-4.459750e+01	-1.659180e+03
1.900000e-07	-6.291237e-06	-2.525298e-08	-4.428893e+01	-1.656989e+03
2.000000e-07	-6.245181e-06	-2.521946e-08	-4.396471e+01	-1.655003e+03
2.100000e-07	-6.196741e-06	-2.524212e-08	-4.362370e+01	-1.653160e+03
2.200000e-07	-6.145570e-06	-2.515038e-08	-4.326346e+01	-1.651304e+03
2.300000e-07	-6.091875e-06	-2.514132e-08	-4.288546e+01	-1.649232e+03
2.400000e-07	-6.035895e-06	-2.509572e-08	-4.249138e+01	-1.646759e+03
2.500000e-07	-5.977535e-06	-2.504059e-08	-4.208054e+01	-1.643772e+03
2.600000e-07	-5.916905e-06	-2.499422e-08	-4.165371e+01	-1.640270e+03
2.700000e-07	-5.854206e-06	-2.492678e-08	-4.121233e+01	-1.636366e+03
2.800000e-07	-5.789408e-06	-2.487844e-08	-4.075616e+01	-1.632249e+03
2.900000e-07	-5.722359e-06	-2.481169e-08	-4.028415e+01	-1.628129e+03
3.000000e-07	-5.653111e-06	-2.478743e-08	-3.979666e+01	-1.624171e+03
3.100000e-07	-5.581829e-06	-2.472143e-08	-3.929485e+01	-1.620438e+03
3.200000e-07	-5.508463e-06	-2.463853e-08	-3.877837e+01	-1.616874e+03
3.300000e-07	-5.432874e-06	-2.457055e-08	-3.824624e+01	-1.613320e+03
3.400000e-07	-5.355079e-06	-2.449038e-08	-3.769858e+01	-1.609559e+03
3.500000e-07	-5.275129e-06	-2.444581e-08	-3.713575e+01	-1.605387e+03
3.600000e-07	-5.193156e-06	-2.436779e-08	-3.655868e+01	-1.600674e+03
3.700000e-07	-5.109488e-06	-2.429579e-08	-3.596967e+01	-1.595407e+03
3.800000e-07	-5.024192e-06	-2.421623e-08	-3.536921e+01	-1.589692e+03
3.900000e-07	-4.937253e-06	-2.411847e-08	-3.475718e+01	-1.583721e+03
4.000000e-07	-4.848622e-06	-2.403252e-08	-3.413323e+01	-1.577710e+03
4.100000e-07	-4.758173e-06	-2.395553e-08	-3.349649e+01	-1.571829e+03
4.200000e-07	-4.666086e-06	-2.387637e-08	-3.284822e+01	-1.566144e+03
4.300000e-07	-4.572477e-06	-2.377179e-08	-3.218924e+01	-1.560590e+03
4.400000e-07	-4.477253e-06	-2.367184e-08	-3.151888e+01	-1.554991e+03
4.500000e-07	-4.380359e-06	-2.356868e-08	-3.083677e+01	-1.549110e+03
4.600000e-07	-4.281788e-06	-2.345998e-08	-3.014284e+01	-1.542723e+03
4.700000e-07	-4.181667e-06	-2.335726e-08	-2.943802e+01	-1.535686e+03
4.800000e-07	-4.080123e-06	-2.325195e-08	-2.872317e+01	-1.527985e+03
4.900000e-07	-3.977187e-06	-2.313568e-08	-2.799852e+01	-1.519737e+03
5.000000e-07	-3.872827e-06	-2.300755e-08	-2.726385e+01	-1.511156e+03
5.100000e-07	-3.766973e-06	-2.288070e-08	-2.651867e+01	-1.502478e+03
5.200000e-07	-3.659601e-06	-2.274897e-08	-2.576279e+01	-1.493887e+03
5.300000e-07	-3.550903e-06	-2.261398e-08	-2.499758e+01	-1.485441e+03
5.400000e-07	-3.441043e-06	-2.247754e-08	-2.422419e+01	-1.477052e+03
5.500000e-07	-3.330015e-06	-2.233520e-08	-2.344257e+01	-1.468495e+03
5.600000e-07	-3.217692e-06	-2.218257e-08	-2.265185e+01	-1.459480e+03
5.700000e-07	-3.103972e-06	-2.202070e-08	-2.185128e+01	-1.449728e+03
5.800000e-07	-2.988873e-06	-2.185488e-08	-2.104101e+01	-1.439066e+03
5.900000e-07	-2.872420e-06	-2.168437e-08	-2.022121e+01	-1.427474e+03
6.000000e-07	-2.754848e-06	-2.150906e-08	-1.939353e+01	-1.415097e+03
6.100000e-07	-2.636360e-06	-2.132638e-08	-1.855940e+01	-1.402196e+03
6.200000e-07	-2.516931e-06	-2.113383e-08	-1.771864e+01	-1.389062e+03
6.300000e-07	-2.396495e-06	-2.093205e-08	-1.687080e+01	-1.375913e+03
6.400000e-07	-2.275180e-06	-2.072301e-08	-1.601677e+01	-1.362809e+03
6.500000e-07	-2.153115e-06	-2.050789e-08	-1.515745e+01	-1.349617e+03
6.600000e-07	-2.030234e-06	-2.028257e-08	-1.429241e+01	-1.336027e+03
6.700000e-07	-1.906578e-06	-2.004601e-08	-1.342189e+01	-1.321635e+03
6.800000e-07	-1.782191e-06	-1.979860e-08	-1.254623e+01	-1.306057e+03
6.900000e-07	-1.657173e-06	-1.953736e-08	-1.166614e+01	-1.289038e+03
7.000000e-07	-1.531692e-06	-1.926421e-08	-1.078278e+01	-1.270531e+03
7.100000e-07	-1.405828e-06	-1.897880e-08	-9.896722e+00	-1.250708e+03
7.200000e-07	-1.279581e-06	-1.868066e-08	-9.007969e+00	-1.229895e+03
7.300000e-07	-1.152903e-06	-1.836809e-08	-8.116186e+00	-1.208452e+03
7.400000e-07	-1.025817e-06	-1.803827e-08	-7.221529e+00	-1.186625e+03
7.500000e-07	-8.983427e-07	-1.769084e-08	-6.324136e+00	-1.164420e+03
7.600000e-07	-7.704983e-07	-1.732008e-08	-5.424139e+00	-1.141543e+03
7.700000e-07	-6.423549e-07	-1.692286e-08	-4.522038e+00	-1.117425e+03
7.800000e-07	-5.140025e-07	-1.650289e-08	-3.618465e+00	-1.091338e+03
7.900000e-07	-3.854835e-07	-1.605763e-08	-2.713719e+00	-1.062572e+03
8.000000e-07	-2.568222e-07	-1.557935e-08	-1.807972e+00	-1.030612e+03
8.100000e-07	-1.280964e-07	-1.506170e-08	-9.017706e-01	-9.952631e+02
8.200000e-07	6.775723e-10	-1.450372e-08	4.769960e-03	-9.566694e+02
8.300000e-07	1.295377e-07	-1.390161e-08	9.119172e-01	-9.151954e+02
8.400000e-07	2.584062e-07	-1.324748e-08	1.819123e+00	-8.711895e+02
8.500000e-07	3.872044e-07	-1.253333e-08	2.725834e+00	-8.246783e+02
8.600000e-07	5.158616e-07	-1.174651e-08	3.631553e+00	-7.750723e+02
8.700000e-07	6.443594e-07	-1.087241e-08	4.536149e+00	-7.209765e+02
8.800000e-07	7.727161e-07	-9.897736e-09	5.439752e+00	-6.601825e+02
8.900000e-07	9.008248e-07	-8.799100e-09	6.341609e+00	-5.898838e+02
9.000000e-07	1.028597e-06	-7.547177e-09	7.241097e+00	-5.071038e+02
9.100000e-07	1.156013e-06	-6.102193e-09	8.138080e+00	-4.092711e+02
9.200000e-07	1.282996e-06	-4.415663e-09	9.032011e+00	-2.948321e+02
9.300000e-07	1.409435e-06	-2.443573e-09	9.922116e+00	-1.637707e+02
9.400000e-07	1.535389e-06	-1.915471e-10	1.080880e+01	-1.791293e+01
9.500000e-07	1.660941e-06	2.224261e-09	1.169266e+01	1.390691e+02
9.600000e-07	1.786030e-06	4.680885e-09	1.257326e+01	3.019774e+02
9.700000e-07	1.910468e-06	7.140799e-09	1.344927e+01	4.646907e+02
9.800000e-07	2.034140e-06	9.559131e-09	1.431990e+01	6.209435e+02
9.900000e-07	2.157101e-06	1.178950e-08	1.518552e+01	7.651413e+02
1.000000e-06	2.279320e-06	1.370099e-08	1.604591e+01	8.930568e+02
1.010000e-06	2.400634e-06	1.528254e-08	1.689994e+01	1.002285e+03
1.020000e-06	2.520952e-06	1.657321e-08	1.774695e+01	1.092377e+03
1.030000e-06	2.640232e-06	1.762603e-08	1.858665e+01	1.164655e+03
1.040000e-06	2.758476e-06	1.849129e-08	1.941906e+01	1.221753e+03
1.050000e-06	2.875750e-06	1.920938e-08	2.024465e+01	1.267007e+03
1.060000e-06	2.991944e-06	1.981321e-08	2.106263e+01	1.303818e+03
1.070000e-06	3.106977e-06	2.032916e-08	2.187243e+01	1.335122e+03
1.080000e-06	3.220740e-06	2.077446e-08	2.267330e+01	1.363043e+03
1.090000e-06	3.333115e-06	2.116005e-08	2.346440e+01	1.388793e+03
1.100000e-06	3.444265e-06	2.149929e-08	2.424687e+01	1.412779e+03
1.110000e-06	3.554346e-06	2.180017e-08	2.502182e+01	1.434864e+03
1.120000e-06	3.663308e-06	2.207009e-08	2.578888e+01	1.454695e+03
1.130000e-06	3.771003e-06	2.231493e-08	2.654703e+01	1.471993e+03
1.140000e-06	3.877377e-06	2.253966e-08	2.729588e+01	1.486754e+03
1.150000e-06	3.982347e-06	2.274802e-08	2.803485e+01	1.499306e+03
1.160000e-06	4.085837e-06	2.293965e-08	2.876340e+01	1.510238e+03
1.170000e-06	4.187942e-06	2.311698e-08	2.948219e+01	1.520250e+03
1.180000e-06	4.288619e-06	2.328395e-08	3.019094e+01	1.529963e+03
1.190000e-06	4.387746e-06	2.344044e-08	3.088877e+01	1.539771e+03
1.200000e-06	4.485250e-06	2.358701e-08	3.157517e+01	1.549764e+03
1.210000e-06	4.580998e-06	2.372223e-08	3.224922e+01	1.559752e+03
1.220000e-06	4.675113e-06	2.384784e-08	3.291177e+01	1.569361e+03
1.230000e-06	4.767710e-06	2.396423e-08	3.356363e+01	1.578184e+03
1.240000e-06	4.858658e-06	2.407111e-08	3.420389e+01	1.585922e+03
1.250000e-06	4.947837e-06	2.417163e-08	3.483168e+01	1.592483e+03
1.260000e-06	5.035156e-06	2.426824e-08	3.544639e+01	1.598012e+03
1.270000e-06	5.120709e-06	2.436235e-08	3.604867e+01	1.602843e+03
1.280000e-06	5.204520e-06	2.445113e-08	3.663868e+01	1.607395e+03
1.290000e-06	5.286490e-06	2.453527e-08	3.721573e+01	1.612048e+03
1.300000e-06	5.366481e-06	2.461449e-08	3.777885e+01	1.617040e+03
1.310000e-06	5.444416e-06	2.468865e-08	3.832749e+01	1.622402e+03
1.320000e-06	5.520316e-06	2.475876e-08	3.886181e+01	1.627975e+03
1.330000e-06	5.594078e-06	2.482566e-08	3.938108e+01	1.633465e+03
1.340000e-06	5.665676e-06	2.488929e-08	3.988511e+01	1.638550e+03
1.350000e-06	5.735265e-06	2.494989e-08	4.037500e+01	1.642982e+03
1.360000e-06	5.802907e-06	2.500862e-08	4.085120e+01	1.646661e+03
1.370000e-06	5.868460e-06	2.506557e-08	4.131267e+01	1.649665e+03
1.380000e-06	5.931911e-06	2.511922e-08	4.175935e+01	1.652215e+03
1.390000e-06	5.993356e-06	2.516817e-08	4.219191e+01	1.654604e+03
1.400000e-06	6.052814e-06	2.521225e-08	4.261049e+01	1.657104e+03
1.410000e-06	6.110168e-06	2.525393e-08	4.301425e+01	1.659883e+03
1.420000e-06	6.165285e-06	2.529401e-08	4.340225e+01	1.662961e+03
1.430000e-06	6.218041e-06	2.533190e-08	4.377364e+01	1.666206e+03
1.440000e-06	6.268237e-06	2.536918e-08	4.412701e+01	1.669389e+03
1.450000e-06	6.315913e-06	2.540451e-08	4.446264e+01	1.672254e+03
1.460000e-06	6.361384e-06	2.543680e-08	4.478274e+01	1.674605e+03
1.470000e-06	6.404769e-06	2.546717e-08	4.508817e+01	1.676364e+03
1.480000e-06	6.445801e-06	2.549478e-08	4.537703e+01	1.677595e+03
1.490000e-06	6.484483e-06	2.551849e-08	4.564934e+01	1.678482e+03
1.500000e-06	6.521050e-06	2.554078e-08	4.590676e+01	1.679265e+03
1.510000e-06	6.555379e-06	2.556258e-08	4.614843e+01	1.680168e+03
1.520000e-06	6.587272e-06	2.558277e-08	4.637295e+01	1.681329e+03
1.530000e-06	6.616887e-06	2.560207e-08	4.658143e+01	1.682761e+03
1.540000e-06	6.644278e-06	2.561929e-08	4.677426e+01	1.684350e+03
1.550000e-06	6.669163e-06	2.563262e-08	4.694944e+01	1.685897e+03
1.560000e-06	6.691560e-06	2.564338e-08	4.710711e+01	1.687184e+03
1.570000e-06	6.711663e-06	2.565323e-08	4.724864e+01	1.688045e+03
1.580000e-06	6.729353e-06	2.566497e-08	4.737317e+01	1.688417e+03
1.590000e-06	6.744559e-06	2.567728e-08	4.748022e+01	1.688361e+03
1.600000e-06	6.757257e-06	2.568737e-08	4.756961e+01	1.688045e+03
1.610000e-06	6.767302e-06	2.569525e-08	4.764032e+01	1.687684e+03
1.620000e-06	6.774757e-06	2.569886e-08	4.769281e+01	1.687476e+03
1.630000e-06	6.779866e-06	2.570082e-08	4.772877e+01	1.687540e+03
1.640000e-06	6.782661e-06	2.570366e-08	4.774845e+01	1.687876e+03
1.650000e-06	6.782988e-06	2.570792e-08	4.775075e+01	1.688366e+03
1.660000e-06	6.780977e-06	2.570197e-08	4.773659e+01	1.688814e+03
1.670000e-06	6.776828e-06	2.569543e-08	4.770738e+01	1.689002e+03
1.680000e-06	6.770428e-06	2.569290e-08	4.766233e+01	1.688762e+03
1.690000e-06	6.761806e-06	2.568821e-08	4.760163e+01	1.688026e+03
1.700000e-06	6.751031e-06	2.568267e-08	4.752578e+01	1.686850e+03
1.710000e-06	6.737901e-06	2.567925e-08	4.743334e+01	1.685392e+03
1.720000e-06	6.722400e-06	2.569091e-08	4.732422e+01	1.683866e+03
1.730000e-06	6.704804e-06	2.564257e-08	4.720035e+01	1.682476e+03
1.740000e-06	6.684926e-06	2.553477e-08	4.706042e+01	1.681354e+03
1.750000e-06	6.661992e-06	2.555255e-08	4.689896e+01	1.680522e+03
1.760000e-06	6.635993e-06	2.557854e-08	4.671594e+01	1.679885e+03
1.770000e-06	6.607613e-06	2.555309e-08	4.651614e+01	1.679265e+03
1.780000e-06	6.577141e-06	2.564745e-08	4.630163e+01	1.678457e+03
1.790000e-06	6.545043e-06	2.559183e-08	4.607567e+01	1.677293e+03
1.800000e-06	6.511373e-06	2.543660e-08	4.583864e+01	1.675694e+03
1.810000e-06	6.475370e-06	2.553704e-08	4.558518e+01	1.673691e+03
1.820000e-06	6.436934e-06	2.544763e-08	4.531460e+01	1.671414e+03
1.830000e-06	6.396325e-06	2.544083e-08	4.502872e+01	1.669043e+03
1.840000e-06	6.353564e-06	2.554424e-08	4.472770e+01	1.666755e+03
1.850000e-06	6.308709e-06	2.534685e-08	4.441193e+01	1.664655e+03
1.860000e-06	6.261542e-06	2.539179e-08	4.407988e+01	1.662746e+03
1.870000e-06	6.212059e-06	2.535422e-08	4.373153e+01	1.660923e+03
1.880000e-06	6.160309e-06	2.526730e-08	4.336722e+01	1.659002e+03
1.890000e-06	6.105873e-06	2.531490e-08	4.298400e+01	1.656781e+03
1.900000e-06	6.048982e-06	2.516414e-08	4.258351e+01	1.654097e+03
1.910000e-06	5.989916e-06	2.520050e-08	4.216769e+01	1.650885e+03
1.920000e-06	5.928533e-06	2.517437e-08	4.173557e+01	1.647194e+03
1.930000e-06	5.864944e-06	2.507337e-08	4.128792e+01	1.643175e+03
1.940000e-06	5.799203e-06	2.504402e-08	4.082512e+01	1.639035e+03
1.950000e-06	5.731366e-06	2.491379e-08	4.034756e+01	1.634972e+03
1.960000e-06	5.661258e-06	2.494244e-08	3.985401e+01	1.631111e+03
1.970000e-06	5.588917e-06	2.485095e-08	3.934475e+01	1.627467e+03
1.980000e-06	5.514522e-06	2.479692e-08	3.882102e+01	1.623934e+03
1.990000e-06	5.437913e-06	2.476560e-08	3.828171e+01	1.620321e+03
2.000000e-06	5.359146e-06	2.464946e-08	3.772721e+01	1.616409e+03
2.010000e-06	5.278398e-06	2.460459e-08	3.715876e+01	1.612017e+03
2.020000e-06	5.195871e-06	2.448801e-08	3.657779e+01	1.607063e+03
2.030000e-06	5.111606e-06	2.446423e-08	3.598458e+01	1.601588e+03
2.040000e-06	5.025424e-06	2.439232e-08	3.537788e+01	1.595739e+03
2.050000e-06	4.937376e-06	2.429174e-08	3.475804e+01	1.589728e+03
2.060000e-06	4.847699e-06	2.420632e-08	3.412674e+01	1.583760e+03
2.070000e-06	4.756505e-06	2.411351e-08	3.348475e+01	1.577964e+03
2.080000e-06	4.663686e-06	2.404568e-08	3.283133e+01	1.572353e+03
2.090000e-06	4.569120e-06	2.392993e-08	3.216560e+01	1.566809e+03
2.100000e-06	4.472877e-06	2.384550e-08	3.148807e+01	1.561122e+03
2.110000e-06	4.375162e-06	2.374001e-08	3.080018e+01	1.555051e+03
2.120000e-06	4.276096e-06	2.364118e-08	3.010277e+01	1.548398e+03
2.130000e-06	4.175525e-06	2.352883e-08	2.939478e+01	1.541073e+03
2.140000e-06	4.073271e-06	2.341613e-08	2.867493e+01	1.533118e+03
2.150000e-06	3.969403e-06	2.330567e-08	2.794373e+01	1.524701e+03
2.160000e-06	3.864156e-06	2.318826e-08	2.720281e+01	1.516053e+03
2.170000e-06	3.757676e-06	2.307566e-08	2.645322e+01	1.507399e+03
2.180000e-06	3.649977e-06	2.294029e-08	2.569504e+01	1.498873e+03
2.190000e-06	3.540883e-06	2.280651e-08	2.492704e+01	1.490474e+03
2.200000e-06	3.430366e-06	2.266097e-08	2.414903e+01	1.482048e+03
2.210000e-06	3.318459e-06	2.252450e-08	2.336123e+01	1.473335e+03
2.220000e-06	3.205305e-06	2.237535e-08	2.256465e+01	1.464036e+03
2.230000e-06	3.090957e-06	2.222351e-08	2.175966e+01	1.453909e+03
2.240000e-06	2.975361e-06	2.206172e-08	2.094589e+01	1.442844e+03
2.250000e-06	2.858531e-06	2.188902e-08	2.012343e+01	1.430892e+03
2.260000e-06	2.740495e-06	2.170830e-08	1.929248e+01	1.418257e+03
2.270000e-06	2.621350e-06	2.152610e-08	1.845373e+01	1.405225e+03
2.280000e-06	2.501135e-06	2.134457e-08	1.760744e+01	1.392067e+03
2.290000e-06	2.380044e-06	2.114775e-08	1.675499e+01	1.378944e+03
2.300000e-06	2.258251e-06	2.093907e-08	1.589759e+01	1.365832e+03
2.310000e-06	2.135790e-06	2.071667e-08	1.503549e+01	1.352518e+03
2.320000e-06	2.012638e-06	2.049028e-08	1.416853e+01	1.338638e+03
2.330000e-06	1.888752e-06	2.025131e-08	1.329640e+01	1.323782e+03
2.340000e-06	1.764132e-06	2.000297e-08	1.241910e+01	1.307609e+03
2.350000e-06	1.638886e-06	1.974500e-08	1.153740e+01	1.289947e+03
2.360000e-06	1.513176e-06	1.947627e-08	1.065243e+01	1.270847e+03
2.370000e-06	1.387023e-06	1.919075e-08	9.764339e+00	1.250557e+03
2.380000e-06	1.260364e-06	1.888563e-08	8.872683e+00	1.229435e+03
2.390000e-06	1.133184e-06	1.856411e-08	7.977363e+00	1.207811e+03
2.400000e-06	1.005587e-06	1.822205e-08	7.079110e+00	1.185841e+03
2.410000e-06	8.776595e-07	1.786314e-08	6.178531e+00	1.163404e+03
2.420000e-06	7.494173e-07	1.748611e-08	5.275733e+00	1.140080e+03
2.430000e-06	6.209226e-07	1.708707e-08	4.371159e+00	1.115214e+03
2.440000e-06	4.922092e-07	1.665864e-08	3.465045e+00	1.088061e+03
2.450000e-06	3.633423e-07	1.619534e-08	2.557850e+00	1.057974e+03
2.460000e-06	2.343110e-07	1.569764e-08	1.649498e+00	1.024567e+03
2.470000e-06	1.051124e-07	1.516574e-08	7.399683e-01	9.877955e+02
2.480000e-06	-2.412205e-08	1.459583e-08	-1.698139e-01	9.479196e+02
2.490000e-06	-1.533305e-07	1.397403e-08	-1.079413e+00	9.053317e+02
2.500000e-06	-2.825150e-07	1.329412e-08	-1.988844e+00	8.602813e+02
2.510000e-06	-4.116164e-07	1.255001e-08	-2.897689e+00	8.125627e+02
2.520000e-06	-5.405680e-07	1.173012e-08	-3.805480e+00	7.612555e+02
2.530000e-06	-6.693474e-07	1.082121e-08	-4.712059e+00	7.046043e+02
2.540000e-06	-7.979245e-07	9.802476e-09	-5.617213e+00	6.401047e+02
2.550000e-06	-9.261927e-07	8.650733e-09	-6.520193e+00	5.648144e+02
2.560000e-06	-1.054066e-06	7.331798e-09	-7.420396e+00	4.758549e+02
2.570000e-06	-1.181517e-06	5.804623e-09	-8.317620e+00	3.710183e+02
2.580000e-06	-1.308547e-06	4.022232e-09	-9.211885e+00	2.493563e+02
2.590000e-06	-1.435135e-06	1.942305e-09	-1.010304e+01	1.116213e+02
2.600000e-06	-1.561216e-06	-4.095490e-10	-1.099062e+01	-3.955099e+01
2.610000e-06	-1.686667e-06	-2.904778e-09	-1.187377e+01	-1.997771e+02
2.620000e-06	-1.811419e-06	-5.430786e-09	-1.275199e+01	-3.633763e+02
2.630000e-06	-1.935508e-06	-7.948336e-09	-1.362555e+01	-5.240645e+02
2.640000e-06	-2.058832e-06	-1.035905e-08	-1.449372e+01	-6.757675e+02
2.650000e-06	-2.181280e-06	-1.250466e-08	-1.535573e+01	-8.134031e+02
2.660000e-06	-2.302897e-06	-1.431031e-08	-1.621189e+01	-9.334869e+02
2.670000e-06	-2.423690e-06	-1.579227e-08	-1.706224e+01	-1.034455e+03
2.680000e-06	-2.543627e-06	-1.699881e-08	-1.790657e+01	-1.116659e+03
2.690000e-06	-2.662627e-06	-1.798623e-08	-1.874431e+01	-1.182051e+03
2.700000e-06	-2.780529e-06	-1.880275e-08	-1.957432e+01	-1.233644e+03
2.710000e-06	-2.897282e-06	-1.948637e-08	-2.039623e+01	-1.274878e+03
2.720000e-06	-3.012842e-06	-2.006370e-08	-2.120975e+01	-1.309009e+03
2.730000e-06	-3.127112e-06	-2.055322e-08	-2.201419e+01	-1.338653e+03
2.740000e-06	-3.240044e-06	-2.097353e-08	-2.280920e+01	-1.365544e+03
2.750000e-06	-3.351694e-06	-2.134125e-08	-2.359519e+01	-1.390525e+03
2.760000e-06	-3.462121e-06	-2.166558e-08	-2.437257e+01	-1.413731e+03
2.770000e-06	-3.571364e-06	-2.195454e-08	-2.514162e+01	-1.434892e+03
2.780000e-06	-3.679438e-06	-2.221480e-08	-2.590243e+01	-1.453656e+03
2.790000e-06	-3.786337e-06	-2.245113e-08	-2.665498e+01	-1.469846e+03
2.800000e-06	-3.891998e-06	-2.266743e-08	-2.739881e+01	-1.483599e+03
2.810000e-06	-3.996188e-06	-2.286684e-08	-2.813229e+01	-1.495371e+03
2.820000e-06	-4.098879e-06	-2.305110e-08	-2.885521e+01	-1.505822e+03
2.830000e-06	-4.200023e-06	-2.322171e-08	-2.956724e+01	-1.515638e+03
2.840000e-06	-4.299582e-06	-2.338198e-08	-3.026811e+01	-1.525357e+03
2.850000e-06	-4.397733e-06	-2.353237e-08	-3.095908e+01	-1.535249e+03
2.860000e-06	-4.494442e-06	-2.367251e-08	-3.163988e+01	-1.545274e+03
2.870000e-06	-4.589568e-06	-2.380337e-08	-3.230955e+01	-1.555149e+03
2.880000e-06	-4.683055e-06	-2.392493e-08	-3.296768e+01	-1.564465e+03
2.890000e-06	-4.774838e-06	-2.403761e-08	-3.361381e+01	-1.572847e+03
2.900000e-06	-4.864929e-06	-2.414206e-08	-3.424803e+01	-1.580075e+03
2.910000e-06	-4.953234e-06	-2.424068e-08	-3.486968e+01	-1.586160e+03
2.920000e-06	-5.039640e-06	-2.433471e-08	-3.547796e+01	-1.591339e+03
2.930000e-06	-5.124162e-06	-2.442375e-08	-3.607298e+01	-1.595996e+03
2.940000e-06	-5.206907e-06	-2.450871e-08	-3.665548e+01	-1.600549e+03
