# Temperatura_=_75.44
# Concentracion g/m^3_=_41000.0
# C_Vs_to_Am_M_A/Vsm_=_65563218390.804596
# pendiente_HvsI_1/m_=_3716.3
# ordenada_HvsI_A/m_=_1297.0
# frecuencia_Hz_=_302007.1341957071

Tiempo_(s)	Campo_(V.s)	Magnetizacion_(V.s)	Campo_(kA/m)	Magnetizacion_(A/m)
0.000000e+00	-6.745270e-06	-2.251950e-08	-4.746539e+01	-1.475375e+03
1.000000e-08	-6.741856e-06	-2.251680e-08	-4.744137e+01	-1.475540e+03
2.000000e-08	-6.736218e-06	-2.250835e-08	-4.740169e+01	-1.475171e+03
3.000000e-08	-6.728489e-06	-2.249878e-08	-4.734731e+01	-1.474253e+03
4.000000e-08	-6.718440e-06	-2.248707e-08	-4.727660e+01	-1.472915e+03
5.000000e-08	-6.705932e-06	-2.247290e-08	-4.718858e+01	-1.471381e+03
6.000000e-08	-6.690989e-06	-2.245200e-08	-4.708343e+01	-1.469906e+03
7.000000e-08	-6.673694e-06	-2.242640e-08	-4.696173e+01	-1.468696e+03
8.000000e-08	-6.654268e-06	-2.244893e-08	-4.682503e+01	-1.467840e+03
9.000000e-08	-6.632462e-06	-2.249199e-08	-4.667158e+01	-1.467292e+03
1.000000e-07	-6.607868e-06	-2.243917e-08	-4.649852e+01	-1.466882e+03
1.100000e-07	-6.580587e-06	-2.238244e-08	-4.630654e+01	-1.466373e+03
1.200000e-07	-6.551073e-06	-2.236865e-08	-4.609886e+01	-1.465539e+03
1.300000e-07	-6.519738e-06	-2.228185e-08	-4.587836e+01	-1.464234e+03
1.400000e-07	-6.486583e-06	-2.221785e-08	-4.564506e+01	-1.462439e+03
1.500000e-07	-6.451400e-06	-2.234369e-08	-4.539748e+01	-1.460265e+03
1.600000e-07	-6.414181e-06	-2.226348e-08	-4.513558e+01	-1.457917e+03
1.700000e-07	-6.374994e-06	-2.218402e-08	-4.485982e+01	-1.455629e+03
1.800000e-07	-6.333428e-06	-2.225579e-08	-4.456733e+01	-1.453581e+03
1.900000e-07	-6.289303e-06	-2.212677e-08	-4.425682e+01	-1.451845e+03
2.000000e-07	-6.242942e-06	-2.213985e-08	-4.393059e+01	-1.450355e+03
2.100000e-07	-6.194147e-06	-2.213829e-08	-4.358723e+01	-1.448925e+03
2.200000e-07	-6.142688e-06	-2.203530e-08	-4.322512e+01	-1.447309e+03
2.300000e-07	-6.088713e-06	-2.202462e-08	-4.284531e+01	-1.445269e+03
2.400000e-07	-6.032405e-06	-2.196825e-08	-4.244907e+01	-1.442658e+03
2.500000e-07	-5.973853e-06	-2.192479e-08	-4.203706e+01	-1.439461e+03
2.600000e-07	-5.913092e-06	-2.189749e-08	-4.160949e+01	-1.435801e+03
2.700000e-07	-5.850251e-06	-2.184124e-08	-4.116729e+01	-1.431905e+03
2.800000e-07	-5.785268e-06	-2.177854e-08	-4.071001e+01	-1.428029e+03
2.900000e-07	-5.717998e-06	-2.171594e-08	-4.023665e+01	-1.424380e+03
3.000000e-07	-5.648592e-06	-2.169810e-08	-3.974824e+01	-1.421046e+03
3.100000e-07	-5.577086e-06	-2.163051e-08	-3.924507e+01	-1.417974e+03
3.200000e-07	-5.503416e-06	-2.156768e-08	-3.872666e+01	-1.414976e+03
3.300000e-07	-5.427567e-06	-2.150138e-08	-3.819293e+01	-1.411795e+03
3.400000e-07	-5.349517e-06	-2.142544e-08	-3.764370e+01	-1.408177e+03
3.500000e-07	-5.269343e-06	-2.138326e-08	-3.707953e+01	-1.403960e+03
3.600000e-07	-5.187259e-06	-2.130618e-08	-3.650192e+01	-1.399118e+03
3.700000e-07	-5.103475e-06	-2.124466e-08	-3.591235e+01	-1.393777e+03
3.800000e-07	-5.017994e-06	-2.117229e-08	-3.531083e+01	-1.388172e+03
3.900000e-07	-4.930861e-06	-2.108309e-08	-3.469768e+01	-1.382576e+03
4.000000e-07	-4.842018e-06	-2.099970e-08	-3.407251e+01	-1.377209e+03
4.100000e-07	-4.751373e-06	-2.093250e-08	-3.343466e+01	-1.372171e+03
4.200000e-07	-4.659075e-06	-2.085968e-08	-3.278517e+01	-1.367399e+03
4.300000e-07	-4.565209e-06	-2.076073e-08	-3.212465e+01	-1.362688e+03
4.400000e-07	-4.469777e-06	-2.067000e-08	-3.145311e+01	-1.357750e+03
4.500000e-07	-4.372676e-06	-2.057820e-08	-3.076983e+01	-1.352300e+03
4.600000e-07	-4.273910e-06	-2.048504e-08	-3.007483e+01	-1.346149e+03
4.700000e-07	-4.173665e-06	-2.039411e-08	-2.936942e+01	-1.339264e+03
4.800000e-07	-4.071978e-06	-2.029906e-08	-2.865386e+01	-1.331778e+03
4.900000e-07	-3.968875e-06	-2.019090e-08	-2.792834e+01	-1.323954e+03
5.000000e-07	-3.864282e-06	-2.007305e-08	-2.719234e+01	-1.316098e+03
5.100000e-07	-3.758204e-06	-1.995802e-08	-2.644588e+01	-1.308460e+03
5.200000e-07	-3.650778e-06	-1.984057e-08	-2.568994e+01	-1.301149e+03
5.300000e-07	-3.542012e-06	-1.971841e-08	-2.492458e+01	-1.294088e+03
5.400000e-07	-3.432013e-06	-1.959303e-08	-2.415053e+01	-1.287028e+03
5.500000e-07	-3.320840e-06	-1.946533e-08	-2.336822e+01	-1.279619e+03
5.600000e-07	-3.208310e-06	-1.933134e-08	-2.257637e+01	-1.271513e+03
5.700000e-07	-3.094270e-06	-1.919192e-08	-2.177389e+01	-1.262472e+03
5.800000e-07	-2.978838e-06	-1.904939e-08	-2.096161e+01	-1.252443e+03
5.900000e-07	-2.862225e-06	-1.889974e-08	-2.014103e+01	-1.241577e+03
6.000000e-07	-2.744592e-06	-1.874077e-08	-1.931326e+01	-1.230184e+03
6.100000e-07	-2.626024e-06	-1.857680e-08	-1.847891e+01	-1.218632e+03
6.200000e-07	-2.506537e-06	-1.840683e-08	-1.763810e+01	-1.207222e+03
6.300000e-07	-2.386069e-06	-1.822841e-08	-1.679039e+01	-1.196083e+03
6.400000e-07	-2.264599e-06	-1.804281e-08	-1.593563e+01	-1.185107e+03
6.500000e-07	-2.142311e-06	-1.785030e-08	-1.507510e+01	-1.173970e+03
6.600000e-07	-2.019304e-06	-1.764937e-08	-1.420952e+01	-1.162209e+03
6.700000e-07	-1.895535e-06	-1.744106e-08	-1.333858e+01	-1.149361e+03
6.800000e-07	-1.771084e-06	-1.722462e-08	-1.246284e+01	-1.135099e+03
6.900000e-07	-1.646042e-06	-1.699601e-08	-1.158294e+01	-1.119339e+03
7.000000e-07	-1.520448e-06	-1.675580e-08	-1.069915e+01	-1.102267e+03
7.100000e-07	-1.394401e-06	-1.650509e-08	-9.812176e+00	-1.084278e+03
7.200000e-07	-1.268010e-06	-1.624411e-08	-8.922782e+00	-1.065847e+03
7.300000e-07	-1.141258e-06	-1.596908e-08	-8.030850e+00	-1.047344e+03
7.400000e-07	-1.014089e-06	-1.567803e-08	-7.135985e+00	-1.028883e+03
7.500000e-07	-8.865699e-07	-1.536847e-08	-6.238652e+00	-1.010225e+03
7.600000e-07	-7.587527e-07	-1.503632e-08	-5.339222e+00	-9.907893e+02
7.700000e-07	-6.306692e-07	-1.468322e-08	-4.437919e+00	-9.697699e+02
7.800000e-07	-5.023706e-07	-1.430997e-08	-3.535102e+00	-9.463360e+02
7.900000e-07	-3.739263e-07	-1.391158e-08	-2.631260e+00	-9.198514e+02
8.000000e-07	-2.453733e-07	-1.348211e-08	-1.726653e+00	-8.900452e+02
8.100000e-07	-1.166545e-07	-1.301490e-08	-8.208789e-01	-8.570680e+02
8.200000e-07	1.216867e-08	-1.250559e-08	8.562896e-02	-8.213959e+02
8.300000e-07	1.409939e-07	-1.195196e-08	9.921519e-01	-7.835877e+02
8.400000e-07	2.697842e-07	-1.134868e-08	1.898429e+00	-7.439451e+02
8.500000e-07	3.985319e-07	-1.068430e-08	2.804405e+00	-7.021646e+02
8.600000e-07	5.271578e-07	-9.944043e-09	3.709526e+00	-6.570834e+02
8.700000e-07	6.556345e-07	-9.111606e-09	4.613596e+00	-6.066139e+02
8.800000e-07	7.839621e-07	-8.167978e-09	5.516617e+00	-5.479220e+02
8.900000e-07	9.120347e-07	-7.087307e-09	6.417844e+00	-4.778484e+02
9.000000e-07	1.039757e-06	-5.836136e-09	7.316604e+00	-3.935100e+02
9.100000e-07	1.167105e-06	-4.373657e-09	8.212735e+00	-2.929672e+02
9.200000e-07	1.294131e-06	-2.659403e-09	9.106591e+00	-1.758119e+02
9.300000e-07	1.420742e-06	-6.721722e-10	9.997535e+00	-4.353992e+01
9.400000e-07	1.546817e-06	1.558992e-09	1.088471e+01	1.003945e+02
9.500000e-07	1.672421e-06	3.937505e-09	1.176856e+01	2.508773e+02
9.600000e-07	1.797533e-06	6.332106e-09	1.264895e+01	4.017478e+02
9.700000e-07	1.921991e-06	8.597501e-09	1.352475e+01	5.466185e+02
9.800000e-07	2.045746e-06	1.060967e-08	1.439559e+01	6.797470e+02
9.900000e-07	2.168734e-06	1.230930e-08	1.526103e+01	7.967924e+02
1.000000e-06	2.290876e-06	1.369974e-08	1.612053e+01	8.953163e+02
1.010000e-06	2.412088e-06	1.482216e-08	1.697348e+01	9.749403e+02
1.020000e-06	2.532253e-06	1.572422e-08	1.781906e+01	1.037149e+03
1.030000e-06	2.651426e-06	1.645245e-08	1.865766e+01	1.084798e+03
1.040000e-06	2.769690e-06	1.704925e-08	1.948987e+01	1.121456e+03
1.050000e-06	2.887042e-06	1.754594e-08	2.031565e+01	1.150705e+03
1.060000e-06	3.003314e-06	1.796469e-08	2.113384e+01	1.175573e+03
1.070000e-06	3.118309e-06	1.832380e-08	2.194305e+01	1.198166e+03
1.080000e-06	3.231996e-06	1.863922e-08	2.274304e+01	1.219566e+03
1.090000e-06	3.344357e-06	1.891733e-08	2.353371e+01	1.239977e+03
1.100000e-06	3.455472e-06	1.916403e-08	2.431561e+01	1.259023e+03
1.110000e-06	3.565438e-06	1.938486e-08	2.508942e+01	1.276128e+03
1.120000e-06	3.674263e-06	1.958699e-08	2.585520e+01	1.290850e+03
1.130000e-06	3.781947e-06	1.977519e-08	2.661296e+01	1.303097e+03
1.140000e-06	3.888327e-06	1.994903e-08	2.736154e+01	1.313191e+03
1.150000e-06	3.993201e-06	2.010927e-08	2.809952e+01	1.321775e+03
1.160000e-06	4.096542e-06	2.025819e-08	2.882672e+01	1.329631e+03
1.170000e-06	4.198457e-06	2.039753e-08	2.954387e+01	1.337454e+03
1.180000e-06	4.299035e-06	2.052863e-08	3.025162e+01	1.345677e+03
1.190000e-06	4.398150e-06	2.065262e-08	3.094908e+01	1.354384e+03
1.200000e-06	4.495555e-06	2.076944e-08	3.163451e+01	1.363327e+03
1.210000e-06	4.591180e-06	2.087756e-08	3.230740e+01	1.372051e+03
1.220000e-06	4.685193e-06	2.097756e-08	3.296896e+01	1.380057e+03
1.230000e-06	4.777741e-06	2.107258e-08	3.362021e+01	1.386981e+03
1.240000e-06	4.868666e-06	2.116161e-08	3.426003e+01	1.392699e+03
1.250000e-06	4.957729e-06	2.124473e-08	3.488675e+01	1.397368e+03
1.260000e-06	5.044934e-06	2.132411e-08	3.550040e+01	1.401367e+03
1.270000e-06	5.130364e-06	2.140343e-08	3.610156e+01	1.405174e+03
1.280000e-06	5.214005e-06	2.148175e-08	3.669013e+01	1.409224e+03
1.290000e-06	5.295762e-06	2.155676e-08	3.726543e+01	1.413779e+03
1.300000e-06	5.375509e-06	2.162568e-08	3.782660e+01	1.418866e+03
1.310000e-06	5.453289e-06	2.168974e-08	3.837393e+01	1.424279e+03
1.320000e-06	5.529091e-06	2.175154e-08	3.890734e+01	1.429663e+03
1.330000e-06	5.602727e-06	2.181037e-08	3.942550e+01	1.434629e+03
1.340000e-06	5.674238e-06	2.186510e-08	3.992871e+01	1.438877e+03
1.350000e-06	5.743741e-06	2.191660e-08	4.041780e+01	1.442288e+03
1.360000e-06	5.811241e-06	2.196809e-08	4.089278e+01	1.444952e+03
1.370000e-06	5.876631e-06	2.201791e-08	4.135292e+01	1.447131e+03
1.380000e-06	5.939881e-06	2.206466e-08	4.179800e+01	1.449175e+03
1.390000e-06	6.001154e-06	2.211057e-08	4.222917e+01	1.451405e+03
1.400000e-06	6.060397e-06	2.215507e-08	4.264605e+01	1.454021e+03
1.410000e-06	6.117428e-06	2.219358e-08	4.304737e+01	1.457042e+03
1.420000e-06	6.172290e-06	2.222668e-08	4.343342e+01	1.460310e+03
1.430000e-06	6.224864e-06	2.225775e-08	4.380338e+01	1.463544e+03
1.440000e-06	6.274834e-06	2.228703e-08	4.415501e+01	1.466438e+03
1.450000e-06	6.322343e-06	2.231503e-08	4.448932e+01	1.468754e+03
1.460000e-06	6.367731e-06	2.234243e-08	4.480871e+01	1.470401e+03
1.470000e-06	6.410980e-06	2.236952e-08	4.511305e+01	1.471456e+03
1.480000e-06	6.451814e-06	2.239519e-08	4.540039e+01	1.472142e+03
1.490000e-06	6.490304e-06	2.241805e-08	4.567124e+01	1.472750e+03
1.500000e-06	6.526709e-06	2.243974e-08	4.592741e+01	1.473553e+03
1.510000e-06	6.560818e-06	2.246015e-08	4.616744e+01	1.474717e+03
1.520000e-06	6.592544e-06	2.247782e-08	4.639068e+01	1.476256e+03
1.530000e-06	6.622018e-06	2.249303e-08	4.659809e+01	1.478030e+03
1.540000e-06	6.649214e-06	2.250594e-08	4.678947e+01	1.479792e+03
1.550000e-06	6.673911e-06	2.251761e-08	4.696325e+01	1.481270e+03
1.560000e-06	6.696125e-06	2.252911e-08	4.711957e+01	1.482252e+03
1.570000e-06	6.716129e-06	2.254050e-08	4.726034e+01	1.482654e+03
1.580000e-06	6.733718e-06	2.255101e-08	4.738411e+01	1.482544e+03
1.590000e-06	6.748723e-06	2.256009e-08	4.748969e+01	1.482120e+03
1.600000e-06	6.761239e-06	2.256823e-08	4.757776e+01	1.481644e+03
1.610000e-06	6.771142e-06	2.257490e-08	4.764745e+01	1.481365e+03
1.620000e-06	6.778408e-06	2.257795e-08	4.769858e+01	1.481435e+03
1.630000e-06	6.783274e-06	2.257867e-08	4.773282e+01	1.481867e+03
1.640000e-06	6.785755e-06	2.257983e-08	4.775028e+01	1.482530e+03
1.650000e-06	6.785822e-06	2.258059e-08	4.775075e+01	1.483191e+03
1.660000e-06	6.783662e-06	2.257181e-08	4.773555e+01	1.483590e+03
1.670000e-06	6.779311e-06	2.256616e-08	4.770493e+01	1.483520e+03
1.680000e-06	6.772588e-06	2.256311e-08	4.765763e+01	1.482892e+03
1.690000e-06	6.763678e-06	2.255737e-08	4.759493e+01	1.481758e+03
1.700000e-06	6.752739e-06	2.255195e-08	4.751795e+01	1.480299e+03
1.710000e-06	6.739435e-06	2.255127e-08	4.742434e+01	1.478765e+03
1.720000e-06	6.723759e-06	2.255892e-08	4.731402e+01	1.477396e+03
1.730000e-06	6.706017e-06	2.249496e-08	4.718917e+01	1.476349e+03
1.740000e-06	6.685941e-06	2.240200e-08	4.704790e+01	1.475653e+03
1.750000e-06	6.662714e-06	2.242300e-08	4.688446e+01	1.475198e+03
1.760000e-06	6.636377e-06	2.242933e-08	4.669913e+01	1.474775e+03
1.770000e-06	6.607658e-06	2.241663e-08	4.649704e+01	1.474143e+03
1.780000e-06	6.576952e-06	2.251821e-08	4.628097e+01	1.473103e+03
1.790000e-06	6.544709e-06	2.243524e-08	4.605408e+01	1.471567e+03
1.800000e-06	6.510823e-06	2.231627e-08	4.581563e+01	1.469577e+03
1.810000e-06	6.474543e-06	2.240110e-08	4.556033e+01	1.467296e+03
1.820000e-06	6.435906e-06	2.228248e-08	4.528845e+01	1.464951e+03
1.830000e-06	6.395164e-06	2.232457e-08	4.500175e+01	1.462760e+03
1.840000e-06	6.352255e-06	2.236897e-08	4.469981e+01	1.460858e+03
1.850000e-06	6.307242e-06	2.217412e-08	4.438306e+01	1.459255e+03
1.860000e-06	6.259852e-06	2.225520e-08	4.404958e+01	1.457824e+03
1.870000e-06	6.210113e-06	2.220120e-08	4.369958e+01	1.456342e+03
1.880000e-06	6.158081e-06	2.215408e-08	4.333344e+01	1.454557e+03
1.890000e-06	6.103388e-06	2.217188e-08	4.294857e+01	1.452266e+03
1.900000e-06	6.046260e-06	2.202033e-08	4.254657e+01	1.449378e+03
1.910000e-06	5.986948e-06	2.206461e-08	4.212920e+01	1.445945e+03
1.920000e-06	5.925376e-06	2.202279e-08	4.169593e+01	1.442147e+03
1.930000e-06	5.861592e-06	2.196409e-08	4.124709e+01	1.438232e+03
1.940000e-06	5.795637e-06	2.191463e-08	4.078298e+01	1.434443e+03
1.950000e-06	5.727565e-06	2.180222e-08	4.030397e+01	1.430940e+03
1.960000e-06	5.657213e-06	2.182182e-08	3.980891e+01	1.427746e+03
1.970000e-06	5.584647e-06	2.171342e-08	3.929828e+01	1.424740e+03
1.980000e-06	5.510069e-06	2.168695e-08	3.877348e+01	1.421693e+03
1.990000e-06	5.433301e-06	2.164664e-08	3.823328e+01	1.418339e+03
2.000000e-06	5.354372e-06	2.155297e-08	3.767787e+01	1.414459e+03
2.010000e-06	5.273530e-06	2.150067e-08	3.710899e+01	1.409947e+03
2.020000e-06	5.190903e-06	2.138938e-08	3.652756e+01	1.404853e+03
2.030000e-06	5.106426e-06	2.136886e-08	3.593311e+01	1.399358e+03
2.040000e-06	5.020015e-06	2.129171e-08	3.532505e+01	1.393726e+03
2.050000e-06	4.931764e-06	2.120584e-08	3.470404e+01	1.388217e+03
2.060000e-06	4.841862e-06	2.112047e-08	3.407141e+01	1.383003e+03
2.070000e-06	4.750464e-06	2.104485e-08	3.342826e+01	1.378108e+03
2.080000e-06	4.657413e-06	2.097737e-08	3.277348e+01	1.373400e+03
2.090000e-06	4.562593e-06	2.087229e-08	3.210624e+01	1.368624e+03
2.100000e-06	4.466190e-06	2.079282e-08	3.142787e+01	1.363482e+03
2.110000e-06	4.368351e-06	2.069089e-08	3.073939e+01	1.357724e+03
2.120000e-06	4.269111e-06	2.059923e-08	3.004106e+01	1.351228e+03
2.130000e-06	4.168336e-06	2.049382e-08	2.933192e+01	1.344040e+03
2.140000e-06	4.065862e-06	2.039539e-08	2.861082e+01	1.336362e+03
2.150000e-06	3.961801e-06	2.029247e-08	2.787856e+01	1.328488e+03
2.160000e-06	3.856342e-06	2.018979e-08	2.713646e+01	1.320712e+03
2.170000e-06	3.749608e-06	2.008664e-08	2.638539e+01	1.313226e+03
2.180000e-06	3.641642e-06	1.996510e-08	2.562566e+01	1.306054e+03
2.190000e-06	3.532306e-06	1.984309e-08	2.485627e+01	1.299035e+03
2.200000e-06	3.421604e-06	1.971213e-08	2.407728e+01	1.291861e+03
2.210000e-06	3.309576e-06	1.958824e-08	2.328896e+01	1.284170e+03
2.220000e-06	3.196263e-06	1.945168e-08	2.249160e+01	1.275652e+03
2.230000e-06	3.081770e-06	1.931467e-08	2.168593e+01	1.266149e+03
2.240000e-06	2.966088e-06	1.917085e-08	2.087189e+01	1.255703e+03
2.250000e-06	2.849121e-06	1.902010e-08	2.004881e+01	1.244550e+03
2.260000e-06	2.730909e-06	1.885924e-08	1.921697e+01	1.233041e+03
2.270000e-06	2.611554e-06	1.869840e-08	1.837709e+01	1.221528e+03
2.280000e-06	2.491152e-06	1.853362e-08	1.752984e+01	1.210244e+03
2.290000e-06	2.369923e-06	1.835289e-08	1.667677e+01	1.199211e+03
2.300000e-06	2.247997e-06	1.816329e-08	1.581880e+01	1.188214e+03
2.310000e-06	2.125415e-06	1.796874e-08	1.495621e+01	1.176850e+03
2.320000e-06	2.002191e-06	1.777362e-08	1.408910e+01	1.164639e+03
2.330000e-06	1.878268e-06	1.756518e-08	1.321707e+01	1.151165e+03
2.340000e-06	1.753598e-06	1.734451e-08	1.233979e+01	1.136204e+03
2.350000e-06	1.628287e-06	1.711210e-08	1.145800e+01	1.119799e+03
2.360000e-06	1.502410e-06	1.687044e-08	1.057222e+01	1.102246e+03
2.370000e-06	1.376023e-06	1.661594e-08	9.682856e+00	1.083997e+03
2.380000e-06	1.249209e-06	1.634658e-08	8.790483e+00	1.065501e+03
2.390000e-06	1.121954e-06	1.606213e-08	7.895009e+00	1.047026e+03
2.400000e-06	9.943185e-07	1.576080e-08	6.996861e+00	1.028528e+03
2.410000e-06	8.663052e-07	1.544487e-08	6.096052e+00	1.009601e+03
2.420000e-06	7.379422e-07	1.511236e-08	5.192782e+00	9.895396e+02
2.430000e-06	6.093240e-07	1.476050e-08	4.287716e+00	9.674980e+02
2.440000e-06	4.805220e-07	1.438194e-08	3.381357e+00	9.427100e+02
2.450000e-06	3.515865e-07	1.396894e-08	2.474059e+00	9.146934e+02
2.460000e-06	2.224751e-07	1.352146e-08	1.565522e+00	8.833748e+02
2.470000e-06	9.322541e-08	1.304189e-08	6.560124e-01	8.490774e+02
2.480000e-06	-3.606043e-08	1.252252e-08	-2.537515e-01	8.123535e+02
2.490000e-06	-1.653146e-07	1.194896e-08	-1.163292e+00	7.736877e+02
2.500000e-06	-2.945131e-07	1.131719e-08	-2.072442e+00	7.331407e+02
2.510000e-06	-4.236097e-07	1.062196e-08	-2.980874e+00	6.900319e+02
2.520000e-06	-5.525800e-07	9.848462e-09	-3.888418e+00	6.427634e+02
2.530000e-06	-6.814188e-07	8.978553e-09	-4.795036e+00	5.888634e+02
2.540000e-06	-8.100799e-07	7.987969e-09	-5.700403e+00	5.252810e+02
2.550000e-06	-9.384565e-07	6.847622e-09	-6.603770e+00	4.489035e+02
2.560000e-06	-1.066376e-06	5.521068e-09	-7.503916e+00	3.572041e+02
2.570000e-06	-1.193779e-06	3.968671e-09	-8.400436e+00	2.488913e+02
2.580000e-06	-1.320759e-06	2.156024e-09	-9.293968e+00	1.244123e+02
2.590000e-06	-1.447386e-06	7.174082e-11	-1.018502e+01	-1.381331e+01
2.600000e-06	-1.573541e-06	-2.238815e-09	-1.107276e+01	-1.615025e+02
2.610000e-06	-1.699041e-06	-4.664231e-09	-1.195588e+01	-3.129634e+02
2.620000e-06	-1.823782e-06	-7.052509e-09	-1.283367e+01	-4.618209e+02
2.630000e-06	-1.947743e-06	-9.254408e-09	-1.370596e+01	-6.018818e+02
2.640000e-06	-2.070925e-06	-1.116985e-08	-1.457277e+01	-7.279730e+02
2.650000e-06	-2.193277e-06	-1.276754e-08	-1.543374e+01	-8.365945e+02
2.660000e-06	-2.314849e-06	-1.406768e-08	-1.628923e+01	-9.262666e+02
2.670000e-06	-2.435667e-06	-1.511395e-08	-1.713940e+01	-9.975203e+02
2.680000e-06	-2.555576e-06	-1.595777e-08	-1.798319e+01	-1.052552e+03
2.690000e-06	-2.674473e-06	-1.664453e-08	-1.881984e+01	-1.094636e+03
2.700000e-06	-2.792343e-06	-1.720920e-08	-1.964927e+01	-1.127428e+03
2.710000e-06	-2.909014e-06	-1.768005e-08	-2.047027e+01	-1.154315e+03
2.720000e-06	-3.024404e-06	-1.807890e-08	-2.128225e+01	-1.177925e+03
2.730000e-06	-3.138604e-06	-1.842196e-08	-2.208586e+01	-1.199886e+03
2.740000e-06	-3.251606e-06	-1.872161e-08	-2.288103e+01	-1.220843e+03
2.750000e-06	-3.363311e-06	-1.898771e-08	-2.366709e+01	-1.240685e+03
2.760000e-06	-3.473677e-06	-1.922696e-08	-2.444371e+01	-1.258898e+03
2.770000e-06	-3.582786e-06	-1.944475e-08	-2.521150e+01	-1.274931e+03
2.780000e-06	-3.690758e-06	-1.964321e-08	-2.597128e+01	-1.288488e+03
2.790000e-06	-3.797567e-06	-1.982324e-08	-2.672287e+01	-1.299670e+03
2.800000e-06	-3.903133e-06	-1.998793e-08	-2.746573e+01	-1.308966e+03
2.810000e-06	-4.007289e-06	-2.014129e-08	-2.819866e+01	-1.317113e+03
2.820000e-06	-4.109834e-06	-2.028554e-08	-2.892025e+01	-1.324877e+03
2.830000e-06	-4.210840e-06	-2.042037e-08	-2.963101e+01	-1.332851e+03
2.840000e-06	-4.310394e-06	-2.054655e-08	-3.033156e+01	-1.341308e+03
2.850000e-06	-4.408522e-06	-2.066522e-08	-3.102207e+01	-1.350169e+03
2.860000e-06	-4.505165e-06	-2.077824e-08	-3.170213e+01	-1.359071e+03
2.870000e-06	-4.600156e-06	-2.088472e-08	-3.237057e+01	-1.367517e+03
2.880000e-06	-4.693486e-06	-2.098340e-08	-3.302732e+01	-1.375051e+03
2.890000e-06	-4.785218e-06	-2.107591e-08	-3.367282e+01	-1.381410e+03
2.900000e-06	-4.875282e-06	-2.116182e-08	-3.430658e+01	-1.386603e+03
2.910000e-06	-4.963568e-06	-2.124288e-08	-3.492784e+01	-1.390902e+03
2.920000e-06	-5.049955e-06	-2.132200e-08	-3.553573e+01	-1.394750e+03
2.930000e-06	-5.134366e-06	-2.139891e-08	-3.612972e+01	-1.398621e+03
2.940000e-06	-5.216975e-06	-2.147396e-08	-3.671103e+01	-1.402884e+03
