# Temperatura_=_62.68
# Concentracion g/m^3_=_41000.0
# C_Vs_to_Am_M_A/Vsm_=_65563218390.804596
# pendiente_HvsI_1/m_=_3716.3
# ordenada_HvsI_A/m_=_1297.0
# frecuencia_Hz_=_302003.05611267086

Tiempo_(s)	Campo_(V.s)	Magnetizacion_(V.s)	Campo_(kA/m)	Magnetizacion_(A/m)
0.000000e+00	-6.728604e-06	-2.412497e-08	-4.747166e+01	-1.580296e+03
1.000000e-08	-6.725425e-06	-2.412435e-08	-4.744923e+01	-1.580618e+03
2.000000e-08	-6.720056e-06	-2.411571e-08	-4.741135e+01	-1.580481e+03
3.000000e-08	-6.712609e-06	-2.410655e-08	-4.735881e+01	-1.579799e+03
4.000000e-08	-6.702865e-06	-2.409671e-08	-4.729007e+01	-1.578627e+03
5.000000e-08	-6.690642e-06	-2.408236e-08	-4.720383e+01	-1.577138e+03
6.000000e-08	-6.675963e-06	-2.406091e-08	-4.710026e+01	-1.575578e+03
7.000000e-08	-6.658932e-06	-2.402860e-08	-4.698011e+01	-1.574179e+03
8.000000e-08	-6.639684e-06	-2.403667e-08	-4.684431e+01	-1.573097e+03
9.000000e-08	-6.618093e-06	-2.409281e-08	-4.669198e+01	-1.572359e+03
1.000000e-07	-6.593807e-06	-2.405169e-08	-4.652064e+01	-1.571858e+03
1.100000e-07	-6.566793e-06	-2.398052e-08	-4.633005e+01	-1.571392e+03
1.200000e-07	-6.537461e-06	-2.397274e-08	-4.612311e+01	-1.570724e+03
1.300000e-07	-6.506282e-06	-2.390660e-08	-4.590313e+01	-1.569660e+03
1.400000e-07	-6.473350e-06	-2.381017e-08	-4.567079e+01	-1.568109e+03
1.500000e-07	-6.438409e-06	-2.393005e-08	-4.542428e+01	-1.566110e+03
1.600000e-07	-6.401376e-06	-2.388851e-08	-4.516300e+01	-1.563816e+03
1.700000e-07	-6.362381e-06	-2.375524e-08	-4.488788e+01	-1.561446e+03
1.800000e-07	-6.321096e-06	-2.385170e-08	-4.459660e+01	-1.559206e+03
1.900000e-07	-6.277304e-06	-2.374433e-08	-4.428764e+01	-1.557229e+03
2.000000e-07	-6.231255e-06	-2.371724e-08	-4.396276e+01	-1.555523e+03
2.100000e-07	-6.182808e-06	-2.376231e-08	-4.362096e+01	-1.553967e+03
2.200000e-07	-6.131739e-06	-2.365259e-08	-4.326066e+01	-1.552347e+03
2.300000e-07	-6.078136e-06	-2.362682e-08	-4.288248e+01	-1.550422e+03
2.400000e-07	-6.022190e-06	-2.358258e-08	-4.248777e+01	-1.547999e+03
2.500000e-07	-5.963965e-06	-2.352496e-08	-4.207698e+01	-1.544994e+03
2.600000e-07	-5.903516e-06	-2.349704e-08	-4.165049e+01	-1.541459e+03
2.700000e-07	-5.840996e-06	-2.343923e-08	-4.120941e+01	-1.537571e+03
2.800000e-07	-5.776339e-06	-2.337653e-08	-4.075324e+01	-1.533571e+03
2.900000e-07	-5.709417e-06	-2.329768e-08	-4.028108e+01	-1.529694e+03
3.000000e-07	-5.640301e-06	-2.327586e-08	-3.979346e+01	-1.526093e+03
3.100000e-07	-5.569074e-06	-2.322862e-08	-3.929094e+01	-1.522788e+03
3.200000e-07	-5.495759e-06	-2.316797e-08	-3.877369e+01	-1.519657e+03
3.300000e-07	-5.420330e-06	-2.311249e-08	-3.824152e+01	-1.516474e+03
3.400000e-07	-5.342706e-06	-2.302080e-08	-3.769387e+01	-1.512979e+03
3.500000e-07	-5.262908e-06	-2.296508e-08	-3.713088e+01	-1.508955e+03
3.600000e-07	-5.181136e-06	-2.288892e-08	-3.655396e+01	-1.504299e+03
3.700000e-07	-5.097683e-06	-2.282288e-08	-3.596518e+01	-1.499056e+03
3.800000e-07	-5.012597e-06	-2.276268e-08	-3.536488e+01	-1.493404e+03
3.900000e-07	-4.925825e-06	-2.267708e-08	-3.475269e+01	-1.487599e+03
4.000000e-07	-4.837397e-06	-2.258892e-08	-3.412881e+01	-1.481893e+03
4.100000e-07	-4.747236e-06	-2.250809e-08	-3.349271e+01	-1.476455e+03
4.200000e-07	-4.655332e-06	-2.243103e-08	-3.284431e+01	-1.471311e+03
4.300000e-07	-4.561818e-06	-2.233394e-08	-3.218455e+01	-1.466333e+03
4.400000e-07	-4.466756e-06	-2.224010e-08	-3.151386e+01	-1.461273e+03
4.500000e-07	-4.370052e-06	-2.214440e-08	-3.083160e+01	-1.455843e+03
4.600000e-07	-4.271651e-06	-2.204125e-08	-3.013736e+01	-1.449797e+03
4.700000e-07	-4.171725e-06	-2.194566e-08	-2.943236e+01	-1.443014e+03
4.800000e-07	-4.070358e-06	-2.184910e-08	-2.871720e+01	-1.435534e+03
4.900000e-07	-3.967601e-06	-2.174206e-08	-2.799222e+01	-1.427548e+03
5.000000e-07	-3.863461e-06	-2.162272e-08	-2.725750e+01	-1.419335e+03
5.100000e-07	-3.757812e-06	-2.150405e-08	-2.651212e+01	-1.411172e+03
5.200000e-07	-3.650662e-06	-2.138118e-08	-2.575615e+01	-1.403239e+03
5.300000e-07	-3.542178e-06	-2.125143e-08	-2.499078e+01	-1.395556e+03
5.400000e-07	-3.432491e-06	-2.111920e-08	-2.421692e+01	-1.387960e+03
5.500000e-07	-3.321601e-06	-2.098377e-08	-2.343456e+01	-1.380152e+03
5.600000e-07	-3.209478e-06	-2.084362e-08	-2.264352e+01	-1.371778e+03
5.700000e-07	-3.096057e-06	-2.069570e-08	-2.184330e+01	-1.362539e+03
5.800000e-07	-2.981254e-06	-2.054319e-08	-2.103335e+01	-1.352286e+03
5.900000e-07	-2.865116e-06	-2.038326e-08	-2.021397e+01	-1.341065e+03
6.000000e-07	-2.747846e-06	-2.021504e-08	-1.938661e+01	-1.329106e+03
6.100000e-07	-2.629658e-06	-2.004016e-08	-1.855277e+01	-1.316753e+03
6.200000e-07	-2.510531e-06	-1.985846e-08	-1.771230e+01	-1.304350e+03
6.300000e-07	-2.390419e-06	-1.967011e-08	-1.686489e+01	-1.292120e+03
6.400000e-07	-2.269400e-06	-1.947414e-08	-1.601107e+01	-1.280079e+03
6.500000e-07	-2.147539e-06	-1.926989e-08	-1.515132e+01	-1.268011e+03
6.600000e-07	-2.024920e-06	-1.905517e-08	-1.428622e+01	-1.255516e+03
6.700000e-07	-1.901548e-06	-1.883150e-08	-1.341581e+01	-1.242115e+03
6.800000e-07	-1.777446e-06	-1.859983e-08	-1.254024e+01	-1.227393e+03
6.900000e-07	-1.652710e-06	-1.835748e-08	-1.166020e+01	-1.211123e+03
7.000000e-07	-1.527471e-06	-1.810428e-08	-1.077662e+01	-1.193337e+03
7.100000e-07	-1.401865e-06	-1.783858e-08	-9.890439e+00	-1.174313e+03
7.200000e-07	-1.275865e-06	-1.755860e-08	-9.001488e+00	-1.154480e+03
7.300000e-07	-1.149452e-06	-1.726202e-08	-8.109615e+00	-1.134263e+03
7.400000e-07	-1.022672e-06	-1.694739e-08	-7.215161e+00	-1.113914e+03
7.500000e-07	-8.955538e-07	-1.661510e-08	-6.318313e+00	-1.093378e+03
7.600000e-07	-7.680658e-07	-1.626381e-08	-5.418859e+00	-1.072246e+03
7.700000e-07	-6.402467e-07	-1.588915e-08	-4.517069e+00	-1.049821e+03
7.800000e-07	-5.122235e-07	-1.549068e-08	-3.613840e+00	-1.025270e+03
7.900000e-07	-3.840243e-07	-1.506860e-08	-2.709369e+00	-9.978408e+02
8.000000e-07	-2.556434e-07	-1.461572e-08	-1.803616e+00	-9.670576e+02
8.100000e-07	-1.270464e-07	-1.412566e-08	-8.963382e-01	-9.328446e+02
8.200000e-07	1.630482e-09	-1.359457e-08	1.150338e-02	-8.955112e+02
8.300000e-07	1.302613e-07	-1.301872e-08	9.190195e-01	-8.555853e+02
8.400000e-07	2.588654e-07	-1.239130e-08	1.826348e+00	-8.135213e+02
8.500000e-07	3.874151e-07	-1.170285e-08	2.733292e+00	-7.693495e+02
8.600000e-07	5.158208e-07	-1.094328e-08	3.639220e+00	-7.223643e+02
8.700000e-07	6.440572e-07	-1.010002e-08	4.543954e+00	-6.709524e+02
8.800000e-07	7.721114e-07	-9.158546e-09	5.447401e+00	-6.126373e+02
8.900000e-07	8.998795e-07	-8.093384e-09	6.348831e+00	-5.443725e+02
9.000000e-07	1.027262e-06	-6.870583e-09	7.247538e+00	-4.630531e+02
9.100000e-07	1.154256e-06	-5.451030e-09	8.143511e+00	-3.661588e+02
9.200000e-07	1.280871e-06	-3.792071e-09	9.036804e+00	-2.523981e+02
9.300000e-07	1.407056e-06	-1.855946e-09	9.927066e+00	-1.222104e+02
9.400000e-07	1.532838e-06	3.521798e-10	1.081448e+01	2.199779e+01
9.500000e-07	1.658209e-06	2.741764e-09	1.169900e+01	1.759549e+02
9.600000e-07	1.783091e-06	5.193495e-09	1.258006e+01	3.339690e+02
9.700000e-07	1.907364e-06	7.618934e-09	1.345684e+01	4.896424e+02
9.800000e-07	2.030852e-06	9.895273e-09	1.432807e+01	6.367283e+02
9.900000e-07	2.153493e-06	1.189195e-08	1.519333e+01	7.699649e+02
1.000000e-06	2.275340e-06	1.356574e-08	1.605298e+01	8.857309e+02
1.010000e-06	2.396314e-06	1.493919e-08	1.690648e+01	9.824021e+02
1.020000e-06	2.516234e-06	1.605795e-08	1.775254e+01	1.060357e+03
1.030000e-06	2.635166e-06	1.697237e-08	1.859163e+01	1.121648e+03
1.040000e-06	2.753217e-06	1.772562e-08	1.942450e+01	1.169435e+03
1.050000e-06	2.870310e-06	1.835164e-08	2.025062e+01	1.207300e+03
1.060000e-06	2.986300e-06	1.887776e-08	2.106895e+01	1.238602e+03
1.070000e-06	3.101041e-06	1.932622e-08	2.187847e+01	1.265992e+03
1.080000e-06	3.214512e-06	1.971439e-08	2.267903e+01	1.291161e+03
1.090000e-06	3.326690e-06	2.005308e-08	2.347047e+01	1.314840e+03
1.100000e-06	3.437624e-06	2.035152e-08	2.425313e+01	1.337018e+03
1.110000e-06	3.547411e-06	2.062013e-08	2.502770e+01	1.357271e+03
1.120000e-06	3.656072e-06	2.086502e-08	2.579432e+01	1.375125e+03
1.130000e-06	3.763585e-06	2.108829e-08	2.655285e+01	1.390334e+03
1.140000e-06	3.869792e-06	2.129184e-08	2.730216e+01	1.403029e+03
1.150000e-06	3.974499e-06	2.147794e-08	2.804089e+01	1.413706e+03
1.160000e-06	4.077730e-06	2.164878e-08	2.876921e+01	1.423100e+03
1.170000e-06	4.179561e-06	2.180830e-08	2.948765e+01	1.431971e+03
1.180000e-06	4.279923e-06	2.195945e-08	3.019572e+01	1.440911e+03
1.190000e-06	4.378813e-06	2.210228e-08	3.089341e+01	1.450201e+03
1.200000e-06	4.476090e-06	2.223491e-08	3.157972e+01	1.459775e+03
1.210000e-06	4.571594e-06	2.235615e-08	3.225352e+01	1.469292e+03
1.220000e-06	4.665489e-06	2.246959e-08	3.291596e+01	1.478275e+03
1.230000e-06	4.757889e-06	2.257621e-08	3.356787e+01	1.486288e+03
1.240000e-06	4.848717e-06	2.267517e-08	3.420868e+01	1.493081e+03
1.250000e-06	4.937732e-06	2.276730e-08	3.483669e+01	1.498669e+03
1.260000e-06	5.024872e-06	2.285583e-08	3.545148e+01	1.503324e+03
1.270000e-06	5.110243e-06	2.294119e-08	3.605379e+01	1.507485e+03
1.280000e-06	5.193814e-06	2.302231e-08	3.664340e+01	1.511625e+03
1.290000e-06	5.275545e-06	2.310092e-08	3.722004e+01	1.516112e+03
1.300000e-06	5.355343e-06	2.317584e-08	3.778302e+01	1.521105e+03
1.310000e-06	5.433137e-06	2.324601e-08	3.833188e+01	1.526526e+03
1.320000e-06	5.508901e-06	2.331258e-08	3.886641e+01	1.532096e+03
1.330000e-06	5.582545e-06	2.337628e-08	3.938598e+01	1.537435e+03
1.340000e-06	5.654079e-06	2.343555e-08	3.989067e+01	1.542187e+03
1.350000e-06	5.723586e-06	2.349007e-08	4.038105e+01	1.546130e+03
1.360000e-06	5.791061e-06	2.354183e-08	4.085710e+01	1.549240e+03
1.370000e-06	5.856405e-06	2.359179e-08	4.131812e+01	1.551692e+03
1.380000e-06	5.919639e-06	2.364024e-08	4.176425e+01	1.553797e+03
1.390000e-06	5.980929e-06	2.368643e-08	4.219666e+01	1.555907e+03
1.400000e-06	6.040265e-06	2.373026e-08	4.261528e+01	1.558297e+03
1.410000e-06	6.097391e-06	2.377070e-08	4.301832e+01	1.561095e+03
1.420000e-06	6.152302e-06	2.380736e-08	4.340573e+01	1.564241e+03
1.430000e-06	6.204966e-06	2.384186e-08	4.377729e+01	1.567518e+03
1.440000e-06	6.255063e-06	2.387512e-08	4.413073e+01	1.570627e+03
1.450000e-06	6.302625e-06	2.390722e-08	4.446629e+01	1.573283e+03
1.460000e-06	6.347990e-06	2.393820e-08	4.478635e+01	1.575305e+03
1.470000e-06	6.391276e-06	2.396773e-08	4.509174e+01	1.576672e+03
1.480000e-06	6.432167e-06	2.399425e-08	4.538024e+01	1.577524e+03
1.490000e-06	6.470702e-06	2.401672e-08	4.565211e+01	1.578121e+03
1.500000e-06	6.507154e-06	2.403773e-08	4.590928e+01	1.578752e+03
1.510000e-06	6.541303e-06	2.405750e-08	4.615021e+01	1.579650e+03
1.520000e-06	6.573020e-06	2.407470e-08	4.637398e+01	1.580924e+03
1.530000e-06	6.602490e-06	2.409058e-08	4.658190e+01	1.582522e+03
1.540000e-06	6.629769e-06	2.410507e-08	4.677436e+01	1.584259e+03
1.550000e-06	6.654593e-06	2.411786e-08	4.694950e+01	1.585875e+03
1.560000e-06	6.676907e-06	2.413047e-08	4.710693e+01	1.587119e+03
1.570000e-06	6.697002e-06	2.414307e-08	4.724870e+01	1.587832e+03
1.580000e-06	6.714735e-06	2.415583e-08	4.737381e+01	1.587990e+03
1.590000e-06	6.729914e-06	2.416583e-08	4.748090e+01	1.587716e+03
1.600000e-06	6.742627e-06	2.417404e-08	4.757059e+01	1.587235e+03
1.610000e-06	6.752674e-06	2.418162e-08	4.764148e+01	1.586807e+03
1.620000e-06	6.760060e-06	2.418414e-08	4.769359e+01	1.586638e+03
1.630000e-06	6.765133e-06	2.418419e-08	4.772938e+01	1.586822e+03
1.640000e-06	6.767884e-06	2.418343e-08	4.774878e+01	1.587311e+03
1.650000e-06	6.768162e-06	2.418493e-08	4.775075e+01	1.587929e+03
1.660000e-06	6.766138e-06	2.417874e-08	4.773647e+01	1.588431e+03
1.670000e-06	6.761997e-06	2.417305e-08	4.770725e+01	1.588578e+03
1.680000e-06	6.755547e-06	2.417156e-08	4.766175e+01	1.588214e+03
1.690000e-06	6.746849e-06	2.416544e-08	4.760038e+01	1.587310e+03
1.700000e-06	6.736070e-06	2.415882e-08	4.752434e+01	1.585977e+03
1.710000e-06	6.722967e-06	2.415606e-08	4.743189e+01	1.584430e+03
1.720000e-06	6.707482e-06	2.416929e-08	4.732264e+01	1.582916e+03
1.730000e-06	6.689908e-06	2.412380e-08	4.719865e+01	1.581644e+03
1.740000e-06	6.670100e-06	2.401063e-08	4.705890e+01	1.580716e+03
1.750000e-06	6.647288e-06	2.402475e-08	4.689796e+01	1.580102e+03
1.760000e-06	6.621350e-06	2.405395e-08	4.671496e+01	1.579648e+03
1.770000e-06	6.592944e-06	2.402211e-08	4.651455e+01	1.579126e+03
1.780000e-06	6.562503e-06	2.411741e-08	4.629978e+01	1.578310e+03
1.790000e-06	6.530493e-06	2.406890e-08	4.607395e+01	1.577044e+03
1.800000e-06	6.496911e-06	2.391089e-08	4.583702e+01	1.575291e+03
1.810000e-06	6.460964e-06	2.403781e-08	4.558341e+01	1.573145e+03
1.820000e-06	6.422612e-06	2.395107e-08	4.531282e+01	1.570793e+03
1.830000e-06	6.382128e-06	2.390622e-08	4.502720e+01	1.568459e+03
1.840000e-06	6.339485e-06	2.400077e-08	4.472634e+01	1.566325e+03
1.850000e-06	6.294774e-06	2.377873e-08	4.441090e+01	1.564474e+03
1.860000e-06	6.247712e-06	2.381577e-08	4.407887e+01	1.562856e+03
1.870000e-06	6.198256e-06	2.381492e-08	4.372994e+01	1.561305e+03
1.880000e-06	6.146474e-06	2.373630e-08	4.336462e+01	1.559586e+03
1.890000e-06	6.092036e-06	2.379935e-08	4.298054e+01	1.557469e+03
1.900000e-06	6.035165e-06	2.363550e-08	4.257931e+01	1.554801e+03
1.910000e-06	5.976107e-06	2.363239e-08	4.216264e+01	1.551557e+03
1.920000e-06	5.914900e-06	2.362911e-08	4.173081e+01	1.547847e+03
1.930000e-06	5.851581e-06	2.355611e-08	4.128409e+01	1.543882e+03
1.940000e-06	5.786027e-06	2.354889e-08	4.082158e+01	1.539912e+03
1.950000e-06	5.718303e-06	2.341371e-08	4.034378e+01	1.536145e+03
1.960000e-06	5.648285e-06	2.342287e-08	3.984979e+01	1.532679e+03
1.970000e-06	5.576051e-06	2.332832e-08	3.934017e+01	1.529474e+03
1.980000e-06	5.501834e-06	2.326196e-08	3.881655e+01	1.526355e+03
1.990000e-06	5.425497e-06	2.325397e-08	3.827798e+01	1.523073e+03
2.000000e-06	5.347014e-06	2.315750e-08	3.772426e+01	1.519374e+03
2.010000e-06	5.266497e-06	2.312182e-08	3.715620e+01	1.515087e+03
2.020000e-06	5.184175e-06	2.299830e-08	3.657540e+01	1.510168e+03
2.030000e-06	5.100139e-06	2.294927e-08	3.598251e+01	1.504724e+03
2.040000e-06	5.014261e-06	2.288746e-08	3.537662e+01	1.498976e+03
2.050000e-06	4.926507e-06	2.279632e-08	3.475750e+01	1.493189e+03
2.060000e-06	4.837057e-06	2.272530e-08	3.412641e+01	1.487588e+03
2.070000e-06	4.746049e-06	2.263860e-08	3.348433e+01	1.482284e+03
2.080000e-06	4.653402e-06	2.257588e-08	3.283069e+01	1.477238e+03
2.090000e-06	4.558965e-06	2.246764e-08	3.216442e+01	1.472262e+03
2.100000e-06	4.462849e-06	2.238346e-08	3.148630e+01	1.467082e+03
2.110000e-06	4.365323e-06	2.228659e-08	3.079823e+01	1.461414e+03
2.120000e-06	4.266416e-06	2.219300e-08	3.010043e+01	1.455061e+03
2.130000e-06	4.166049e-06	2.209353e-08	2.939232e+01	1.447968e+03
2.140000e-06	4.064052e-06	2.198370e-08	2.867271e+01	1.440243e+03
2.150000e-06	3.960372e-06	2.187286e-08	2.794122e+01	1.432126e+03
2.160000e-06	3.855239e-06	2.175651e-08	2.719949e+01	1.423907e+03
2.170000e-06	3.748848e-06	2.165416e-08	2.644888e+01	1.415832e+03
2.180000e-06	3.641261e-06	2.153555e-08	2.568983e+01	1.408018e+03
2.190000e-06	3.532378e-06	2.141472e-08	2.492164e+01	1.400404e+03
2.200000e-06	3.422116e-06	2.127976e-08	2.414372e+01	1.392762e+03
2.210000e-06	3.310437e-06	2.114656e-08	2.335580e+01	1.384756e+03
2.220000e-06	3.197472e-06	2.100088e-08	2.255881e+01	1.376044e+03
2.230000e-06	3.083363e-06	2.085159e-08	2.175374e+01	1.366381e+03
2.240000e-06	2.968082e-06	2.069987e-08	2.094042e+01	1.355698e+03
2.250000e-06	2.851639e-06	2.054084e-08	2.011889e+01	1.344126e+03
2.260000e-06	2.733965e-06	2.037362e-08	1.928868e+01	1.331957e+03
2.270000e-06	2.615096e-06	2.020069e-08	1.845003e+01	1.319548e+03
2.280000e-06	2.495136e-06	2.002719e-08	1.760369e+01	1.307205e+03
2.290000e-06	2.374312e-06	1.983922e-08	1.675125e+01	1.295070e+03
2.300000e-06	2.252806e-06	1.964109e-08	1.589400e+01	1.283060e+03
2.310000e-06	2.130605e-06	1.943359e-08	1.503184e+01	1.270868e+03
2.320000e-06	2.007704e-06	1.922330e-08	1.416476e+01	1.258045e+03
2.330000e-06	1.884109e-06	1.900215e-08	1.329277e+01	1.244123e+03
2.340000e-06	1.759788e-06	1.876731e-08	1.241566e+01	1.228754e+03
2.350000e-06	1.634782e-06	1.851940e-08	1.153372e+01	1.211818e+03
2.360000e-06	1.509269e-06	1.826239e-08	1.064820e+01	1.193458e+03
2.370000e-06	1.383319e-06	1.799458e-08	9.759592e+00	1.174033e+03
2.380000e-06	1.256919e-06	1.771183e-08	8.867818e+00	1.153993e+03
2.390000e-06	1.130130e-06	1.741291e-08	7.973292e+00	1.133708e+03
2.400000e-06	1.002948e-06	1.709094e-08	7.076002e+00	1.113308e+03
2.410000e-06	8.753678e-07	1.674985e-08	6.175896e+00	1.092589e+03
2.420000e-06	7.474115e-07	1.639110e-08	5.273139e+00	1.071003e+03
2.430000e-06	6.190950e-07	1.601330e-08	4.367840e+00	1.047772e+03
2.440000e-06	4.905597e-07	1.561110e-08	3.460998e+00	1.022071e+03
2.450000e-06	3.618856e-07	1.517519e-08	2.553176e+00	9.932434e+02
2.460000e-06	2.330317e-07	1.470412e-08	1.644085e+00	9.609778e+02
2.470000e-06	1.040546e-07	1.419818e-08	7.341262e-01	9.253742e+02
2.480000e-06	-2.491823e-08	1.365313e-08	-1.758031e-01	8.868643e+02
2.490000e-06	-1.538621e-07	1.305973e-08	-1.085528e+00	8.459859e+02
2.500000e-06	-2.827731e-07	1.240897e-08	-1.995021e+00	8.030545e+02
2.510000e-06	-4.116109e-07	1.169314e-08	-2.903998e+00	7.578172e+02
2.520000e-06	-5.402882e-07	1.090235e-08	-3.811842e+00	7.091893e+02
2.530000e-06	-6.687419e-07	1.002370e-08	-4.718109e+00	6.551676e+02
2.540000e-06	-7.970636e-07	9.036881e-09	-5.623445e+00	5.929813e+02
2.550000e-06	-9.251555e-07	7.915893e-09	-6.527159e+00	5.194859e+02
2.560000e-06	-1.052799e-06	6.625399e-09	-7.427708e+00	4.317451e+02
2.570000e-06	-1.180019e-06	5.123102e-09	-8.325275e+00	3.276914e+02
2.580000e-06	-1.306733e-06	3.367660e-09	-9.219264e+00	2.067266e+02
2.590000e-06	-1.432905e-06	1.329331e-09	-1.010943e+01	7.012316e+01
2.600000e-06	-1.558740e-06	-9.733210e-10	-1.099722e+01	-7.887994e+01
2.610000e-06	-1.684062e-06	-3.442354e-09	-1.188140e+01	-2.353298e+02
2.620000e-06	-1.808615e-06	-5.953646e-09	-1.276014e+01	-3.931327e+02
2.630000e-06	-1.932334e-06	-8.384294e-09	-1.363301e+01	-5.458483e+02
2.640000e-06	-2.055226e-06	-1.059275e-08	-1.450003e+01	-6.875568e+02
2.650000e-06	-2.177378e-06	-1.248944e-08	-1.536184e+01	-8.136346e+02
2.660000e-06	-2.298787e-06	-1.406762e-08	-1.621841e+01	-9.212926e+02
2.670000e-06	-2.419427e-06	-1.535817e-08	-1.706955e+01	-1.009785e+03
2.680000e-06	-2.539095e-06	-1.640729e-08	-1.791383e+01	-1.080265e+03
2.690000e-06	-2.657710e-06	-1.726383e-08	-1.875068e+01	-1.135338e+03
2.700000e-06	-2.775293e-06	-1.797075e-08	-1.958025e+01	-1.178431e+03
2.710000e-06	-2.891654e-06	-1.856368e-08	-2.040120e+01	-1.213101e+03
2.720000e-06	-3.006814e-06	-1.906629e-08	-2.121368e+01	-1.242453e+03
2.730000e-06	-3.120765e-06	-1.949496e-08	-2.201762e+01	-1.268739e+03
2.740000e-06	-3.233457e-06	-1.986593e-08	-2.281269e+01	-1.293228e+03
2.750000e-06	-3.344904e-06	-2.019067e-08	-2.359897e+01	-1.316295e+03
2.760000e-06	-3.455030e-06	-2.047653e-08	-2.437594e+01	-1.337707e+03
2.770000e-06	-3.563949e-06	-2.073265e-08	-2.514438e+01	-1.356980e+03
2.780000e-06	-3.671740e-06	-2.096682e-08	-2.590486e+01	-1.373707e+03
2.790000e-06	-3.778405e-06	-2.118148e-08	-2.665741e+01	-1.387797e+03
2.800000e-06	-3.883865e-06	-2.137665e-08	-2.740145e+01	-1.399545e+03
2.810000e-06	-3.987885e-06	-2.155591e-08	-2.813533e+01	-1.409573e+03
2.820000e-06	-4.090367e-06	-2.172339e-08	-2.885836e+01	-1.418652e+03
2.830000e-06	-4.191304e-06	-2.187972e-08	-2.957049e+01	-1.427494e+03
2.840000e-06	-4.290743e-06	-2.202619e-08	-3.027206e+01	-1.436567e+03
2.850000e-06	-4.388738e-06	-2.216293e-08	-3.096343e+01	-1.446003e+03
2.860000e-06	-4.485257e-06	-2.228979e-08	-3.164439e+01	-1.455603e+03
2.870000e-06	-4.580197e-06	-2.240811e-08	-3.231422e+01	-1.464948e+03
2.880000e-06	-4.673434e-06	-2.251709e-08	-3.297202e+01	-1.473558e+03
2.890000e-06	-4.764967e-06	-2.261752e-08	-3.361780e+01	-1.481062e+03
2.900000e-06	-4.854850e-06	-2.271134e-08	-3.425194e+01	-1.487318e+03
2.910000e-06	-4.942975e-06	-2.280136e-08	-3.487368e+01	-1.492457e+03
2.920000e-06	-5.029209e-06	-2.288925e-08	-3.548209e+01	-1.496839e+03
2.930000e-06	-5.113559e-06	-2.297371e-08	-3.607719e+01	-1.500933e+03
2.940000e-06	-5.196136e-06	-2.305418e-08	-3.665979e+01	-1.505185e+03
