# Temperatura_=_30.51
# Concentracion g/m^3_=_28200.0
# C_Vs_to_Am_M_A/Vsm_=_65563218390.804596
# pendiente_HvsI_1/m_=_3716.3
# ordenada_HvsI_A/m_=_1297.0
# frecuencia_Hz_=_301765.3320201286

Tiempo_(s)	Campo_(V.s)	Magnetizacion_(V.s)	Campo_(kA/m)	Magnetizacion_(A/m)
0.000000e+00	-5.333203e-06	-1.949000e-08	-3.829479e+01	-1.273022e+03
1.000000e-08	-5.330701e-06	-1.948868e-08	-3.827683e+01	-1.272709e+03
2.000000e-08	-5.326418e-06	-1.947776e-08	-3.824608e+01	-1.272271e+03
3.000000e-08	-5.320508e-06	-1.946863e-08	-3.820364e+01	-1.271693e+03
4.000000e-08	-5.313000e-06	-1.945794e-08	-3.814973e+01	-1.270946e+03
5.000000e-08	-5.303771e-06	-1.943910e-08	-3.808346e+01	-1.270003e+03
6.000000e-08	-5.292517e-06	-1.941362e-08	-3.800265e+01	-1.268841e+03
7.000000e-08	-5.279312e-06	-1.937329e-08	-3.790783e+01	-1.267454e+03
8.000000e-08	-5.264105e-06	-1.936871e-08	-3.779864e+01	-1.265860e+03
9.000000e-08	-5.246693e-06	-1.943997e-08	-3.767361e+01	-1.264096e+03
1.000000e-07	-5.227242e-06	-1.940758e-08	-3.753395e+01	-1.262215e+03
1.100000e-07	-5.205839e-06	-1.931440e-08	-3.738027e+01	-1.260276e+03
1.200000e-07	-5.182686e-06	-1.926795e-08	-3.721401e+01	-1.258330e+03
1.300000e-07	-5.158055e-06	-1.910519e-08	-3.703715e+01	-1.256408e+03
1.400000e-07	-5.131863e-06	-1.911697e-08	-3.684908e+01	-1.254512e+03
1.500000e-07	-5.104022e-06	-1.926559e-08	-3.664917e+01	-1.252613e+03
1.600000e-07	-5.074664e-06	-1.904250e-08	-3.643837e+01	-1.250654e+03
1.700000e-07	-5.043796e-06	-1.908042e-08	-3.621673e+01	-1.248563e+03
1.800000e-07	-5.011014e-06	-1.917480e-08	-3.598133e+01	-1.246260e+03
1.900000e-07	-4.976263e-06	-1.885353e-08	-3.573181e+01	-1.243680e+03
2.000000e-07	-4.939962e-06	-1.887471e-08	-3.547115e+01	-1.240776e+03
2.100000e-07	-4.902009e-06	-1.891750e-08	-3.519863e+01	-1.237532e+03
2.200000e-07	-4.862303e-06	-1.875017e-08	-3.491352e+01	-1.233957e+03
2.300000e-07	-4.820752e-06	-1.877999e-08	-3.461516e+01	-1.230084e+03
2.400000e-07	-4.777219e-06	-1.870044e-08	-3.430258e+01	-1.225958e+03
2.500000e-07	-4.731883e-06	-1.858395e-08	-3.397705e+01	-1.221624e+03
2.600000e-07	-4.684777e-06	-1.856809e-08	-3.363880e+01	-1.217115e+03
2.700000e-07	-4.635684e-06	-1.843252e-08	-3.328630e+01	-1.212449e+03
2.800000e-07	-4.584493e-06	-1.837922e-08	-3.291872e+01	-1.207624e+03
2.900000e-07	-4.531359e-06	-1.832296e-08	-3.253719e+01	-1.202623e+03
3.000000e-07	-4.476556e-06	-1.821002e-08	-3.214368e+01	-1.197418e+03
3.100000e-07	-4.420159e-06	-1.813421e-08	-3.173873e+01	-1.191983e+03
3.200000e-07	-4.361935e-06	-1.807036e-08	-3.132066e+01	-1.186296e+03
3.300000e-07	-4.302084e-06	-1.799076e-08	-3.089090e+01	-1.180343e+03
3.400000e-07	-4.240832e-06	-1.786386e-08	-3.045108e+01	-1.174124e+03
3.500000e-07	-4.178104e-06	-1.777376e-08	-3.000067e+01	-1.167647e+03
3.600000e-07	-4.113931e-06	-1.765442e-08	-2.953987e+01	-1.160920e+03
3.700000e-07	-4.048209e-06	-1.754083e-08	-2.906796e+01	-1.153951e+03
3.800000e-07	-3.980908e-06	-1.748307e-08	-2.858471e+01	-1.146743e+03
3.900000e-07	-3.912170e-06	-1.735445e-08	-2.809114e+01	-1.139286e+03
4.000000e-07	-3.842146e-06	-1.721897e-08	-2.758833e+01	-1.131564e+03
4.100000e-07	-3.770956e-06	-1.709715e-08	-2.707716e+01	-1.123554e+03
4.200000e-07	-3.698522e-06	-1.695366e-08	-2.655705e+01	-1.115233e+03
4.300000e-07	-3.624560e-06	-1.682164e-08	-2.602597e+01	-1.106580e+03
4.400000e-07	-3.548998e-06	-1.669745e-08	-2.548340e+01	-1.097579e+03
4.500000e-07	-3.472010e-06	-1.657138e-08	-2.493059e+01	-1.088218e+03
4.600000e-07	-3.393637e-06	-1.640547e-08	-2.436784e+01	-1.078493e+03
4.700000e-07	-3.313850e-06	-1.623039e-08	-2.379494e+01	-1.068398e+03
4.800000e-07	-3.232763e-06	-1.607112e-08	-2.321269e+01	-1.057926e+03
4.900000e-07	-3.150544e-06	-1.591427e-08	-2.262232e+01	-1.047064e+03
5.000000e-07	-3.067355e-06	-1.575878e-08	-2.202499e+01	-1.035795e+03
5.100000e-07	-2.983322e-06	-1.558029e-08	-2.142160e+01	-1.024092e+03
5.200000e-07	-2.898366e-06	-1.538768e-08	-2.081157e+01	-1.011929e+03
5.300000e-07	-2.812439e-06	-1.518081e-08	-2.019458e+01	-9.992751e+02
5.400000e-07	-2.725584e-06	-1.496915e-08	-1.957092e+01	-9.861017e+02
5.500000e-07	-2.637821e-06	-1.476658e-08	-1.894074e+01	-9.723835e+02
5.600000e-07	-2.549066e-06	-1.455716e-08	-1.830344e+01	-9.580971e+02
5.700000e-07	-2.459200e-06	-1.433334e-08	-1.765816e+01	-9.432199e+02
5.800000e-07	-2.368305e-06	-1.408873e-08	-1.700549e+01	-9.277270e+02
5.900000e-07	-2.276498e-06	-1.383548e-08	-1.634628e+01	-9.115889e+02
6.000000e-07	-2.183902e-06	-1.357686e-08	-1.568140e+01	-8.947695e+02
6.100000e-07	-2.090570e-06	-1.331562e-08	-1.501123e+01	-8.772260e+02
6.200000e-07	-1.996464e-06	-1.304198e-08	-1.433551e+01	-8.589099e+02
6.300000e-07	-1.901659e-06	-1.274444e-08	-1.365477e+01	-8.397699e+02
6.400000e-07	-1.806245e-06	-1.243122e-08	-1.296965e+01	-8.197542e+02
6.500000e-07	-1.710189e-06	-1.210638e-08	-1.227992e+01	-7.988122e+02
6.600000e-07	-1.613444e-06	-1.177086e-08	-1.158525e+01	-7.768954e+02
6.700000e-07	-1.516004e-06	-1.142254e-08	-1.088559e+01	-7.539558e+02
6.800000e-07	-1.417937e-06	-1.105975e-08	-1.018142e+01	-7.299436e+02
6.900000e-07	-1.319325e-06	-1.067552e-08	-9.473344e+00	-7.048051e+02
7.000000e-07	-1.220222e-06	-1.026954e-08	-8.761745e+00	-6.784818e+02
7.100000e-07	-1.120681e-06	-9.845781e-09	-8.046995e+00	-6.509121e+02
7.200000e-07	-1.020805e-06	-9.406393e-09	-7.329837e+00	-6.220370e+02
7.300000e-07	-9.206735e-07	-8.947001e-09	-6.610850e+00	-5.918087e+02
7.400000e-07	-8.202941e-07	-8.463362e-09	-5.890080e+00	-5.602015e+02
7.500000e-07	-7.196886e-07	-7.961131e-09	-5.167688e+00	-5.272235e+02
7.600000e-07	-6.188524e-07	-7.440370e-09	-4.443639e+00	-4.929251e+02
7.700000e-07	-5.178136e-07	-6.900855e-09	-3.718134e+00	-4.574044e+02
7.800000e-07	-4.166172e-07	-6.345412e-09	-2.991499e+00	-4.208052e+02
7.900000e-07	-3.152944e-07	-5.775365e-09	-2.263956e+00	-3.833093e+02
8.000000e-07	-2.138278e-07	-5.191835e-09	-1.535380e+00	-3.451219e+02
8.100000e-07	-1.122012e-07	-4.600525e-09	-8.056548e-01	-3.064528e+02
8.200000e-07	-1.049391e-08	-4.008682e-09	-7.535097e-02	-2.674961e+02
8.300000e-07	9.120363e-08	-3.417672e-09	6.548831e-01	-2.284110e+02
8.400000e-07	1.928405e-07	-2.825439e-09	1.384682e+00	-1.893060e+02
8.500000e-07	2.944266e-07	-2.233321e-09	2.114115e+00	-1.502303e+02
8.600000e-07	3.959309e-07	-1.643458e-09	2.842962e+00	-1.111712e+02
8.700000e-07	4.972924e-07	-1.052420e-09	3.570783e+00	-7.205961e+01
8.800000e-07	5.984918e-07	-4.595858e-10	4.297440e+00	-3.278229e+01
8.900000e-07	6.995559e-07	1.396761e-10	5.023126e+00	6.801776e+00
9.000000e-07	8.004452e-07	7.480879e-10	5.747556e+00	4.684111e+01
9.100000e-07	9.010684e-07	1.368421e-09	6.470076e+00	8.747067e+01
9.200000e-07	1.001393e-06	2.001538e-09	7.190452e+00	1.287915e+02
9.300000e-07	1.101386e-06	2.643833e-09	7.908445e+00	1.708533e+02
9.400000e-07	1.201025e-06	3.294616e-09	8.623900e+00	2.136405e+02
9.500000e-07	1.300273e-06	3.953173e-09	9.336546e+00	2.570646e+02
9.600000e-07	1.399026e-06	4.619238e-09	1.004563e+01	3.009625e+02
9.700000e-07	1.497171e-06	5.289772e-09	1.075036e+01	3.451020e+02
9.800000e-07	1.594611e-06	5.961081e-09	1.145002e+01	3.891945e+02
9.900000e-07	1.691237e-06	6.626329e-09	1.214384e+01	4.329136e+02
1.000000e-06	1.787078e-06	7.279079e-09	1.283202e+01	4.759185e+02
1.010000e-06	1.882324e-06	7.916376e-09	1.351594e+01	5.178798e+02
1.020000e-06	1.977009e-06	8.533306e-09	1.419581e+01	5.585034e+02
1.030000e-06	2.070957e-06	9.126595e-09	1.487040e+01	5.975520e+02
1.040000e-06	2.164151e-06	9.692857e-09	1.553958e+01	6.348584e+02
1.050000e-06	2.256691e-06	1.022980e-08	1.620405e+01	6.703309e+02
1.060000e-06	2.348606e-06	1.073742e-08	1.686405e+01	7.039503e+02
1.070000e-06	2.439765e-06	1.121899e-08	1.751861e+01	7.357578e+02
1.080000e-06	2.529992e-06	1.167499e-08	1.816648e+01	7.658381e+02
1.090000e-06	2.619083e-06	1.210687e-08	1.880619e+01	7.943003e+02
1.100000e-06	2.707027e-06	1.251660e-08	1.943767e+01	8.212589e+02
1.110000e-06	2.794090e-06	1.290769e-08	2.006283e+01	8.468201e+02
1.120000e-06	2.880319e-06	1.327870e-08	2.068199e+01	8.710727e+02
1.130000e-06	2.965630e-06	1.362942e-08	2.129456e+01	8.940866e+02
1.140000e-06	3.050022e-06	1.396183e-08	2.190053e+01	9.159161e+02
1.150000e-06	3.133462e-06	1.427626e-08	2.249967e+01	9.366068e+02
1.160000e-06	3.215850e-06	1.457228e-08	2.309125e+01	9.562034e+02
1.170000e-06	3.297008e-06	1.485201e-08	2.367400e+01	9.747565e+02
1.180000e-06	3.376934e-06	1.511930e-08	2.424790e+01	9.923251e+02
1.190000e-06	3.455710e-06	1.537335e-08	2.481355e+01	1.008977e+03
1.200000e-06	3.533270e-06	1.561354e-08	2.537047e+01	1.024783e+03
1.210000e-06	3.609572e-06	1.584024e-08	2.591835e+01	1.039812e+03
1.220000e-06	3.684505e-06	1.605731e-08	2.645640e+01	1.054127e+03
1.230000e-06	3.757801e-06	1.626456e-08	2.698270e+01	1.067778e+03
1.240000e-06	3.829547e-06	1.646114e-08	2.749787e+01	1.080801e+03
1.250000e-06	3.899962e-06	1.664821e-08	2.800348e+01	1.093219e+03
1.260000e-06	3.969033e-06	1.682799e-08	2.849944e+01	1.105049e+03
1.270000e-06	4.036819e-06	1.699787e-08	2.898618e+01	1.116304e+03
1.280000e-06	4.103115e-06	1.715765e-08	2.946221e+01	1.126998e+03
1.290000e-06	4.167685e-06	1.730992e-08	2.992585e+01	1.137149e+03
1.300000e-06	4.230700e-06	1.745747e-08	3.037833e+01	1.146780e+03
1.310000e-06	4.292347e-06	1.759936e-08	3.082098e+01	1.155915e+03
1.320000e-06	4.352704e-06	1.773451e-08	3.125437e+01	1.164581e+03
1.330000e-06	4.411662e-06	1.786097e-08	3.167771e+01	1.172800e+03
1.340000e-06	4.468814e-06	1.797743e-08	3.208810e+01	1.180590e+03
1.350000e-06	4.524159e-06	1.808586e-08	3.248550e+01	1.187964e+03
1.360000e-06	4.577970e-06	1.818917e-08	3.287188e+01	1.194933e+03
1.370000e-06	4.630047e-06	1.828900e-08	3.324582e+01	1.201508e+03
1.380000e-06	4.680087e-06	1.838324e-08	3.360513e+01	1.207706e+03
1.390000e-06	4.728180e-06	1.847120e-08	3.395046e+01	1.213547e+03
1.400000e-06	4.774612e-06	1.855315e-08	3.428386e+01	1.219061e+03
1.410000e-06	4.819522e-06	1.863120e-08	3.460634e+01	1.224280e+03
1.420000e-06	4.862843e-06	1.870774e-08	3.491740e+01	1.229236e+03
1.430000e-06	4.904307e-06	1.878125e-08	3.521513e+01	1.233956e+03
1.440000e-06	4.943903e-06	1.885008e-08	3.549944e+01	1.238455e+03
1.450000e-06	4.981831e-06	1.891553e-08	3.577179e+01	1.242736e+03
1.460000e-06	5.018187e-06	1.897629e-08	3.603284e+01	1.246788e+03
1.470000e-06	5.052844e-06	1.903206e-08	3.628169e+01	1.250592e+03
1.480000e-06	5.085545e-06	1.908434e-08	3.651650e+01	1.254126e+03
1.490000e-06	5.116441e-06	1.913110e-08	3.673834e+01	1.257371e+03
1.500000e-06	5.145681e-06	1.917283e-08	3.694830e+01	1.260318e+03
1.510000e-06	5.173224e-06	1.921106e-08	3.714608e+01	1.262973e+03
1.520000e-06	5.198796e-06	1.924641e-08	3.732969e+01	1.265353e+03
1.530000e-06	5.222276e-06	1.927969e-08	3.749829e+01	1.267483e+03
1.540000e-06	5.243959e-06	1.930915e-08	3.765398e+01	1.269395e+03
1.550000e-06	5.263989e-06	1.933448e-08	3.779781e+01	1.271113e+03
1.560000e-06	5.282158e-06	1.935666e-08	3.792827e+01	1.272656e+03
1.570000e-06	5.298315e-06	1.937614e-08	3.804429e+01	1.274028e+03
1.580000e-06	5.312559e-06	1.939426e-08	3.814656e+01	1.275224e+03
1.590000e-06	5.324764e-06	1.941074e-08	3.823420e+01	1.276233e+03
1.600000e-06	5.334742e-06	1.942411e-08	3.830584e+01	1.277041e+03
1.610000e-06	5.342698e-06	1.943301e-08	3.836297e+01	1.277643e+03
1.620000e-06	5.348822e-06	1.943910e-08	3.840694e+01	1.278040e+03
1.630000e-06	5.353190e-06	1.944426e-08	3.843831e+01	1.278248e+03
1.640000e-06	5.355740e-06	1.944831e-08	3.845662e+01	1.278288e+03
1.650000e-06	5.356211e-06	1.945130e-08	3.846000e+01	1.278182e+03
1.660000e-06	5.354786e-06	1.944574e-08	3.844977e+01	1.277949e+03
1.670000e-06	5.351770e-06	1.943857e-08	3.842811e+01	1.277596e+03
1.680000e-06	5.347056e-06	1.943383e-08	3.839426e+01	1.277114e+03
1.690000e-06	5.340386e-06	1.942324e-08	3.834637e+01	1.276484e+03
1.700000e-06	5.331970e-06	1.941061e-08	3.828594e+01	1.275677e+03
1.710000e-06	5.322035e-06	1.940021e-08	3.821460e+01	1.274664e+03
1.720000e-06	5.310354e-06	1.940530e-08	3.813073e+01	1.273428e+03
1.730000e-06	5.296688e-06	1.938452e-08	3.803260e+01	1.271971e+03
1.740000e-06	5.281016e-06	1.924520e-08	3.792007e+01	1.270317e+03
1.750000e-06	5.263118e-06	1.921434e-08	3.779155e+01	1.268508e+03
1.760000e-06	5.242614e-06	1.924728e-08	3.764433e+01	1.266601e+03
1.770000e-06	5.219731e-06	1.925483e-08	3.748001e+01	1.264654e+03
1.780000e-06	5.195386e-06	1.937219e-08	3.730521e+01	1.262713e+03
1.790000e-06	5.170315e-06	1.917291e-08	3.712519e+01	1.260799e+03
1.800000e-06	5.144034e-06	1.906438e-08	3.693648e+01	1.258906e+03
1.810000e-06	5.115666e-06	1.927883e-08	3.673278e+01	1.256994e+03
1.820000e-06	5.085362e-06	1.903163e-08	3.651519e+01	1.255000e+03
1.830000e-06	5.053412e-06	1.901480e-08	3.628577e+01	1.252848e+03
1.840000e-06	5.019575e-06	1.925539e-08	3.604280e+01	1.250462e+03
1.850000e-06	4.984054e-06	1.896713e-08	3.578775e+01	1.247781e+03
1.860000e-06	4.946872e-06	1.896890e-08	3.552077e+01	1.244767e+03
1.870000e-06	4.907783e-06	1.901853e-08	3.524009e+01	1.241413e+03
1.880000e-06	4.867018e-06	1.878148e-08	3.494738e+01	1.237737e+03
1.890000e-06	4.824507e-06	1.887622e-08	3.464213e+01	1.233777e+03
1.900000e-06	4.780295e-06	1.873382e-08	3.432467e+01	1.229579e+03
1.910000e-06	4.734375e-06	1.866158e-08	3.399494e+01	1.225185e+03
1.920000e-06	4.686491e-06	1.878294e-08	3.365111e+01	1.220623e+03
1.930000e-06	4.636910e-06	1.851402e-08	3.329510e+01	1.215906e+03
1.940000e-06	4.585644e-06	1.848498e-08	3.292699e+01	1.211026e+03
1.950000e-06	4.532354e-06	1.844819e-08	3.254434e+01	1.205961e+03
1.960000e-06	4.477140e-06	1.832367e-08	3.214788e+01	1.200685e+03
1.970000e-06	4.420213e-06	1.829262e-08	3.173911e+01	1.195170e+03
1.980000e-06	4.361736e-06	1.810456e-08	3.131923e+01	1.189397e+03
1.990000e-06	4.301813e-06	1.809329e-08	3.088895e+01	1.183358e+03
2.000000e-06	4.240303e-06	1.800005e-08	3.044728e+01	1.177054e+03
2.010000e-06	4.177122e-06	1.787624e-08	2.999361e+01	1.170494e+03
2.020000e-06	4.112362e-06	1.780679e-08	2.952861e+01	1.163688e+03
2.030000e-06	4.046212e-06	1.761694e-08	2.905362e+01	1.156642e+03
2.040000e-06	3.978743e-06	1.757741e-08	2.856916e+01	1.149354e+03
2.050000e-06	3.909828e-06	1.742873e-08	2.807432e+01	1.141813e+03
2.060000e-06	3.839301e-06	1.730551e-08	2.756791e+01	1.134000e+03
2.070000e-06	3.767384e-06	1.724530e-08	2.705151e+01	1.125892e+03
2.080000e-06	3.694291e-06	1.707923e-08	2.652667e+01	1.117466e+03
2.090000e-06	3.619896e-06	1.694930e-08	2.599248e+01	1.108701e+03
2.100000e-06	3.544089e-06	1.676508e-08	2.544815e+01	1.099584e+03
2.110000e-06	3.466696e-06	1.666258e-08	2.489244e+01	1.090106e+03
2.120000e-06	3.387813e-06	1.653866e-08	2.432602e+01	1.080262e+03
2.130000e-06	3.307712e-06	1.636205e-08	2.375086e+01	1.070045e+03
2.140000e-06	3.226501e-06	1.620409e-08	2.316773e+01	1.059449e+03
2.150000e-06	3.144250e-06	1.601513e-08	2.257713e+01	1.048457e+03
2.160000e-06	3.060991e-06	1.585295e-08	2.197929e+01	1.037051e+03
2.170000e-06	2.976748e-06	1.565762e-08	2.137439e+01	1.025203e+03
2.180000e-06	2.891345e-06	1.549059e-08	2.076115e+01	1.012884e+03
2.190000e-06	2.804611e-06	1.531587e-08	2.013837e+01	1.000065e+03
2.200000e-06	2.716741e-06	1.509940e-08	1.950742e+01	9.867185e+02
2.210000e-06	2.627995e-06	1.487576e-08	1.887019e+01	9.728192e+02
2.220000e-06	2.538361e-06	1.464741e-08	1.822657e+01	9.583445e+02
2.230000e-06	2.447831e-06	1.443456e-08	1.757653e+01	9.432713e+02
2.240000e-06	2.356602e-06	1.419777e-08	1.692146e+01	9.275737e+02
2.250000e-06	2.264710e-06	1.395360e-08	1.626163e+01	9.112200e+02
2.260000e-06	2.172010e-06	1.368868e-08	1.559601e+01	8.941719e+02
2.270000e-06	2.078350e-06	1.341102e-08	1.492349e+01	8.763846e+02
2.280000e-06	1.983730e-06	1.312870e-08	1.424407e+01	8.578085e+02
2.290000e-06	1.888326e-06	1.283619e-08	1.355903e+01	8.383918e+02
2.300000e-06	1.792279e-06	1.253600e-08	1.286937e+01	8.180828e+02
2.310000e-06	1.695668e-06	1.221667e-08	1.217566e+01	7.968318e+02
2.320000e-06	1.598561e-06	1.187786e-08	1.147839e+01	7.745906e+02
2.330000e-06	1.500907e-06	1.151669e-08	1.077718e+01	7.513109e+02
2.340000e-06	1.402687e-06	1.114430e-08	1.007193e+01	7.269419e+02
2.350000e-06	1.304017e-06	1.075926e-08	9.363429e+00	7.014283e+02
2.360000e-06	1.205011e-06	1.035656e-08	8.652523e+00	6.747101e+02
2.370000e-06	1.105766e-06	9.930510e-09	7.939897e+00	6.467260e+02
2.380000e-06	1.006279e-06	9.485378e-09	7.225539e+00	6.174194e+02
2.390000e-06	9.065709e-07	9.020579e-09	6.509587e+00	5.867484e+02
2.400000e-06	8.065635e-07	8.530312e-09	5.791488e+00	5.546970e+02
2.410000e-06	7.061719e-07	8.018337e-09	5.070632e+00	5.212859e+02
2.420000e-06	6.054517e-07	7.484971e-09	4.347416e+00	4.865807e+02
2.430000e-06	5.045100e-07	6.933845e-09	3.622609e+00	4.506947e+02
2.440000e-06	4.033868e-07	6.370522e-09	2.896498e+00	4.137851e+02
2.450000e-06	3.021100e-07	5.797836e-09	2.169286e+00	3.760430e+02
2.460000e-06	2.007328e-07	5.211731e-09	1.441352e+00	3.376773e+02
2.470000e-06	9.921533e-08	4.615038e-09	7.124107e-01	2.988950e+02
2.480000e-06	-2.413438e-09	4.015856e-09	-1.732957e-02	2.598810e+02
2.490000e-06	-1.040852e-07	3.417532e-09	-7.473787e-01	2.207795e+02
2.500000e-06	-2.056771e-07	2.818291e-09	-1.476854e+00	1.816807e+02
2.510000e-06	-3.071658e-07	2.218756e-09	-2.205588e+00	1.426136e+02
2.520000e-06	-4.085722e-07	1.620772e-09	-2.933732e+00	1.035467e+02
2.530000e-06	-5.098150e-07	1.018219e-09	-3.660701e+00	6.439500e+01
2.540000e-06	-6.108170e-07	4.095520e-10	-4.385941e+00	2.503434e+01
2.550000e-06	-7.115305e-07	-2.026166e-10	-5.109109e+00	-1.468100e+01
2.560000e-06	-8.119267e-07	-8.169670e-10	-5.829998e+00	-5.489748e+01
2.570000e-06	-9.119672e-07	-1.438032e-09	-6.548334e+00	-9.574127e+01
2.580000e-06	-1.011673e-06	-2.070968e-09	-7.264268e+00	-1.372987e+02
2.590000e-06	-1.111103e-06	-2.715477e-09	-7.978218e+00	-1.795996e+02
2.600000e-06	-1.210253e-06	-3.373129e-09	-8.690158e+00	-2.226057e+02
2.610000e-06	-1.309004e-06	-4.042331e-09	-9.399240e+00	-2.662043e+02
2.620000e-06	-1.407256e-06	-4.715625e-09	-1.010473e+01	-3.102091e+02
2.630000e-06	-1.505021e-06	-5.389096e-09	-1.080673e+01	-3.543681e+02
2.640000e-06	-1.602275e-06	-6.062060e-09	-1.150505e+01	-3.983783e+02
2.650000e-06	-1.698984e-06	-6.730825e-09	-1.219947e+01	-4.419059e+02
2.660000e-06	-1.795175e-06	-7.386787e-09	-1.289017e+01	-4.846109e+02
2.670000e-06	-1.890794e-06	-8.023127e-09	-1.357675e+01	-5.261728e+02
2.680000e-06	-1.985759e-06	-8.638011e-09	-1.425864e+01	-5.663138e+02
2.690000e-06	-2.079954e-06	-9.228642e-09	-1.493500e+01	-6.048180e+02
2.700000e-06	-2.173180e-06	-9.793778e-09	-1.560441e+01	-6.415422e+02
2.710000e-06	-2.265370e-06	-1.033299e-08	-1.626638e+01	-6.764189e+02
2.720000e-06	-2.356733e-06	-1.084182e-08	-1.692240e+01	-7.094498e+02
2.730000e-06	-2.447344e-06	-1.132128e-08	-1.757303e+01	-7.406922e+02
2.740000e-06	-2.537086e-06	-1.177360e-08	-1.821742e+01	-7.702408e+02
2.750000e-06	-2.625977e-06	-1.219937e-08	-1.885570e+01	-7.982083e+02
2.760000e-06	-2.714018e-06	-1.260336e-08	-1.948787e+01	-8.247078e+02
2.770000e-06	-2.801198e-06	-1.298885e-08	-2.011386e+01	-8.498405e+02
2.780000e-06	-2.887360e-06	-1.335607e-08	-2.073254e+01	-8.736891e+02
2.790000e-06	-2.972343e-06	-1.370312e-08	-2.134276e+01	-8.963179e+02
2.800000e-06	-3.056226e-06	-1.403059e-08	-2.194507e+01	-9.177775e+02
2.810000e-06	-3.139140e-06	-1.434120e-08	-2.254044e+01	-9.381123e+02
2.820000e-06	-3.221073e-06	-1.463706e-08	-2.312875e+01	-9.573685e+02
2.830000e-06	-3.301893e-06	-1.491608e-08	-2.370908e+01	-9.755992e+02
2.840000e-06	-3.381563e-06	-1.517737e-08	-2.428114e+01	-9.928663e+02
2.850000e-06	-3.459938e-06	-1.542554e-08	-2.484391e+01	-1.009239e+03
2.860000e-06	-3.536785e-06	-1.566437e-08	-2.539571e+01	-1.024789e+03
2.870000e-06	-3.612175e-06	-1.589471e-08	-2.593704e+01	-1.039584e+03
2.880000e-06	-3.686203e-06	-1.611625e-08	-2.646859e+01	-1.053682e+03
2.890000e-06	-3.758940e-06	-1.632813e-08	-2.699088e+01	-1.067128e+03
2.900000e-06	-3.830443e-06	-1.652712e-08	-2.750430e+01	-1.079955e+03
2.910000e-06	-3.900439e-06	-1.671151e-08	-2.800690e+01	-1.092184e+03
2.920000e-06	-3.968841e-06	-1.688565e-08	-2.849806e+01	-1.103829e+03
2.930000e-06	-4.035852e-06	-1.705218e-08	-2.897923e+01	-1.114902e+03
2.940000e-06	-4.101505e-06	-1.721134e-08	-2.945065e+01	-1.125421e+03
