# Temperatura_=_38.62
# Concentracion g/m^3_=_28200.0
# C_Vs_to_Am_M_A/Vsm_=_65563218390.804596
# pendiente_HvsI_1/m_=_3716.3
# ordenada_HvsI_A/m_=_1297.0
# frecuencia_Hz_=_301767.29923923744

Tiempo_(s)	Campo_(V.s)	Magnetizacion_(V.s)	Campo_(kA/m)	Magnetizacion_(A/m)
0.000000e+00	-5.344876e-06	-1.955828e-08	-3.829685e+01	-1.279186e+03
1.000000e-08	-5.343120e-06	-1.956014e-08	-3.828427e+01	-1.278919e+03
2.000000e-08	-5.339458e-06	-1.955303e-08	-3.825803e+01	-1.278523e+03
3.000000e-08	-5.334149e-06	-1.954094e-08	-3.821999e+01	-1.277991e+03
4.000000e-08	-5.327182e-06	-1.953046e-08	-3.817007e+01	-1.277303e+03
5.000000e-08	-5.318610e-06	-1.951585e-08	-3.810864e+01	-1.276436e+03
6.000000e-08	-5.308102e-06	-1.949564e-08	-3.803336e+01	-1.275370e+03
7.000000e-08	-5.295585e-06	-1.946767e-08	-3.794367e+01	-1.274094e+03
8.000000e-08	-5.281164e-06	-1.943462e-08	-3.784034e+01	-1.272615e+03
9.000000e-08	-5.264483e-06	-1.947459e-08	-3.772082e+01	-1.270954e+03
1.000000e-07	-5.245636e-06	-1.949720e-08	-3.758578e+01	-1.269147e+03
1.100000e-07	-5.224903e-06	-1.940839e-08	-3.743723e+01	-1.267239e+03
1.200000e-07	-5.202345e-06	-1.935974e-08	-3.727559e+01	-1.265268e+03
1.300000e-07	-5.178178e-06	-1.926845e-08	-3.710243e+01	-1.263263e+03
1.400000e-07	-5.152526e-06	-1.914317e-08	-3.691863e+01	-1.261231e+03
1.500000e-07	-5.125257e-06	-1.930179e-08	-3.672324e+01	-1.259155e+03
1.600000e-07	-5.096357e-06	-1.923111e-08	-3.651617e+01	-1.256996e+03
1.700000e-07	-5.066017e-06	-1.908029e-08	-3.629878e+01	-1.254700e+03
1.800000e-07	-5.033962e-06	-1.926458e-08	-3.606910e+01	-1.252210e+03
1.900000e-07	-4.999767e-06	-1.907236e-08	-3.582409e+01	-1.249473e+03
2.000000e-07	-4.963891e-06	-1.888444e-08	-3.556703e+01	-1.246454e+03
2.100000e-07	-4.926538e-06	-1.901148e-08	-3.529939e+01	-1.243141e+03
2.200000e-07	-4.887408e-06	-1.887952e-08	-3.501902e+01	-1.239542e+03
2.300000e-07	-4.846451e-06	-1.880988e-08	-3.472556e+01	-1.235686e+03
2.400000e-07	-4.803531e-06	-1.883169e-08	-3.441803e+01	-1.231610e+03
2.500000e-07	-4.758790e-06	-1.867757e-08	-3.409746e+01	-1.227351e+03
2.600000e-07	-4.712271e-06	-1.862807e-08	-3.376414e+01	-1.222936e+03
2.700000e-07	-4.663756e-06	-1.855256e-08	-3.341652e+01	-1.218374e+03
2.800000e-07	-4.613177e-06	-1.848764e-08	-3.305411e+01	-1.213657e+03
2.900000e-07	-4.560572e-06	-1.844162e-08	-3.267719e+01	-1.208761e+03
3.000000e-07	-4.506241e-06	-1.832648e-08	-3.228790e+01	-1.203654e+03
3.100000e-07	-4.450358e-06	-1.823725e-08	-3.188749e+01	-1.198302e+03
3.200000e-07	-4.392678e-06	-1.814729e-08	-3.147420e+01	-1.192678e+03
3.300000e-07	-4.333237e-06	-1.808048e-08	-3.104830e+01	-1.186769e+03
3.400000e-07	-4.272360e-06	-1.799268e-08	-3.061210e+01	-1.180575e+03
3.500000e-07	-4.210038e-06	-1.788459e-08	-3.016556e+01	-1.174108e+03
3.600000e-07	-4.146286e-06	-1.778402e-08	-2.970877e+01	-1.167387e+03
3.700000e-07	-4.080975e-06	-1.764828e-08	-2.924081e+01	-1.160429e+03
3.800000e-07	-4.014050e-06	-1.755837e-08	-2.876128e+01	-1.153247e+03
3.900000e-07	-3.945683e-06	-1.746891e-08	-2.827142e+01	-1.145837e+03
4.000000e-07	-3.875972e-06	-1.733673e-08	-2.777193e+01	-1.138187e+03
4.100000e-07	-3.805066e-06	-1.722127e-08	-2.726387e+01	-1.130272e+03
4.200000e-07	-3.732930e-06	-1.707479e-08	-2.674701e+01	-1.122060e+03
4.300000e-07	-3.659346e-06	-1.693836e-08	-2.621977e+01	-1.113520e+03
4.400000e-07	-3.584181e-06	-1.680478e-08	-2.568120e+01	-1.104625e+03
4.500000e-07	-3.507550e-06	-1.668210e-08	-2.513213e+01	-1.095357e+03
4.600000e-07	-3.429579e-06	-1.654044e-08	-2.457346e+01	-1.085708e+03
4.700000e-07	-3.350174e-06	-1.636288e-08	-2.400450e+01	-1.075678e+03
4.800000e-07	-3.269400e-06	-1.619791e-08	-2.342575e+01	-1.065268e+03
4.900000e-07	-3.187461e-06	-1.603068e-08	-2.283864e+01	-1.054479e+03
5.000000e-07	-3.104510e-06	-1.587245e-08	-2.224428e+01	-1.043308e+03
5.100000e-07	-3.020689e-06	-1.570282e-08	-2.164370e+01	-1.031742e+03
5.200000e-07	-2.935969e-06	-1.552007e-08	-2.103667e+01	-1.019756e+03
5.300000e-07	-2.850235e-06	-1.532065e-08	-2.042236e+01	-1.007321e+03
5.400000e-07	-2.763541e-06	-1.511063e-08	-1.980119e+01	-9.944006e+02
5.500000e-07	-2.675976e-06	-1.490638e-08	-1.917377e+01	-9.809557e+02
5.600000e-07	-2.587462e-06	-1.470193e-08	-1.853956e+01	-9.669495e+02
5.700000e-07	-2.497807e-06	-1.448621e-08	-1.789717e+01	-9.523475e+02
5.800000e-07	-2.407002e-06	-1.424647e-08	-1.724653e+01	-9.371179e+02
5.900000e-07	-2.315274e-06	-1.399418e-08	-1.658929e+01	-9.212310e+02
6.000000e-07	-2.222763e-06	-1.373847e-08	-1.592644e+01	-9.046565e+02
6.100000e-07	-2.129522e-06	-1.347855e-08	-1.525835e+01	-8.873620e+02
6.200000e-07	-2.035530e-06	-1.320866e-08	-1.458488e+01	-8.693107e+02
6.300000e-07	-1.940771e-06	-1.292246e-08	-1.390592e+01	-8.504613e+02
6.400000e-07	-1.845365e-06	-1.261555e-08	-1.322232e+01	-8.307676e+02
6.500000e-07	-1.749400e-06	-1.229534e-08	-1.253472e+01	-8.101796e+02
6.600000e-07	-1.652781e-06	-1.196573e-08	-1.184242e+01	-7.886441e+02
6.700000e-07	-1.555371e-06	-1.162298e-08	-1.114447e+01	-7.661053e+02
6.800000e-07	-1.457224e-06	-1.126481e-08	-1.044123e+01	-7.425050e+02
6.900000e-07	-1.358498e-06	-1.088449e-08	-9.733842e+00	-7.177823e+02
7.000000e-07	-1.259306e-06	-1.048402e-08	-9.023121e+00	-6.918741e+02
7.100000e-07	-1.159699e-06	-1.006531e-08	-8.309422e+00	-6.647169e+02
7.200000e-07	-1.059807e-06	-9.632635e-09	-7.593677e+00	-6.362502e+02
7.300000e-07	-9.597079e-07	-9.181739e-09	-6.876453e+00	-6.064224e+02
7.400000e-07	-8.593248e-07	-8.707013e-09	-6.157193e+00	-5.751993e+02
7.500000e-07	-7.586226e-07	-8.208314e-09	-5.435646e+00	-5.425727e+02
7.600000e-07	-6.576672e-07	-7.688438e-09	-4.712285e+00	-5.085701e+02
7.700000e-07	-5.564781e-07	-7.150588e-09	-3.987250e+00	-4.732608e+02
7.800000e-07	-4.550811e-07	-6.596581e-09	-3.260725e+00	-4.367584e+02
7.900000e-07	-3.535765e-07	-6.027846e-09	-2.533429e+00	-3.992182e+02
8.000000e-07	-2.519482e-07	-5.442174e-09	-1.805247e+00	-3.608273e+02
8.100000e-07	-1.501938e-07	-4.845635e-09	-1.076161e+00	-3.217907e+02
8.200000e-07	-4.834453e-08	-4.244515e-09	-3.463959e-01	-2.823114e+02
8.300000e-07	5.360274e-08	-3.644827e-09	3.840718e-01	-2.425706e+02
8.400000e-07	1.555861e-07	-3.043689e-09	1.114798e+00	-2.027078e+02
8.500000e-07	2.575073e-07	-2.440011e-09	1.845079e+00	-1.628065e+02
8.600000e-07	3.593431e-07	-1.834932e-09	2.574748e+00	-1.228848e+02
8.700000e-07	4.610505e-07	-1.227119e-09	3.303497e+00	-8.289644e+01
8.800000e-07	5.626188e-07	-6.170894e-10	4.031249e+00	-4.273871e+01
8.900000e-07	6.640503e-07	-8.968258e-13	4.758021e+00	-2.269568e+00
9.000000e-07	7.652061e-07	6.224359e-10	5.482818e+00	3.866977e+01
9.100000e-07	8.660504e-07	1.255260e-09	6.205383e+00	8.022872e+01
9.200000e-07	9.666389e-07	1.900514e-09	6.926114e+00	1.225211e+02
9.300000e-07	1.066914e-06	2.556473e-09	7.644602e+00	1.656023e+02
9.400000e-07	1.166892e-06	3.221109e-09	8.360957e+00	2.094519e+02
9.500000e-07	1.266558e-06	3.894708e-09	9.075080e+00	2.539651e+02
9.600000e-07	1.365808e-06	4.577066e-09	9.786222e+00	2.989528e+02
9.700000e-07	1.464501e-06	5.266150e-09	1.049337e+01	3.441518e+02
9.800000e-07	1.562443e-06	5.953786e-09	1.119514e+01	3.892422e+02
9.900000e-07	1.659580e-06	6.631779e-09	1.189114e+01	4.338717e+02
1.000000e-06	1.755966e-06	7.296079e-09	1.258176e+01	4.776827e+02
1.010000e-06	1.851681e-06	7.943592e-09	1.326758e+01	5.203394e+02
1.020000e-06	1.946737e-06	8.568869e-09	1.394867e+01	5.615519e+02
1.030000e-06	2.041079e-06	9.167278e-09	1.462464e+01	6.010942e+02
1.040000e-06	2.134723e-06	9.740740e-09	1.529561e+01	6.388138e+02
1.050000e-06	2.227721e-06	1.028455e-08	1.596196e+01	6.746341e+02
1.060000e-06	2.320060e-06	1.079845e-08	1.662358e+01	7.085472e+02
1.070000e-06	2.411714e-06	1.128350e-08	1.728029e+01	7.406015e+02
1.080000e-06	2.502491e-06	1.174113e-08	1.793073e+01	7.708846e+02
1.090000e-06	2.592115e-06	1.217548e-08	1.857290e+01	7.995054e+02
1.100000e-06	2.680570e-06	1.258698e-08	1.920669e+01	8.265784e+02
1.110000e-06	2.768103e-06	1.297658e-08	1.983388e+01	8.522112e+02
1.120000e-06	2.854837e-06	1.334691e-08	2.045534e+01	8.764971e+02
1.130000e-06	2.940651e-06	1.369955e-08	2.107021e+01	8.995139e+02
1.140000e-06	3.025448e-06	1.403193e-08	2.167780e+01	9.213256e+02
1.150000e-06	3.109340e-06	1.434477e-08	2.227889e+01	9.419881e+02
1.160000e-06	3.192337e-06	1.464096e-08	2.287358e+01	9.615548e+02
1.170000e-06	3.274169e-06	1.492204e-08	2.345992e+01	9.800812e+02
1.180000e-06	3.354767e-06	1.518817e-08	2.403741e+01	9.976281e+02
1.190000e-06	3.434155e-06	1.544166e-08	2.460624e+01	1.014261e+03
1.200000e-06	3.512321e-06	1.568340e-08	2.516632e+01	1.030046e+03
1.210000e-06	3.589249e-06	1.591202e-08	2.571752e+01	1.045049e+03
1.220000e-06	3.664886e-06	1.612763e-08	2.625946e+01	1.059330e+03
1.230000e-06	3.739018e-06	1.633221e-08	2.679063e+01	1.072937e+03
1.240000e-06	3.811501e-06	1.652625e-08	2.730999e+01	1.085909e+03
1.250000e-06	3.882544e-06	1.671222e-08	2.781902e+01	1.098275e+03
1.260000e-06	3.952253e-06	1.689130e-08	2.831849e+01	1.110057e+03
1.270000e-06	4.020636e-06	1.706364e-08	2.880847e+01	1.121270e+03
1.280000e-06	4.087655e-06	1.722712e-08	2.928867e+01	1.131930e+03
1.290000e-06	4.153063e-06	1.738131e-08	2.975733e+01	1.142055e+03
1.300000e-06	4.216827e-06	1.752824e-08	3.021421e+01	1.151661e+03
1.310000e-06	4.279127e-06	1.766797e-08	3.066060e+01	1.160771e+03
1.320000e-06	4.340046e-06	1.780054e-08	3.109709e+01	1.169403e+03
1.330000e-06	4.399600e-06	1.792594e-08	3.152380e+01	1.177578e+03
1.340000e-06	4.457516e-06	1.804193e-08	3.193878e+01	1.185313e+03
1.350000e-06	4.513649e-06	1.814913e-08	3.234098e+01	1.192625e+03
1.360000e-06	4.568161e-06	1.825109e-08	3.273157e+01	1.199530e+03
1.370000e-06	4.620990e-06	1.834885e-08	3.311009e+01	1.206047e+03
1.380000e-06	4.671885e-06	1.844389e-08	3.347476e+01	1.212196e+03
1.390000e-06	4.720753e-06	1.853394e-08	3.382491e+01	1.218005e+03
1.400000e-06	4.767841e-06	1.861846e-08	3.416230e+01	1.223502e+03
1.410000e-06	4.813342e-06	1.869838e-08	3.448832e+01	1.228719e+03
1.420000e-06	4.857319e-06	1.877422e-08	3.480343e+01	1.233684e+03
1.430000e-06	4.899604e-06	1.884527e-08	3.510640e+01	1.238418e+03
1.440000e-06	4.939992e-06	1.891285e-08	3.539579e+01	1.242933e+03
1.450000e-06	4.978614e-06	1.897762e-08	3.567253e+01	1.247228e+03
1.460000e-06	5.015641e-06	1.903902e-08	3.593783e+01	1.251292e+03
1.470000e-06	5.051028e-06	1.909712e-08	3.619138e+01	1.255107e+03
1.480000e-06	5.084475e-06	1.915122e-08	3.643104e+01	1.258654e+03
1.490000e-06	5.116040e-06	1.920038e-08	3.665720e+01	1.261917e+03
1.500000e-06	5.145935e-06	1.924423e-08	3.687140e+01	1.264889e+03
1.510000e-06	5.174204e-06	1.928387e-08	3.707395e+01	1.267575e+03
1.520000e-06	5.200637e-06	1.931917e-08	3.726336e+01	1.269992e+03
1.530000e-06	5.224972e-06	1.935118e-08	3.743772e+01	1.272166e+03
1.540000e-06	5.247359e-06	1.938007e-08	3.759813e+01	1.274124e+03
1.550000e-06	5.268018e-06	1.940606e-08	3.774615e+01	1.275893e+03
1.560000e-06	5.286974e-06	1.942942e-08	3.788197e+01	1.277490e+03
1.570000e-06	5.303948e-06	1.945054e-08	3.800359e+01	1.278924e+03
1.580000e-06	5.318884e-06	1.947035e-08	3.811061e+01	1.280190e+03
1.590000e-06	5.331923e-06	1.948788e-08	3.820404e+01	1.281278e+03
1.600000e-06	5.342846e-06	1.950290e-08	3.828231e+01	1.282175e+03
1.610000e-06	5.351572e-06	1.951430e-08	3.834482e+01	1.282873e+03
1.620000e-06	5.358334e-06	1.952173e-08	3.839328e+01	1.283369e+03
1.630000e-06	5.363304e-06	1.952674e-08	3.842889e+01	1.283670e+03
1.640000e-06	5.366472e-06	1.952977e-08	3.845159e+01	1.283794e+03
1.650000e-06	5.367646e-06	1.953338e-08	3.846000e+01	1.283759e+03
1.660000e-06	5.366891e-06	1.953196e-08	3.845459e+01	1.283584e+03
1.670000e-06	5.364438e-06	1.952190e-08	3.843702e+01	1.283280e+03
1.680000e-06	5.360381e-06	1.951772e-08	3.840794e+01	1.282846e+03
1.690000e-06	5.354461e-06	1.951005e-08	3.836553e+01	1.282271e+03
1.700000e-06	5.346607e-06	1.949596e-08	3.830925e+01	1.281533e+03
1.710000e-06	5.337171e-06	1.948265e-08	3.824164e+01	1.280610e+03
1.720000e-06	5.326138e-06	1.947491e-08	3.816259e+01	1.279484e+03
1.730000e-06	5.313232e-06	1.948062e-08	3.807011e+01	1.278149e+03
1.740000e-06	5.298307e-06	1.939701e-08	3.796317e+01	1.276614e+03
1.750000e-06	5.281237e-06	1.930016e-08	3.784087e+01	1.274906e+03
1.760000e-06	5.261658e-06	1.933499e-08	3.770058e+01	1.273066e+03
1.770000e-06	5.239502e-06	1.932403e-08	3.754183e+01	1.271135e+03
1.780000e-06	5.215518e-06	1.939254e-08	3.736998e+01	1.269152e+03
1.790000e-06	5.190642e-06	1.937868e-08	3.719174e+01	1.267139e+03
1.800000e-06	5.164887e-06	1.912559e-08	3.700720e+01	1.265097e+03
1.810000e-06	5.137242e-06	1.927051e-08	3.680912e+01	1.263001e+03
1.820000e-06	5.107418e-06	1.925362e-08	3.659543e+01	1.260808e+03
1.830000e-06	5.075978e-06	1.900254e-08	3.637015e+01	1.258462e+03
1.840000e-06	5.042703e-06	1.924448e-08	3.613173e+01	1.255905e+03
1.850000e-06	5.007627e-06	1.918007e-08	3.588041e+01	1.253090e+03
1.860000e-06	4.971036e-06	1.896028e-08	3.561823e+01	1.249987e+03
1.870000e-06	4.932518e-06	1.912118e-08	3.534224e+01	1.246589e+03
1.880000e-06	4.892212e-06	1.893267e-08	3.505344e+01	1.242913e+03
1.890000e-06	4.850237e-06	1.885259e-08	3.475269e+01	1.238990e+03
1.900000e-06	4.806487e-06	1.890555e-08	3.443921e+01	1.234858e+03
1.910000e-06	4.761131e-06	1.870966e-08	3.411422e+01	1.230551e+03
1.920000e-06	4.713822e-06	1.879922e-08	3.377525e+01	1.226093e+03
1.930000e-06	4.664661e-06	1.866497e-08	3.342300e+01	1.221488e+03
1.940000e-06	4.613890e-06	1.851849e-08	3.305922e+01	1.216722e+03
1.950000e-06	4.561109e-06	1.855557e-08	3.268104e+01	1.211769e+03
1.960000e-06	4.506343e-06	1.839055e-08	3.228863e+01	1.206594e+03
1.970000e-06	4.449842e-06	1.839405e-08	3.188379e+01	1.201166e+03
1.980000e-06	4.391773e-06	1.825940e-08	3.146772e+01	1.195461e+03
1.990000e-06	4.332283e-06	1.811864e-08	3.104147e+01	1.189469e+03
2.000000e-06	4.271230e-06	1.810877e-08	3.060401e+01	1.183195e+03
2.010000e-06	4.208534e-06	1.794516e-08	3.015479e+01	1.176653e+03
2.020000e-06	4.144236e-06	1.791580e-08	2.969408e+01	1.169862e+03
2.030000e-06	4.078453e-06	1.775867e-08	2.922273e+01	1.162839e+03
2.040000e-06	4.011349e-06	1.763027e-08	2.874193e+01	1.155591e+03
2.050000e-06	3.942853e-06	1.755822e-08	2.825114e+01	1.148115e+03
2.060000e-06	3.872837e-06	1.737523e-08	2.774946e+01	1.140391e+03
2.070000e-06	3.801316e-06	1.732719e-08	2.723700e+01	1.132394e+03
2.080000e-06	3.728500e-06	1.718938e-08	2.671527e+01	1.124090e+03
2.090000e-06	3.654401e-06	1.705830e-08	2.618433e+01	1.115451e+03
2.100000e-06	3.578872e-06	1.690230e-08	2.564316e+01	1.106450e+03
2.110000e-06	3.501849e-06	1.673799e-08	2.509128e+01	1.097073e+03
2.120000e-06	3.423321e-06	1.664445e-08	2.452861e+01	1.087315e+03
2.130000e-06	3.343520e-06	1.647081e-08	2.395683e+01	1.077175e+03
2.140000e-06	3.262599e-06	1.632604e-08	2.337702e+01	1.066656e+03
2.150000e-06	3.180609e-06	1.614172e-08	2.278954e+01	1.055759e+03
2.160000e-06	3.097578e-06	1.596476e-08	2.219461e+01	1.044476e+03
2.170000e-06	3.013530e-06	1.578818e-08	2.159240e+01	1.032792e+03
2.180000e-06	2.928380e-06	1.560140e-08	2.098229e+01	1.020681e+03
2.190000e-06	2.841934e-06	1.543983e-08	2.036289e+01	1.008110e+03
2.200000e-06	2.754317e-06	1.523351e-08	1.973510e+01	9.950429e+02
2.210000e-06	2.665744e-06	1.501883e-08	1.910046e+01	9.814407e+02
2.220000e-06	2.576237e-06	1.478847e-08	1.845913e+01	9.672671e+02
2.230000e-06	2.485824e-06	1.457523e-08	1.781131e+01	9.524882e+02
2.240000e-06	2.394686e-06	1.434988e-08	1.715829e+01	9.370733e+02
2.250000e-06	2.302872e-06	1.410462e-08	1.650043e+01	9.209925e+02
2.260000e-06	2.210251e-06	1.384919e-08	1.583678e+01	9.042151e+02
2.270000e-06	2.116732e-06	1.357342e-08	1.516671e+01	8.867077e+02
2.280000e-06	2.022257e-06	1.329589e-08	1.448978e+01	8.684322e+02
2.290000e-06	1.926925e-06	1.300764e-08	1.380671e+01	8.493459e+02
2.300000e-06	1.830904e-06	1.271277e-08	1.311871e+01	8.294013e+02
2.310000e-06	1.734308e-06	1.239898e-08	1.242658e+01	8.085475e+02
2.320000e-06	1.637213e-06	1.206476e-08	1.173088e+01	7.867306e+02
2.330000e-06	1.539581e-06	1.171184e-08	1.103133e+01	7.638939e+02
2.340000e-06	1.441379e-06	1.134694e-08	1.032770e+01	7.399786e+02
2.350000e-06	1.342679e-06	1.097048e-08	9.620499e+00	7.149231e+02
2.360000e-06	1.243623e-06	1.057361e-08	8.910745e+00	6.886639e+02
2.370000e-06	1.144324e-06	1.015326e-08	8.199255e+00	6.611379e+02
2.380000e-06	1.044775e-06	9.711720e-09	7.485968e+00	6.322864e+02
2.390000e-06	9.449685e-07	9.253395e-09	6.770843e+00	6.020618e+02
2.400000e-06	8.448883e-07	8.773398e-09	6.053753e+00	5.704365e+02
2.410000e-06	7.444641e-07	8.270894e-09	5.334198e+00	5.374117e+02
2.420000e-06	6.437460e-07	7.744133e-09	4.612538e+00	5.030261e+02
2.430000e-06	5.428064e-07	7.193587e-09	3.889290e+00	4.673618e+02
2.440000e-06	4.416021e-07	6.626175e-09	3.164146e+00	4.305448e+02
2.450000e-06	3.401587e-07	6.051283e-09	2.437289e+00	3.927407e+02
2.460000e-06	2.385078e-07	5.465063e-09	1.708944e+00	3.541436e+02
2.470000e-06	1.367291e-07	4.865017e-09	9.796847e-01	3.149597e+02
2.480000e-06	3.489273e-08	4.257242e-09	2.500117e-01	2.753881e+02
2.490000e-06	-6.701297e-08	3.644972e-09	-4.801581e-01	2.355998e+02
2.500000e-06	-1.688855e-07	3.032315e-09	-1.210091e+00	1.957197e+02
2.510000e-06	-2.706786e-07	2.420756e-09	-1.939453e+00	1.558129e+02
2.520000e-06	-3.724021e-07	1.810415e-09	-2.668317e+00	1.158790e+02
2.530000e-06	-4.739392e-07	1.196224e-09	-3.395847e+00	7.585423e+01
2.540000e-06	-5.752211e-07	5.777183e-10	-4.121546e+00	3.562261e+01
2.550000e-06	-6.762460e-07	-4.502762e-11	-4.845405e+00	-4.965190e+00
2.560000e-06	-7.769460e-07	-6.736471e-10	-5.566936e+00	-4.606800e+01
2.570000e-06	-8.772892e-07	-1.309867e-09	-6.285910e+00	-8.782767e+01
2.580000e-06	-9.772819e-07	-1.957554e-09	-7.002373e+00	-1.303435e+02
2.590000e-06	-1.076982e-06	-2.618477e-09	-7.716736e+00	-1.736505e+02
2.600000e-06	-1.176414e-06	-3.293759e-09	-8.429183e+00	-2.177048e+02
2.610000e-06	-1.275508e-06	-3.978767e-09	-9.139212e+00	-2.623769e+02
2.620000e-06	-1.374202e-06	-4.668479e-09	-9.846368e+00	-3.074554e+02
2.630000e-06	-1.472404e-06	-5.359392e-09	-1.055000e+01	-3.526585e+02
2.640000e-06	-1.570017e-06	-6.049148e-09	-1.124941e+01	-3.976545e+02
2.650000e-06	-1.667069e-06	-6.734063e-09	-1.194480e+01	-4.420868e+02
2.660000e-06	-1.763548e-06	-7.402763e-09	-1.263609e+01	-4.856012e+02
2.670000e-06	-1.859478e-06	-8.049448e-09	-1.332344e+01	-5.278730e+02
2.680000e-06	-1.954895e-06	-8.673168e-09	-1.400712e+01	-5.686289e+02
2.690000e-06	-2.049611e-06	-9.269452e-09	-1.468577e+01	-6.076631e+02
2.700000e-06	-2.143398e-06	-9.838420e-09	-1.535777e+01	-6.448454e+02
2.710000e-06	-2.236177e-06	-1.038129e-08	-1.602255e+01	-6.801194e+02
2.720000e-06	-2.327999e-06	-1.089508e-08	-1.668047e+01	-7.134951e+02
2.730000e-06	-2.418997e-06	-1.137845e-08	-1.733248e+01	-7.450337e+02
2.740000e-06	-2.509205e-06	-1.183507e-08	-1.797884e+01	-7.748308e+02
2.750000e-06	-2.598570e-06	-1.226655e-08	-1.861915e+01	-8.029985e+02
2.760000e-06	-2.687067e-06	-1.267530e-08	-1.925325e+01	-8.296501e+02
2.770000e-06	-2.774724e-06	-1.306381e-08	-1.988132e+01	-8.548898e+02
2.780000e-06	-2.861497e-06	-1.343088e-08	-2.050306e+01	-8.788065e+02
2.790000e-06	-2.947128e-06	-1.377507e-08	-2.111662e+01	-9.014735e+02
2.800000e-06	-3.031518e-06	-1.410040e-08	-2.172129e+01	-9.229520e+02
2.810000e-06	-3.114871e-06	-1.441089e-08	-2.231852e+01	-9.432966e+02
2.820000e-06	-3.197257e-06	-1.470698e-08	-2.290883e+01	-9.625608e+02
2.830000e-06	-3.278573e-06	-1.498683e-08	-2.349148e+01	-9.808015e+02
2.840000e-06	-3.358839e-06	-1.524918e-08	-2.406659e+01	-9.980810e+02
2.850000e-06	-3.437935e-06	-1.549780e-08	-2.463332e+01	-1.014465e+03
2.860000e-06	-3.515561e-06	-1.573588e-08	-2.518953e+01	-1.030021e+03
2.870000e-06	-3.591663e-06	-1.596585e-08	-2.573481e+01	-1.044813e+03
2.880000e-06	-3.666394e-06	-1.618692e-08	-2.627027e+01	-1.058897e+03
2.890000e-06	-3.739807e-06	-1.639738e-08	-2.679628e+01	-1.072320e+03
2.900000e-06	-3.811951e-06	-1.659363e-08	-2.731321e+01	-1.085117e+03
2.910000e-06	-3.882733e-06	-1.677614e-08	-2.782037e+01	-1.097315e+03
2.920000e-06	-3.951893e-06	-1.694989e-08	-2.831591e+01	-1.108933e+03
2.930000e-06	-4.019529e-06	-1.711684e-08	-2.880053e+01	-1.119987e+03
2.940000e-06	-4.085826e-06	-1.727703e-08	-2.927556e+01	-1.130493e+03
