# Temperatura_=_91.01
# Concentracion g/m^3_=_28200.0
# C_Vs_to_Am_M_A/Vsm_=_65563218390.804596
# pendiente_HvsI_1/m_=_3716.3
# ordenada_HvsI_A/m_=_1297.0
# frecuencia_Hz_=_301768.4279964877

Tiempo_(s)	Campo_(V.s)	Magnetizacion_(V.s)	Campo_(kA/m)	Magnetizacion_(A/m)
0.000000e+00	-5.335092e-06	-2.795099e-08	-3.829779e+01	-1.829322e+03
1.000000e-08	-5.333557e-06	-2.794921e-08	-3.828677e+01	-1.828951e+03
2.000000e-08	-5.330108e-06	-2.793822e-08	-3.826202e+01	-1.828375e+03
3.000000e-08	-5.324994e-06	-2.792113e-08	-3.822531e+01	-1.827586e+03
4.000000e-08	-5.318314e-06	-2.790604e-08	-3.817735e+01	-1.826566e+03
5.000000e-08	-5.310057e-06	-2.788628e-08	-3.811808e+01	-1.825296e+03
6.000000e-08	-5.299877e-06	-2.786022e-08	-3.804500e+01	-1.823757e+03
7.000000e-08	-5.287621e-06	-2.782835e-08	-3.795702e+01	-1.821939e+03
8.000000e-08	-5.273467e-06	-2.778699e-08	-3.785542e+01	-1.819847e+03
9.000000e-08	-5.257191e-06	-2.780659e-08	-3.773858e+01	-1.817498e+03
1.000000e-07	-5.238657e-06	-2.782805e-08	-3.760554e+01	-1.814927e+03
1.100000e-07	-5.218172e-06	-2.773157e-08	-3.745849e+01	-1.812176e+03
1.200000e-07	-5.195917e-06	-2.764858e-08	-3.729873e+01	-1.809288e+03
1.300000e-07	-5.172049e-06	-2.754901e-08	-3.712740e+01	-1.806299e+03
1.400000e-07	-5.146645e-06	-2.741298e-08	-3.694503e+01	-1.803232e+03
1.500000e-07	-5.119548e-06	-2.755529e-08	-3.675052e+01	-1.800086e+03
1.600000e-07	-5.090851e-06	-2.750537e-08	-3.654452e+01	-1.796840e+03
1.700000e-07	-5.060791e-06	-2.730257e-08	-3.632873e+01	-1.793452e+03
1.800000e-07	-5.029070e-06	-2.743251e-08	-3.610102e+01	-1.789870e+03
1.900000e-07	-4.995236e-06	-2.726642e-08	-3.585815e+01	-1.786035e+03
2.000000e-07	-4.959613e-06	-2.706352e-08	-3.560243e+01	-1.781896e+03
2.100000e-07	-4.922448e-06	-2.718303e-08	-3.533564e+01	-1.777414e+03
2.200000e-07	-4.883559e-06	-2.703383e-08	-3.505648e+01	-1.772564e+03
2.300000e-07	-4.842884e-06	-2.688305e-08	-3.476450e+01	-1.767343e+03
2.400000e-07	-4.800205e-06	-2.687147e-08	-3.445812e+01	-1.761756e+03
2.500000e-07	-4.755638e-06	-2.673354e-08	-3.413820e+01	-1.755820e+03
2.600000e-07	-4.709352e-06	-2.668534e-08	-3.380594e+01	-1.749548e+03
2.700000e-07	-4.661151e-06	-2.655840e-08	-3.345993e+01	-1.742952e+03
2.800000e-07	-4.610896e-06	-2.638602e-08	-3.309917e+01	-1.736033e+03
2.900000e-07	-4.558588e-06	-2.630866e-08	-3.272368e+01	-1.728784e+03
3.000000e-07	-4.504545e-06	-2.621690e-08	-3.233574e+01	-1.721192e+03
3.100000e-07	-4.448972e-06	-2.610992e-08	-3.193681e+01	-1.713243e+03
3.200000e-07	-4.391621e-06	-2.596286e-08	-3.152512e+01	-1.704928e+03
3.300000e-07	-4.332458e-06	-2.583214e-08	-3.110042e+01	-1.696242e+03
3.400000e-07	-4.271807e-06	-2.568836e-08	-3.066503e+01	-1.687192e+03
3.500000e-07	-4.209783e-06	-2.550934e-08	-3.021980e+01	-1.677791e+03
3.600000e-07	-4.146357e-06	-2.538575e-08	-2.976449e+01	-1.668052e+03
3.700000e-07	-4.081465e-06	-2.526391e-08	-2.929867e+01	-1.657988e+03
3.800000e-07	-4.014948e-06	-2.511732e-08	-2.882118e+01	-1.647603e+03
3.900000e-07	-3.946849e-06	-2.491807e-08	-2.833234e+01	-1.636889e+03
4.000000e-07	-3.877397e-06	-2.470974e-08	-2.783377e+01	-1.625828e+03
4.100000e-07	-3.806760e-06	-2.457076e-08	-2.732671e+01	-1.614388e+03
4.200000e-07	-3.734877e-06	-2.439811e-08	-2.681070e+01	-1.602534e+03
4.300000e-07	-3.661578e-06	-2.420976e-08	-2.628453e+01	-1.590230e+03
4.400000e-07	-3.586748e-06	-2.400925e-08	-2.574736e+01	-1.577448e+03
4.500000e-07	-3.510436e-06	-2.380114e-08	-2.519955e+01	-1.564167e+03
4.600000e-07	-3.432811e-06	-2.358809e-08	-2.464233e+01	-1.550378e+03
4.700000e-07	-3.353843e-06	-2.336608e-08	-2.407546e+01	-1.536079e+03
4.800000e-07	-3.273532e-06	-2.315535e-08	-2.349895e+01	-1.521270e+03
4.900000e-07	-3.191948e-06	-2.291914e-08	-2.291330e+01	-1.505950e+03
5.000000e-07	-3.109278e-06	-2.267403e-08	-2.231985e+01	-1.490110e+03
5.100000e-07	-3.025679e-06	-2.241878e-08	-2.171974e+01	-1.473727e+03
5.200000e-07	-2.941207e-06	-2.215551e-08	-2.111337e+01	-1.456770e+03
5.300000e-07	-2.855796e-06	-2.188736e-08	-2.050025e+01	-1.439194e+03
5.400000e-07	-2.769349e-06	-2.161121e-08	-1.987969e+01	-1.420952e+03
5.500000e-07	-2.681986e-06	-2.132168e-08	-1.925256e+01	-1.401993e+03
5.600000e-07	-2.593661e-06	-2.101649e-08	-1.861851e+01	-1.382274e+03
5.700000e-07	-2.504230e-06	-2.070574e-08	-1.797654e+01	-1.361756e+03
5.800000e-07	-2.413705e-06	-2.038205e-08	-1.732671e+01	-1.340407e+03
5.900000e-07	-2.322153e-06	-2.004020e-08	-1.666950e+01	-1.318196e+03
6.000000e-07	-2.229775e-06	-1.968254e-08	-1.600637e+01	-1.295093e+03
6.100000e-07	-2.136723e-06	-1.931497e-08	-1.533840e+01	-1.271056e+03
6.200000e-07	-2.042942e-06	-1.893723e-08	-1.466520e+01	-1.246031e+03
6.300000e-07	-1.948455e-06	-1.854138e-08	-1.398693e+01	-1.219949e+03
6.400000e-07	-1.853326e-06	-1.812367e-08	-1.330405e+01	-1.192726e+03
6.500000e-07	-1.757552e-06	-1.768654e-08	-1.261654e+01	-1.164265e+03
6.600000e-07	-1.661096e-06	-1.722778e-08	-1.192412e+01	-1.134463e+03
6.700000e-07	-1.563947e-06	-1.675054e-08	-1.122674e+01	-1.103215e+03
6.800000e-07	-1.466159e-06	-1.625612e-08	-1.052478e+01	-1.070419e+03
6.900000e-07	-1.367796e-06	-1.573618e-08	-9.818679e+00	-1.035976e+03
7.000000e-07	-1.268897e-06	-1.518521e-08	-9.108738e+00	-9.997933e+02
7.100000e-07	-1.169527e-06	-1.459977e-08	-8.395412e+00	-9.617817e+02
7.200000e-07	-1.069788e-06	-1.398619e-08	-7.679440e+00	-9.218570e+02
7.300000e-07	-9.697437e-07	-1.334787e-08	-6.961275e+00	-8.799408e+02
7.400000e-07	-8.694333e-07	-1.268341e-08	-6.241200e+00	-8.359668e+02
7.500000e-07	-7.688855e-07	-1.198669e-08	-5.519421e+00	-7.898902e+02
7.600000e-07	-6.680818e-07	-1.125382e-08	-4.795805e+00	-7.417002e+02
7.700000e-07	-5.670525e-07	-1.048334e-08	-4.070569e+00	-6.914339e+02
7.800000e-07	-4.658848e-07	-9.682307e-09	-3.344340e+00	-6.391868e+02
7.900000e-07	-3.645821e-07	-8.857624e-09	-2.617141e+00	-5.851188e+02
8.000000e-07	-2.631024e-07	-8.009141e-09	-1.888672e+00	-5.294494e+02
8.100000e-07	-1.614440e-07	-7.142875e-09	-1.158921e+00	-4.724442e+02
8.200000e-07	-5.971672e-08	-6.260956e-09	-4.286746e-01	-4.143900e+02
8.300000e-07	4.199990e-08	-5.366014e-09	3.014950e-01	-3.555634e+02
8.400000e-07	1.437276e-07	-4.461588e-09	1.031744e+00	-2.961961e+02
8.500000e-07	2.454006e-07	-3.553593e-09	1.761600e+00	-2.364442e+02
8.600000e-07	3.469471e-07	-2.643272e-09	2.490549e+00	-1.763669e+02
8.700000e-07	4.484162e-07	-1.726782e-09	3.218942e+00	-1.159194e+02
8.800000e-07	5.497895e-07	-8.009572e-10	3.946647e+00	-5.496367e+01
8.900000e-07	6.509769e-07	1.388450e-10	4.673017e+00	6.703330e+00
9.000000e-07	7.519727e-07	1.095287e-09	5.398013e+00	6.930796e+01
9.100000e-07	8.527109e-07	2.068410e-09	6.121159e+00	1.330496e+02
9.200000e-07	9.531487e-07	3.057892e-09	6.842148e+00	1.980505e+02
9.300000e-07	1.053295e-06	4.063603e-09	7.561049e+00	2.643130e+02
9.400000e-07	1.153173e-06	5.085219e-09	8.278015e+00	3.316920e+02
9.500000e-07	1.252750e-06	6.120559e-09	8.992830e+00	3.998872e+02
9.600000e-07	1.351928e-06	7.164103e-09	9.704776e+00	4.684564e+02
9.700000e-07	1.450534e-06	8.207918e-09	1.041261e+01	5.368480e+02
9.800000e-07	1.548343e-06	9.240866e-09	1.111473e+01	6.044484e+02
9.900000e-07	1.645360e-06	1.024996e-08	1.181117e+01	6.706364e+02
1.000000e-06	1.741625e-06	1.122554e-08	1.250220e+01	7.348366e+02
1.010000e-06	1.837208e-06	1.216003e-08	1.318834e+01	7.965651e+02
1.020000e-06	1.932204e-06	1.305100e-08	1.387027e+01	8.554606e+02
1.030000e-06	2.026563e-06	1.389719e-08	1.454762e+01	9.112992e+02
1.040000e-06	2.120240e-06	1.469722e-08	1.522008e+01	9.639918e+02
1.050000e-06	2.213197e-06	1.544804e-08	1.588736e+01	1.013566e+03
1.060000e-06	2.305453e-06	1.615267e-08	1.654962e+01	1.060139e+03
1.070000e-06	2.397053e-06	1.681485e-08	1.720717e+01	1.103886e+03
1.080000e-06	2.487839e-06	1.743915e-08	1.785888e+01	1.145009e+03
1.090000e-06	2.577483e-06	1.802825e-08	1.850239e+01	1.183710e+03
1.100000e-06	2.665956e-06	1.858523e-08	1.913749e+01	1.220177e+03
1.110000e-06	2.753502e-06	1.910891e-08	1.976593e+01	1.254572e+03
1.120000e-06	2.840235e-06	1.959945e-08	2.038854e+01	1.287032e+03
1.130000e-06	2.926063e-06	2.006195e-08	2.100465e+01	1.317678e+03
1.140000e-06	3.010910e-06	2.050028e-08	2.161372e+01	1.346617e+03
1.150000e-06	3.094866e-06	2.091553e-08	2.221640e+01	1.373954e+03
1.160000e-06	3.177865e-06	2.130780e-08	2.281220e+01	1.399795e+03
1.170000e-06	3.259621e-06	2.168070e-08	2.339909e+01	1.424247e+03
1.180000e-06	3.340062e-06	2.203564e-08	2.397653e+01	1.447421e+03
1.190000e-06	3.419302e-06	2.237374e-08	2.454535e+01	1.469422e+03
1.200000e-06	3.497388e-06	2.269236e-08	2.510589e+01	1.490344e+03
1.210000e-06	3.574288e-06	2.299385e-08	2.565792e+01	1.510269e+03
1.220000e-06	3.649935e-06	2.328179e-08	2.620094e+01	1.529261e+03
1.230000e-06	3.724043e-06	2.355598e-08	2.673293e+01	1.547369e+03
1.240000e-06	3.796508e-06	2.381517e-08	2.725312e+01	1.564627e+03
1.250000e-06	3.867585e-06	2.406236e-08	2.776334e+01	1.581067e+03
1.260000e-06	3.937308e-06	2.429817e-08	2.826385e+01	1.596713e+03
1.270000e-06	4.005732e-06	2.452579e-08	2.875502e+01	1.611599e+03
1.280000e-06	4.072840e-06	2.474231e-08	2.923676e+01	1.625759e+03
1.290000e-06	4.138260e-06	2.494744e-08	2.970637e+01	1.639236e+03
1.300000e-06	4.202049e-06	2.514313e-08	3.016428e+01	1.652076e+03
1.310000e-06	4.264468e-06	2.532630e-08	3.061235e+01	1.664323e+03
1.320000e-06	4.325495e-06	2.550131e-08	3.105043e+01	1.676016e+03
1.330000e-06	4.385212e-06	2.567043e-08	3.147911e+01	1.687186e+03
1.340000e-06	4.443310e-06	2.583210e-08	3.189616e+01	1.697851e+03
1.350000e-06	4.499526e-06	2.598713e-08	3.229971e+01	1.708019e+03
1.360000e-06	4.554085e-06	2.613792e-08	3.269136e+01	1.717693e+03
1.370000e-06	4.607024e-06	2.628246e-08	3.307138e+01	1.726870e+03
1.380000e-06	4.658044e-06	2.641673e-08	3.343763e+01	1.735552e+03
1.390000e-06	4.707003e-06	2.654110e-08	3.378908e+01	1.743748e+03
1.400000e-06	4.754178e-06	2.665723e-08	3.412772e+01	1.751474e+03
1.410000e-06	4.799752e-06	2.676615e-08	3.445487e+01	1.758756e+03
1.420000e-06	4.843834e-06	2.686975e-08	3.477132e+01	1.765624e+03
1.430000e-06	4.886216e-06	2.696964e-08	3.507555e+01	1.772113e+03
1.440000e-06	4.926642e-06	2.706421e-08	3.536574e+01	1.778253e+03
1.450000e-06	4.965331e-06	2.715254e-08	3.564347e+01	1.784067e+03
1.460000e-06	5.002428e-06	2.723506e-08	3.590978e+01	1.789569e+03
1.470000e-06	5.037941e-06	2.731341e-08	3.616471e+01	1.794762e+03
1.480000e-06	5.071573e-06	2.738784e-08	3.640613e+01	1.799643e+03
1.490000e-06	5.103272e-06	2.745840e-08	3.663368e+01	1.804205e+03
1.500000e-06	5.133284e-06	2.752476e-08	3.684912e+01	1.808438e+03
1.510000e-06	5.161688e-06	2.758464e-08	3.705302e+01	1.812337e+03
1.520000e-06	5.188311e-06	2.763879e-08	3.724413e+01	1.815903e+03
1.530000e-06	5.212855e-06	2.768787e-08	3.742032e+01	1.819142e+03
1.540000e-06	5.235412e-06	2.773347e-08	3.758224e+01	1.822066e+03
1.550000e-06	5.256225e-06	2.777522e-08	3.773165e+01	1.824686e+03
1.560000e-06	5.275299e-06	2.781104e-08	3.786857e+01	1.827016e+03
1.570000e-06	5.292393e-06	2.784133e-08	3.799128e+01	1.829063e+03
1.580000e-06	5.307481e-06	2.786779e-08	3.809959e+01	1.830835e+03
1.590000e-06	5.320682e-06	2.789086e-08	3.819435e+01	1.832332e+03
1.600000e-06	5.331826e-06	2.791067e-08	3.827435e+01	1.833557e+03
1.610000e-06	5.340770e-06	2.792618e-08	3.833856e+01	1.834514e+03
1.620000e-06	5.347701e-06	2.793667e-08	3.838830e+01	1.835207e+03
1.630000e-06	5.352843e-06	2.794434e-08	3.842522e+01	1.835649e+03
1.640000e-06	5.356245e-06	2.794859e-08	3.844964e+01	1.835854e+03
1.650000e-06	5.357688e-06	2.795145e-08	3.846000e+01	1.835837e+03
1.660000e-06	5.357173e-06	2.794981e-08	3.845630e+01	1.835610e+03
1.670000e-06	5.354900e-06	2.793862e-08	3.843999e+01	1.835180e+03
1.680000e-06	5.350997e-06	2.792982e-08	3.841196e+01	1.834543e+03
1.690000e-06	5.345327e-06	2.791752e-08	3.837126e+01	1.833689e+03
1.700000e-06	5.337748e-06	2.790092e-08	3.831686e+01	1.832599e+03
1.710000e-06	5.328534e-06	2.788306e-08	3.825072e+01	1.831253e+03
1.720000e-06	5.317727e-06	2.786529e-08	3.817314e+01	1.829634e+03
1.730000e-06	5.305086e-06	2.785979e-08	3.808240e+01	1.827736e+03
1.740000e-06	5.290459e-06	2.777947e-08	3.797739e+01	1.825567e+03
1.750000e-06	5.273725e-06	2.765598e-08	3.785727e+01	1.823151e+03
1.760000e-06	5.254563e-06	2.766819e-08	3.771972e+01	1.820523e+03
1.770000e-06	5.232778e-06	2.766253e-08	3.756334e+01	1.817727e+03
1.780000e-06	5.208974e-06	2.771111e-08	3.739246e+01	1.814806e+03
1.790000e-06	5.184233e-06	2.770000e-08	3.721485e+01	1.811793e+03
1.800000e-06	5.158788e-06	2.740882e-08	3.703220e+01	1.808704e+03
1.810000e-06	5.131550e-06	2.749544e-08	3.683667e+01	1.805531e+03
1.820000e-06	5.102161e-06	2.751578e-08	3.662570e+01	1.802249e+03
1.830000e-06	5.071088e-06	2.725106e-08	3.640265e+01	1.798811e+03
1.840000e-06	5.038103e-06	2.745996e-08	3.616586e+01	1.795161e+03
1.850000e-06	5.003322e-06	2.742057e-08	3.591619e+01	1.791244e+03
1.860000e-06	4.967018e-06	2.711953e-08	3.565558e+01	1.787009e+03
1.870000e-06	4.928752e-06	2.723888e-08	3.538089e+01	1.782423e+03
1.880000e-06	4.888693e-06	2.711634e-08	3.509333e+01	1.777466e+03
1.890000e-06	4.847053e-06	2.701488e-08	3.479442e+01	1.772138e+03
1.900000e-06	4.803603e-06	2.701718e-08	3.448252e+01	1.766449e+03
1.910000e-06	4.758434e-06	2.675772e-08	3.415827e+01	1.760415e+03
1.920000e-06	4.711340e-06	2.686328e-08	3.382021e+01	1.754049e+03
1.930000e-06	4.662447e-06	2.679344e-08	3.346923e+01	1.747360e+03
1.940000e-06	4.611987e-06	2.652388e-08	3.310701e+01	1.740347e+03
1.950000e-06	4.559531e-06	2.649263e-08	3.273045e+01	1.733000e+03
1.960000e-06	4.505054e-06	2.632799e-08	3.233939e+01	1.725307e+03
1.970000e-06	4.448843e-06	2.625693e-08	3.193588e+01	1.717254e+03
1.980000e-06	4.390984e-06	2.608314e-08	3.152054e+01	1.708832e+03
1.990000e-06	4.331658e-06	2.592761e-08	3.109467e+01	1.700040e+03
2.000000e-06	4.270934e-06	2.594170e-08	3.065877e+01	1.690888e+03
2.010000e-06	4.208661e-06	2.568092e-08	3.021174e+01	1.681387e+03
2.020000e-06	4.144657e-06	2.550153e-08	2.975230e+01	1.671554e+03
2.030000e-06	4.079095e-06	2.535543e-08	2.928166e+01	1.661397e+03
2.040000e-06	4.012215e-06	2.523691e-08	2.880156e+01	1.650919e+03
2.050000e-06	3.943952e-06	2.512690e-08	2.831154e+01	1.640108e+03
2.060000e-06	3.874242e-06	2.485733e-08	2.781113e+01	1.628941e+03
2.070000e-06	3.803001e-06	2.473075e-08	2.729972e+01	1.617385e+03
2.080000e-06	3.730403e-06	2.453960e-08	2.677859e+01	1.605406e+03
2.090000e-06	3.656551e-06	2.433326e-08	2.624844e+01	1.592967e+03
2.100000e-06	3.581237e-06	2.415336e-08	2.570780e+01	1.580043e+03
2.110000e-06	3.504495e-06	2.394239e-08	2.515691e+01	1.566617e+03
2.120000e-06	3.426344e-06	2.376987e-08	2.459591e+01	1.552681e+03
2.130000e-06	3.346855e-06	2.350592e-08	2.402530e+01	1.538235e+03
2.140000e-06	3.266179e-06	2.327850e-08	2.344616e+01	1.523280e+03
2.150000e-06	3.184378e-06	2.304629e-08	2.285896e+01	1.507812e+03
2.160000e-06	3.101610e-06	2.281345e-08	2.226481e+01	1.491819e+03
2.170000e-06	3.017888e-06	2.257568e-08	2.166381e+01	1.475276e+03
2.180000e-06	2.932997e-06	2.229430e-08	2.105443e+01	1.458146e+03
2.190000e-06	2.846876e-06	2.203258e-08	2.043621e+01	1.440384e+03
2.200000e-06	2.759592e-06	2.175028e-08	1.980964e+01	1.421941e+03
2.210000e-06	2.671263e-06	2.146408e-08	1.917558e+01	1.402768e+03
2.220000e-06	2.582038e-06	2.114952e-08	1.853508e+01	1.382824e+03
2.230000e-06	2.491970e-06	2.083425e-08	1.788853e+01	1.362070e+03
2.240000e-06	2.401113e-06	2.051576e-08	1.723632e+01	1.340477e+03
2.250000e-06	2.309538e-06	2.017575e-08	1.657895e+01	1.318015e+03
2.260000e-06	2.217184e-06	1.981890e-08	1.591599e+01	1.294649e+03
2.270000e-06	2.123935e-06	1.944038e-08	1.524660e+01	1.270335e+03
2.280000e-06	2.029737e-06	1.905793e-08	1.457041e+01	1.245015e+03
2.290000e-06	1.934645e-06	1.865501e-08	1.388779e+01	1.218615e+03
2.300000e-06	1.838800e-06	1.823667e-08	1.319977e+01	1.191048e+03
2.310000e-06	1.742385e-06	1.780123e-08	1.250766e+01	1.162214e+03
2.320000e-06	1.645548e-06	1.734446e-08	1.181252e+01	1.132009e+03
2.330000e-06	1.548197e-06	1.685824e-08	1.111368e+01	1.100328e+03
2.340000e-06	1.450254e-06	1.634081e-08	1.041060e+01	1.067070e+03
2.350000e-06	1.351862e-06	1.580473e-08	9.704297e+00	1.032139e+03
2.360000e-06	1.253093e-06	1.525083e-08	8.995290e+00	9.954413e+02
2.370000e-06	1.154004e-06	1.467106e-08	8.283984e+00	9.568908e+02
2.380000e-06	1.054640e-06	1.405353e-08	7.570701e+00	9.164039e+02
2.390000e-06	9.550218e-07	1.340061e-08	6.855594e+00	8.739050e+02
2.400000e-06	8.551160e-07	1.271562e-08	6.138424e+00	8.293328e+02
2.410000e-06	7.548867e-07	1.200170e-08	5.418931e+00	7.826508e+02
2.420000e-06	6.542659e-07	1.125599e-08	4.696627e+00	7.338607e+02
2.430000e-06	5.532483e-07	1.047949e-08	3.971476e+00	6.830151e+02
2.440000e-06	4.521073e-07	9.678473e-09	3.245438e+00	6.302279e+02
2.450000e-06	3.508974e-07	8.850005e-09	2.518906e+00	5.756768e+02
2.460000e-06	2.494717e-07	7.988452e-09	1.790825e+00	5.195964e+02
2.470000e-06	1.478915e-07	7.106374e-09	1.061634e+00	4.622612e+02
2.480000e-06	4.628633e-08	6.219306e-09	3.322650e-01	4.039587e+02
2.490000e-06	-5.533320e-08	5.322309e-09	-3.972077e-01	3.449559e+02
2.500000e-06	-1.569556e-07	4.411407e-09	-1.126701e+00	2.854660e+02
2.510000e-06	-2.585303e-07	3.491827e-09	-1.855852e+00	2.256189e+02
2.520000e-06	-3.599672e-07	2.569577e-09	-2.584013e+00	1.654440e+02
2.530000e-06	-4.612734e-07	1.640110e-09	-3.311237e+00	1.048681e+02
2.540000e-06	-5.624199e-07	7.022344e-10	-4.037314e+00	4.373100e+01
2.550000e-06	-6.633254e-07	-2.429556e-10	-4.761661e+00	-1.818179e+01
2.560000e-06	-7.639650e-07	-1.200433e-09	-5.484099e+00	-8.109419e+01
2.570000e-06	-8.642559e-07	-2.177921e-09	-6.204034e+00	-1.451885e+02
2.580000e-06	-9.641754e-07	-3.178402e-09	-6.921303e+00	-2.105565e+02
2.590000e-06	-1.063738e-06	-4.197630e-09	-7.636012e+00	-2.771604e+02
2.600000e-06	-1.163009e-06	-5.232348e-09	-8.348624e+00	-3.448107e+02
2.610000e-06	-1.261996e-06	-6.276165e-09	-9.059201e+00	-4.131642e+02
2.620000e-06	-1.360573e-06	-7.322678e-09	-9.766832e+00	-4.817433e+02
2.630000e-06	-1.458591e-06	-8.366497e-09	-1.047045e+01	-5.499736e+02
2.640000e-06	-1.556028e-06	-9.398017e-09	-1.116990e+01	-6.172336e+02
2.650000e-06	-1.652954e-06	-1.040673e-08	-1.186568e+01	-6.829100e+02
2.660000e-06	-1.749373e-06	-1.138066e-08	-1.255782e+01	-7.464492e+02
2.670000e-06	-1.845265e-06	-1.231335e-08	-1.324617e+01	-8.074000e+02
2.680000e-06	-1.940585e-06	-1.320213e-08	-1.393043e+01	-8.654397e+02
2.690000e-06	-2.035197e-06	-1.404196e-08	-1.460960e+01	-9.203838e+02
2.700000e-06	-2.128841e-06	-1.483431e-08	-1.528182e+01	-9.721788e+02
2.710000e-06	-2.221477e-06	-1.558277e-08	-1.594681e+01	-1.020881e+03
2.720000e-06	-2.313293e-06	-1.628831e-08	-1.660590e+01	-1.066628e+03
2.730000e-06	-2.404337e-06	-1.695077e-08	-1.725946e+01	-1.109605e+03
2.740000e-06	-2.494486e-06	-1.757119e-08	-1.790659e+01	-1.150017e+03
2.750000e-06	-2.583677e-06	-1.815333e-08	-1.854684e+01	-1.188062e+03
2.760000e-06	-2.672083e-06	-1.870153e-08	-1.918147e+01	-1.223922e+03
2.770000e-06	-2.759792e-06	-1.921820e-08	-1.981108e+01	-1.257752e+03
2.780000e-06	-2.846551e-06	-1.970603e-08	-2.043388e+01	-1.289683e+03
2.790000e-06	-2.932079e-06	-2.016795e-08	-2.104784e+01	-1.319831e+03
2.800000e-06	-3.016439e-06	-2.060369e-08	-2.165341e+01	-1.348303e+03
2.810000e-06	-3.099788e-06	-2.101420e-08	-2.225174e+01	-1.375202e+03
2.820000e-06	-3.182149e-06	-2.140300e-08	-2.284296e+01	-1.400636e+03
2.830000e-06	-3.263454e-06	-2.177195e-08	-2.342660e+01	-1.424713e+03
2.840000e-06	-3.343746e-06	-2.212140e-08	-2.400298e+01	-1.447542e+03
2.850000e-06	-3.422836e-06	-2.245330e-08	-2.457072e+01	-1.469226e+03
2.860000e-06	-3.500457e-06	-2.277005e-08	-2.512792e+01	-1.489857e+03
2.870000e-06	-3.576650e-06	-2.307154e-08	-2.567487e+01	-1.509510e+03
2.880000e-06	-3.651441e-06	-2.335796e-08	-2.621176e+01	-1.528246e+03
2.890000e-06	-3.724850e-06	-2.363076e-08	-2.673872e+01	-1.546108e+03
2.900000e-06	-3.796980e-06	-2.389046e-08	-2.725651e+01	-1.563131e+03
2.910000e-06	-3.867694e-06	-2.413812e-08	-2.776412e+01	-1.579342e+03
2.920000e-06	-3.936815e-06	-2.437467e-08	-2.826031e+01	-1.594768e+03
2.930000e-06	-4.004515e-06	-2.460059e-08	-2.874629e+01	-1.609443e+03
2.940000e-06	-4.070813e-06	-2.481766e-08	-2.922220e+01	-1.623404e+03
