# Temperatura_=_74.39
# Concentracion g/m^3_=_28200.0
# C_Vs_to_Am_M_A/Vsm_=_65563218390.804596
# pendiente_HvsI_1/m_=_3716.3
# ordenada_HvsI_A/m_=_1297.0
# frecuencia_Hz_=_301762.3105522148

Tiempo_(s)	Campo_(V.s)	Magnetizacion_(V.s)	Campo_(kA/m)	Magnetizacion_(A/m)
0.000000e+00	-5.312448e-06	-2.479892e-08	-3.830316e+01	-1.622272e+03
1.000000e-08	-5.310318e-06	-2.479929e-08	-3.828780e+01	-1.621866e+03
2.000000e-08	-5.306345e-06	-2.478608e-08	-3.825916e+01	-1.621269e+03
3.000000e-08	-5.300729e-06	-2.477199e-08	-3.821867e+01	-1.620474e+03
4.000000e-08	-5.293515e-06	-2.475774e-08	-3.816665e+01	-1.619471e+03
5.000000e-08	-5.284668e-06	-2.473578e-08	-3.810287e+01	-1.618249e+03
6.000000e-08	-5.273829e-06	-2.470827e-08	-3.802471e+01	-1.616797e+03
7.000000e-08	-5.261072e-06	-2.466424e-08	-3.793273e+01	-1.615114e+03
8.000000e-08	-5.246424e-06	-2.463616e-08	-3.782712e+01	-1.613207e+03
9.000000e-08	-5.229517e-06	-2.471086e-08	-3.770522e+01	-1.611096e+03
1.000000e-07	-5.210398e-06	-2.469236e-08	-3.756737e+01	-1.608809e+03
1.100000e-07	-5.189368e-06	-2.457253e-08	-3.741574e+01	-1.606378e+03
1.200000e-07	-5.166615e-06	-2.452369e-08	-3.725169e+01	-1.603836e+03
1.300000e-07	-5.142364e-06	-2.434914e-08	-3.707684e+01	-1.601209e+03
1.400000e-07	-5.116544e-06	-2.432430e-08	-3.689068e+01	-1.598507e+03
1.500000e-07	-5.089011e-06	-2.455055e-08	-3.669216e+01	-1.595725e+03
1.600000e-07	-5.059975e-06	-2.429039e-08	-3.648281e+01	-1.592841e+03
1.700000e-07	-5.029541e-06	-2.424495e-08	-3.626338e+01	-1.589817e+03
1.800000e-07	-4.997268e-06	-2.440082e-08	-3.603069e+01	-1.586608e+03
1.900000e-07	-4.962893e-06	-2.402089e-08	-3.578284e+01	-1.583165e+03
2.000000e-07	-4.926944e-06	-2.403065e-08	-3.552364e+01	-1.579445e+03
2.100000e-07	-4.889434e-06	-2.415944e-08	-3.525320e+01	-1.575416e+03
2.200000e-07	-4.850162e-06	-2.391343e-08	-3.497004e+01	-1.571060e+03
2.300000e-07	-4.809088e-06	-2.388961e-08	-3.467389e+01	-1.566371e+03
2.400000e-07	-4.766012e-06	-2.383231e-08	-3.436331e+01	-1.561358e+03
2.500000e-07	-4.721147e-06	-2.367363e-08	-3.403983e+01	-1.556035e+03
2.600000e-07	-4.674536e-06	-2.366854e-08	-3.370377e+01	-1.550415e+03
2.700000e-07	-4.625944e-06	-2.350992e-08	-3.335341e+01	-1.544513e+03
2.800000e-07	-4.575319e-06	-2.339763e-08	-3.298840e+01	-1.538332e+03
2.900000e-07	-4.522703e-06	-2.333343e-08	-3.260904e+01	-1.531872e+03
3.000000e-07	-4.468347e-06	-2.323381e-08	-3.221713e+01	-1.525124e+03
3.100000e-07	-4.412420e-06	-2.312474e-08	-3.181389e+01	-1.518077e+03
3.200000e-07	-4.354758e-06	-2.299858e-08	-3.139814e+01	-1.510722e+03
3.300000e-07	-4.295409e-06	-2.291250e-08	-3.097023e+01	-1.503051e+03
3.400000e-07	-4.234570e-06	-2.275352e-08	-3.053158e+01	-1.495063e+03
3.500000e-07	-4.172327e-06	-2.261624e-08	-3.008280e+01	-1.486760e+03
3.600000e-07	-4.108742e-06	-2.250782e-08	-2.962435e+01	-1.478147e+03
3.700000e-07	-4.043666e-06	-2.238328e-08	-2.915514e+01	-1.469231e+03
3.800000e-07	-3.976976e-06	-2.226391e-08	-2.867430e+01	-1.460012e+03
3.900000e-07	-3.908742e-06	-2.207214e-08	-2.818233e+01	-1.450483e+03
4.000000e-07	-3.839131e-06	-2.190742e-08	-2.768043e+01	-1.440633e+03
4.100000e-07	-3.768328e-06	-2.178309e-08	-2.716993e+01	-1.430439e+03
4.200000e-07	-3.696378e-06	-2.161784e-08	-2.665117e+01	-1.419877e+03
4.300000e-07	-3.623041e-06	-2.145108e-08	-2.612241e+01	-1.408919e+03
4.400000e-07	-3.548080e-06	-2.127542e-08	-2.558193e+01	-1.397540e+03
4.500000e-07	-3.471696e-06	-2.109503e-08	-2.503120e+01	-1.385721e+03
4.600000e-07	-3.394013e-06	-2.089129e-08	-2.447110e+01	-1.373448e+03
4.700000e-07	-3.314947e-06	-2.069314e-08	-2.390102e+01	-1.360711e+03
4.800000e-07	-3.234559e-06	-2.050928e-08	-2.332142e+01	-1.347505e+03
4.900000e-07	-3.152962e-06	-2.029801e-08	-2.273310e+01	-1.333824e+03
5.000000e-07	-3.070277e-06	-2.008424e-08	-2.213693e+01	-1.319656e+03
5.100000e-07	-2.986668e-06	-1.985431e-08	-2.153410e+01	-1.304984e+03
5.200000e-07	-2.902224e-06	-1.961721e-08	-2.092526e+01	-1.289783e+03
5.300000e-07	-2.816850e-06	-1.937681e-08	-2.030971e+01	-1.274020e+03
5.400000e-07	-2.730474e-06	-1.912739e-08	-1.968693e+01	-1.257658e+03
5.500000e-07	-2.643207e-06	-1.886990e-08	-1.905772e+01	-1.240655e+03
5.600000e-07	-2.555017e-06	-1.859504e-08	-1.842187e+01	-1.222972e+03
5.700000e-07	-2.465756e-06	-1.831429e-08	-1.777829e+01	-1.204572e+03
5.800000e-07	-2.375348e-06	-1.801880e-08	-1.712644e+01	-1.185419e+03
5.900000e-07	-2.283896e-06	-1.771555e-08	-1.646706e+01	-1.165480e+03
6.000000e-07	-2.191688e-06	-1.740023e-08	-1.580224e+01	-1.144721e+03
6.100000e-07	-2.098775e-06	-1.707430e-08	-1.513233e+01	-1.123100e+03
6.200000e-07	-2.005062e-06	-1.673409e-08	-1.445665e+01	-1.100571e+03
6.300000e-07	-1.910659e-06	-1.636998e-08	-1.377600e+01	-1.077075e+03
6.400000e-07	-1.815692e-06	-1.599024e-08	-1.309128e+01	-1.052543e+03
6.500000e-07	-1.720111e-06	-1.559509e-08	-1.240213e+01	-1.026895e+03
6.600000e-07	-1.623888e-06	-1.518385e-08	-1.170836e+01	-1.000043e+03
6.700000e-07	-1.527086e-06	-1.475496e-08	-1.101041e+01	-9.718937e+02
6.800000e-07	-1.429689e-06	-1.430832e-08	-1.030816e+01	-9.423540e+02
6.900000e-07	-1.331624e-06	-1.383672e-08	-9.601114e+00	-9.113309e+02
7.000000e-07	-1.232957e-06	-1.333883e-08	-8.889711e+00	-8.787359e+02
7.100000e-07	-1.133818e-06	-1.281186e-08	-8.174912e+00	-8.444870e+02
7.200000e-07	-1.034316e-06	-1.226019e-08	-7.457501e+00	-8.085118e+02
7.300000e-07	-9.345328e-07	-1.168841e-08	-6.738054e+00	-7.707506e+02
7.400000e-07	-8.344973e-07	-1.108939e-08	-6.016790e+00	-7.311626e+02
7.500000e-07	-7.342308e-07	-1.046014e-08	-5.293860e+00	-6.897327e+02
7.600000e-07	-6.337264e-07	-9.799326e-09	-4.569216e+00	-6.464795e+02
7.700000e-07	-5.330377e-07	-9.110567e-09	-3.843243e+00	-6.014635e+02
7.800000e-07	-4.322592e-07	-8.399759e-09	-3.116622e+00	-5.547922e+02
7.900000e-07	-3.313773e-07	-7.668263e-09	-2.389256e+00	-5.066213e+02
8.000000e-07	-2.303665e-07	-6.914679e-09	-1.660960e+00	-4.571493e+02
8.100000e-07	-1.292319e-07	-6.145854e-09	-9.317716e-01	-4.066051e+02
8.200000e-07	-2.801017e-08	-5.364327e-09	-2.019555e-01	-3.552283e+02
8.300000e-07	7.324759e-08	-4.570693e-09	5.281207e-01	-3.032458e+02
8.400000e-07	1.745131e-07	-3.769693e-09	1.258253e+00	-2.508452e+02
8.500000e-07	2.757312e-07	-2.966094e-09	1.988043e+00	-1.981524e+02
8.600000e-07	3.768558e-07	-2.162505e-09	2.717159e+00	-1.452151e+02
8.700000e-07	4.778780e-07	-1.354061e-09	3.445537e+00	-9.199806e+01
8.800000e-07	5.787783e-07	-5.387996e-10	4.173036e+00	-3.839072e+01
8.900000e-07	6.795012e-07	2.885268e-10	4.899256e+00	1.577105e+01
9.000000e-07	7.800391e-07	1.127093e-09	5.624142e+00	7.067242e+01
9.100000e-07	8.803319e-07	1.977461e-09	6.347260e+00	1.264800e+02
9.200000e-07	9.803668e-07	2.842683e-09	7.068520e+00	1.833011e+02
9.300000e-07	1.080162e-06	3.721696e-09	7.788053e+00	2.411481e+02
9.400000e-07	1.179594e-06	4.614581e-09	8.504965e+00	2.999143e+02
9.500000e-07	1.278604e-06	5.517277e-09	9.218830e+00	3.593647e+02
9.600000e-07	1.377061e-06	6.425787e-09	9.928717e+00	4.191439e+02
9.700000e-07	1.474839e-06	7.334078e-09	1.063370e+01	4.788010e+02
9.800000e-07	1.571907e-06	8.234424e-09	1.133357e+01	5.378266e+02
9.900000e-07	1.668257e-06	9.116733e-09	1.202826e+01	5.956970e+02
1.000000e-06	1.763920e-06	9.971378e-09	1.271800e+01	6.519202e+02
1.010000e-06	1.858957e-06	1.079303e-08	1.340322e+01	7.060750e+02
1.020000e-06	1.953407e-06	1.157649e-08	1.408421e+01	7.578399e+02
1.030000e-06	2.047148e-06	1.231918e-08	1.476009e+01	8.070082e+02
1.040000e-06	2.140155e-06	1.302245e-08	1.543068e+01	8.534883e+02
1.050000e-06	2.232532e-06	1.368497e-08	1.609673e+01	8.972901e+02
1.060000e-06	2.324292e-06	1.430813e-08	1.675832e+01	9.385038e+02
1.070000e-06	2.415242e-06	1.489676e-08	1.741408e+01	9.772722e+02
1.080000e-06	2.505091e-06	1.545330e-08	1.806190e+01	1.013764e+03
1.090000e-06	2.593850e-06	1.597960e-08	1.870186e+01	1.048152e+03
1.100000e-06	2.681735e-06	1.647359e-08	1.933552e+01	1.080597e+03
1.110000e-06	2.768756e-06	1.693697e-08	1.996294e+01	1.111238e+03
1.120000e-06	2.854835e-06	1.737202e-08	2.058358e+01	1.140196e+03
1.130000e-06	2.939953e-06	1.778328e-08	2.119729e+01	1.167571e+03
1.140000e-06	3.024176e-06	1.817492e-08	2.180454e+01	1.193456e+03
1.150000e-06	3.107471e-06	1.854940e-08	2.240511e+01	1.217939e+03
1.160000e-06	3.189589e-06	1.890533e-08	2.299718e+01	1.241109e+03
1.170000e-06	3.270499e-06	1.924227e-08	2.358055e+01	1.263056e+03
1.180000e-06	3.350272e-06	1.956250e-08	2.415572e+01	1.283870e+03
1.190000e-06	3.428869e-06	1.986472e-08	2.472241e+01	1.303638e+03
1.200000e-06	3.506280e-06	2.014786e-08	2.528055e+01	1.322437e+03
1.210000e-06	3.582518e-06	2.041477e-08	2.583023e+01	1.340333e+03
1.220000e-06	3.657363e-06	2.066946e-08	2.636987e+01	1.357380e+03
1.230000e-06	3.730590e-06	2.091388e-08	2.689784e+01	1.373618e+03
1.240000e-06	3.802348e-06	2.114813e-08	2.741522e+01	1.389080e+03
1.250000e-06	3.872735e-06	2.137157e-08	2.792272e+01	1.403794e+03
1.260000e-06	3.941733e-06	2.158455e-08	2.842020e+01	1.417790e+03
1.270000e-06	4.009425e-06	2.178695e-08	2.890826e+01	1.431100e+03
1.280000e-06	4.075630e-06	2.197926e-08	2.938560e+01	1.443761e+03
1.290000e-06	4.140203e-06	2.216111e-08	2.985118e+01	1.455813e+03
1.300000e-06	4.203320e-06	2.233495e-08	3.030626e+01	1.467299e+03
1.310000e-06	4.265013e-06	2.250049e-08	3.075107e+01	1.478253e+03
1.320000e-06	4.325356e-06	2.265865e-08	3.118615e+01	1.488707e+03
1.330000e-06	4.384271e-06	2.280921e-08	3.161093e+01	1.498680e+03
1.340000e-06	4.441443e-06	2.295278e-08	3.202314e+01	1.508181e+03
1.350000e-06	4.496880e-06	2.309075e-08	3.242285e+01	1.517214e+03
1.360000e-06	4.550715e-06	2.322388e-08	3.281100e+01	1.525775e+03
1.370000e-06	4.602833e-06	2.334939e-08	3.318678e+01	1.533867e+03
1.380000e-06	4.652942e-06	2.346455e-08	3.354807e+01	1.541496e+03
1.390000e-06	4.701071e-06	2.357017e-08	3.389508e+01	1.548676e+03
1.400000e-06	4.747534e-06	2.366906e-08	3.423008e+01	1.555434e+03
1.410000e-06	4.792454e-06	2.376497e-08	3.455396e+01	1.561802e+03
1.420000e-06	4.835855e-06	2.385690e-08	3.486689e+01	1.567815e+03
1.430000e-06	4.877447e-06	2.394337e-08	3.516677e+01	1.573511e+03
1.440000e-06	4.917151e-06	2.402480e-08	3.545304e+01	1.578916e+03
1.450000e-06	4.955224e-06	2.410249e-08	3.572754e+01	1.584049e+03
1.460000e-06	4.991773e-06	2.417737e-08	3.599107e+01	1.588918e+03
1.470000e-06	5.026655e-06	2.424807e-08	3.624257e+01	1.593519e+03
1.480000e-06	5.059581e-06	2.431430e-08	3.647997e+01	1.597842e+03
1.490000e-06	5.090643e-06	2.437630e-08	3.670393e+01	1.601872e+03
1.500000e-06	5.120014e-06	2.443266e-08	3.691570e+01	1.605598e+03
1.510000e-06	5.147748e-06	2.448429e-08	3.711566e+01	1.609013e+03
1.520000e-06	5.173523e-06	2.453164e-08	3.730150e+01	1.612116e+03
1.530000e-06	5.197204e-06	2.457412e-08	3.747224e+01	1.614917e+03
1.540000e-06	5.219076e-06	2.461145e-08	3.762994e+01	1.617428e+03
1.550000e-06	5.239313e-06	2.464369e-08	3.777585e+01	1.619663e+03
1.560000e-06	5.257758e-06	2.467160e-08	3.790884e+01	1.621638e+03
1.570000e-06	5.274163e-06	2.469746e-08	3.802712e+01	1.623365e+03
1.580000e-06	5.288614e-06	2.472276e-08	3.813131e+01	1.624852e+03
1.590000e-06	5.301177e-06	2.474461e-08	3.822190e+01	1.626101e+03
1.600000e-06	5.311628e-06	2.476103e-08	3.829724e+01	1.627116e+03
1.610000e-06	5.319893e-06	2.477259e-08	3.835684e+01	1.627899e+03
1.620000e-06	5.326195e-06	2.478138e-08	3.840227e+01	1.628453e+03
1.630000e-06	5.330740e-06	2.478730e-08	3.843504e+01	1.628785e+03
1.640000e-06	5.333464e-06	2.478896e-08	3.845468e+01	1.628905e+03
1.650000e-06	5.334201e-06	2.479137e-08	3.846000e+01	1.628823e+03
1.660000e-06	5.333132e-06	2.478630e-08	3.845229e+01	1.628546e+03
1.670000e-06	5.330394e-06	2.477638e-08	3.843255e+01	1.628078e+03
1.680000e-06	5.326019e-06	2.477199e-08	3.840101e+01	1.627417e+03
1.690000e-06	5.319774e-06	2.476164e-08	3.835598e+01	1.626555e+03
1.700000e-06	5.311665e-06	2.474528e-08	3.829751e+01	1.625482e+03
1.710000e-06	5.301964e-06	2.472859e-08	3.822757e+01	1.624185e+03
1.720000e-06	5.290670e-06	2.472256e-08	3.814614e+01	1.622658e+03
1.730000e-06	5.277578e-06	2.472034e-08	3.805174e+01	1.620901e+03
1.740000e-06	5.262447e-06	2.456670e-08	3.794265e+01	1.618925e+03
1.750000e-06	5.245062e-06	2.449684e-08	3.781730e+01	1.616752e+03
1.760000e-06	5.225116e-06	2.454416e-08	3.767349e+01	1.614414e+03
1.770000e-06	5.202668e-06	2.452825e-08	3.751163e+01	1.611943e+03
1.780000e-06	5.178596e-06	2.467261e-08	3.733808e+01	1.609371e+03
1.790000e-06	5.153813e-06	2.448051e-08	3.715939e+01	1.606718e+03
1.800000e-06	5.127985e-06	2.424516e-08	3.697317e+01	1.603990e+03
1.810000e-06	5.100154e-06	2.451502e-08	3.677250e+01	1.601178e+03
1.820000e-06	5.070391e-06	2.429128e-08	3.655791e+01	1.598253e+03
1.830000e-06	5.038969e-06	2.417578e-08	3.633135e+01	1.595174e+03
1.840000e-06	5.005585e-06	2.451256e-08	3.609065e+01	1.591893e+03
1.850000e-06	4.970538e-06	2.417312e-08	3.583796e+01	1.588365e+03
1.860000e-06	4.933864e-06	2.404836e-08	3.557354e+01	1.584547e+03
1.870000e-06	4.895165e-06	2.420677e-08	3.529452e+01	1.580413e+03
1.880000e-06	4.854776e-06	2.394450e-08	3.500331e+01	1.575949e+03
1.890000e-06	4.812691e-06	2.402449e-08	3.469988e+01	1.571154e+03
1.900000e-06	4.768912e-06	2.390375e-08	3.438422e+01	1.566038e+03
1.910000e-06	4.723474e-06	2.371981e-08	3.405661e+01	1.560617e+03
1.920000e-06	4.676049e-06	2.391627e-08	3.371467e+01	1.554904e+03
1.930000e-06	4.626945e-06	2.363718e-08	3.336063e+01	1.548911e+03
1.940000e-06	4.576187e-06	2.351250e-08	3.299466e+01	1.542640e+03
1.950000e-06	4.523370e-06	2.348408e-08	3.261384e+01	1.536087e+03
1.960000e-06	4.468619e-06	2.333232e-08	3.221908e+01	1.529243e+03
1.970000e-06	4.412178e-06	2.330475e-08	3.181214e+01	1.522098e+03
1.980000e-06	4.354150e-06	2.304806e-08	3.139376e+01	1.514640e+03
1.990000e-06	4.294719e-06	2.303974e-08	3.096525e+01	1.506866e+03
2.000000e-06	4.233871e-06	2.297659e-08	3.052654e+01	1.498775e+03
2.010000e-06	4.171325e-06	2.272041e-08	3.007557e+01	1.490371e+03
2.020000e-06	4.107104e-06	2.263285e-08	2.961254e+01	1.481659e+03
2.030000e-06	4.041481e-06	2.245051e-08	2.913939e+01	1.472645e+03
2.040000e-06	3.974508e-06	2.240371e-08	2.865651e+01	1.463326e+03
2.050000e-06	3.906219e-06	2.222524e-08	2.816414e+01	1.453695e+03
2.060000e-06	3.836415e-06	2.201418e-08	2.766085e+01	1.443736e+03
2.070000e-06	3.765056e-06	2.193908e-08	2.714634e+01	1.433425e+03
2.080000e-06	3.692422e-06	2.172104e-08	2.662265e+01	1.422738e+03
2.090000e-06	3.618480e-06	2.156910e-08	2.608952e+01	1.411646e+03
2.100000e-06	3.543180e-06	2.138018e-08	2.554660e+01	1.400126e+03
2.110000e-06	3.466439e-06	2.123346e-08	2.499329e+01	1.388161e+03
2.120000e-06	3.388165e-06	2.106090e-08	2.442893e+01	1.375739e+03
2.130000e-06	3.308596e-06	2.081250e-08	2.385523e+01	1.362851e+03
2.140000e-06	3.227916e-06	2.062616e-08	2.327353e+01	1.349492e+03
2.150000e-06	3.146169e-06	2.040297e-08	2.268412e+01	1.335654e+03
2.160000e-06	3.063373e-06	2.020840e-08	2.208716e+01	1.321326e+03
2.170000e-06	2.979609e-06	1.997392e-08	2.148321e+01	1.306486e+03
2.180000e-06	2.894797e-06	1.973665e-08	2.087171e+01	1.291107e+03
2.190000e-06	2.808680e-06	1.950455e-08	2.025080e+01	1.275155e+03
2.200000e-06	2.721371e-06	1.924362e-08	1.962129e+01	1.258590e+03
2.210000e-06	2.633141e-06	1.898676e-08	1.898515e+01	1.241372e+03
2.220000e-06	2.544042e-06	1.870757e-08	1.834274e+01	1.223461e+03
2.230000e-06	2.454016e-06	1.843868e-08	1.769364e+01	1.204822e+03
2.240000e-06	2.363207e-06	1.814092e-08	1.703890e+01	1.185419e+03
2.250000e-06	2.271706e-06	1.783115e-08	1.637918e+01	1.165219e+03
2.260000e-06	2.179437e-06	1.750107e-08	1.571391e+01	1.144186e+03
2.270000e-06	2.086345e-06	1.716094e-08	1.504271e+01	1.122278e+03
2.280000e-06	1.992306e-06	1.682146e-08	1.436468e+01	1.099444e+03
2.290000e-06	1.897293e-06	1.646151e-08	1.367963e+01	1.075622e+03
2.300000e-06	1.801535e-06	1.608768e-08	1.298921e+01	1.050740e+03
2.310000e-06	1.705292e-06	1.569401e-08	1.229529e+01	1.024713e+03
2.320000e-06	1.608606e-06	1.528317e-08	1.159817e+01	9.974534e+02
2.330000e-06	1.511412e-06	1.484216e-08	1.089740e+01	9.688667e+02
2.340000e-06	1.413683e-06	1.437853e-08	1.019276e+01	9.388590e+02
2.350000e-06	1.315484e-06	1.389813e-08	9.484739e+00	9.073390e+02
2.360000e-06	1.216906e-06	1.340005e-08	8.773983e+00	8.742198e+02
2.370000e-06	1.118013e-06	1.287220e-08	8.060961e+00	8.394224e+02
2.380000e-06	1.018780e-06	1.231067e-08	7.345482e+00	8.028777e+02
2.390000e-06	9.192437e-07	1.172295e-08	6.627818e+00	7.645317e+02
2.400000e-06	8.194833e-07	1.110910e-08	5.908538e+00	7.243508e+02
2.410000e-06	7.194857e-07	1.046951e-08	5.187547e+00	6.823298e+02
2.420000e-06	6.192565e-07	9.800438e-09	4.464887e+00	6.385001e+02
2.430000e-06	5.188637e-07	9.106445e-09	3.741047e+00	5.929369e+02
2.440000e-06	4.183614e-07	8.389489e-09	3.016418e+00	5.457633e+02
2.450000e-06	3.176626e-07	7.646283e-09	2.290372e+00	4.971498e+02
2.460000e-06	2.167899e-07	6.876747e-09	1.563072e+00	4.473061e+02
2.470000e-06	1.158523e-07	6.095665e-09	8.353036e-01	3.964672e+02
2.480000e-06	1.487522e-08	5.311980e-09	1.072515e-01	3.448713e+02
2.490000e-06	-8.614541e-08	4.520666e-09	-6.211150e-01	2.927354e+02
2.500000e-06	-1.871639e-07	3.722004e-09	-1.349466e+00	2.402296e+02
2.510000e-06	-2.881357e-07	2.918801e-09	-2.077481e+00	1.874559e+02
2.520000e-06	-3.889927e-07	2.110150e-09	-2.804668e+00	1.344354e+02
2.530000e-06	-4.896702e-07	1.290828e-09	-3.530560e+00	8.110698e+01
2.540000e-06	-5.902165e-07	4.657269e-10	-4.255506e+00	2.734001e+01
2.550000e-06	-6.906031e-07	-3.654097e-10	-4.979302e+00	-2.704043e+01
2.560000e-06	-7.907453e-07	-1.208242e-09	-5.701334e+00	-8.221804e+01
2.570000e-06	-8.906265e-07	-2.066491e-09	-6.421486e+00	-1.383447e+02
2.580000e-06	-9.902158e-07	-2.940183e-09	-7.139532e+00	-1.955006e+02
2.590000e-06	-1.089474e-06	-3.825995e-09	-7.855190e+00	-2.536619e+02
2.600000e-06	-1.188350e-06	-4.725752e-09	-8.568094e+00	-3.126809e+02
2.610000e-06	-1.286811e-06	-5.634173e-09	-9.278004e+00	-3.722820e+02
2.620000e-06	-1.384772e-06	-6.547643e-09	-9.984314e+00	-4.320759e+02
2.630000e-06	-1.482189e-06	-7.459808e-09	-1.068670e+01	-4.915882e+02
2.640000e-06	-1.579092e-06	-8.360956e-09	-1.138538e+01	-5.503000e+02
2.650000e-06	-1.675531e-06	-9.244585e-09	-1.208071e+01	-6.076931e+02
2.660000e-06	-1.771555e-06	-1.010102e-08	-1.277305e+01	-6.632941e+02
2.670000e-06	-1.867019e-06	-1.092216e-08	-1.346135e+01	-7.167114e+02
2.680000e-06	-1.961673e-06	-1.170071e-08	-1.414381e+01	-7.676597e+02
2.690000e-06	-2.055339e-06	-1.243556e-08	-1.481915e+01	-8.159698e+02
2.700000e-06	-2.148102e-06	-1.313137e-08	-1.548798e+01	-8.615846e+02
2.710000e-06	-2.240078e-06	-1.379144e-08	-1.615113e+01	-9.045427e+02
2.720000e-06	-2.331261e-06	-1.441688e-08	-1.680857e+01	-9.449541e+02
2.730000e-06	-2.421669e-06	-1.500719e-08	-1.746042e+01	-9.829729e+02
2.740000e-06	-2.511190e-06	-1.556172e-08	-1.810588e+01	-1.018771e+03
2.750000e-06	-2.599813e-06	-1.607964e-08	-1.874485e+01	-1.052519e+03
2.760000e-06	-2.687704e-06	-1.656474e-08	-1.937855e+01	-1.084371e+03
2.770000e-06	-2.774733e-06	-1.702428e-08	-2.000604e+01	-1.114460e+03
2.780000e-06	-2.860610e-06	-1.745949e-08	-2.062522e+01	-1.142899e+03
2.790000e-06	-2.945324e-06	-1.786884e-08	-2.123601e+01	-1.169787e+03
2.800000e-06	-3.029035e-06	-1.825716e-08	-2.183958e+01	-1.195213e+03
2.810000e-06	-3.111794e-06	-1.862698e-08	-2.243628e+01	-1.219265e+03
2.820000e-06	-3.193502e-06	-1.897635e-08	-2.302540e+01	-1.242033e+03
2.830000e-06	-3.274168e-06	-1.930638e-08	-2.360700e+01	-1.263608e+03
2.840000e-06	-3.353818e-06	-1.961933e-08	-2.418129e+01	-1.284077e+03
2.850000e-06	-3.432138e-06	-1.991828e-08	-2.474598e+01	-1.303527e+03
2.860000e-06	-3.508909e-06	-2.020403e-08	-2.529950e+01	-1.322030e+03
2.870000e-06	-3.584212e-06	-2.047439e-08	-2.584245e+01	-1.339649e+03
2.880000e-06	-3.658142e-06	-2.073151e-08	-2.637549e+01	-1.356433e+03
2.890000e-06	-3.730807e-06	-2.097695e-08	-2.689940e+01	-1.372419e+03
2.900000e-06	-3.802223e-06	-2.120989e-08	-2.741432e+01	-1.387639e+03
2.910000e-06	-3.872138e-06	-2.143100e-08	-2.791841e+01	-1.402121e+03
2.920000e-06	-3.940500e-06	-2.164383e-08	-2.841131e+01	-1.415893e+03
2.930000e-06	-4.007506e-06	-2.184965e-08	-2.889442e+01	-1.428991e+03
2.940000e-06	-4.073167e-06	-2.204430e-08	-2.936785e+01	-1.441453e+03
