# Temperatura_=_83.06
# Concentracion g/m^3_=_28200.0
# C_Vs_to_Am_M_A/Vsm_=_65563218390.804596
# pendiente_HvsI_1/m_=_3716.3
# ordenada_HvsI_A/m_=_1297.0
# frecuencia_Hz_=_301765.37279565644

Tiempo_(s)	Campo_(V.s)	Magnetizacion_(V.s)	Campo_(kA/m)	Magnetizacion_(A/m)
0.000000e+00	-5.339009e-06	-2.648785e-08	-3.829807e+01	-1.733679e+03
1.000000e-08	-5.337112e-06	-2.648720e-08	-3.828447e+01	-1.733255e+03
2.000000e-08	-5.333320e-06	-2.647505e-08	-3.825727e+01	-1.732614e+03
3.000000e-08	-5.327902e-06	-2.645973e-08	-3.821840e+01	-1.731753e+03
4.000000e-08	-5.320864e-06	-2.644282e-08	-3.816792e+01	-1.730667e+03
5.000000e-08	-5.312125e-06	-2.642016e-08	-3.810523e+01	-1.729348e+03
6.000000e-08	-5.301431e-06	-2.639409e-08	-3.802852e+01	-1.727790e+03
7.000000e-08	-5.288835e-06	-2.635800e-08	-3.793816e+01	-1.725990e+03
8.000000e-08	-5.274328e-06	-2.632512e-08	-3.783410e+01	-1.723955e+03
9.000000e-08	-5.257566e-06	-2.636352e-08	-3.771387e+01	-1.721698e+03
1.000000e-07	-5.238654e-06	-2.635669e-08	-3.757821e+01	-1.719242e+03
1.100000e-07	-5.217827e-06	-2.625221e-08	-3.742881e+01	-1.716615e+03
1.200000e-07	-5.195173e-06	-2.618694e-08	-3.726631e+01	-1.713851e+03
1.300000e-07	-5.170982e-06	-2.606104e-08	-3.709278e+01	-1.710977e+03
1.400000e-07	-5.145248e-06	-2.598910e-08	-3.690818e+01	-1.708013e+03
1.500000e-07	-5.117827e-06	-2.614570e-08	-3.671148e+01	-1.704965e+03
1.600000e-07	-5.088885e-06	-2.600113e-08	-3.650387e+01	-1.701821e+03
1.700000e-07	-5.058520e-06	-2.588340e-08	-3.628606e+01	-1.698555e+03
1.800000e-07	-5.026367e-06	-2.599176e-08	-3.605542e+01	-1.695124e+03
1.900000e-07	-4.992063e-06	-2.574585e-08	-3.580935e+01	-1.691478e+03
2.000000e-07	-4.956116e-06	-2.567783e-08	-3.555149e+01	-1.687565e+03
2.100000e-07	-4.918655e-06	-2.578942e-08	-3.528277e+01	-1.683341e+03
2.200000e-07	-4.879398e-06	-2.560719e-08	-3.500117e+01	-1.678771e+03
2.300000e-07	-4.838324e-06	-2.552360e-08	-3.470653e+01	-1.673837e+03
2.400000e-07	-4.795265e-06	-2.546492e-08	-3.439766e+01	-1.668536e+03
2.500000e-07	-4.750307e-06	-2.531342e-08	-3.407517e+01	-1.662878e+03
2.600000e-07	-4.703621e-06	-2.528439e-08	-3.374028e+01	-1.656879e+03
2.700000e-07	-4.655072e-06	-2.514409e-08	-3.339202e+01	-1.650560e+03
2.800000e-07	-4.604415e-06	-2.501322e-08	-3.302865e+01	-1.643935e+03
2.900000e-07	-4.551724e-06	-2.494515e-08	-3.265068e+01	-1.637015e+03
3.000000e-07	-4.497353e-06	-2.483340e-08	-3.226066e+01	-1.629799e+03
3.100000e-07	-4.441419e-06	-2.471533e-08	-3.185943e+01	-1.622281e+03
3.200000e-07	-4.383707e-06	-2.459307e-08	-3.144545e+01	-1.614448e+03
3.300000e-07	-4.324275e-06	-2.448891e-08	-3.101913e+01	-1.606289e+03
3.400000e-07	-4.263388e-06	-2.433636e-08	-3.058237e+01	-1.597794e+03
3.500000e-07	-4.201091e-06	-2.418410e-08	-3.013550e+01	-1.588957e+03
3.600000e-07	-4.137376e-06	-2.406140e-08	-2.967846e+01	-1.579779e+03
3.700000e-07	-4.072109e-06	-2.392582e-08	-2.921028e+01	-1.570262e+03
3.800000e-07	-4.005187e-06	-2.378886e-08	-2.873023e+01	-1.560409e+03
3.900000e-07	-3.936758e-06	-2.360027e-08	-2.823937e+01	-1.550219e+03
4.000000e-07	-3.867018e-06	-2.342342e-08	-2.773911e+01	-1.539686e+03
4.100000e-07	-3.796136e-06	-2.329187e-08	-2.723066e+01	-1.528796e+03
4.200000e-07	-3.724066e-06	-2.311801e-08	-2.671368e+01	-1.517526e+03
4.300000e-07	-3.650488e-06	-2.293512e-08	-2.618588e+01	-1.505851e+03
4.400000e-07	-3.575276e-06	-2.274575e-08	-2.564637e+01	-1.493743e+03
4.500000e-07	-3.498622e-06	-2.254946e-08	-2.509651e+01	-1.481177e+03
4.600000e-07	-3.420638e-06	-2.233945e-08	-2.453711e+01	-1.468132e+03
4.700000e-07	-3.341307e-06	-2.213174e-08	-2.396805e+01	-1.454592e+03
4.800000e-07	-3.260648e-06	-2.193522e-08	-2.338947e+01	-1.440546e+03
4.900000e-07	-3.178770e-06	-2.171232e-08	-2.280213e+01	-1.425985e+03
5.000000e-07	-3.095853e-06	-2.148035e-08	-2.220735e+01	-1.410897e+03
5.100000e-07	-3.012013e-06	-2.123439e-08	-2.160594e+01	-1.395268e+03
5.200000e-07	-2.927242e-06	-2.098316e-08	-2.099786e+01	-1.379074e+03
5.300000e-07	-2.841496e-06	-2.072762e-08	-2.038278e+01	-1.362283e+03
5.400000e-07	-2.754806e-06	-2.046110e-08	-1.976093e+01	-1.344860e+03
5.500000e-07	-2.667253e-06	-2.018492e-08	-1.913289e+01	-1.326764e+03
5.600000e-07	-2.578711e-06	-1.989350e-08	-1.849775e+01	-1.307952e+03
5.700000e-07	-2.488930e-06	-1.959445e-08	-1.785374e+01	-1.288385e+03
5.800000e-07	-2.398032e-06	-1.928351e-08	-1.720169e+01	-1.268025e+03
5.900000e-07	-2.306284e-06	-1.896153e-08	-1.654357e+01	-1.246834e+03
6.000000e-07	-2.213799e-06	-1.862723e-08	-1.588015e+01	-1.224777e+03
6.100000e-07	-2.120575e-06	-1.827966e-08	-1.521142e+01	-1.201810e+03
6.200000e-07	-2.026560e-06	-1.791404e-08	-1.453703e+01	-1.177883e+03
6.300000e-07	-1.931809e-06	-1.752641e-08	-1.385736e+01	-1.152934e+03
6.400000e-07	-1.836476e-06	-1.712246e-08	-1.317351e+01	-1.126888e+03
6.500000e-07	-1.740606e-06	-1.670462e-08	-1.248581e+01	-1.099662e+03
6.600000e-07	-1.644030e-06	-1.626981e-08	-1.179305e+01	-1.071161e+03
6.700000e-07	-1.546671e-06	-1.581607e-08	-1.109467e+01	-1.041288e+03
6.800000e-07	-1.448605e-06	-1.534020e-08	-1.039122e+01	-1.009942e+03
6.900000e-07	-1.349951e-06	-1.483686e-08	-9.683546e+00	-9.770276e+02
7.000000e-07	-1.250858e-06	-1.430803e-08	-8.972724e+00	-9.424486e+02
7.100000e-07	-1.151380e-06	-1.375168e-08	-8.259140e+00	-9.061153e+02
7.200000e-07	-1.051580e-06	-1.317059e-08	-7.543249e+00	-8.679438e+02
7.300000e-07	-9.515332e-07	-1.256402e-08	-6.825591e+00	-8.278593e+02
7.400000e-07	-8.511857e-07	-1.192580e-08	-6.105773e+00	-7.858018e+02
7.500000e-07	-7.505197e-07	-1.125422e-08	-5.383670e+00	-7.417352e+02
7.600000e-07	-6.496148e-07	-1.054900e-08	-4.659853e+00	-6.956579e+02
7.700000e-07	-5.484951e-07	-9.813287e-09	-3.934496e+00	-6.476152e+02
7.800000e-07	-4.471972e-07	-9.052509e-09	-3.207860e+00	-5.977082e+02
7.900000e-07	-3.458007e-07	-8.267255e-09	-2.480517e+00	-5.460984e+02
8.000000e-07	-2.442288e-07	-7.458396e-09	-1.751916e+00	-4.930037e+02
8.100000e-07	-1.424867e-07	-6.632525e-09	-1.022094e+00	-4.386849e+02
8.200000e-07	-4.072740e-08	-5.792613e-09	-2.921481e-01	-3.834219e+02
8.300000e-07	6.109489e-08	-4.942034e-09	4.382493e-01	-3.274842e+02
8.400000e-07	1.629544e-07	-4.083161e-09	1.168913e+00	-2.710971e+02
8.500000e-07	2.647629e-07	-3.222091e-09	1.899212e+00	-2.144119e+02
8.600000e-07	3.664716e-07	-2.359511e-09	2.628795e+00	-1.574844e+02
8.700000e-07	4.680359e-07	-1.489181e-09	3.357341e+00	-1.002684e+02
8.800000e-07	5.694664e-07	-6.101921e-10	4.084929e+00	-4.262569e+01
8.900000e-07	6.707662e-07	2.798681e-10	4.811578e+00	1.564688e+01
9.000000e-07	7.718161e-07	1.182635e-09	5.536434e+00	7.477544e+01
9.100000e-07	8.725408e-07	2.099857e-09	6.258958e+00	1.349598e+02
9.200000e-07	9.729955e-07	3.033321e-09	6.979546e+00	1.963234e+02
9.300000e-07	1.073166e-06	3.982805e-09	7.698094e+00	2.588714e+02
9.400000e-07	1.173043e-06	4.948580e-09	8.414535e+00	3.224642e+02
9.500000e-07	1.272594e-06	5.928546e-09	9.128645e+00	3.868104e+02
9.600000e-07	1.371770e-06	6.915097e-09	9.840056e+00	4.514813e+02
9.700000e-07	1.470412e-06	7.899957e-09	1.054764e+01	5.159452e+02
9.800000e-07	1.568275e-06	8.871427e-09	1.124964e+01	5.796149e+02
9.900000e-07	1.665283e-06	9.817547e-09	1.194550e+01	6.419013e+02
1.000000e-06	1.761463e-06	1.073163e-08	1.263542e+01	7.022661e+02
1.010000e-06	1.856976e-06	1.160935e-08	1.332057e+01	7.602644e+02
1.020000e-06	1.951980e-06	1.244844e-08	1.400205e+01	8.155724e+02
1.030000e-06	2.046325e-06	1.324485e-08	1.467881e+01	8.679989e+02
1.040000e-06	2.139916e-06	1.399740e-08	1.535017e+01	9.174784e+02
1.050000e-06	2.232772e-06	1.470279e-08	1.601624e+01	9.640521e+02
1.060000e-06	2.324935e-06	1.536412e-08	1.667735e+01	1.007840e+03
1.070000e-06	2.416419e-06	1.598633e-08	1.733359e+01	1.049009e+03
1.080000e-06	2.507027e-06	1.657359e-08	1.798354e+01	1.087745e+03
1.090000e-06	2.596492e-06	1.713008e-08	1.862530e+01	1.124233e+03
1.100000e-06	2.684830e-06	1.765492e-08	1.925897e+01	1.158639e+03
1.110000e-06	2.772306e-06	1.814809e-08	1.988646e+01	1.191108e+03
1.120000e-06	2.858908e-06	1.861187e-08	2.050768e+01	1.221766e+03
1.130000e-06	2.944522e-06	1.905029e-08	2.112181e+01	1.250723e+03
1.140000e-06	3.029174e-06	1.946611e-08	2.172904e+01	1.278080e+03
1.150000e-06	3.112929e-06	1.986055e-08	2.232984e+01	1.303937e+03
1.160000e-06	3.195761e-06	2.023329e-08	2.292401e+01	1.328396e+03
1.170000e-06	3.277360e-06	2.058706e-08	2.350934e+01	1.351555e+03
1.180000e-06	3.357673e-06	2.092272e-08	2.408545e+01	1.373514e+03
1.190000e-06	3.436825e-06	2.124151e-08	2.465322e+01	1.394365e+03
1.200000e-06	3.514741e-06	2.154185e-08	2.521214e+01	1.414191e+03
1.210000e-06	3.591423e-06	2.182462e-08	2.576220e+01	1.433061e+03
1.220000e-06	3.666813e-06	2.209433e-08	2.630299e+01	1.451031e+03
1.230000e-06	3.740709e-06	2.235276e-08	2.683306e+01	1.468149e+03
1.240000e-06	3.813009e-06	2.260134e-08	2.735169e+01	1.484453e+03
1.250000e-06	3.883874e-06	2.283850e-08	2.786002e+01	1.499978e+03
1.260000e-06	3.953417e-06	2.306239e-08	2.835888e+01	1.514759e+03
1.270000e-06	4.021635e-06	2.327441e-08	2.884822e+01	1.528832e+03
1.280000e-06	4.088408e-06	2.347479e-08	2.932720e+01	1.542237e+03
1.290000e-06	4.153494e-06	2.366609e-08	2.979408e+01	1.555014e+03
1.300000e-06	4.217004e-06	2.385075e-08	3.024965e+01	1.567201e+03
1.310000e-06	4.279131e-06	2.402812e-08	3.069530e+01	1.578832e+03
1.320000e-06	4.339866e-06	2.419742e-08	3.113097e+01	1.589935e+03
1.330000e-06	4.399271e-06	2.435787e-08	3.155710e+01	1.600530e+03
1.340000e-06	4.457064e-06	2.451177e-08	3.197166e+01	1.610627e+03
1.350000e-06	4.513026e-06	2.465989e-08	3.237309e+01	1.620233e+03
1.360000e-06	4.567333e-06	2.480092e-08	3.276265e+01	1.629353e+03
1.370000e-06	4.619937e-06	2.493289e-08	3.313999e+01	1.637990e+03
1.380000e-06	4.670628e-06	2.505623e-08	3.350361e+01	1.646154e+03
1.390000e-06	4.719294e-06	2.517243e-08	3.385270e+01	1.653860e+03
1.400000e-06	4.766169e-06	2.528157e-08	3.418895e+01	1.661127e+03
1.410000e-06	4.811489e-06	2.538489e-08	3.451405e+01	1.667984e+03
1.420000e-06	4.855291e-06	2.548370e-08	3.482825e+01	1.674458e+03
1.430000e-06	4.897342e-06	2.557786e-08	3.512989e+01	1.680579e+03
1.440000e-06	4.937480e-06	2.566681e-08	3.541780e+01	1.686371e+03
1.450000e-06	4.975904e-06	2.575056e-08	3.569343e+01	1.691853e+03
1.460000e-06	5.012723e-06	2.583019e-08	3.595754e+01	1.697035e+03
1.470000e-06	5.047920e-06	2.590531e-08	3.621003e+01	1.701922e+03
1.480000e-06	5.081209e-06	2.597496e-08	3.644881e+01	1.706509e+03
1.490000e-06	5.112629e-06	2.603923e-08	3.667420e+01	1.710791e+03
1.500000e-06	5.142380e-06	2.609813e-08	3.688761e+01	1.714760e+03
1.510000e-06	5.170483e-06	2.615361e-08	3.708920e+01	1.718411e+03
1.520000e-06	5.196750e-06	2.620540e-08	3.727762e+01	1.721743e+03
1.530000e-06	5.220894e-06	2.625293e-08	3.745081e+01	1.724758e+03
1.540000e-06	5.243120e-06	2.629660e-08	3.761024e+01	1.727466e+03
1.550000e-06	5.263647e-06	2.633355e-08	3.775749e+01	1.729876e+03
1.560000e-06	5.282391e-06	2.636303e-08	3.789194e+01	1.732003e+03
1.570000e-06	5.299154e-06	2.638838e-08	3.801219e+01	1.733859e+03
1.580000e-06	5.313917e-06	2.641268e-08	3.811809e+01	1.735456e+03
1.590000e-06	5.326767e-06	2.643562e-08	3.821026e+01	1.736802e+03
1.600000e-06	5.337454e-06	2.645419e-08	3.828693e+01	1.737904e+03
1.610000e-06	5.345945e-06	2.646847e-08	3.834783e+01	1.738767e+03
1.620000e-06	5.352566e-06	2.648004e-08	3.839533e+01	1.739394e+03
1.630000e-06	5.357439e-06	2.648757e-08	3.843028e+01	1.739790e+03
1.640000e-06	5.360512e-06	2.649112e-08	3.845233e+01	1.739959e+03
1.650000e-06	5.361582e-06	2.649364e-08	3.846000e+01	1.739906e+03
1.660000e-06	5.360681e-06	2.648874e-08	3.845354e+01	1.739635e+03
1.670000e-06	5.358089e-06	2.647599e-08	3.843494e+01	1.739148e+03
1.680000e-06	5.353915e-06	2.646814e-08	3.840501e+01	1.738444e+03
1.690000e-06	5.347919e-06	2.645713e-08	3.836199e+01	1.737519e+03
1.700000e-06	5.340036e-06	2.644032e-08	3.830544e+01	1.736366e+03
1.710000e-06	5.330523e-06	2.642150e-08	3.823720e+01	1.734978e+03
1.720000e-06	5.319395e-06	2.640764e-08	3.815738e+01	1.733350e+03
1.730000e-06	5.306385e-06	2.639776e-08	3.806406e+01	1.731482e+03
1.740000e-06	5.291316e-06	2.628417e-08	3.795597e+01	1.729380e+03
1.750000e-06	5.274069e-06	2.619594e-08	3.783225e+01	1.727062e+03
1.760000e-06	5.254370e-06	2.622391e-08	3.769094e+01	1.724553e+03
1.770000e-06	5.232099e-06	2.621454e-08	3.753119e+01	1.721883e+03
1.780000e-06	5.208045e-06	2.629420e-08	3.735864e+01	1.719084e+03
1.790000e-06	5.183242e-06	2.618795e-08	3.718072e+01	1.716182e+03
1.800000e-06	5.157465e-06	2.594679e-08	3.699582e+01	1.713193e+03
1.810000e-06	5.129725e-06	2.610410e-08	3.679683e+01	1.710119e+03
1.820000e-06	5.099873e-06	2.601082e-08	3.658269e+01	1.706943e+03
1.830000e-06	5.068296e-06	2.585161e-08	3.635619e+01	1.703633e+03
1.840000e-06	5.034842e-06	2.607777e-08	3.611621e+01	1.700145e+03
1.850000e-06	4.999734e-06	2.586843e-08	3.586437e+01	1.696427e+03
1.860000e-06	4.963093e-06	2.567661e-08	3.560154e+01	1.692428e+03
1.870000e-06	4.924500e-06	2.579659e-08	3.532470e+01	1.688107e+03
1.880000e-06	4.884154e-06	2.561126e-08	3.503529e+01	1.683434e+03
1.890000e-06	4.842135e-06	2.561135e-08	3.473388e+01	1.678394e+03
1.900000e-06	4.798345e-06	2.555318e-08	3.441976e+01	1.672989e+03
1.910000e-06	4.752819e-06	2.535271e-08	3.409319e+01	1.667230e+03
1.920000e-06	4.705344e-06	2.547878e-08	3.375264e+01	1.661137e+03
1.930000e-06	4.656190e-06	2.528728e-08	3.340004e+01	1.654728e+03
1.940000e-06	4.605432e-06	2.510171e-08	3.303595e+01	1.648017e+03
1.950000e-06	4.552598e-06	2.508131e-08	3.265695e+01	1.641012e+03
1.960000e-06	4.497762e-06	2.493207e-08	3.226360e+01	1.633710e+03
1.970000e-06	4.441203e-06	2.486188e-08	3.185789e+01	1.626102e+03
1.980000e-06	4.383049e-06	2.465763e-08	3.144073e+01	1.618176e+03
1.990000e-06	4.323491e-06	2.458691e-08	3.101351e+01	1.609921e+03
2.000000e-06	4.262452e-06	2.453670e-08	3.057566e+01	1.601328e+03
2.010000e-06	4.199751e-06	2.428981e-08	3.012589e+01	1.592392e+03
2.020000e-06	4.135368e-06	2.416756e-08	2.966405e+01	1.583116e+03
2.030000e-06	4.069505e-06	2.400454e-08	2.919160e+01	1.573502e+03
2.040000e-06	4.002364e-06	2.391055e-08	2.870998e+01	1.563552e+03
2.050000e-06	3.933825e-06	2.375146e-08	2.821834e+01	1.553264e+03
2.060000e-06	3.863701e-06	2.352296e-08	2.771532e+01	1.542630e+03
2.070000e-06	3.792090e-06	2.342115e-08	2.720163e+01	1.531633e+03
2.080000e-06	3.719279e-06	2.321797e-08	2.667934e+01	1.520249e+03
2.090000e-06	3.645169e-06	2.304250e-08	2.614773e+01	1.508452e+03
2.100000e-06	3.569635e-06	2.286130e-08	2.560591e+01	1.496215e+03
2.110000e-06	3.492559e-06	2.268331e-08	2.505302e+01	1.483513e+03
2.120000e-06	3.413941e-06	2.249913e-08	2.448907e+01	1.470327e+03
2.130000e-06	3.334109e-06	2.224223e-08	2.391641e+01	1.456642e+03
2.140000e-06	3.253165e-06	2.203399e-08	2.333579e+01	1.442449e+03
2.150000e-06	3.171105e-06	2.180884e-08	2.274715e+01	1.427738e+03
2.160000e-06	3.088022e-06	2.159680e-08	2.215118e+01	1.412497e+03
2.170000e-06	3.004015e-06	2.136009e-08	2.154857e+01	1.396708e+03
2.180000e-06	2.918856e-06	2.110381e-08	2.093770e+01	1.380346e+03
2.190000e-06	2.832359e-06	2.085389e-08	2.031723e+01	1.363378e+03
2.200000e-06	2.744730e-06	2.057776e-08	1.968865e+01	1.345766e+03
2.210000e-06	2.656164e-06	2.030265e-08	1.905334e+01	1.327468e+03
2.220000e-06	2.566702e-06	2.000749e-08	1.841161e+01	1.308444e+03
2.230000e-06	2.476350e-06	1.971329e-08	1.776349e+01	1.288653e+03
2.240000e-06	2.385237e-06	1.940028e-08	1.710992e+01	1.268058e+03
2.250000e-06	2.293497e-06	1.907160e-08	1.645184e+01	1.246623e+03
2.260000e-06	2.201035e-06	1.872729e-08	1.578858e+01	1.224310e+03
2.270000e-06	2.107561e-06	1.837056e-08	1.511807e+01	1.201073e+03
2.280000e-06	2.013008e-06	1.801063e-08	1.443982e+01	1.176860e+03
2.290000e-06	1.917600e-06	1.762961e-08	1.375544e+01	1.151604e+03
2.300000e-06	1.821565e-06	1.723028e-08	1.306655e+01	1.125230e+03
2.310000e-06	1.725015e-06	1.680999e-08	1.237398e+01	1.097648e+03
2.320000e-06	1.627960e-06	1.637197e-08	1.167778e+01	1.068764e+03
2.330000e-06	1.530403e-06	1.590819e-08	1.097797e+01	1.038479e+03
2.340000e-06	1.432297e-06	1.541980e-08	1.027423e+01	1.006695e+03
2.350000e-06	1.333712e-06	1.491106e-08	9.567054e+00	9.733129e+02
2.360000e-06	1.234774e-06	1.438046e-08	8.857347e+00	9.382407e+02
2.370000e-06	1.135543e-06	1.381919e-08	8.145541e+00	9.013895e+02
2.380000e-06	1.036038e-06	1.322475e-08	7.431765e+00	8.626776e+02
2.390000e-06	9.362611e-07	1.260308e-08	6.716040e+00	8.220337e+02
2.400000e-06	8.362476e-07	1.195269e-08	5.998618e+00	7.794037e+02
2.410000e-06	7.359714e-07	1.127255e-08	5.279311e+00	7.347600e+02
2.420000e-06	6.353428e-07	1.056054e-08	4.557476e+00	6.881133e+02
2.430000e-06	5.344290e-07	9.820037e-09	3.833596e+00	6.395240e+02
2.440000e-06	4.333136e-07	9.051675e-09	3.108270e+00	5.891105e+02
2.450000e-06	3.319564e-07	8.255648e-09	2.381208e+00	5.370511e+02
2.460000e-06	2.304570e-07	7.433661e-09	1.653127e+00	4.835778e+02
2.470000e-06	1.288666e-07	6.595972e-09	9.243931e-01	4.289595e+02
2.480000e-06	2.716937e-08	5.751992e-09	1.948929e-01	3.734767e+02
2.490000e-06	-7.458942e-08	4.897762e-09	-5.350490e-01	3.173894e+02
2.500000e-06	-1.763313e-07	4.033790e-09	-1.264870e+00	2.609046e+02
2.510000e-06	-2.779081e-07	3.164886e-09	-1.993506e+00	2.041480e+02
2.520000e-06	-3.793082e-07	2.291978e-09	-2.720875e+00	1.471462e+02
2.530000e-06	-4.806103e-07	1.412540e-09	-3.447541e+00	8.982499e+01
2.540000e-06	-5.817052e-07	5.279326e-10	-4.172720e+00	3.202396e+01
2.550000e-06	-6.825239e-07	-3.639691e-10	-4.895919e+00	-2.647122e+01
2.560000e-06	-7.830400e-07	-1.269318e-09	-5.616946e+00	-8.588442e+01
2.570000e-06	-8.832584e-07	-2.194354e-09	-6.335838e+00	-1.463985e+02
2.580000e-06	-9.831834e-07	-3.138045e-09	-7.052626e+00	-2.081069e+02
2.590000e-06	-1.082786e-06	-4.096493e-09	-7.767099e+00	-2.709754e+02
2.600000e-06	-1.182100e-06	-5.070514e-09	-8.479506e+00	-3.348205e+02
2.610000e-06	-1.281104e-06	-6.054084e-09	-9.189690e+00	-3.993094e+02
2.620000e-06	-1.379696e-06	-7.040987e-09	-9.896914e+00	-4.639798e+02
2.630000e-06	-1.477723e-06	-8.025335e-09	-1.060008e+01	-5.282788e+02
2.640000e-06	-1.575161e-06	-8.998241e-09	-1.129903e+01	-5.916129e+02
2.650000e-06	-1.672079e-06	-9.949065e-09	-1.199425e+01	-6.534028e+02
2.660000e-06	-1.768492e-06	-1.086497e-08	-1.268584e+01	-7.131329e+02
2.670000e-06	-1.864403e-06	-1.174158e-08	-1.337384e+01	-7.703907e+02
2.680000e-06	-1.959740e-06	-1.257522e-08	-1.405772e+01	-8.248902e+02
2.690000e-06	-2.054308e-06	-1.336219e-08	-1.473608e+01	-8.764771e+02
2.700000e-06	-2.147834e-06	-1.410594e-08	-1.540696e+01	-9.251191e+02
2.710000e-06	-2.240316e-06	-1.480870e-08	-1.607036e+01	-9.708829e+02
2.720000e-06	-2.331999e-06	-1.547135e-08	-1.672803e+01	-1.013905e+03
2.730000e-06	-2.422937e-06	-1.609496e-08	-1.738035e+01	-1.054360e+03
2.740000e-06	-2.513034e-06	-1.668164e-08	-1.802664e+01	-1.092437e+03
2.750000e-06	-2.602210e-06	-1.723420e-08	-1.866632e+01	-1.128315e+03
2.760000e-06	-2.690517e-06	-1.775261e-08	-1.929977e+01	-1.162154e+03
2.770000e-06	-2.778058e-06	-1.823845e-08	-1.992772e+01	-1.194095e+03
2.780000e-06	-2.864664e-06	-1.869755e-08	-2.054897e+01	-1.224257e+03
2.790000e-06	-2.950079e-06	-1.912992e-08	-2.116167e+01	-1.252748e+03
2.800000e-06	-3.034315e-06	-1.953817e-08	-2.176592e+01	-1.279667e+03
2.810000e-06	-3.117522e-06	-1.992778e-08	-2.236278e+01	-1.305116e+03
2.820000e-06	-3.199742e-06	-2.029930e-08	-2.295257e+01	-1.329193e+03
2.830000e-06	-3.280901e-06	-2.065104e-08	-2.353474e+01	-1.352001e+03
2.840000e-06	-3.360994e-06	-2.098267e-08	-2.410927e+01	-1.373635e+03
2.850000e-06	-3.439934e-06	-2.129691e-08	-2.467553e+01	-1.394187e+03
2.860000e-06	-3.517411e-06	-2.159580e-08	-2.523129e+01	-1.413733e+03
2.870000e-06	-3.593386e-06	-2.188132e-08	-2.577628e+01	-1.432342e+03
2.880000e-06	-3.667946e-06	-2.215299e-08	-2.631112e+01	-1.450066e+03
2.890000e-06	-3.741140e-06	-2.241105e-08	-2.683615e+01	-1.466948e+03
2.900000e-06	-3.813072e-06	-2.265718e-08	-2.735214e+01	-1.483027e+03
2.910000e-06	-3.883608e-06	-2.289248e-08	-2.785811e+01	-1.498337e+03
2.920000e-06	-3.952523e-06	-2.311759e-08	-2.835246e+01	-1.512912e+03
2.930000e-06	-4.019945e-06	-2.333280e-08	-2.883609e+01	-1.526792e+03
2.940000e-06	-4.086054e-06	-2.353787e-08	-2.931031e+01	-1.540014e+03
