# Temperatura_=_53.82
# Concentracion g/m^3_=_28200.0
# C_Vs_to_Am_M_A/Vsm_=_65563218390.804596
# pendiente_HvsI_1/m_=_3716.3
# ordenada_HvsI_A/m_=_1297.0
# frecuencia_Hz_=_301772.0324162492

Tiempo_(s)	Campo_(V.s)	Magnetizacion_(V.s)	Campo_(kA/m)	Magnetizacion_(A/m)
0.000000e+00	-5.348109e-06	-2.140123e-08	-3.830183e+01	-1.401098e+03
1.000000e-08	-5.346530e-06	-2.140125e-08	-3.829053e+01	-1.400777e+03
2.000000e-08	-5.343025e-06	-2.139342e-08	-3.826543e+01	-1.400299e+03
3.000000e-08	-5.337856e-06	-2.138026e-08	-3.822840e+01	-1.399662e+03
4.000000e-08	-5.331028e-06	-2.136732e-08	-3.817950e+01	-1.398859e+03
5.000000e-08	-5.322603e-06	-2.135054e-08	-3.811917e+01	-1.397879e+03
6.000000e-08	-5.312294e-06	-2.132921e-08	-3.804533e+01	-1.396708e+03
7.000000e-08	-5.299951e-06	-2.129989e-08	-3.795694e+01	-1.395340e+03
8.000000e-08	-5.285715e-06	-2.126127e-08	-3.785498e+01	-1.393772e+03
9.000000e-08	-5.269286e-06	-2.129634e-08	-3.773732e+01	-1.392013e+03
1.000000e-07	-5.250646e-06	-2.133164e-08	-3.760383e+01	-1.390082e+03
1.100000e-07	-5.230024e-06	-2.123848e-08	-3.745614e+01	-1.388005e+03
1.200000e-07	-5.207537e-06	-2.117067e-08	-3.729509e+01	-1.385810e+03
1.300000e-07	-5.183503e-06	-2.108563e-08	-3.712297e+01	-1.383523e+03
1.400000e-07	-5.158004e-06	-2.094668e-08	-3.694035e+01	-1.381160e+03
1.500000e-07	-5.130805e-06	-2.111860e-08	-3.674556e+01	-1.378726e+03
1.600000e-07	-5.101960e-06	-2.108755e-08	-3.653897e+01	-1.376211e+03
1.700000e-07	-5.071710e-06	-2.087704e-08	-3.632234e+01	-1.373591e+03
1.800000e-07	-5.039796e-06	-2.103737e-08	-3.609378e+01	-1.370834e+03
1.900000e-07	-5.005757e-06	-2.087904e-08	-3.584999e+01	-1.367901e+03
2.000000e-07	-4.970009e-06	-2.069582e-08	-3.559398e+01	-1.364758e+03
2.100000e-07	-4.932757e-06	-2.087256e-08	-3.532718e+01	-1.361373e+03
2.200000e-07	-4.893690e-06	-2.073002e-08	-3.504740e+01	-1.357729e+03
2.300000e-07	-4.852846e-06	-2.058967e-08	-3.475488e+01	-1.353817e+03
2.400000e-07	-4.810035e-06	-2.060469e-08	-3.444828e+01	-1.349637e+03
2.500000e-07	-4.765320e-06	-2.047313e-08	-3.412804e+01	-1.345199e+03
2.600000e-07	-4.718868e-06	-2.045557e-08	-3.379536e+01	-1.340513e+03
2.700000e-07	-4.670515e-06	-2.036703e-08	-3.344907e+01	-1.335588e+03
2.800000e-07	-4.620088e-06	-2.023132e-08	-3.308793e+01	-1.330429e+03
2.900000e-07	-4.567604e-06	-2.017670e-08	-3.271205e+01	-1.325036e+03
3.000000e-07	-4.513388e-06	-2.009635e-08	-3.232377e+01	-1.319404e+03
3.100000e-07	-4.457606e-06	-2.001993e-08	-3.192427e+01	-1.313524e+03
3.200000e-07	-4.400058e-06	-1.992186e-08	-3.151213e+01	-1.307389e+03
3.300000e-07	-4.340751e-06	-1.983645e-08	-3.108739e+01	-1.300990e+03
3.400000e-07	-4.279970e-06	-1.972025e-08	-3.065209e+01	-1.294322e+03
3.500000e-07	-4.217779e-06	-1.957591e-08	-3.020669e+01	-1.287385e+03
3.600000e-07	-4.154161e-06	-1.949202e-08	-2.975108e+01	-1.280179e+03
3.700000e-07	-4.088990e-06	-1.939817e-08	-2.928434e+01	-1.272704e+03
3.800000e-07	-4.022140e-06	-1.929608e-08	-2.880557e+01	-1.264958e+03
3.900000e-07	-3.953857e-06	-1.914886e-08	-2.831654e+01	-1.256936e+03
4.000000e-07	-3.884247e-06	-1.898057e-08	-2.781802e+01	-1.248626e+03
4.100000e-07	-3.813354e-06	-1.888339e-08	-2.731030e+01	-1.240014e+03
4.200000e-07	-3.741209e-06	-1.875372e-08	-2.679361e+01	-1.231081e+03
4.300000e-07	-3.667621e-06	-1.861280e-08	-2.626659e+01	-1.221806e+03
4.400000e-07	-3.592431e-06	-1.846004e-08	-2.572810e+01	-1.212171e+03
4.500000e-07	-3.515782e-06	-1.830103e-08	-2.517916e+01	-1.202159e+03
4.600000e-07	-3.437837e-06	-1.813466e-08	-2.462094e+01	-1.191759e+03
4.700000e-07	-3.358507e-06	-1.796419e-08	-2.405280e+01	-1.180960e+03
4.800000e-07	-3.277850e-06	-1.781461e-08	-2.347515e+01	-1.169756e+03
4.900000e-07	-3.195985e-06	-1.763633e-08	-2.288886e+01	-1.158137e+03
5.000000e-07	-3.113088e-06	-1.744918e-08	-2.229517e+01	-1.146093e+03
5.100000e-07	-3.029293e-06	-1.725213e-08	-2.169505e+01	-1.133609e+03
5.200000e-07	-2.944614e-06	-1.704922e-08	-2.108860e+01	-1.120664e+03
5.300000e-07	-2.858969e-06	-1.684370e-08	-2.047523e+01	-1.107229e+03
5.400000e-07	-2.772346e-06	-1.663318e-08	-1.985486e+01	-1.093273e+03
5.500000e-07	-2.684809e-06	-1.641345e-08	-1.922794e+01	-1.078758e+03
5.600000e-07	-2.596293e-06	-1.617903e-08	-1.859401e+01	-1.063648e+03
5.700000e-07	-2.506600e-06	-1.593762e-08	-1.795165e+01	-1.047904e+03
5.800000e-07	-2.415779e-06	-1.568592e-08	-1.730121e+01	-1.031490e+03
5.900000e-07	-2.324076e-06	-1.542385e-08	-1.664446e+01	-1.014369e+03
6.000000e-07	-2.231628e-06	-1.514976e-08	-1.598237e+01	-9.965075e+02
6.100000e-07	-2.138426e-06	-1.486667e-08	-1.531488e+01	-9.778693e+02
6.200000e-07	-2.044414e-06	-1.457241e-08	-1.464159e+01	-9.584172e+02
6.300000e-07	-1.949685e-06	-1.426193e-08	-1.396316e+01	-9.381098e+02
6.400000e-07	-1.854306e-06	-1.393321e-08	-1.328008e+01	-9.169001e+02
6.500000e-07	-1.758297e-06	-1.359112e-08	-1.259249e+01	-8.947340e+02
6.600000e-07	-1.661657e-06	-1.323439e-08	-1.190038e+01	-8.715503e+02
6.700000e-07	-1.564293e-06	-1.286108e-08	-1.120308e+01	-8.472796e+02
6.800000e-07	-1.466184e-06	-1.247223e-08	-1.050045e+01	-8.218459e+02
6.900000e-07	-1.367449e-06	-1.206616e-08	-9.793334e+00	-7.951678e+02
7.000000e-07	-1.268231e-06	-1.164208e-08	-9.082760e+00	-7.671611e+02
7.100000e-07	-1.168626e-06	-1.119101e-08	-8.369409e+00	-7.377433e+02
7.200000e-07	-1.068683e-06	-1.071573e-08	-7.653641e+00	-7.068391e+02
7.300000e-07	-9.684577e-07	-1.022130e-08	-6.935855e+00	-6.743867e+02
7.400000e-07	-8.679782e-07	-9.706983e-09	-6.216245e+00	-6.403465e+02
7.500000e-07	-7.672618e-07	-9.166357e-09	-5.494939e+00	-6.047087e+02
7.600000e-07	-6.662942e-07	-8.598347e-09	-4.771834e+00	-5.675010e+02
7.700000e-07	-5.650209e-07	-8.006146e-09	-4.046540e+00	-5.287938e+02
7.800000e-07	-4.635677e-07	-7.394217e-09	-3.319957e+00	-4.887023e+02
7.900000e-07	-3.620218e-07	-6.765201e-09	-2.592711e+00	-4.473835e+02
8.000000e-07	-2.603865e-07	-6.120291e-09	-1.864824e+00	-4.050289e+02
8.100000e-07	-1.586296e-07	-5.466724e-09	-1.136066e+00	-3.618508e+02
8.200000e-07	-5.669269e-08	-4.802731e-09	-4.060191e-01	-3.180649e+02
8.300000e-07	4.532935e-08	-4.130572e-09	3.246376e-01	-2.738704e+02
8.400000e-07	1.473712e-07	-3.452537e-09	1.055436e+00	-2.294297e+02
8.500000e-07	2.493518e-07	-2.774655e-09	1.785796e+00	-1.848507e+02
8.600000e-07	3.512300e-07	-2.100034e-09	2.515422e+00	-1.401750e+02
8.700000e-07	4.530133e-07	-1.422826e-09	3.244370e+00	-9.537470e+01
8.800000e-07	5.546392e-07	-7.402217e-10	3.972189e+00	-5.035736e+01
8.900000e-07	6.561011e-07	-4.823295e-11	4.698834e+00	-4.981911e+00
9.000000e-07	7.573726e-07	6.530403e-10	5.424115e+00	4.091776e+01
9.100000e-07	8.583166e-07	1.363353e-09	6.147052e+00	8.750338e+01
9.200000e-07	9.589567e-07	2.083666e-09	6.867811e+00	1.349009e+02
9.300000e-07	1.059321e-06	2.815053e-09	7.586595e+00	1.831715e+02
9.400000e-07	1.159380e-06	3.559184e-09	8.303196e+00	2.322890e+02
9.500000e-07	1.259137e-06	4.316908e-09	9.017627e+00	2.821272e+02
9.600000e-07	1.358496e-06	5.085199e-09	9.729213e+00	3.324594e+02
9.700000e-07	1.457331e-06	5.857490e-09	1.043704e+01	3.829698e+02
9.800000e-07	1.555452e-06	6.624661e-09	1.113976e+01	4.332769e+02
9.900000e-07	1.652742e-06	7.379360e-09	1.183653e+01	4.829636e+02
1.000000e-06	1.749271e-06	8.116975e-09	1.252785e+01	5.316121e+02
1.010000e-06	1.845145e-06	8.831680e-09	1.321447e+01	5.788373e+02
1.020000e-06	1.940362e-06	9.519927e-09	1.389639e+01	6.243156e+02
1.030000e-06	2.034846e-06	1.017814e-08	1.457306e+01	6.678044e+02
1.040000e-06	2.128624e-06	1.080754e-08	1.524468e+01	7.091517e+02
1.050000e-06	2.221698e-06	1.140226e-08	1.591125e+01	7.482947e+02
1.060000e-06	2.314036e-06	1.196288e-08	1.657255e+01	7.852486e+02
1.070000e-06	2.405768e-06	1.249097e-08	1.722952e+01	8.200893e+02
1.080000e-06	2.496781e-06	1.298866e-08	1.788133e+01	8.529325e+02
1.090000e-06	2.586678e-06	1.346056e-08	1.852515e+01	8.839131e+02
1.100000e-06	2.675370e-06	1.390791e-08	1.916034e+01	9.131680e+02
1.110000e-06	2.763082e-06	1.432938e-08	1.978851e+01	9.408238e+02
1.120000e-06	2.849896e-06	1.472550e-08	2.041025e+01	9.669904e+02
1.130000e-06	2.935754e-06	1.510143e-08	2.102514e+01	9.917608e+02
1.140000e-06	3.020651e-06	1.545828e-08	2.163316e+01	1.015214e+03
1.150000e-06	3.104680e-06	1.579743e-08	2.223495e+01	1.037418e+03
1.160000e-06	3.187822e-06	1.611724e-08	2.283039e+01	1.058442e+03
1.170000e-06	3.269734e-06	1.641958e-08	2.341702e+01	1.078350e+03
1.180000e-06	3.350342e-06	1.670625e-08	2.399432e+01	1.097211e+03
1.190000e-06	3.429771e-06	1.697866e-08	2.456317e+01	1.115096e+03
1.200000e-06	3.507992e-06	1.723615e-08	2.512337e+01	1.132074e+03
1.210000e-06	3.585012e-06	1.748030e-08	2.567497e+01	1.148209e+03
1.220000e-06	3.660827e-06	1.771322e-08	2.621794e+01	1.163561e+03
1.230000e-06	3.735192e-06	1.793597e-08	2.675052e+01	1.178178e+03
1.240000e-06	3.807877e-06	1.814605e-08	2.727107e+01	1.192103e+03
1.250000e-06	3.879094e-06	1.834560e-08	2.778111e+01	1.205368e+03
1.260000e-06	3.948930e-06	1.853678e-08	2.828126e+01	1.218004e+03
1.270000e-06	4.017417e-06	1.871929e-08	2.877175e+01	1.230037e+03
1.280000e-06	4.084612e-06	1.889412e-08	2.925298e+01	1.241491e+03
1.290000e-06	4.150185e-06	1.906023e-08	2.972260e+01	1.252392e+03
1.300000e-06	4.214069e-06	1.921848e-08	3.018012e+01	1.262763e+03
1.310000e-06	4.276495e-06	1.936900e-08	3.062720e+01	1.272627e+03
1.320000e-06	4.337502e-06	1.951249e-08	3.106412e+01	1.282001e+03
1.330000e-06	4.397228e-06	1.964937e-08	3.149186e+01	1.290900e+03
1.340000e-06	4.455414e-06	1.977887e-08	3.190858e+01	1.299334e+03
1.350000e-06	4.511749e-06	1.990067e-08	3.231203e+01	1.307313e+03
1.360000e-06	4.566405e-06	2.001585e-08	3.270347e+01	1.314845e+03
1.370000e-06	4.619420e-06	2.012355e-08	3.308314e+01	1.321943e+03
1.380000e-06	4.670540e-06	2.022412e-08	3.344925e+01	1.328627e+03
1.390000e-06	4.719551e-06	2.031844e-08	3.380026e+01	1.334922e+03
1.400000e-06	4.766748e-06	2.040707e-08	3.413827e+01	1.340861e+03
1.410000e-06	4.812399e-06	2.049270e-08	3.446521e+01	1.346479e+03
1.420000e-06	4.856546e-06	2.057620e-08	3.478138e+01	1.351813e+03
1.430000e-06	4.898951e-06	2.065546e-08	3.508508e+01	1.356891e+03
1.440000e-06	4.939395e-06	2.073005e-08	3.537473e+01	1.361736e+03
1.450000e-06	4.978143e-06	2.080089e-08	3.565223e+01	1.366354e+03
1.460000e-06	5.015325e-06	2.086860e-08	3.591852e+01	1.370744e+03
1.470000e-06	5.050895e-06	2.093287e-08	3.617326e+01	1.374892e+03
1.480000e-06	5.084556e-06	2.099268e-08	3.641434e+01	1.378777e+03
1.490000e-06	5.116257e-06	2.104695e-08	3.664136e+01	1.382382e+03
1.500000e-06	5.146262e-06	2.109468e-08	3.685626e+01	1.385690e+03
1.510000e-06	5.174685e-06	2.113774e-08	3.705982e+01	1.388697e+03
1.520000e-06	5.201320e-06	2.117780e-08	3.725057e+01	1.391405e+03
1.530000e-06	5.225841e-06	2.121556e-08	3.742618e+01	1.393829e+03
1.540000e-06	5.248387e-06	2.125060e-08	3.758765e+01	1.395989e+03
1.550000e-06	5.269206e-06	2.127955e-08	3.773675e+01	1.397909e+03
1.560000e-06	5.288326e-06	2.130198e-08	3.787368e+01	1.399609e+03
1.570000e-06	5.305471e-06	2.132280e-08	3.799647e+01	1.401106e+03
1.580000e-06	5.320556e-06	2.134373e-08	3.810450e+01	1.402409e+03
1.590000e-06	5.333697e-06	2.136292e-08	3.819862e+01	1.403522e+03
1.600000e-06	5.344727e-06	2.137861e-08	3.827761e+01	1.404441e+03
1.610000e-06	5.353531e-06	2.139141e-08	3.834067e+01	1.405164e+03
1.620000e-06	5.360379e-06	2.140108e-08	3.838971e+01	1.405689e+03
1.630000e-06	5.365489e-06	2.140755e-08	3.842631e+01	1.406018e+03
1.640000e-06	5.368843e-06	2.141030e-08	3.845033e+01	1.406159e+03
1.650000e-06	5.370194e-06	2.141247e-08	3.846000e+01	1.406120e+03
1.660000e-06	5.369605e-06	2.141099e-08	3.845578e+01	1.405913e+03
1.670000e-06	5.367318e-06	2.139968e-08	3.843941e+01	1.405546e+03
1.680000e-06	5.363393e-06	2.139489e-08	3.841130e+01	1.405023e+03
1.690000e-06	5.357720e-06	2.138849e-08	3.837066e+01	1.404339e+03
1.700000e-06	5.350143e-06	2.137655e-08	3.831640e+01	1.403486e+03
1.710000e-06	5.340887e-06	2.136291e-08	3.825011e+01	1.402451e+03
1.720000e-06	5.330000e-06	2.135096e-08	3.817214e+01	1.401224e+03
1.730000e-06	5.317227e-06	2.135649e-08	3.808066e+01	1.399797e+03
1.740000e-06	5.302461e-06	2.127845e-08	3.797491e+01	1.398173e+03
1.750000e-06	5.285622e-06	2.115839e-08	3.785432e+01	1.396362e+03
1.760000e-06	5.266305e-06	2.118955e-08	3.771597e+01	1.394386e+03
1.770000e-06	5.244301e-06	2.118847e-08	3.755839e+01	1.392271e+03
1.780000e-06	5.220386e-06	2.125189e-08	3.738711e+01	1.390047e+03
1.790000e-06	5.195607e-06	2.126943e-08	3.720965e+01	1.387736e+03
1.800000e-06	5.169985e-06	2.096705e-08	3.702615e+01	1.385353e+03
1.810000e-06	5.142529e-06	2.107139e-08	3.682952e+01	1.382896e+03
1.820000e-06	5.112890e-06	2.110862e-08	3.661726e+01	1.380354e+03
1.830000e-06	5.081619e-06	2.082691e-08	3.639330e+01	1.377698e+03
1.840000e-06	5.048526e-06	2.106068e-08	3.615630e+01	1.374893e+03
1.850000e-06	5.013630e-06	2.100959e-08	3.590638e+01	1.371903e+03
1.860000e-06	4.977202e-06	2.069599e-08	3.564549e+01	1.368693e+03
1.870000e-06	4.938800e-06	2.087648e-08	3.537046e+01	1.365235e+03
1.880000e-06	4.898601e-06	2.076361e-08	3.508257e+01	1.361514e+03
1.890000e-06	4.856794e-06	2.068352e-08	3.478316e+01	1.357524e+03
1.900000e-06	4.813205e-06	2.072987e-08	3.447099e+01	1.353269e+03
1.910000e-06	4.767944e-06	2.046066e-08	3.414683e+01	1.348758e+03
1.920000e-06	4.720713e-06	2.058583e-08	3.380858e+01	1.344002e+03
1.930000e-06	4.671652e-06	2.052055e-08	3.345722e+01	1.339009e+03
1.940000e-06	4.621054e-06	2.028715e-08	3.309485e+01	1.333782e+03
1.950000e-06	4.568487e-06	2.032151e-08	3.271837e+01	1.328321e+03
1.960000e-06	4.513894e-06	2.017202e-08	3.232740e+01	1.322619e+03
1.970000e-06	4.457549e-06	2.013135e-08	3.192387e+01	1.316666e+03
1.980000e-06	4.399571e-06	1.998243e-08	3.150864e+01	1.310455e+03
1.990000e-06	4.340108e-06	1.986439e-08	3.108278e+01	1.303979e+03
2.000000e-06	4.279228e-06	1.991740e-08	3.064677e+01	1.297234e+03
2.010000e-06	4.216732e-06	1.968798e-08	3.019919e+01	1.290219e+03
2.020000e-06	4.152497e-06	1.957533e-08	2.973916e+01	1.282935e+03
2.030000e-06	4.086733e-06	1.944904e-08	2.926817e+01	1.275383e+03
2.040000e-06	4.019663e-06	1.935449e-08	2.878783e+01	1.267558e+03
2.050000e-06	3.951188e-06	1.928955e-08	2.829743e+01	1.259454e+03
2.060000e-06	3.881133e-06	1.906289e-08	2.779571e+01	1.251059e+03
2.070000e-06	3.809607e-06	1.899764e-08	2.728346e+01	1.242357e+03
2.080000e-06	3.736839e-06	1.884467e-08	2.676231e+01	1.233327e+03
2.090000e-06	3.662765e-06	1.868842e-08	2.623182e+01	1.223950e+03
2.100000e-06	3.587318e-06	1.855751e-08	2.569148e+01	1.214209e+03
2.110000e-06	3.510440e-06	1.839580e-08	2.514090e+01	1.204087e+03
2.120000e-06	3.431982e-06	1.827739e-08	2.457900e+01	1.193573e+03
2.130000e-06	3.352218e-06	1.805839e-08	2.400775e+01	1.182658e+03
2.140000e-06	3.271353e-06	1.788768e-08	2.342862e+01	1.171335e+03
2.150000e-06	3.189382e-06	1.770807e-08	2.284157e+01	1.159596e+03
2.160000e-06	3.106373e-06	1.753489e-08	2.224708e+01	1.147427e+03
2.170000e-06	3.022420e-06	1.735946e-08	2.164582e+01	1.134813e+03
2.180000e-06	2.937360e-06	1.714499e-08	2.103665e+01	1.121730e+03
2.190000e-06	2.850959e-06	1.695114e-08	2.041786e+01	1.108149e+03
2.200000e-06	2.763359e-06	1.672904e-08	1.979049e+01	1.094036e+03
2.210000e-06	2.674814e-06	1.651252e-08	1.915635e+01	1.079355e+03
2.220000e-06	2.585428e-06	1.627223e-08	1.851620e+01	1.064067e+03
2.230000e-06	2.495160e-06	1.602947e-08	1.786972e+01	1.048134e+03
2.240000e-06	2.404095e-06	1.577893e-08	1.721753e+01	1.031521e+03
2.250000e-06	2.312328e-06	1.551336e-08	1.656032e+01	1.014192e+03
2.260000e-06	2.219766e-06	1.523801e-08	1.589742e+01	9.961109e+02
2.270000e-06	2.126293e-06	1.494596e-08	1.522799e+01	9.772434e+02
2.280000e-06	2.031803e-06	1.465576e-08	1.455127e+01	9.575507e+02
2.290000e-06	1.936413e-06	1.434694e-08	1.386811e+01	9.369898e+02
2.300000e-06	1.840322e-06	1.402216e-08	1.317993e+01	9.155119e+02
2.310000e-06	1.743685e-06	1.368102e-08	1.248784e+01	8.930610e+02
2.320000e-06	1.646576e-06	1.332696e-08	1.179237e+01	8.695734e+02
2.330000e-06	1.548940e-06	1.295076e-08	1.109312e+01	8.449778e+02
2.340000e-06	1.450717e-06	1.254954e-08	1.038968e+01	8.191963e+02
2.350000e-06	1.351999e-06	1.213479e-08	9.682682e+00	7.921464e+02
2.360000e-06	1.252911e-06	1.170757e-08	8.973037e+00	7.637441e+02
2.370000e-06	1.153496e-06	1.125989e-08	8.261052e+00	7.339081e+02
2.380000e-06	1.053829e-06	1.078386e-08	7.547265e+00	7.025663e+02
2.390000e-06	9.539338e-07	1.028274e-08	6.831838e+00	6.696625e+02
2.400000e-06	8.537234e-07	9.753990e-09	6.114156e+00	6.351646e+02
2.410000e-06	7.531982e-07	9.200329e-09	5.394219e+00	5.990729e+02
2.420000e-06	6.524325e-07	8.622113e-09	4.672560e+00	5.614269e+02
2.430000e-06	5.513712e-07	8.022625e-09	3.948784e+00	5.223098e+02
2.440000e-06	4.501042e-07	7.406051e-09	3.223535e+00	4.818492e+02
2.450000e-06	3.487193e-07	6.771152e-09	2.497441e+00	4.402130e+02
2.460000e-06	2.471815e-07	6.116175e-09	1.770252e+00	3.976002e+02
2.470000e-06	1.454398e-07	5.449007e-09	1.041604e+00	3.542260e+02
2.480000e-06	4.355396e-08	4.782172e-09	3.119227e-01	3.103036e+02
2.490000e-06	-5.838188e-08	4.111180e-09	-4.181166e-01	2.660237e+02
2.500000e-06	-1.603961e-07	3.429930e-09	-1.148717e+00	2.215344e+02
2.510000e-06	-2.623913e-07	2.742966e-09	-1.879182e+00	1.769259e+02
2.520000e-06	-3.641700e-07	2.054877e-09	-2.608096e+00	1.322197e+02
2.530000e-06	-4.657021e-07	1.362632e-09	-3.335243e+00	8.736862e+01
2.540000e-06	-5.671095e-07	6.685107e-10	-4.061498e+00	4.226424e+01
2.550000e-06	-6.682812e-07	-2.658621e-11	-4.786065e+00	-3.244358e+00
2.560000e-06	-7.690882e-07	-7.277685e-10	-5.508019e+00	-4.932520e+01
2.570000e-06	-8.695603e-07	-1.440231e-09	-6.227576e+00	-9.613299e+01
2.580000e-06	-9.697527e-07	-2.167550e-09	-6.945129e+00	-1.437779e+02
2.590000e-06	-1.069655e-06	-2.908771e-09	-7.660607e+00	-1.922981e+02
2.600000e-06	-1.169165e-06	-3.663956e-09	-8.373272e+00	-2.416396e+02
2.610000e-06	-1.268270e-06	-4.429685e-09	-9.083040e+00	-2.916470e+02
2.620000e-06	-1.366969e-06	-5.200153e-09	-9.789897e+00	-3.420664e+02
2.630000e-06	-1.465201e-06	-5.973366e-09	-1.049341e+01	-3.925606e+02
2.640000e-06	-1.562893e-06	-6.743868e-09	-1.119305e+01	-4.427344e+02
2.650000e-06	-1.659993e-06	-7.502490e-09	-1.188846e+01	-4.921670e+02
2.660000e-06	-1.756565e-06	-8.241416e-09	-1.258009e+01	-5.404467e+02
2.670000e-06	-1.852687e-06	-8.958207e-09	-1.326848e+01	-5.872032e+02
2.680000e-06	-1.948291e-06	-9.647897e-09	-1.395318e+01	-6.321346e+02
2.690000e-06	-2.043109e-06	-1.030225e-08	-1.463224e+01	-6.750238e+02
2.700000e-06	-2.136916e-06	-1.092446e-08	-1.530407e+01	-7.157448e+02
2.710000e-06	-2.229763e-06	-1.151701e-08	-1.596901e+01	-7.542584e+02
2.720000e-06	-2.321782e-06	-1.207826e-08	-1.662803e+01	-7.905994e+02
2.730000e-06	-2.413024e-06	-1.260609e-08	-1.728148e+01	-8.248571e+02
2.740000e-06	-2.503409e-06	-1.310002e-08	-1.792880e+01	-8.571547e+02
2.750000e-06	-2.592857e-06	-1.356480e-08	-1.856940e+01	-8.876293e+02
2.760000e-06	-2.681437e-06	-1.400245e-08	-1.920379e+01	-9.164157e+02
2.770000e-06	-2.769304e-06	-1.441615e-08	-1.983307e+01	-9.436363e+02
2.780000e-06	-2.856283e-06	-1.481060e-08	-2.045599e+01	-9.693960e+02
2.790000e-06	-2.941979e-06	-1.518434e-08	-2.106973e+01	-9.937831e+02
2.800000e-06	-3.026477e-06	-1.553663e-08	-2.167488e+01	-1.016873e+03
2.810000e-06	-3.110008e-06	-1.587036e-08	-2.227311e+01	-1.038734e+03
2.820000e-06	-3.192552e-06	-1.618823e-08	-2.286427e+01	-1.059433e+03
2.830000e-06	-3.274022e-06	-1.648969e-08	-2.344774e+01	-1.079035e+03
2.840000e-06	-3.354451e-06	-1.677411e-08	-2.402375e+01	-1.097611e+03
2.850000e-06	-3.433776e-06	-1.704385e-08	-2.459185e+01	-1.115231e+03
2.860000e-06	-3.511598e-06	-1.729907e-08	-2.514920e+01	-1.131962e+03
2.870000e-06	-3.587867e-06	-1.754107e-08	-2.569542e+01	-1.147869e+03
2.880000e-06	-3.662754e-06	-1.777144e-08	-2.623174e+01	-1.163007e+03
2.890000e-06	-3.736265e-06	-1.799377e-08	-2.675820e+01	-1.177423e+03
2.900000e-06	-3.808524e-06	-1.820812e-08	-2.727571e+01	-1.191157e+03
2.910000e-06	-3.879434e-06	-1.841031e-08	-2.778355e+01	-1.204240e+03
2.920000e-06	-3.948720e-06	-1.860151e-08	-2.827976e+01	-1.216702e+03
2.930000e-06	-4.016496e-06	-1.878289e-08	-2.876515e+01	-1.228567e+03
2.940000e-06	-4.082936e-06	-1.895497e-08	-2.924098e+01	-1.239862e+03
