# Temperatura_=_28.4
# Concentracion g/m^3_=_28200.0
# C_Vs_to_Am_M_A/Vsm_=_65563218390.804596
# pendiente_HvsI_1/m_=_3716.3
# ordenada_HvsI_A/m_=_1297.0
# frecuencia_Hz_=_301758.03453988815

Tiempo_(s)	Campo_(V.s)	Magnetizacion_(V.s)	Campo_(kA/m)	Magnetizacion_(A/m)
0.000000e+00	-5.353223e-06	-1.940390e-08	-3.829659e+01	-1.269887e+03
1.000000e-08	-5.350936e-06	-1.940141e-08	-3.828023e+01	-1.269564e+03
2.000000e-08	-5.346815e-06	-1.939131e-08	-3.825075e+01	-1.269092e+03
3.000000e-08	-5.341026e-06	-1.938008e-08	-3.820934e+01	-1.268470e+03
4.000000e-08	-5.333633e-06	-1.936864e-08	-3.815645e+01	-1.267690e+03
5.000000e-08	-5.324526e-06	-1.935276e-08	-3.809129e+01	-1.266743e+03
6.000000e-08	-5.313461e-06	-1.933286e-08	-3.801214e+01	-1.265617e+03
7.000000e-08	-5.300479e-06	-1.930029e-08	-3.791927e+01	-1.264307e+03
8.000000e-08	-5.285382e-06	-1.929142e-08	-3.781126e+01	-1.262818e+03
9.000000e-08	-5.268018e-06	-1.933016e-08	-3.768705e+01	-1.261163e+03
1.000000e-07	-5.248658e-06	-1.930245e-08	-3.754854e+01	-1.259366e+03
1.100000e-07	-5.227443e-06	-1.923123e-08	-3.739677e+01	-1.257456e+03
1.200000e-07	-5.204474e-06	-1.918627e-08	-3.723246e+01	-1.255460e+03
1.300000e-07	-5.179908e-06	-1.906105e-08	-3.705671e+01	-1.253399e+03
1.400000e-07	-5.153697e-06	-1.905899e-08	-3.686920e+01	-1.251281e+03
1.500000e-07	-5.125840e-06	-1.914863e-08	-3.666991e+01	-1.249098e+03
1.600000e-07	-5.096539e-06	-1.900247e-08	-3.646030e+01	-1.246827e+03
1.700000e-07	-5.065763e-06	-1.901037e-08	-3.624012e+01	-1.244435e+03
1.800000e-07	-5.033060e-06	-1.905435e-08	-3.600617e+01	-1.241879e+03
1.900000e-07	-4.998365e-06	-1.885271e-08	-3.575797e+01	-1.239122e+03
2.000000e-07	-4.962120e-06	-1.884405e-08	-3.549867e+01	-1.236133e+03
2.100000e-07	-4.924248e-06	-1.884231e-08	-3.522773e+01	-1.232891e+03
2.200000e-07	-4.884588e-06	-1.872021e-08	-3.494401e+01	-1.229392e+03
2.300000e-07	-4.843048e-06	-1.870305e-08	-3.464683e+01	-1.225641e+03
2.400000e-07	-4.799541e-06	-1.863085e-08	-3.433559e+01	-1.221651e+03
2.500000e-07	-4.754233e-06	-1.855867e-08	-3.401146e+01	-1.217437e+03
2.600000e-07	-4.707170e-06	-1.851237e-08	-3.367477e+01	-1.213013e+03
2.700000e-07	-4.658072e-06	-1.840089e-08	-3.332353e+01	-1.208384e+03
2.800000e-07	-4.606798e-06	-1.835019e-08	-3.295672e+01	-1.203549e+03
2.900000e-07	-4.553600e-06	-1.828214e-08	-3.257615e+01	-1.198500e+03
3.000000e-07	-4.498736e-06	-1.817798e-08	-3.218365e+01	-1.193225e+03
3.100000e-07	-4.442295e-06	-1.810130e-08	-3.177988e+01	-1.187713e+03
3.200000e-07	-4.384115e-06	-1.802553e-08	-3.136366e+01	-1.181957e+03
3.300000e-07	-4.324289e-06	-1.793426e-08	-3.093567e+01	-1.175951e+03
3.400000e-07	-4.262973e-06	-1.782139e-08	-3.049702e+01	-1.169700e+03
3.500000e-07	-4.200202e-06	-1.773096e-08	-3.004796e+01	-1.163207e+03
3.600000e-07	-4.136003e-06	-1.762460e-08	-2.958868e+01	-1.156478e+03
3.700000e-07	-4.070162e-06	-1.752122e-08	-2.911766e+01	-1.149517e+03
3.800000e-07	-4.002687e-06	-1.743164e-08	-2.863495e+01	-1.142319e+03
3.900000e-07	-3.933829e-06	-1.729591e-08	-2.814234e+01	-1.134874e+03
4.000000e-07	-3.863675e-06	-1.717054e-08	-2.764047e+01	-1.127168e+03
4.100000e-07	-3.792306e-06	-1.704963e-08	-2.712990e+01	-1.119178e+03
4.200000e-07	-3.719669e-06	-1.691808e-08	-2.661026e+01	-1.110884e+03
4.300000e-07	-3.645479e-06	-1.678860e-08	-2.607951e+01	-1.102263e+03
4.400000e-07	-3.569725e-06	-1.665509e-08	-2.553757e+01	-1.093300e+03
4.500000e-07	-3.492633e-06	-1.651947e-08	-2.498606e+01	-1.083979e+03
4.600000e-07	-3.414123e-06	-1.636377e-08	-2.442440e+01	-1.074291e+03
4.700000e-07	-3.334122e-06	-1.620286e-08	-2.385208e+01	-1.064227e+03
4.800000e-07	-3.252895e-06	-1.604198e-08	-2.327099e+01	-1.053779e+03
4.900000e-07	-3.170586e-06	-1.587580e-08	-2.268215e+01	-1.042934e+03
5.000000e-07	-3.087272e-06	-1.570545e-08	-2.208613e+01	-1.031676e+03
5.100000e-07	-3.003106e-06	-1.552659e-08	-2.148402e+01	-1.019987e+03
5.200000e-07	-2.918052e-06	-1.534192e-08	-2.087554e+01	-1.007842e+03
5.300000e-07	-2.831986e-06	-1.514675e-08	-2.025983e+01	-9.952160e+02
5.400000e-07	-2.744959e-06	-1.494444e-08	-1.963725e+01	-9.820808e+02
5.500000e-07	-2.657083e-06	-1.473997e-08	-1.900859e+01	-9.684094e+02
5.600000e-07	-2.568137e-06	-1.452466e-08	-1.837228e+01	-9.541742e+02
5.700000e-07	-2.477932e-06	-1.429814e-08	-1.772696e+01	-9.393469e+02
5.800000e-07	-2.386692e-06	-1.405736e-08	-1.707423e+01	-9.238974e+02
5.900000e-07	-2.294647e-06	-1.380520e-08	-1.641575e+01	-9.077928e+02
6.000000e-07	-2.201834e-06	-1.354584e-08	-1.575177e+01	-8.909968e+02
6.100000e-07	-2.108229e-06	-1.327975e-08	-1.508212e+01	-8.734696e+02
6.200000e-07	-2.013854e-06	-1.300478e-08	-1.440698e+01	-8.551686e+02
6.300000e-07	-1.918815e-06	-1.271361e-08	-1.372707e+01	-8.360491e+02
6.400000e-07	-1.823221e-06	-1.240683e-08	-1.304320e+01	-8.160659e+02
6.500000e-07	-1.727006e-06	-1.208532e-08	-1.235488e+01	-7.951729e+02
6.600000e-07	-1.629964e-06	-1.174906e-08	-1.166065e+01	-7.733229e+02
6.700000e-07	-1.532015e-06	-1.139906e-08	-1.095993e+01	-7.504665e+02
6.800000e-07	-1.433368e-06	-1.103431e-08	-1.025421e+01	-7.265509e+02
6.900000e-07	-1.334287e-06	-1.065096e-08	-9.545400e+00	-7.015184e+02
7.000000e-07	-1.234855e-06	-1.024808e-08	-8.834069e+00	-6.753083e+02
7.100000e-07	-1.135118e-06	-9.826126e-09	-8.120558e+00	-6.478596e+02
7.200000e-07	-1.035082e-06	-9.387221e-09	-7.404905e+00	-6.191169e+02
7.300000e-07	-9.347240e-07	-8.929988e-09	-6.686952e+00	-5.890394e+02
7.400000e-07	-8.340980e-07	-8.451866e-09	-5.967080e+00	-5.576102e+02
7.500000e-07	-7.331534e-07	-7.954364e-09	-5.244929e+00	-5.248463e+02
7.600000e-07	-6.319398e-07	-7.436870e-09	-4.520855e+00	-4.908053e+02
7.700000e-07	-5.305862e-07	-6.901207e-09	-3.795778e+00	-4.555895e+02
7.800000e-07	-4.290515e-07	-6.349531e-09	-3.069405e+00	-4.193432e+02
7.900000e-07	-3.273281e-07	-5.783420e-09	-2.341683e+00	-3.822458e+02
8.000000e-07	-2.254865e-07	-5.207521e-09	-1.613115e+00	-3.444979e+02
8.100000e-07	-1.235183e-07	-4.626009e-09	-8.836413e-01	-3.063053e+02
8.200000e-07	-2.147579e-08	-4.043062e-09	-1.536363e-01	-2.678596e+02
8.300000e-07	8.057956e-08	-3.460745e-09	5.764607e-01	-2.293211e+02
8.400000e-07	1.826925e-07	-2.878092e-09	1.306970e+00	-1.908036e+02
8.500000e-07	2.847587e-07	-2.295920e-09	2.037144e+00	-1.523647e+02
8.600000e-07	3.866627e-07	-1.714145e-09	2.766158e+00	-1.140029e+02
8.700000e-07	4.884505e-07	-1.131231e-09	3.494342e+00	-7.566059e+01
8.800000e-07	5.901516e-07	-5.470247e-10	4.221904e+00	-3.723336e+01
8.900000e-07	6.916942e-07	4.057642e-11	4.948333e+00	1.415084e+00
9.000000e-07	7.929302e-07	6.328931e-10	5.672569e+00	4.043492e+01
9.100000e-07	8.938182e-07	1.233662e-09	6.394314e+00	7.997030e+01
9.200000e-07	9.944890e-07	1.844756e-09	7.114507e+00	1.201394e+02
9.300000e-07	1.094845e-06	2.465657e-09	7.832450e+00	1.610166e+02
9.400000e-07	1.194793e-06	3.098065e-09	8.547467e+00	2.026176e+02
9.500000e-07	1.294373e-06	3.741107e-09	9.259857e+00	2.448899e+02
9.600000e-07	1.393574e-06	4.393803e-09	9.969531e+00	2.877090e+02
9.700000e-07	1.492297e-06	5.054133e-09	1.067579e+01	3.308814e+02
9.800000e-07	1.590355e-06	5.717143e-09	1.137729e+01	3.741540e+02
9.900000e-07	1.687637e-06	6.375179e-09	1.207324e+01	4.172295e+02
1.000000e-06	1.784113e-06	7.022342e-09	1.276342e+01	4.597876e+02
1.010000e-06	1.879809e-06	7.655845e-09	1.344803e+01	5.015075e+02
1.020000e-06	1.974824e-06	8.271176e-09	1.412775e+01	5.420914e+02
1.030000e-06	2.069177e-06	8.865709e-09	1.480275e+01	5.812851e+02
1.040000e-06	2.162843e-06	9.437455e-09	1.547283e+01	6.188939e+02
1.050000e-06	2.255847e-06	9.983118e-09	1.613818e+01	6.547904e+02
1.060000e-06	2.348143e-06	1.049957e-08	1.679845e+01	6.889156e+02
1.070000e-06	2.439724e-06	1.098714e-08	1.745362e+01	7.212722e+02
1.080000e-06	2.530478e-06	1.144966e-08	1.810287e+01	7.519115e+02
1.090000e-06	2.620087e-06	1.188986e-08	1.874392e+01	7.809177e+02
1.100000e-06	2.708479e-06	1.230870e-08	1.937628e+01	8.083910e+02
1.110000e-06	2.795915e-06	1.270565e-08	2.000179e+01	8.344330e+02
1.120000e-06	2.882521e-06	1.308355e-08	2.062136e+01	8.591364e+02
1.130000e-06	2.968186e-06	1.344303e-08	2.123420e+01	8.825793e+02
1.140000e-06	3.052846e-06	1.378294e-08	2.183985e+01	9.048255e+02
1.150000e-06	3.136609e-06	1.410260e-08	2.243909e+01	9.259276e+02
1.160000e-06	3.219444e-06	1.440408e-08	2.303168e+01	9.459333e+02
1.170000e-06	3.301071e-06	1.468977e-08	2.361564e+01	9.648904e+02
1.180000e-06	3.381389e-06	1.496076e-08	2.419022e+01	9.828519e+02
1.190000e-06	3.460544e-06	1.521856e-08	2.475650e+01	9.998767e+02
1.200000e-06	3.538524e-06	1.546404e-08	2.531436e+01	1.016029e+03
1.210000e-06	3.615276e-06	1.569878e-08	2.586344e+01	1.031373e+03
1.220000e-06	3.690702e-06	1.592250e-08	2.640303e+01	1.045972e+03
1.230000e-06	3.764552e-06	1.613392e-08	2.693135e+01	1.059881e+03
1.240000e-06	3.836761e-06	1.633346e-08	2.744793e+01	1.073145e+03
1.250000e-06	3.907513e-06	1.652271e-08	2.795408e+01	1.085796e+03
1.260000e-06	3.976945e-06	1.670312e-08	2.845079e+01	1.097860e+03
1.270000e-06	4.045073e-06	1.687614e-08	2.893817e+01	1.109353e+03
1.280000e-06	4.111797e-06	1.704187e-08	2.941551e+01	1.120290e+03
1.290000e-06	4.176811e-06	1.719967e-08	2.988062e+01	1.130683e+03
1.300000e-06	4.240184e-06	1.735078e-08	3.033399e+01	1.140548e+03
1.310000e-06	4.302157e-06	1.749620e-08	3.077734e+01	1.149902e+03
1.320000e-06	4.362750e-06	1.763437e-08	3.121081e+01	1.158763e+03
1.330000e-06	4.421990e-06	1.776320e-08	3.163462e+01	1.167150e+03
1.340000e-06	4.479616e-06	1.788195e-08	3.204687e+01	1.175082e+03
1.350000e-06	4.535420e-06	1.799248e-08	3.244608e+01	1.182577e+03
1.360000e-06	4.589524e-06	1.809752e-08	3.283314e+01	1.189653e+03
1.370000e-06	4.641979e-06	1.819800e-08	3.320840e+01	1.196331e+03
1.380000e-06	4.692503e-06	1.829342e-08	3.356985e+01	1.202632e+03
1.390000e-06	4.740959e-06	1.838389e-08	3.391650e+01	1.208582e+03
1.400000e-06	4.787661e-06	1.846911e-08	3.425060e+01	1.214210e+03
1.410000e-06	4.832816e-06	1.855044e-08	3.457363e+01	1.219547e+03
1.420000e-06	4.876401e-06	1.862916e-08	3.488544e+01	1.224620e+03
1.430000e-06	4.918145e-06	1.870429e-08	3.518407e+01	1.229452e+03
1.440000e-06	4.958028e-06	1.877425e-08	3.546939e+01	1.234056e+03
1.450000e-06	4.996313e-06	1.883955e-08	3.574329e+01	1.238435e+03
1.460000e-06	5.033008e-06	1.890108e-08	3.600580e+01	1.242579e+03
1.470000e-06	5.067973e-06	1.895941e-08	3.625594e+01	1.246473e+03
1.480000e-06	5.101044e-06	1.901333e-08	3.649252e+01	1.250096e+03
1.490000e-06	5.132257e-06	1.906229e-08	3.671581e+01	1.253429e+03
1.500000e-06	5.161767e-06	1.910783e-08	3.692693e+01	1.256462e+03
1.510000e-06	5.189612e-06	1.914927e-08	3.712613e+01	1.259193e+03
1.520000e-06	5.215519e-06	1.918650e-08	3.731146e+01	1.261635e+03
1.530000e-06	5.239340e-06	1.921973e-08	3.748188e+01	1.263808e+03
1.540000e-06	5.261283e-06	1.924841e-08	3.763886e+01	1.265742e+03
1.550000e-06	5.281551e-06	1.927279e-08	3.778386e+01	1.267464e+03
1.560000e-06	5.300060e-06	1.929410e-08	3.791627e+01	1.269001e+03
1.570000e-06	5.316543e-06	1.931394e-08	3.803419e+01	1.270368e+03
1.580000e-06	5.330966e-06	1.933430e-08	3.813737e+01	1.271571e+03
1.590000e-06	5.343370e-06	1.935293e-08	3.822611e+01	1.272610e+03
1.600000e-06	5.353665e-06	1.936763e-08	3.829976e+01	1.273475e+03
1.610000e-06	5.361907e-06	1.937852e-08	3.835872e+01	1.274157e+03
1.620000e-06	5.368265e-06	1.938669e-08	3.840420e+01	1.274650e+03
1.630000e-06	5.372800e-06	1.939290e-08	3.843665e+01	1.274953e+03
1.640000e-06	5.375437e-06	1.939654e-08	3.845551e+01	1.275072e+03
1.650000e-06	5.376065e-06	1.939754e-08	3.846000e+01	1.275016e+03
1.660000e-06	5.374828e-06	1.939103e-08	3.845116e+01	1.274797e+03
1.670000e-06	5.371958e-06	1.938222e-08	3.843062e+01	1.274426e+03
1.680000e-06	5.367500e-06	1.937638e-08	3.839873e+01	1.273905e+03
1.690000e-06	5.361151e-06	1.936893e-08	3.835331e+01	1.273232e+03
1.700000e-06	5.352895e-06	1.935948e-08	3.829425e+01	1.272399e+03
1.710000e-06	5.343060e-06	1.934944e-08	3.822389e+01	1.271394e+03
1.720000e-06	5.331593e-06	1.934598e-08	3.814185e+01	1.270209e+03
1.730000e-06	5.318235e-06	1.931991e-08	3.804629e+01	1.268840e+03
1.740000e-06	5.302829e-06	1.921696e-08	3.793608e+01	1.267294e+03
1.750000e-06	5.285109e-06	1.918368e-08	3.780931e+01	1.265590e+03
1.760000e-06	5.264749e-06	1.919924e-08	3.766365e+01	1.263752e+03
1.770000e-06	5.241971e-06	1.920564e-08	3.750070e+01	1.261811e+03
1.780000e-06	5.217628e-06	1.927536e-08	3.732656e+01	1.259791e+03
1.790000e-06	5.192465e-06	1.912947e-08	3.714654e+01	1.257711e+03
1.800000e-06	5.166215e-06	1.903663e-08	3.695875e+01	1.255573e+03
1.810000e-06	5.137993e-06	1.914310e-08	3.675685e+01	1.253364e+03
1.820000e-06	5.107777e-06	1.898539e-08	3.654069e+01	1.251058e+03
1.830000e-06	5.075867e-06	1.898037e-08	3.631241e+01	1.248616e+03
1.840000e-06	5.042090e-06	1.911131e-08	3.607077e+01	1.245999e+03
1.850000e-06	5.006666e-06	1.891930e-08	3.581735e+01	1.243170e+03
1.860000e-06	4.969521e-06	1.890141e-08	3.555161e+01	1.240099e+03
1.870000e-06	4.930437e-06	1.890988e-08	3.527201e+01	1.236774e+03
1.880000e-06	4.889683e-06	1.877049e-08	3.498046e+01	1.233192e+03
1.890000e-06	4.847175e-06	1.879635e-08	3.467636e+01	1.229362e+03
1.900000e-06	4.802931e-06	1.866429e-08	3.435984e+01	1.225298e+03
1.910000e-06	4.756958e-06	1.862395e-08	3.403096e+01	1.221014e+03
1.920000e-06	4.709102e-06	1.866557e-08	3.368859e+01	1.216523e+03
1.930000e-06	4.659590e-06	1.846482e-08	3.333439e+01	1.211828e+03
1.940000e-06	4.608285e-06	1.842729e-08	3.296736e+01	1.206924e+03
1.950000e-06	4.554819e-06	1.836737e-08	3.258486e+01	1.201803e+03
1.960000e-06	4.499432e-06	1.825544e-08	3.218863e+01	1.196452e+03
1.970000e-06	4.442406e-06	1.819938e-08	3.178067e+01	1.190861e+03
1.980000e-06	4.383849e-06	1.806169e-08	3.136176e+01	1.185024e+03
1.990000e-06	4.323878e-06	1.802714e-08	3.093273e+01	1.178938e+03
2.000000e-06	4.262321e-06	1.792598e-08	3.049235e+01	1.172608e+03
2.010000e-06	4.199071e-06	1.780856e-08	3.003987e+01	1.166038e+03
2.020000e-06	4.134221e-06	1.771480e-08	2.957594e+01	1.159233e+03
2.030000e-06	4.067927e-06	1.756991e-08	2.910167e+01	1.152195e+03
2.040000e-06	4.000367e-06	1.750535e-08	2.861835e+01	1.144919e+03
2.050000e-06	3.931308e-06	1.736716e-08	2.812431e+01	1.137392e+03
2.060000e-06	3.860623e-06	1.725305e-08	2.761864e+01	1.129596e+03
2.070000e-06	3.788608e-06	1.715434e-08	2.710344e+01	1.121510e+03
2.080000e-06	3.715372e-06	1.700731e-08	2.657952e+01	1.113112e+03
2.090000e-06	3.640801e-06	1.688321e-08	2.604604e+01	1.104382e+03
2.100000e-06	3.564836e-06	1.672403e-08	2.550259e+01	1.095304e+03
2.110000e-06	3.487314e-06	1.660459e-08	2.494801e+01	1.085865e+03
2.120000e-06	3.408276e-06	1.646010e-08	2.438258e+01	1.076056e+03
2.130000e-06	3.328034e-06	1.629544e-08	2.380853e+01	1.065869e+03
2.140000e-06	3.246719e-06	1.613600e-08	2.322680e+01	1.055294e+03
2.150000e-06	3.164322e-06	1.596050e-08	2.263735e+01	1.044317e+03
2.160000e-06	3.080887e-06	1.579638e-08	2.204045e+01	1.032923e+03
2.170000e-06	2.996495e-06	1.561089e-08	2.143672e+01	1.021089e+03
2.180000e-06	2.910838e-06	1.543409e-08	2.082394e+01	1.008791e+03
2.190000e-06	2.823809e-06	1.524216e-08	2.020133e+01	9.960035e+02
2.200000e-06	2.735786e-06	1.503321e-08	1.957163e+01	9.826981e+02
2.210000e-06	2.646875e-06	1.481804e-08	1.893557e+01	9.688477e+02
2.220000e-06	2.557017e-06	1.459534e-08	1.829273e+01	9.544245e+02
2.230000e-06	2.466344e-06	1.437482e-08	1.764405e+01	9.393997e+02
2.240000e-06	2.374939e-06	1.413925e-08	1.699015e+01	9.237425e+02
2.250000e-06	2.282790e-06	1.389493e-08	1.633093e+01	9.074190e+02
2.260000e-06	2.189779e-06	1.363248e-08	1.566553e+01	8.903916e+02
2.270000e-06	2.095700e-06	1.335765e-08	1.499249e+01	8.726196e+02
2.280000e-06	2.000641e-06	1.307610e-08	1.431245e+01	8.540595e+02
2.290000e-06	1.904904e-06	1.278479e-08	1.362755e+01	8.346666e+02
2.300000e-06	1.808615e-06	1.247971e-08	1.293871e+01	8.143951e+02
2.310000e-06	1.711764e-06	1.215845e-08	1.224585e+01	7.931989e+02
2.320000e-06	1.614388e-06	1.182251e-08	1.154922e+01	7.710301e+02
2.330000e-06	1.516449e-06	1.146860e-08	1.084857e+01	7.478384e+02
2.340000e-06	1.417971e-06	1.109827e-08	1.014407e+01	7.235694e+02
2.350000e-06	1.319011e-06	1.071215e-08	9.436116e+00	6.981643e+02
2.360000e-06	1.219709e-06	1.031029e-08	8.725714e+00	6.715617e+02
2.370000e-06	1.120179e-06	9.888422e-09	8.013682e+00	6.437017e+02
2.380000e-06	1.020420e-06	9.446524e-09	7.300015e+00	6.145326e+02
2.390000e-06	9.204386e-07	8.982706e-09	6.584755e+00	5.840202e+02
2.400000e-06	8.201548e-07	8.495363e-09	5.867332e+00	5.521575e+02
2.410000e-06	7.195299e-07	7.986402e-09	5.147468e+00	5.189739e+02
2.420000e-06	6.185234e-07	7.457424e-09	4.424874e+00	4.845411e+02
2.430000e-06	5.172232e-07	6.913409e-09	3.700179e+00	4.489756e+02
2.440000e-06	4.157551e-07	6.358415e-09	2.974284e+00	4.124340e+02
2.450000e-06	3.140553e-07	5.791651e-09	2.246731e+00	3.751041e+02
2.460000e-06	2.121342e-07	5.210449e-09	1.517594e+00	3.371903e+02
2.470000e-06	1.101046e-07	4.619246e-09	7.876811e-01	2.988958e+02
2.480000e-06	7.978905e-09	4.027035e-09	5.708054e-02	2.604040e+02
2.490000e-06	-9.416227e-08	3.436564e-09	-6.736305e-01	2.218615e+02
2.500000e-06	-1.962450e-07	2.847512e-09	-1.403924e+00	1.833649e+02
2.510000e-06	-2.982498e-07	2.261022e-09	-2.133659e+00	1.449530e+02
2.520000e-06	-4.001383e-07	1.674607e-09	-2.862562e+00	1.066054e+02
2.530000e-06	-5.018588e-07	1.085970e-09	-3.590264e+00	6.824813e+01
2.540000e-06	-6.033215e-07	4.956970e-10	-4.316121e+00	2.976487e+01
2.550000e-06	-7.044326e-07	-9.818713e-11	-5.039463e+00	-8.987303e+00
2.560000e-06	-8.051799e-07	-6.976793e-10	-5.760202e+00	-4.815883e+01
2.570000e-06	-9.055841e-07	-1.306863e-09	-6.478487e+00	-8.788765e+01
2.580000e-06	-1.005631e-06	-1.925895e-09	-7.194214e+00	-1.282797e+02
2.590000e-06	-1.105375e-06	-2.554839e-09	-7.907774e+00	-1.693918e+02
2.600000e-06	-1.204832e-06	-3.194570e-09	-8.619285e+00	-2.112185e+02
2.610000e-06	-1.303958e-06	-3.841387e-09	-9.328424e+00	-2.536845e+02
2.620000e-06	-1.402665e-06	-4.494335e-09	-1.003457e+01	-2.966422e+02
2.630000e-06	-1.500858e-06	-5.151412e-09	-1.073704e+01	-3.398778e+02
2.640000e-06	-1.598491e-06	-5.810600e-09	-1.143549e+01	-3.831218e+02
2.650000e-06	-1.695608e-06	-6.468314e-09	-1.213026e+01	-4.260673e+02
2.660000e-06	-1.792176e-06	-7.116520e-09	-1.282110e+01	-4.683912e+02
2.670000e-06	-1.888159e-06	-7.751237e-09	-1.350776e+01	-5.097775e+02
2.680000e-06	-1.983567e-06	-8.367406e-09	-1.419030e+01	-5.499405e+02
2.690000e-06	-2.078229e-06	-8.960268e-09	-1.486751e+01	-5.886438e+02
2.700000e-06	-2.171869e-06	-9.528929e-09	-1.553741e+01	-6.257136e+02
2.710000e-06	-2.264450e-06	-1.007319e-08	-1.619972e+01	-6.610449e+02
2.720000e-06	-2.356192e-06	-1.058942e-08	-1.685604e+01	-6.945995e+02
2.730000e-06	-2.447213e-06	-1.107646e-08	-1.750720e+01	-7.263974e+02
2.740000e-06	-2.537324e-06	-1.153693e-08	-1.815184e+01	-7.565024e+02
2.750000e-06	-2.626486e-06	-1.197224e-08	-1.878970e+01	-7.850054e+02
2.760000e-06	-2.714846e-06	-1.238672e-08	-1.942182e+01	-8.120087e+02
2.770000e-06	-2.802449e-06	-1.278076e-08	-2.004853e+01	-8.376119e+02
2.780000e-06	-2.889160e-06	-1.315478e-08	-2.066885e+01	-8.619031e+02
2.790000e-06	-2.974672e-06	-1.350805e-08	-2.128060e+01	-8.849559e+02
2.800000e-06	-3.058966e-06	-1.384103e-08	-2.188364e+01	-9.068299e+02
2.810000e-06	-3.142238e-06	-1.415556e-08	-2.247936e+01	-9.275753e+02
2.820000e-06	-3.224493e-06	-1.445523e-08	-2.306781e+01	-9.472394e+02
2.830000e-06	-3.305658e-06	-1.474164e-08	-2.364845e+01	-9.658713e+02
2.840000e-06	-3.385696e-06	-1.501207e-08	-2.422104e+01	-9.835258e+02
2.850000e-06	-3.464466e-06	-1.526753e-08	-2.478455e+01	-1.000264e+03
2.860000e-06	-3.541771e-06	-1.550953e-08	-2.533759e+01	-1.016150e+03
2.870000e-06	-3.617591e-06	-1.574219e-08	-2.588000e+01	-1.031249e+03
2.880000e-06	-3.692077e-06	-1.596763e-08	-2.641287e+01	-1.045622e+03
2.890000e-06	-3.765280e-06	-1.618260e-08	-2.693655e+01	-1.059320e+03
2.900000e-06	-3.837187e-06	-1.638407e-08	-2.745097e+01	-1.072384e+03
2.910000e-06	-3.907655e-06	-1.657324e-08	-2.795510e+01	-1.084845e+03
2.920000e-06	-3.976524e-06	-1.675396e-08	-2.844778e+01	-1.096725e+03
2.930000e-06	-4.043912e-06	-1.692551e-08	-2.892987e+01	-1.108038e+03
2.940000e-06	-4.109898e-06	-1.708723e-08	-2.940193e+01	-1.118800e+03
