# Temperatura_=_77.92
# Concentracion g/m^3_=_28200.0
# C_Vs_to_Am_M_A/Vsm_=_65563218390.804596
# pendiente_HvsI_1/m_=_3716.3
# ordenada_HvsI_A/m_=_1297.0
# frecuencia_Hz_=_301767.9759443045

Tiempo_(s)	Campo_(V.s)	Magnetizacion_(V.s)	Campo_(kA/m)	Magnetizacion_(A/m)
0.000000e+00	-5.332410e-06	-2.526564e-08	-3.829652e+01	-1.653206e+03
1.000000e-08	-5.330190e-06	-2.526351e-08	-3.828057e+01	-1.652787e+03
2.000000e-08	-5.326136e-06	-2.525299e-08	-3.825146e+01	-1.652177e+03
3.000000e-08	-5.320472e-06	-2.524071e-08	-3.821078e+01	-1.651372e+03
4.000000e-08	-5.313219e-06	-2.522734e-08	-3.815869e+01	-1.650363e+03
5.000000e-08	-5.304242e-06	-2.520657e-08	-3.809422e+01	-1.649134e+03
6.000000e-08	-5.293300e-06	-2.517966e-08	-3.801564e+01	-1.647668e+03
7.000000e-08	-5.280428e-06	-2.513906e-08	-3.792319e+01	-1.645952e+03
8.000000e-08	-5.265565e-06	-2.512249e-08	-3.781645e+01	-1.643984e+03
9.000000e-08	-5.248487e-06	-2.516748e-08	-3.769380e+01	-1.641778e+03
1.000000e-07	-5.229290e-06	-2.513136e-08	-3.755593e+01	-1.639359e+03
1.100000e-07	-5.208165e-06	-2.503315e-08	-3.740421e+01	-1.636769e+03
1.200000e-07	-5.185266e-06	-2.497321e-08	-3.723976e+01	-1.634051e+03
1.300000e-07	-5.160884e-06	-2.482745e-08	-3.706465e+01	-1.631247e+03
1.400000e-07	-5.134988e-06	-2.483500e-08	-3.687867e+01	-1.628385e+03
1.500000e-07	-5.107383e-06	-2.495875e-08	-3.668041e+01	-1.625475e+03
1.600000e-07	-5.078220e-06	-2.475027e-08	-3.647096e+01	-1.622501e+03
1.700000e-07	-5.047620e-06	-2.473272e-08	-3.625120e+01	-1.619424e+03
1.800000e-07	-5.015127e-06	-2.478027e-08	-3.601784e+01	-1.616188e+03
1.900000e-07	-4.980579e-06	-2.450329e-08	-3.576973e+01	-1.612729e+03
2.000000e-07	-4.944445e-06	-2.452667e-08	-3.551022e+01	-1.608982e+03
2.100000e-07	-4.906687e-06	-2.458650e-08	-3.523905e+01	-1.604897e+03
2.200000e-07	-4.867154e-06	-2.441119e-08	-3.495512e+01	-1.600441e+03
2.300000e-07	-4.825825e-06	-2.435530e-08	-3.465831e+01	-1.595605e+03
2.400000e-07	-4.782522e-06	-2.425912e-08	-3.434731e+01	-1.590399e+03
2.500000e-07	-4.737387e-06	-2.414656e-08	-3.402316e+01	-1.584851e+03
2.600000e-07	-4.690508e-06	-2.409253e-08	-3.368649e+01	-1.578992e+03
2.700000e-07	-4.641605e-06	-2.394394e-08	-3.333527e+01	-1.572852e+03
2.800000e-07	-4.590608e-06	-2.385565e-08	-3.296902e+01	-1.566453e+03
2.900000e-07	-4.537712e-06	-2.376751e-08	-3.258912e+01	-1.559801e+03
3.000000e-07	-4.483198e-06	-2.365261e-08	-3.219761e+01	-1.552891e+03
3.100000e-07	-4.427112e-06	-2.355168e-08	-3.179481e+01	-1.545704e+03
3.200000e-07	-4.369214e-06	-2.343369e-08	-3.137900e+01	-1.538217e+03
3.300000e-07	-4.309613e-06	-2.332898e-08	-3.095095e+01	-1.530410e+03
3.400000e-07	-4.248519e-06	-2.318824e-08	-3.051218e+01	-1.522268e+03
3.500000e-07	-4.185998e-06	-2.304716e-08	-3.006317e+01	-1.513782e+03
3.600000e-07	-4.122081e-06	-2.291813e-08	-2.960413e+01	-1.504957e+03
3.700000e-07	-4.056592e-06	-2.279923e-08	-2.913380e+01	-1.495800e+03
3.800000e-07	-3.989504e-06	-2.266451e-08	-2.865198e+01	-1.486320e+03
3.900000e-07	-3.920980e-06	-2.247439e-08	-2.815985e+01	-1.476521e+03
4.000000e-07	-3.851132e-06	-2.232302e-08	-2.765821e+01	-1.466402e+03
4.100000e-07	-3.780086e-06	-2.218752e-08	-2.714797e+01	-1.455948e+03
4.200000e-07	-3.707869e-06	-2.201732e-08	-2.662933e+01	-1.445138e+03
4.300000e-07	-3.634174e-06	-2.184555e-08	-2.610006e+01	-1.433945e+03
4.400000e-07	-3.558857e-06	-2.166580e-08	-2.555915e+01	-1.422339e+03
4.500000e-07	-3.482130e-06	-2.147562e-08	-2.500810e+01	-1.410292e+03
4.600000e-07	-3.404073e-06	-2.127029e-08	-2.444751e+01	-1.397782e+03
4.700000e-07	-3.324659e-06	-2.107332e-08	-2.387717e+01	-1.384794e+03
4.800000e-07	-3.243909e-06	-2.088231e-08	-2.329724e+01	-1.371318e+03
4.900000e-07	-3.161950e-06	-2.067227e-08	-2.270862e+01	-1.357343e+03
5.000000e-07	-3.078945e-06	-2.045194e-08	-2.211249e+01	-1.342862e+03
5.100000e-07	-2.995045e-06	-2.021744e-08	-2.150993e+01	-1.327857e+03
5.200000e-07	-2.910251e-06	-1.997327e-08	-2.090096e+01	-1.312308e+03
5.300000e-07	-2.824480e-06	-1.972240e-08	-2.028497e+01	-1.296186e+03
5.400000e-07	-2.737728e-06	-1.946700e-08	-1.966192e+01	-1.279454e+03
5.500000e-07	-2.650103e-06	-1.920248e-08	-1.903262e+01	-1.262075e+03
5.600000e-07	-2.561565e-06	-1.892124e-08	-1.839675e+01	-1.244011e+03
5.700000e-07	-2.471828e-06	-1.863285e-08	-1.775227e+01	-1.225224e+03
5.800000e-07	-2.380909e-06	-1.833421e-08	-1.709931e+01	-1.205681e+03
5.900000e-07	-2.289156e-06	-1.802859e-08	-1.644035e+01	-1.185347e+03
6.000000e-07	-2.196688e-06	-1.771275e-08	-1.577626e+01	-1.164186e+03
6.100000e-07	-2.103444e-06	-1.738203e-08	-1.510660e+01	-1.142155e+03
6.200000e-07	-2.009426e-06	-1.703030e-08	-1.443138e+01	-1.119202e+03
6.300000e-07	-1.914725e-06	-1.665391e-08	-1.375125e+01	-1.095263e+03
6.400000e-07	-1.819375e-06	-1.626250e-08	-1.306646e+01	-1.070262e+03
6.500000e-07	-1.723416e-06	-1.585976e-08	-1.237730e+01	-1.044115e+03
6.600000e-07	-1.626904e-06	-1.544370e-08	-1.168416e+01	-1.016728e+03
6.700000e-07	-1.529651e-06	-1.500970e-08	-1.098571e+01	-9.880071e+02
6.800000e-07	-1.431630e-06	-1.455330e-08	-1.028174e+01	-9.578590e+02
6.900000e-07	-1.333006e-06	-1.406905e-08	-9.573441e+00	-9.261933e+02
7.000000e-07	-1.233882e-06	-1.355955e-08	-8.861541e+00	-8.929250e+02
7.100000e-07	-1.134367e-06	-1.302461e-08	-8.146844e+00	-8.579753e+02
7.200000e-07	-1.034595e-06	-1.246431e-08	-7.430300e+00	-8.212728e+02
7.300000e-07	-9.346018e-07	-1.187951e-08	-6.712162e+00	-7.827559e+02
7.400000e-07	-8.343309e-07	-1.126551e-08	-5.992032e+00	-7.423785e+02
7.500000e-07	-7.337627e-07	-1.062100e-08	-5.269767e+00	-7.001175e+02
7.600000e-07	-6.329684e-07	-9.945700e-09	-4.545879e+00	-6.559826e+02
7.700000e-07	-5.319545e-07	-9.242823e-09	-3.820413e+00	-6.100263e+02
7.800000e-07	-4.307015e-07	-8.516917e-09	-3.093230e+00	-5.623512e+02
7.900000e-07	-3.293631e-07	-7.768996e-09	-2.365434e+00	-5.131131e+02
8.000000e-07	-2.279604e-07	-6.998345e-09	-1.637176e+00	-4.625157e+02
8.100000e-07	-1.263979e-07	-6.208976e-09	-9.077698e-01	-4.107974e+02
8.200000e-07	-2.468436e-08	-5.406228e-09	-1.772792e-01	-3.582103e+02
8.300000e-07	7.706061e-08	-4.594348e-09	5.534371e-01	-3.049930e+02
8.400000e-07	1.787361e-07	-3.777086e-09	1.283654e+00	-2.513422e+02
8.500000e-07	2.803625e-07	-2.957700e-09	2.013519e+00	-1.973870e+02
8.600000e-07	3.819248e-07	-2.136843e-09	2.742923e+00	-1.431724e+02
8.700000e-07	4.833564e-07	-1.310383e-09	3.471388e+00	-8.865467e+01
8.800000e-07	5.845855e-07	-4.767093e-10	4.198400e+00	-3.371187e+01
8.900000e-07	6.856532e-07	3.702340e-10	4.924252e+00	2.183153e+01
9.000000e-07	7.865350e-07	1.231726e-09	5.648769e+00	7.816795e+01
9.100000e-07	8.871423e-07	2.105668e-09	6.371315e+00	1.354637e+02
9.200000e-07	9.874815e-07	2.993466e-09	7.091935e+00	1.938161e+02
9.300000e-07	1.087522e-06	3.895144e-09	7.810408e+00	2.532177e+02
9.400000e-07	1.187248e-06	4.811257e-09	8.526623e+00	3.135336e+02
9.500000e-07	1.286654e-06	5.739148e-09	9.240548e+00	3.744951e+02
9.600000e-07	1.385618e-06	6.672526e-09	9.951285e+00	4.357130e+02
9.700000e-07	1.483937e-06	7.602168e-09	1.065740e+01	4.967056e+02
9.800000e-07	1.581466e-06	8.518447e-09	1.135784e+01	5.569400e+02
9.900000e-07	1.678235e-06	9.412633e-09	1.205282e+01	6.158793e+02
1.000000e-06	1.774297e-06	1.027954e-08	1.274272e+01	6.730283e+02
1.010000e-06	1.869675e-06	1.111312e-08	1.342771e+01	7.279723e+02
1.020000e-06	1.964442e-06	1.190871e-08	1.410831e+01	7.804039e+02
1.030000e-06	2.058500e-06	1.266380e-08	1.478382e+01	8.301347e+02
1.040000e-06	2.151766e-06	1.337500e-08	1.545364e+01	8.770925e+02
1.050000e-06	2.244321e-06	1.404354e-08	1.611835e+01	9.213060e+02
1.060000e-06	2.336283e-06	1.467250e-08	1.677881e+01	9.628810e+02
1.070000e-06	2.427571e-06	1.526495e-08	1.743443e+01	1.001972e+03
1.080000e-06	2.517862e-06	1.582448e-08	1.808289e+01	1.038757e+03
1.090000e-06	2.606988e-06	1.635362e-08	1.872297e+01	1.073413e+03
1.100000e-06	2.695079e-06	1.685062e-08	1.935563e+01	1.106104e+03
1.110000e-06	2.782279e-06	1.731729e-08	1.998188e+01	1.136972e+03
1.120000e-06	2.868595e-06	1.775749e-08	2.060179e+01	1.166137e+03
1.130000e-06	2.953943e-06	1.817475e-08	2.121475e+01	1.193705e+03
1.140000e-06	3.038392e-06	1.857174e-08	2.182125e+01	1.219767e+03
1.150000e-06	3.122013e-06	1.894879e-08	2.242180e+01	1.244414e+03
1.160000e-06	3.204565e-06	1.930665e-08	2.301468e+01	1.267737e+03
1.170000e-06	3.285826e-06	1.964408e-08	2.359828e+01	1.289828e+03
1.180000e-06	3.365857e-06	1.996414e-08	2.417305e+01	1.310779e+03
1.190000e-06	3.444726e-06	2.026834e-08	2.473948e+01	1.330681e+03
1.200000e-06	3.522371e-06	2.055454e-08	2.529711e+01	1.349615e+03
1.210000e-06	3.598817e-06	2.082470e-08	2.584613e+01	1.367648e+03
1.220000e-06	3.673937e-06	2.108376e-08	2.638563e+01	1.384836e+03
1.230000e-06	3.747449e-06	2.133237e-08	2.691358e+01	1.401220e+03
1.240000e-06	3.819391e-06	2.156847e-08	2.743026e+01	1.416834e+03
1.250000e-06	3.889976e-06	2.179249e-08	2.793719e+01	1.431702e+03
1.260000e-06	3.959229e-06	2.200639e-08	2.843455e+01	1.445849e+03
1.270000e-06	4.027198e-06	2.221072e-08	2.892269e+01	1.459306e+03
1.280000e-06	4.093695e-06	2.240404e-08	2.940027e+01	1.472104e+03
1.290000e-06	4.158524e-06	2.258655e-08	2.986585e+01	1.484283e+03
1.300000e-06	4.221805e-06	2.276137e-08	3.032033e+01	1.495885e+03
1.310000e-06	4.283618e-06	2.292897e-08	3.076426e+01	1.506947e+03
1.320000e-06	4.344097e-06	2.308930e-08	3.119861e+01	1.517505e+03
1.330000e-06	4.403185e-06	2.324352e-08	3.162297e+01	1.527583e+03
1.340000e-06	4.460535e-06	2.339211e-08	3.203485e+01	1.537194e+03
1.350000e-06	4.516161e-06	2.353390e-08	3.243435e+01	1.546344e+03
1.360000e-06	4.570208e-06	2.366640e-08	3.282251e+01	1.555033e+03
1.370000e-06	4.622506e-06	2.378972e-08	3.319810e+01	1.563258e+03
1.380000e-06	4.672794e-06	2.390590e-08	3.355926e+01	1.571022e+03
1.390000e-06	4.721062e-06	2.401510e-08	3.390592e+01	1.578335e+03
1.400000e-06	4.767609e-06	2.411727e-08	3.424021e+01	1.585218e+03
1.410000e-06	4.812648e-06	2.421375e-08	3.456367e+01	1.591700e+03
1.420000e-06	4.856159e-06	2.430764e-08	3.487616e+01	1.597817e+03
1.430000e-06	4.897856e-06	2.439766e-08	3.517562e+01	1.603606e+03
1.440000e-06	4.937669e-06	2.448238e-08	3.546155e+01	1.609098e+03
1.450000e-06	4.975816e-06	2.456339e-08	3.573552e+01	1.614317e+03
1.460000e-06	5.012417e-06	2.463852e-08	3.599838e+01	1.619273e+03
1.470000e-06	5.047314e-06	2.470742e-08	3.624901e+01	1.623963e+03
1.480000e-06	5.080289e-06	2.477136e-08	3.648583e+01	1.628375e+03
1.490000e-06	5.111403e-06	2.483249e-08	3.670928e+01	1.632493e+03
1.500000e-06	5.140840e-06	2.489101e-08	3.692070e+01	1.636299e+03
1.510000e-06	5.168625e-06	2.494596e-08	3.712024e+01	1.639781e+03
1.520000e-06	5.194410e-06	2.499608e-08	3.730543e+01	1.642936e+03
1.530000e-06	5.218173e-06	2.504010e-08	3.747609e+01	1.645770e+03
1.540000e-06	5.240126e-06	2.507695e-08	3.763375e+01	1.648299e+03
1.550000e-06	5.260325e-06	2.510803e-08	3.777882e+01	1.650544e+03
1.560000e-06	5.278744e-06	2.513529e-08	3.791110e+01	1.652525e+03
1.570000e-06	5.295190e-06	2.515980e-08	3.802921e+01	1.654262e+03
1.580000e-06	5.309649e-06	2.518244e-08	3.813306e+01	1.655765e+03
1.590000e-06	5.322146e-06	2.520306e-08	3.822281e+01	1.657040e+03
1.600000e-06	5.332491e-06	2.522114e-08	3.829710e+01	1.658087e+03
1.610000e-06	5.340710e-06	2.523484e-08	3.835613e+01	1.658904e+03
1.620000e-06	5.347073e-06	2.524484e-08	3.840183e+01	1.659489e+03
1.630000e-06	5.351694e-06	2.525193e-08	3.843501e+01	1.659842e+03
1.640000e-06	5.354458e-06	2.525633e-08	3.845486e+01	1.659972e+03
1.650000e-06	5.355173e-06	2.525724e-08	3.846000e+01	1.659887e+03
1.660000e-06	5.353980e-06	2.524889e-08	3.845143e+01	1.659600e+03
1.670000e-06	5.351169e-06	2.523832e-08	3.843125e+01	1.659118e+03
1.680000e-06	5.346737e-06	2.523161e-08	3.839942e+01	1.658445e+03
1.690000e-06	5.340439e-06	2.522154e-08	3.835418e+01	1.657575e+03
1.700000e-06	5.332308e-06	2.520660e-08	3.829579e+01	1.656496e+03
1.710000e-06	5.322593e-06	2.519048e-08	3.822602e+01	1.655191e+03
1.720000e-06	5.311249e-06	2.518355e-08	3.814454e+01	1.653645e+03
1.730000e-06	5.297996e-06	2.515657e-08	3.804936e+01	1.651846e+03
1.740000e-06	5.282674e-06	2.503037e-08	3.793932e+01	1.649798e+03
1.750000e-06	5.265103e-06	2.498002e-08	3.781313e+01	1.647519e+03
1.760000e-06	5.244993e-06	2.499969e-08	3.766871e+01	1.645039e+03
1.770000e-06	5.222486e-06	2.500405e-08	3.750706e+01	1.642402e+03
1.780000e-06	5.198391e-06	2.508315e-08	3.733402e+01	1.639651e+03
1.790000e-06	5.173486e-06	2.489121e-08	3.715515e+01	1.636825e+03
1.800000e-06	5.147430e-06	2.476020e-08	3.696802e+01	1.633947e+03
1.810000e-06	5.119354e-06	2.492145e-08	3.676639e+01	1.631018e+03
1.820000e-06	5.089316e-06	2.473950e-08	3.655066e+01	1.628015e+03
1.830000e-06	5.057606e-06	2.472563e-08	3.632292e+01	1.624892e+03
1.840000e-06	5.024017e-06	2.490297e-08	3.608169e+01	1.621591e+03
1.850000e-06	4.988747e-06	2.462032e-08	3.582839e+01	1.618045e+03
1.860000e-06	4.951766e-06	2.454468e-08	3.556280e+01	1.614193e+03
1.870000e-06	4.912824e-06	2.459377e-08	3.528312e+01	1.609989e+03
1.880000e-06	4.872233e-06	2.443352e-08	3.499160e+01	1.605410e+03
1.890000e-06	4.829903e-06	2.446421e-08	3.468760e+01	1.600452e+03
1.900000e-06	4.785881e-06	2.431884e-08	3.437144e+01	1.595132e+03
1.910000e-06	4.740168e-06	2.423903e-08	3.404314e+01	1.589479e+03
1.920000e-06	4.692498e-06	2.430746e-08	3.370077e+01	1.583526e+03
1.930000e-06	4.643167e-06	2.405712e-08	3.334648e+01	1.577300e+03
1.940000e-06	4.592094e-06	2.397301e-08	3.297969e+01	1.570818e+03
1.950000e-06	4.538990e-06	2.390941e-08	3.259831e+01	1.564084e+03
1.960000e-06	4.484001e-06	2.378313e-08	3.220338e+01	1.557086e+03
1.970000e-06	4.427241e-06	2.371177e-08	3.179574e+01	1.549804e+03
1.980000e-06	4.368863e-06	2.350257e-08	3.137648e+01	1.542215e+03
1.990000e-06	4.309104e-06	2.346789e-08	3.094730e+01	1.534301e+03
2.000000e-06	4.247910e-06	2.336968e-08	3.050781e+01	1.526047e+03
2.010000e-06	4.185072e-06	2.316017e-08	3.005652e+01	1.517451e+03
2.020000e-06	4.120551e-06	2.303866e-08	2.959314e+01	1.508517e+03
2.030000e-06	4.054553e-06	2.288942e-08	2.911916e+01	1.499254e+03
2.040000e-06	3.987234e-06	2.280501e-08	2.863568e+01	1.489670e+03
2.050000e-06	3.918545e-06	2.260917e-08	2.814236e+01	1.479768e+03
2.060000e-06	3.848342e-06	2.243392e-08	2.763818e+01	1.469541e+03
2.070000e-06	3.776670e-06	2.232358e-08	2.712344e+01	1.458975e+03
2.080000e-06	3.703691e-06	2.212458e-08	2.659932e+01	1.448044e+03
2.090000e-06	3.629384e-06	2.195952e-08	2.606566e+01	1.436720e+03
2.100000e-06	3.553704e-06	2.177476e-08	2.552213e+01	1.424974e+03
2.110000e-06	3.476567e-06	2.161930e-08	2.496815e+01	1.412779e+03
2.120000e-06	3.397971e-06	2.142457e-08	2.440369e+01	1.400116e+03
2.130000e-06	3.318113e-06	2.118763e-08	2.383016e+01	1.386971e+03
2.140000e-06	3.237147e-06	2.098675e-08	2.324867e+01	1.373334e+03
2.150000e-06	3.155101e-06	2.076968e-08	2.265944e+01	1.359197e+03
2.160000e-06	3.072032e-06	2.056285e-08	2.206284e+01	1.344548e+03
2.170000e-06	2.987997e-06	2.032950e-08	2.145932e+01	1.329370e+03
2.180000e-06	2.902734e-06	2.009417e-08	2.084698e+01	1.313639e+03
2.190000e-06	2.816073e-06	1.985043e-08	2.022458e+01	1.297324e+03
2.200000e-06	2.728357e-06	1.958748e-08	1.959463e+01	1.280387e+03
2.210000e-06	2.639774e-06	1.931945e-08	1.895843e+01	1.262791e+03
2.220000e-06	2.550251e-06	1.903695e-08	1.831550e+01	1.244497e+03
2.230000e-06	2.459853e-06	1.875544e-08	1.766627e+01	1.225470e+03
2.240000e-06	2.368686e-06	1.845164e-08	1.701152e+01	1.205676e+03
2.250000e-06	2.276826e-06	1.813464e-08	1.635180e+01	1.185079e+03
2.260000e-06	2.184231e-06	1.780233e-08	1.568680e+01	1.163642e+03
2.270000e-06	2.090717e-06	1.746344e-08	1.501520e+01	1.141320e+03
2.280000e-06	1.996173e-06	1.711716e-08	1.433620e+01	1.118056e+03
2.290000e-06	1.900767e-06	1.675188e-08	1.365101e+01	1.093784e+03
2.300000e-06	1.804762e-06	1.636893e-08	1.296151e+01	1.068423e+03
2.310000e-06	1.708258e-06	1.596457e-08	1.226844e+01	1.041886e+03
2.320000e-06	1.611220e-06	1.554184e-08	1.157153e+01	1.014080e+03
2.330000e-06	1.513589e-06	1.509471e-08	1.087036e+01	9.849092e+02
2.340000e-06	1.415485e-06	1.462599e-08	1.016579e+01	9.542817e+02
2.350000e-06	1.316960e-06	1.413734e-08	9.458200e+00	9.221088e+02
2.360000e-06	1.218044e-06	1.362678e-08	8.747801e+00	8.883072e+02
2.370000e-06	1.118855e-06	1.308649e-08	8.035439e+00	8.528004e+02
2.380000e-06	1.019409e-06	1.251501e-08	7.321233e+00	8.155196e+02
2.390000e-06	9.196370e-07	1.191684e-08	6.604687e+00	7.764077e+02
2.400000e-06	8.195733e-07	1.129303e-08	5.886045e+00	7.354249e+02
2.410000e-06	7.192773e-07	1.064032e-08	5.165735e+00	6.925576e+02
2.420000e-06	6.187263e-07	9.955903e-09	4.443594e+00	6.478281e+02
2.430000e-06	5.179102e-07	9.246042e-09	3.719548e+00	6.013044e+02
2.440000e-06	4.168617e-07	8.513897e-09	2.993835e+00	5.531064e+02
2.450000e-06	3.155557e-07	7.755328e-09	2.266271e+00	5.034060e+02
2.460000e-06	2.140998e-07	6.971326e-09	1.537631e+00	4.524200e+02
2.470000e-06	1.126091e-07	6.175901e-09	8.087405e-01	4.003939e+02
2.480000e-06	1.106995e-08	5.375606e-09	7.950262e-02	3.475786e+02
2.490000e-06	-9.049202e-08	4.564000e-09	-6.498993e-01	2.942022e+02
2.500000e-06	-1.920464e-07	3.740564e-09	-1.379247e+00	2.404421e+02
2.510000e-06	-2.935278e-07	2.912664e-09	-2.108070e+00	1.864018e+02
2.520000e-06	-3.948308e-07	2.080726e-09	-2.835612e+00	1.320975e+02
2.530000e-06	-4.959936e-07	1.239934e-09	-3.562147e+00	7.745857e+01
2.540000e-06	-5.970366e-07	3.948514e-10	-4.287822e+00	2.234237e+01
2.550000e-06	-6.977867e-07	-4.553218e-10	-5.011393e+00	-3.343642e+01
2.560000e-06	-7.981862e-07	-1.318736e-09	-5.732446e+00	-9.006666e+01
2.570000e-06	-8.982753e-07	-2.199759e-09	-6.451270e+00	-1.476970e+02
2.580000e-06	-9.980389e-07	-3.096956e-09	-7.167757e+00	-2.063944e+02
2.590000e-06	-1.097471e-06	-4.008102e-09	-7.881860e+00	-2.661121e+02
2.600000e-06	-1.196601e-06	-4.932619e-09	-8.593795e+00	-3.266722e+02
2.610000e-06	-1.295402e-06	-5.864411e-09	-9.303372e+00	-3.877649e+02
2.620000e-06	-1.393789e-06	-6.799868e-09	-1.000997e+01	-4.489673e+02
2.630000e-06	-1.491625e-06	-7.732625e-09	-1.071261e+01	-5.097766e+02
2.640000e-06	-1.588853e-06	-8.652878e-09	-1.141089e+01	-5.696533e+02
2.650000e-06	-1.685542e-06	-9.551366e-09	-1.210529e+01	-6.280691e+02
2.660000e-06	-1.781770e-06	-1.041878e-08	-1.279639e+01	-6.845509e+02
2.670000e-06	-1.877493e-06	-1.124928e-08	-1.348385e+01	-7.387164e+02
2.680000e-06	-1.972545e-06	-1.203620e-08	-1.416650e+01	-7.902957e+02
2.690000e-06	-2.066732e-06	-1.278006e-08	-1.484294e+01	-8.391389e+02
2.700000e-06	-2.159951e-06	-1.348619e-08	-1.551242e+01	-8.852084e+02
2.710000e-06	-2.252231e-06	-1.415342e-08	-1.617517e+01	-9.285605e+02
2.720000e-06	-2.343722e-06	-1.478203e-08	-1.683224e+01	-9.693197e+02
2.730000e-06	-2.434451e-06	-1.537384e-08	-1.748384e+01	-1.007651e+03
2.740000e-06	-2.524279e-06	-1.593150e-08	-1.812897e+01	-1.043733e+03
2.750000e-06	-2.613198e-06	-1.645558e-08	-1.876757e+01	-1.077742e+03
2.760000e-06	-2.701308e-06	-1.694584e-08	-1.940036e+01	-1.109834e+03
2.770000e-06	-2.788663e-06	-1.740732e-08	-2.002774e+01	-1.140143e+03
2.780000e-06	-2.875025e-06	-1.784269e-08	-2.064797e+01	-1.168786e+03
2.790000e-06	-2.960144e-06	-1.825387e-08	-2.125928e+01	-1.195861e+03
2.800000e-06	-3.044124e-06	-1.864539e-08	-2.186241e+01	-1.221459e+03
2.810000e-06	-3.127121e-06	-1.901773e-08	-2.245849e+01	-1.245672e+03
2.820000e-06	-3.209099e-06	-1.936946e-08	-2.304724e+01	-1.268590e+03
2.830000e-06	-3.289989e-06	-1.970193e-08	-2.362818e+01	-1.290305e+03
2.840000e-06	-3.369867e-06	-2.001681e-08	-2.420185e+01	-1.310911e+03
2.850000e-06	-3.448519e-06	-2.031646e-08	-2.476672e+01	-1.330495e+03
2.860000e-06	-3.525637e-06	-2.060349e-08	-2.532057e+01	-1.349133e+03
2.870000e-06	-3.601284e-06	-2.087674e-08	-2.586385e+01	-1.366890e+03
2.880000e-06	-3.675572e-06	-2.113551e-08	-2.639737e+01	-1.383817e+03
2.890000e-06	-3.748526e-06	-2.138185e-08	-2.692132e+01	-1.399952e+03
2.900000e-06	-3.820207e-06	-2.161767e-08	-2.743612e+01	-1.415324e+03
2.910000e-06	-3.890436e-06	-2.184406e-08	-2.794049e+01	-1.429959e+03
2.920000e-06	-3.959065e-06	-2.206123e-08	-2.843337e+01	-1.443882e+03
2.930000e-06	-4.026288e-06	-2.226763e-08	-2.891616e+01	-1.457124e+03
2.940000e-06	-4.092118e-06	-2.246317e-08	-2.938894e+01	-1.469720e+03
