# Temperatura_=_68.28
# Concentracion g/m^3_=_28200.0
# C_Vs_to_Am_M_A/Vsm_=_65563218390.804596
# pendiente_HvsI_1/m_=_3716.3
# ordenada_HvsI_A/m_=_1297.0
# frecuencia_Hz_=_301769.94098697905

Tiempo_(s)	Campo_(V.s)	Magnetizacion_(V.s)	Campo_(kA/m)	Magnetizacion_(A/m)
0.000000e+00	-5.337713e-06	-2.365498e-08	-3.829836e+01	-1.548099e+03
1.000000e-08	-5.335866e-06	-2.365786e-08	-3.828511e+01	-1.547749e+03
2.000000e-08	-5.332111e-06	-2.364855e-08	-3.825816e+01	-1.547213e+03
3.000000e-08	-5.326779e-06	-2.363330e-08	-3.821991e+01	-1.546489e+03
4.000000e-08	-5.319864e-06	-2.361796e-08	-3.817029e+01	-1.545568e+03
5.000000e-08	-5.311362e-06	-2.359816e-08	-3.810929e+01	-1.544441e+03
6.000000e-08	-5.300895e-06	-2.357242e-08	-3.803419e+01	-1.543097e+03
7.000000e-08	-5.288384e-06	-2.353551e-08	-3.794442e+01	-1.541530e+03
8.000000e-08	-5.273970e-06	-2.349545e-08	-3.784100e+01	-1.539743e+03
9.000000e-08	-5.257305e-06	-2.355447e-08	-3.772142e+01	-1.537749e+03
1.000000e-07	-5.238416e-06	-2.356889e-08	-3.758590e+01	-1.535570e+03
1.100000e-07	-5.217624e-06	-2.345558e-08	-3.743671e+01	-1.533237e+03
1.200000e-07	-5.195018e-06	-2.340335e-08	-3.727452e+01	-1.530782e+03
1.300000e-07	-5.170829e-06	-2.327400e-08	-3.710096e+01	-1.528235e+03
1.400000e-07	-5.145166e-06	-2.315955e-08	-3.691682e+01	-1.525616e+03
1.500000e-07	-5.117853e-06	-2.338937e-08	-3.672085e+01	-1.522931e+03
1.600000e-07	-5.088982e-06	-2.323766e-08	-3.651370e+01	-1.520169e+03
1.700000e-07	-5.058738e-06	-2.307539e-08	-3.629670e+01	-1.517302e+03
1.800000e-07	-5.026743e-06	-2.327483e-08	-3.606713e+01	-1.514288e+03
1.900000e-07	-4.992551e-06	-2.299256e-08	-3.582181e+01	-1.511080e+03
2.000000e-07	-4.956707e-06	-2.290254e-08	-3.556462e+01	-1.507632e+03
2.100000e-07	-4.919364e-06	-2.309143e-08	-3.529668e+01	-1.503902e+03
2.200000e-07	-4.880201e-06	-2.287105e-08	-3.501569e+01	-1.499863e+03
2.300000e-07	-4.839229e-06	-2.276982e-08	-3.472171e+01	-1.495501e+03
2.400000e-07	-4.796275e-06	-2.274282e-08	-3.441351e+01	-1.490818e+03
2.500000e-07	-4.751480e-06	-2.258668e-08	-3.409210e+01	-1.485825e+03
2.600000e-07	-4.704937e-06	-2.261273e-08	-3.375816e+01	-1.480541e+03
2.700000e-07	-4.656415e-06	-2.248032e-08	-3.341001e+01	-1.474982e+03
2.800000e-07	-4.605796e-06	-2.233951e-08	-3.304681e+01	-1.469163e+03
2.900000e-07	-4.553160e-06	-2.227641e-08	-3.266915e+01	-1.463089e+03
3.000000e-07	-4.498842e-06	-2.217636e-08	-3.227941e+01	-1.456757e+03
3.100000e-07	-4.443033e-06	-2.209494e-08	-3.187898e+01	-1.450159e+03
3.200000e-07	-4.385438e-06	-2.199236e-08	-3.146573e+01	-1.443280e+03
3.300000e-07	-4.326043e-06	-2.190474e-08	-3.103957e+01	-1.436108e+03
3.400000e-07	-4.265164e-06	-2.175673e-08	-3.060276e+01	-1.428632e+03
3.500000e-07	-4.202879e-06	-2.160702e-08	-3.015587e+01	-1.420846e+03
3.600000e-07	-4.139212e-06	-2.150273e-08	-2.969905e+01	-1.412750e+03
3.700000e-07	-4.074044e-06	-2.139344e-08	-2.923147e+01	-1.404346e+03
3.800000e-07	-4.007253e-06	-2.129633e-08	-2.875224e+01	-1.395637e+03
3.900000e-07	-3.938939e-06	-2.112327e-08	-2.826208e+01	-1.386623e+03
4.000000e-07	-3.869228e-06	-2.094149e-08	-2.776190e+01	-1.377302e+03
4.100000e-07	-3.798290e-06	-2.083043e-08	-2.725292e+01	-1.367661e+03
4.200000e-07	-3.726194e-06	-2.067656e-08	-2.673563e+01	-1.357682e+03
4.300000e-07	-3.652674e-06	-2.051909e-08	-2.620812e+01	-1.347344e+03
4.400000e-07	-3.577529e-06	-2.035014e-08	-2.566895e+01	-1.336621e+03
4.500000e-07	-3.500928e-06	-2.017461e-08	-2.511934e+01	-1.325489e+03
4.600000e-07	-3.423037e-06	-1.998368e-08	-2.456046e+01	-1.313925e+03
4.700000e-07	-3.343709e-06	-1.979622e-08	-2.399128e+01	-1.301913e+03
4.800000e-07	-3.263014e-06	-1.963303e-08	-2.341229e+01	-1.289438e+03
4.900000e-07	-3.181190e-06	-1.943473e-08	-2.282520e+01	-1.276490e+03
5.000000e-07	-3.098302e-06	-1.922998e-08	-2.223047e+01	-1.263058e+03
5.100000e-07	-3.014455e-06	-1.900944e-08	-2.162886e+01	-1.249130e+03
5.200000e-07	-2.929780e-06	-1.878306e-08	-2.102132e+01	-1.234688e+03
5.300000e-07	-2.844192e-06	-1.855061e-08	-2.040722e+01	-1.219711e+03
5.400000e-07	-2.757630e-06	-1.831106e-08	-1.978613e+01	-1.204170e+03
5.500000e-07	-2.670180e-06	-1.806668e-08	-1.915868e+01	-1.188032e+03
5.600000e-07	-2.581761e-06	-1.780528e-08	-1.852426e+01	-1.171260e+03
5.700000e-07	-2.492236e-06	-1.754102e-08	-1.788192e+01	-1.153814e+03
5.800000e-07	-2.401548e-06	-1.726604e-08	-1.723123e+01	-1.135654e+03
5.900000e-07	-2.309828e-06	-1.698232e-08	-1.657313e+01	-1.116737e+03
6.000000e-07	-2.217359e-06	-1.668145e-08	-1.590966e+01	-1.097022e+03
6.100000e-07	-2.124175e-06	-1.636745e-08	-1.524106e+01	-1.076463e+03
6.200000e-07	-2.030222e-06	-1.603986e-08	-1.456695e+01	-1.055013e+03
6.300000e-07	-1.935609e-06	-1.569286e-08	-1.388809e+01	-1.032621e+03
6.400000e-07	-1.840365e-06	-1.533086e-08	-1.320471e+01	-1.009227e+03
6.500000e-07	-1.744419e-06	-1.495538e-08	-1.251629e+01	-9.847701e+02
6.600000e-07	-1.647820e-06	-1.456330e-08	-1.182319e+01	-9.591793e+02
6.700000e-07	-1.550610e-06	-1.415139e-08	-1.112570e+01	-9.323794e+02
6.800000e-07	-1.452746e-06	-1.372502e-08	-1.042352e+01	-9.042894e+02
6.900000e-07	-1.354244e-06	-1.327711e-08	-9.716767e+00	-8.748242e+02
7.000000e-07	-1.255151e-06	-1.280719e-08	-9.005770e+00	-8.438960e+02
7.100000e-07	-1.155615e-06	-1.230987e-08	-8.291597e+00	-8.114169e+02
7.200000e-07	-1.055770e-06	-1.178637e-08	-7.575204e+00	-7.773041e+02
7.300000e-07	-9.556667e-07	-1.123933e-08	-6.856956e+00	-7.414855e+02
7.400000e-07	-8.553380e-07	-1.066737e-08	-6.137093e+00	-7.039081e+02
7.500000e-07	-7.547441e-07	-1.007111e-08	-5.415327e+00	-6.645481e+02
7.600000e-07	-6.539388e-07	-9.446528e-09	-4.692043e+00	-6.234202e+02
7.700000e-07	-5.529239e-07	-8.793041e-09	-3.967257e+00	-5.805860e+02
7.800000e-07	-4.516833e-07	-8.116126e-09	-3.240850e+00	-5.361591e+02
7.900000e-07	-3.503381e-07	-7.420287e-09	-2.513693e+00	-4.903038e+02
8.000000e-07	-2.488609e-07	-6.703808e-09	-1.785590e+00	-4.432276e+02
8.100000e-07	-1.472305e-07	-5.972924e-09	-1.056386e+00	-3.951663e+02
8.200000e-07	-4.547302e-08	-5.230863e-09	-3.262712e-01	-3.463627e+02
8.300000e-07	5.635976e-08	-4.480399e-09	4.043841e-01	-2.970416e+02
8.400000e-07	1.581950e-07	-3.722486e-09	1.135057e+00	-2.473836e+02
8.500000e-07	2.599487e-07	-2.963734e-09	1.865145e+00	-1.975037e+02
8.600000e-07	3.616035e-07	-2.207530e-09	2.594523e+00	-1.474365e+02
8.700000e-07	4.631290e-07	-1.446210e-09	3.322974e+00	-9.713368e+01
8.800000e-07	5.644810e-07	-6.782067e-10	4.050179e+00	-4.647328e+01
8.900000e-07	6.657395e-07	1.031486e-10	4.776714e+00	4.717649e+00
9.000000e-07	7.668030e-07	8.990032e-10	5.501850e+00	5.663058e+01
9.100000e-07	8.675372e-07	1.706921e-09	6.224623e+00	1.094370e+02
9.200000e-07	9.679971e-07	2.526283e-09	6.945427e+00	1.632498e+02
9.300000e-07	1.068209e-06	3.356645e-09	7.664455e+00	2.180896e+02
9.400000e-07	1.168141e-06	4.200956e-09	8.381469e+00	2.738629e+02
9.500000e-07	1.267760e-06	5.058844e-09	9.096243e+00	3.303538e+02
9.600000e-07	1.366930e-06	5.925816e-09	9.807793e+00	3.872321e+02
9.700000e-07	1.465478e-06	6.793814e-09	1.051488e+01	4.440764e+02
9.800000e-07	1.563249e-06	7.651512e-09	1.121639e+01	5.004086e+02
9.900000e-07	1.660247e-06	8.491647e-09	1.191235e+01	5.557350e+02
1.000000e-06	1.756569e-06	9.309974e-09	1.260347e+01	6.095878e+02
1.010000e-06	1.852182e-06	1.009862e-08	1.328950e+01	6.615621e+02
1.020000e-06	1.947088e-06	1.085242e-08	1.397046e+01	7.113424e+02
1.030000e-06	2.041340e-06	1.156905e-08	1.464671e+01	7.587174e+02
1.040000e-06	2.134912e-06	1.224993e-08	1.531810e+01	8.035813e+02
1.050000e-06	2.227729e-06	1.289212e-08	1.598407e+01	8.459231e+02
1.060000e-06	2.319886e-06	1.349620e-08	1.664530e+01	8.858084e+02
1.070000e-06	2.411417e-06	1.406620e-08	1.730204e+01	9.233555e+02
1.080000e-06	2.502057e-06	1.460410e-08	1.795238e+01	9.587118e+02
1.090000e-06	2.591569e-06	1.511243e-08	1.859464e+01	9.920332e+02
1.100000e-06	2.680005e-06	1.559132e-08	1.922917e+01	1.023469e+03
1.110000e-06	2.767433e-06	1.604135e-08	1.985647e+01	1.053155e+03
1.120000e-06	2.853948e-06	1.646553e-08	2.047722e+01	1.081208e+03
1.130000e-06	2.939596e-06	1.686799e-08	2.109175e+01	1.107730e+03
1.140000e-06	3.024316e-06	1.724883e-08	2.169962e+01	1.132814e+03
1.150000e-06	3.108170e-06	1.760932e-08	2.230128e+01	1.156545e+03
1.160000e-06	3.191034e-06	1.795179e-08	2.289583e+01	1.179007e+03
1.170000e-06	3.272649e-06	1.827885e-08	2.348142e+01	1.200286e+03
1.180000e-06	3.353023e-06	1.858885e-08	2.405811e+01	1.220462e+03
1.190000e-06	3.432215e-06	1.888160e-08	2.462631e+01	1.239616e+03
1.200000e-06	3.510165e-06	1.915664e-08	2.518561e+01	1.257820e+03
1.210000e-06	3.586925e-06	1.941595e-08	2.573637e+01	1.275137e+03
1.220000e-06	3.662428e-06	1.966425e-08	2.627810e+01	1.291621e+03
1.230000e-06	3.736362e-06	1.990144e-08	2.680858e+01	1.307316e+03
1.240000e-06	3.808686e-06	2.012685e-08	2.732751e+01	1.322260e+03
1.250000e-06	3.879631e-06	2.034323e-08	2.783654e+01	1.336485e+03
1.260000e-06	3.949226e-06	2.054946e-08	2.833589e+01	1.350025e+03
1.270000e-06	4.017486e-06	2.074379e-08	2.882566e+01	1.362913e+03
1.280000e-06	4.084425e-06	2.092886e-08	2.930595e+01	1.375185e+03
1.290000e-06	4.149726e-06	2.110606e-08	2.977449e+01	1.386877e+03
1.300000e-06	4.213340e-06	2.127641e-08	3.023092e+01	1.398023e+03
1.310000e-06	4.275491e-06	2.143871e-08	3.067686e+01	1.408653e+03
1.320000e-06	4.336239e-06	2.159366e-08	3.111273e+01	1.418788e+03
1.330000e-06	4.395657e-06	2.174143e-08	3.153906e+01	1.428443e+03
1.340000e-06	4.453469e-06	2.188033e-08	3.195386e+01	1.437623e+03
1.350000e-06	4.509467e-06	2.201235e-08	3.235565e+01	1.446330e+03
1.360000e-06	4.563833e-06	2.213890e-08	3.274573e+01	1.454563e+03
1.370000e-06	4.616534e-06	2.225838e-08	3.312387e+01	1.462327e+03
1.380000e-06	4.667321e-06	2.236893e-08	3.348826e+01	1.469631e+03
1.390000e-06	4.716065e-06	2.247109e-08	3.383800e+01	1.476497e+03
1.400000e-06	4.762988e-06	2.256679e-08	3.417468e+01	1.482954e+03
1.410000e-06	4.808332e-06	2.265789e-08	3.450002e+01	1.489039e+03
1.420000e-06	4.852199e-06	2.274643e-08	3.481477e+01	1.494792e+03
1.430000e-06	4.894283e-06	2.283084e-08	3.511673e+01	1.500250e+03
1.440000e-06	4.934453e-06	2.291099e-08	3.540494e+01	1.505442e+03
1.450000e-06	4.973006e-06	2.298668e-08	3.568156e+01	1.510388e+03
1.460000e-06	5.009960e-06	2.305827e-08	3.594671e+01	1.515091e+03
1.470000e-06	5.045278e-06	2.312621e-08	3.620012e+01	1.519545e+03
1.480000e-06	5.078652e-06	2.319008e-08	3.643958e+01	1.523735e+03
1.490000e-06	5.110087e-06	2.324892e-08	3.666513e+01	1.527643e+03
1.500000e-06	5.139907e-06	2.330332e-08	3.687909e+01	1.531250e+03
1.510000e-06	5.168120e-06	2.335451e-08	3.708152e+01	1.534545e+03
1.520000e-06	5.194415e-06	2.340105e-08	3.727019e+01	1.537526e+03
1.530000e-06	5.218594e-06	2.344240e-08	3.744367e+01	1.540200e+03
1.540000e-06	5.240878e-06	2.347875e-08	3.760356e+01	1.542582e+03
1.550000e-06	5.261466e-06	2.350962e-08	3.775128e+01	1.544692e+03
1.560000e-06	5.280277e-06	2.353604e-08	3.788625e+01	1.546551e+03
1.570000e-06	5.297090e-06	2.356045e-08	3.800689e+01	1.548178e+03
1.580000e-06	5.311925e-06	2.358370e-08	3.811333e+01	1.549585e+03
1.590000e-06	5.324892e-06	2.360280e-08	3.820636e+01	1.550782e+03
1.600000e-06	5.335791e-06	2.361664e-08	3.828457e+01	1.551771e+03
1.610000e-06	5.344462e-06	2.362771e-08	3.834678e+01	1.552553e+03
1.620000e-06	5.351124e-06	2.363836e-08	3.839458e+01	1.553128e+03
1.630000e-06	5.356017e-06	2.364790e-08	3.842969e+01	1.553497e+03
1.640000e-06	5.359115e-06	2.365280e-08	3.845192e+01	1.553665e+03
1.650000e-06	5.360241e-06	2.365592e-08	3.846000e+01	1.553637e+03
1.660000e-06	5.359456e-06	2.365158e-08	3.845436e+01	1.553418e+03
1.670000e-06	5.356959e-06	2.363797e-08	3.843645e+01	1.553014e+03
1.680000e-06	5.352863e-06	2.363152e-08	3.840706e+01	1.552425e+03
1.690000e-06	5.346957e-06	2.362207e-08	3.836468e+01	1.551644e+03
1.700000e-06	5.339142e-06	2.360796e-08	3.830861e+01	1.550665e+03
1.710000e-06	5.329693e-06	2.359383e-08	3.824081e+01	1.549476e+03
1.720000e-06	5.318642e-06	2.358442e-08	3.816152e+01	1.548068e+03
1.730000e-06	5.305672e-06	2.359288e-08	3.806846e+01	1.546437e+03
1.740000e-06	5.290671e-06	2.347034e-08	3.796083e+01	1.544589e+03
1.750000e-06	5.273563e-06	2.336860e-08	3.783808e+01	1.542538e+03
1.760000e-06	5.253950e-06	2.341720e-08	3.769735e+01	1.540311e+03
1.770000e-06	5.231735e-06	2.339581e-08	3.753796e+01	1.537939e+03
1.780000e-06	5.207746e-06	2.351107e-08	3.736584e+01	1.535454e+03
1.790000e-06	5.182938e-06	2.343356e-08	3.718784e+01	1.532884e+03
1.800000e-06	5.157246e-06	2.311572e-08	3.700350e+01	1.530246e+03
1.810000e-06	5.129667e-06	2.334146e-08	3.680562e+01	1.527540e+03
1.820000e-06	5.099936e-06	2.325506e-08	3.659230e+01	1.524751e+03
1.830000e-06	5.068571e-06	2.301127e-08	3.636725e+01	1.521845e+03
1.840000e-06	5.035316e-06	2.334293e-08	3.612865e+01	1.518780e+03
1.850000e-06	5.000308e-06	2.312487e-08	3.587746e+01	1.515508e+03
1.860000e-06	4.963723e-06	2.287792e-08	3.561496e+01	1.511982e+03
1.870000e-06	4.925098e-06	2.309459e-08	3.533782e+01	1.508165e+03
1.880000e-06	4.884772e-06	2.288518e-08	3.504848e+01	1.504034e+03
1.890000e-06	4.842856e-06	2.290580e-08	3.474773e+01	1.499579e+03
1.900000e-06	4.799168e-06	2.287181e-08	3.443427e+01	1.494805e+03
1.910000e-06	4.753779e-06	2.258407e-08	3.410860e+01	1.489726e+03
1.920000e-06	4.706405e-06	2.278756e-08	3.376869e+01	1.484361e+03
1.930000e-06	4.657290e-06	2.261149e-08	3.341629e+01	1.478726e+03
1.940000e-06	4.606568e-06	2.243385e-08	3.305235e+01	1.472833e+03
1.950000e-06	4.553796e-06	2.245805e-08	3.267371e+01	1.466685e+03
1.960000e-06	4.499081e-06	2.227171e-08	3.228113e+01	1.460278e+03
1.970000e-06	4.442601e-06	2.224713e-08	3.187588e+01	1.453600e+03
1.980000e-06	4.384477e-06	2.202465e-08	3.145884e+01	1.446638e+03
1.990000e-06	4.325053e-06	2.195787e-08	3.103247e+01	1.439379e+03
2.000000e-06	4.264198e-06	2.197764e-08	3.059584e+01	1.431814e+03
2.010000e-06	4.201605e-06	2.172226e-08	3.014673e+01	1.423939e+03
2.020000e-06	4.137289e-06	2.162500e-08	2.968526e+01	1.415754e+03
2.030000e-06	4.071496e-06	2.144095e-08	2.921318e+01	1.407261e+03
2.040000e-06	4.004406e-06	2.137535e-08	2.873181e+01	1.398464e+03
2.050000e-06	3.935939e-06	2.126481e-08	2.824056e+01	1.389363e+03
2.060000e-06	3.865908e-06	2.103135e-08	2.773808e+01	1.379951e+03
2.070000e-06	3.794378e-06	2.097368e-08	2.722485e+01	1.370215e+03
2.080000e-06	3.721609e-06	2.077357e-08	2.670273e+01	1.360135e+03
2.090000e-06	3.647532e-06	2.061944e-08	2.617122e+01	1.349689e+03
2.100000e-06	3.572043e-06	2.045482e-08	2.562959e+01	1.338851e+03
2.110000e-06	3.495123e-06	2.029791e-08	2.507768e+01	1.327597e+03
2.120000e-06	3.416693e-06	2.015506e-08	2.451494e+01	1.315906e+03
2.130000e-06	3.336971e-06	1.990773e-08	2.394293e+01	1.303762e+03
2.140000e-06	3.256171e-06	1.973125e-08	2.336319e+01	1.291152e+03
2.150000e-06	3.174252e-06	1.952029e-08	2.277542e+01	1.278066e+03
2.160000e-06	3.091256e-06	1.933458e-08	2.217992e+01	1.264493e+03
2.170000e-06	3.007320e-06	1.912820e-08	2.157767e+01	1.250419e+03
2.180000e-06	2.922251e-06	1.889742e-08	2.096730e+01	1.235826e+03
2.190000e-06	2.835805e-06	1.867866e-08	2.034704e+01	1.220691e+03
2.200000e-06	2.748209e-06	1.842781e-08	1.971854e+01	1.204982e+03
2.210000e-06	2.659727e-06	1.819134e-08	1.908368e+01	1.188666e+03
2.220000e-06	2.570319e-06	1.792507e-08	1.844217e+01	1.171705e+03
2.230000e-06	2.480009e-06	1.766066e-08	1.779419e+01	1.154058e+03
2.240000e-06	2.388984e-06	1.737529e-08	1.714108e+01	1.135685e+03
2.250000e-06	2.297287e-06	1.708240e-08	1.648315e+01	1.116544e+03
2.260000e-06	2.204833e-06	1.677700e-08	1.581979e+01	1.096592e+03
2.270000e-06	2.111446e-06	1.645742e-08	1.514973e+01	1.075783e+03
2.280000e-06	2.016969e-06	1.613922e-08	1.447185e+01	1.054068e+03
2.290000e-06	1.921604e-06	1.579647e-08	1.378760e+01	1.031395e+03
2.300000e-06	1.825643e-06	1.543640e-08	1.309908e+01	1.007704e+03
2.310000e-06	1.729200e-06	1.505698e-08	1.240710e+01	9.829291e+02
2.320000e-06	1.632216e-06	1.466579e-08	1.171123e+01	9.570000e+02
2.330000e-06	1.534620e-06	1.425108e-08	1.101098e+01	9.298392e+02
2.340000e-06	1.436501e-06	1.381252e-08	1.030696e+01	9.013644e+02
2.350000e-06	1.337974e-06	1.335497e-08	9.600028e+00	8.714895e+02
2.360000e-06	1.239086e-06	1.288152e-08	8.890504e+00	8.401262e+02
2.370000e-06	1.139869e-06	1.238552e-08	8.178615e+00	8.071878e+02
2.380000e-06	1.040374e-06	1.186020e-08	7.464737e+00	7.725935e+02
2.390000e-06	9.405949e-07	1.130583e-08	6.748815e+00	7.362759e+02
2.400000e-06	8.405636e-07	1.071872e-08	6.031086e+00	6.981894e+02
2.410000e-06	7.402382e-07	1.010600e-08	5.311246e+00	6.583201e+02
2.420000e-06	6.396180e-07	9.467889e-09	4.589291e+00	6.166954e+02
2.430000e-06	5.387474e-07	8.806190e-09	3.865540e+00	5.733916e+02
2.440000e-06	4.376794e-07	8.123019e-09	3.140372e+00	5.285370e+02
2.450000e-06	3.364198e-07	7.418349e-09	2.413829e+00	4.823093e+02
2.460000e-06	2.349541e-07	6.690113e-09	1.685807e+00	4.349261e+02
2.470000e-06	1.333482e-07	5.948590e-09	9.567803e-01	3.866275e+02
2.480000e-06	3.163082e-08	5.203795e-09	2.269527e-01	3.376538e+02
2.490000e-06	-7.010029e-08	4.451636e-09	-5.029731e-01	2.882197e+02
2.500000e-06	-1.718160e-07	3.689423e-09	-1.232788e+00	2.384892e+02
2.510000e-06	-2.734182e-07	2.921247e-09	-1.961789e+00	1.885552e+02
2.520000e-06	-3.748640e-07	2.151852e-09	-2.689668e+00	1.384284e+02
2.530000e-06	-4.761583e-07	1.377512e-09	-3.416459e+00	8.803780e+01
2.540000e-06	-5.772453e-07	5.996825e-10	-4.141764e+00	3.724422e+01
2.550000e-06	-6.781094e-07	-1.830424e-10	-4.865469e+00	-1.413434e+01
2.560000e-06	-7.786836e-07	-9.751404e-10	-5.587094e+00	-6.628768e+01
2.570000e-06	-8.789231e-07	-1.783864e-09	-6.306317e+00	-1.193744e+02
2.580000e-06	-9.788313e-07	-2.611921e-09	-7.023163e+00	-1.734839e+02
2.590000e-06	-1.078404e-06	-3.455638e-09	-7.737601e+00	-2.286061e+02
2.600000e-06	-1.177661e-06	-4.313692e-09	-8.449777e+00	-2.846125e+02
2.610000e-06	-1.276599e-06	-5.180499e-09	-9.159664e+00	-3.412530e+02
2.620000e-06	-1.375142e-06	-6.050814e-09	-9.866711e+00	-3.981686e+02
2.630000e-06	-1.473163e-06	-6.918865e-09	-1.057002e+01	-4.549176e+02
2.640000e-06	-1.570583e-06	-7.778676e-09	-1.126901e+01	-5.110132e+02
2.650000e-06	-1.667473e-06	-8.622852e-09	-1.196420e+01	-5.659649e+02
2.660000e-06	-1.763879e-06	-9.440880e-09	-1.265592e+01	-6.193195e+02
2.670000e-06	-1.859744e-06	-1.022812e-08	-1.334375e+01	-6.706955e+02
2.680000e-06	-1.955032e-06	-1.098017e-08	-1.402746e+01	-7.198062e+02
2.690000e-06	-2.049577e-06	-1.169371e-08	-1.470582e+01	-7.664709e+02
2.700000e-06	-2.143122e-06	-1.236878e-08	-1.537701e+01	-8.106123e+02
2.710000e-06	-2.235677e-06	-1.300727e-08	-1.604109e+01	-8.522436e+02
2.720000e-06	-2.327393e-06	-1.361194e-08	-1.669916e+01	-8.914478e+02
2.730000e-06	-2.418343e-06	-1.418213e-08	-1.735173e+01	-9.283539e+02
2.740000e-06	-2.508441e-06	-1.471693e-08	-1.799819e+01	-9.631137e+02
2.750000e-06	-2.597592e-06	-1.521597e-08	-1.863785e+01	-9.958825e+02
2.760000e-06	-2.685898e-06	-1.568627e-08	-1.927145e+01	-1.026806e+03
2.770000e-06	-2.773493e-06	-1.613093e-08	-1.989995e+01	-1.056015e+03
2.780000e-06	-2.860220e-06	-1.655076e-08	-2.052222e+01	-1.083621e+03
2.790000e-06	-2.945672e-06	-1.694993e-08	-2.113534e+01	-1.109724e+03
2.800000e-06	-3.029847e-06	-1.733014e-08	-2.173930e+01	-1.134413e+03
2.810000e-06	-3.113062e-06	-1.768982e-08	-2.233638e+01	-1.157774e+03
2.820000e-06	-3.195353e-06	-1.802750e-08	-2.292681e+01	-1.179891e+03
2.830000e-06	-3.276543e-06	-1.834640e-08	-2.350936e+01	-1.200847e+03
2.840000e-06	-3.356651e-06	-1.865014e-08	-2.408414e+01	-1.220724e+03
2.850000e-06	-3.435635e-06	-1.893874e-08	-2.465085e+01	-1.239600e+03
2.860000e-06	-3.513137e-06	-1.921261e-08	-2.520693e+01	-1.257545e+03
2.870000e-06	-3.589074e-06	-1.947316e-08	-2.575178e+01	-1.274620e+03
2.880000e-06	-3.663593e-06	-1.972193e-08	-2.628646e+01	-1.290875e+03
2.890000e-06	-3.736791e-06	-1.996066e-08	-2.681166e+01	-1.306353e+03
2.900000e-06	-3.808769e-06	-2.018889e-08	-2.732811e+01	-1.321089e+03
2.910000e-06	-3.879347e-06	-2.040693e-08	-2.783451e+01	-1.335115e+03
2.920000e-06	-3.948321e-06	-2.061521e-08	-2.832940e+01	-1.348466e+03
2.930000e-06	-4.015851e-06	-2.081084e-08	-2.881393e+01	-1.361176e+03
2.940000e-06	-4.082040e-06	-2.099407e-08	-2.928884e+01	-1.373279e+03
