# Temperatura_=_78.59
# Concentracion g/m^3_=_28200.0
# C_Vs_to_Am_M_A/Vsm_=_65563218390.804596
# pendiente_HvsI_1/m_=_3716.3
# ordenada_HvsI_A/m_=_1297.0
# frecuencia_Hz_=_301766.1479758282

Tiempo_(s)	Campo_(V.s)	Magnetizacion_(V.s)	Campo_(kA/m)	Magnetizacion_(A/m)
0.000000e+00	-5.308545e-06	-2.550784e-08	-3.829643e+01	-1.668738e+03
1.000000e-08	-5.306523e-06	-2.550329e-08	-3.828184e+01	-1.668339e+03
2.000000e-08	-5.302677e-06	-2.548985e-08	-3.825409e+01	-1.667734e+03
3.000000e-08	-5.297203e-06	-2.547458e-08	-3.821461e+01	-1.666914e+03
4.000000e-08	-5.290166e-06	-2.545977e-08	-3.816384e+01	-1.665865e+03
5.000000e-08	-5.281454e-06	-2.543986e-08	-3.810099e+01	-1.664577e+03
6.000000e-08	-5.270768e-06	-2.541464e-08	-3.802390e+01	-1.663043e+03
7.000000e-08	-5.258205e-06	-2.537913e-08	-3.793327e+01	-1.661268e+03
8.000000e-08	-5.243709e-06	-2.535352e-08	-3.782870e+01	-1.659264e+03
9.000000e-08	-5.226997e-06	-2.539124e-08	-3.770813e+01	-1.657058e+03
1.000000e-07	-5.208127e-06	-2.537297e-08	-3.757201e+01	-1.654681e+03
1.100000e-07	-5.187297e-06	-2.527703e-08	-3.742173e+01	-1.652168e+03
1.200000e-07	-5.164679e-06	-2.521158e-08	-3.725857e+01	-1.649548e+03
1.300000e-07	-5.140558e-06	-2.507806e-08	-3.708455e+01	-1.646842e+03
1.400000e-07	-5.114958e-06	-2.504424e-08	-3.689987e+01	-1.644053e+03
1.500000e-07	-5.087654e-06	-2.517812e-08	-3.670290e+01	-1.641169e+03
1.600000e-07	-5.058752e-06	-2.501667e-08	-3.649440e+01	-1.638164e+03
1.700000e-07	-5.028457e-06	-2.496483e-08	-3.627585e+01	-1.634997e+03
1.800000e-07	-4.996395e-06	-2.503649e-08	-3.604455e+01	-1.631624e+03
1.900000e-07	-4.962177e-06	-2.476717e-08	-3.579769e+01	-1.628003e+03
2.000000e-07	-4.926290e-06	-2.471623e-08	-3.553880e+01	-1.624099e+03
2.100000e-07	-4.888896e-06	-2.476659e-08	-3.526904e+01	-1.619885e+03
2.200000e-07	-4.849776e-06	-2.459152e-08	-3.498682e+01	-1.615352e+03
2.300000e-07	-4.808820e-06	-2.454712e-08	-3.469136e+01	-1.610496e+03
2.400000e-07	-4.765897e-06	-2.450566e-08	-3.438170e+01	-1.605325e+03
2.500000e-07	-4.721192e-06	-2.438989e-08	-3.405920e+01	-1.599848e+03
2.600000e-07	-4.674738e-06	-2.432942e-08	-3.372407e+01	-1.594072e+03
2.700000e-07	-4.626350e-06	-2.416566e-08	-3.337500e+01	-1.588001e+03
2.800000e-07	-4.575917e-06	-2.406739e-08	-3.301117e+01	-1.581633e+03
2.900000e-07	-4.523440e-06	-2.401457e-08	-3.263259e+01	-1.574962e+03
3.000000e-07	-4.469227e-06	-2.390759e-08	-3.224150e+01	-1.567979e+03
3.100000e-07	-4.413478e-06	-2.378851e-08	-3.183932e+01	-1.560678e+03
3.200000e-07	-4.356033e-06	-2.365731e-08	-3.142491e+01	-1.553055e+03
3.300000e-07	-4.296875e-06	-2.354411e-08	-3.099813e+01	-1.545113e+03
3.400000e-07	-4.236207e-06	-2.340099e-08	-3.056047e+01	-1.536858e+03
3.500000e-07	-4.174144e-06	-2.327239e-08	-3.011273e+01	-1.528297e+03
3.600000e-07	-4.110704e-06	-2.316204e-08	-2.965507e+01	-1.519439e+03
3.700000e-07	-4.045758e-06	-2.303104e-08	-2.918655e+01	-1.510286e+03
3.800000e-07	-3.979199e-06	-2.287937e-08	-2.870639e+01	-1.500834e+03
3.900000e-07	-3.911112e-06	-2.268875e-08	-2.821519e+01	-1.491067e+03
4.000000e-07	-3.841630e-06	-2.253418e-08	-2.771395e+01	-1.480966e+03
4.100000e-07	-3.770957e-06	-2.240671e-08	-2.720410e+01	-1.470501e+03
4.200000e-07	-3.699147e-06	-2.223837e-08	-2.668606e+01	-1.459643e+03
4.300000e-07	-3.626013e-06	-2.206369e-08	-2.615846e+01	-1.448364e+03
4.400000e-07	-3.551282e-06	-2.188309e-08	-2.561934e+01	-1.436642e+03
4.500000e-07	-3.475011e-06	-2.169677e-08	-2.506912e+01	-1.424461e+03
4.600000e-07	-3.397456e-06	-2.149753e-08	-2.450963e+01	-1.411811e+03
4.700000e-07	-3.318602e-06	-2.129398e-08	-2.394076e+01	-1.398686e+03
4.800000e-07	-3.238382e-06	-2.109389e-08	-2.336205e+01	-1.385083e+03
4.900000e-07	-3.156896e-06	-2.087480e-08	-2.277419e+01	-1.370996e+03
5.000000e-07	-3.074272e-06	-2.065081e-08	-2.217814e+01	-1.356410e+03
5.100000e-07	-2.990713e-06	-2.041679e-08	-2.157533e+01	-1.341308e+03
5.200000e-07	-2.906338e-06	-2.017519e-08	-2.096664e+01	-1.325660e+03
5.300000e-07	-2.821057e-06	-1.992587e-08	-2.035142e+01	-1.309434e+03
5.400000e-07	-2.734823e-06	-1.966738e-08	-1.972932e+01	-1.292592e+03
5.500000e-07	-2.647679e-06	-1.940217e-08	-1.910065e+01	-1.275095e+03
5.600000e-07	-2.559599e-06	-1.912328e-08	-1.846523e+01	-1.256908e+03
5.700000e-07	-2.470472e-06	-1.883587e-08	-1.782226e+01	-1.237995e+03
5.800000e-07	-2.380161e-06	-1.852980e-08	-1.717075e+01	-1.218324e+03
5.900000e-07	-2.288809e-06	-1.820981e-08	-1.651172e+01	-1.197860e+03
6.000000e-07	-2.196780e-06	-1.788258e-08	-1.584782e+01	-1.176567e+03
6.100000e-07	-2.104089e-06	-1.755089e-08	-1.517913e+01	-1.154399e+03
6.200000e-07	-2.010597e-06	-1.720590e-08	-1.450467e+01	-1.131305e+03
6.300000e-07	-1.916344e-06	-1.683517e-08	-1.382471e+01	-1.107220e+03
6.400000e-07	-1.821411e-06	-1.644452e-08	-1.313986e+01	-1.082071e+03
6.500000e-07	-1.725887e-06	-1.603758e-08	-1.245074e+01	-1.055777e+03
6.600000e-07	-1.629833e-06	-1.561681e-08	-1.175780e+01	-1.028250e+03
6.700000e-07	-1.533176e-06	-1.518051e-08	-1.106050e+01	-9.994011e+02
6.800000e-07	-1.435835e-06	-1.472466e-08	-1.035827e+01	-9.691382e+02
6.900000e-07	-1.337843e-06	-1.424104e-08	-9.651344e+00	-9.373710e+02
7.000000e-07	-1.239252e-06	-1.372792e-08	-8.940099e+00	-9.040109e+02
7.100000e-07	-1.140147e-06	-1.318551e-08	-8.225146e+00	-8.689729e+02
7.200000e-07	-1.040675e-06	-1.262044e-08	-7.507543e+00	-8.321774e+02
7.300000e-07	-9.409486e-07	-1.203627e-08	-6.788108e+00	-7.935554e+02
7.400000e-07	-8.409845e-07	-1.142419e-08	-6.066955e+00	-7.530547e+02
7.500000e-07	-7.408278e-07	-1.077942e-08	-5.344413e+00	-7.106487e+02
7.600000e-07	-6.405181e-07	-1.010078e-08	-4.620769e+00	-6.663471e+02
7.700000e-07	-5.399878e-07	-9.392916e-09	-3.895532e+00	-6.202044e+02
7.800000e-07	-4.392552e-07	-8.660602e-09	-3.168836e+00	-5.723268e+02
7.900000e-07	-3.384354e-07	-7.907044e-09	-2.441511e+00	-5.228734e+02
8.000000e-07	-2.375303e-07	-7.133491e-09	-1.713570e+00	-4.720499e+02
8.100000e-07	-1.365147e-07	-6.341940e-09	-9.848322e-01	-4.200953e+02
8.200000e-07	-3.538576e-08	-5.535405e-09	-2.552768e-01	-3.672606e+02
8.300000e-07	6.584310e-08	-4.719318e-09	4.749994e-01	-3.137832e+02
8.400000e-07	1.670831e-07	-3.899333e-09	1.205356e+00	-2.598594e+02
8.500000e-07	2.682715e-07	-3.076749e-09	1.935340e+00	-2.056203e+02
8.600000e-07	3.693297e-07	-2.250697e-09	2.664385e+00	-1.511157e+02
8.700000e-07	4.702321e-07	-1.419191e-09	3.392307e+00	-9.630874e+01
8.800000e-07	5.710022e-07	-5.803683e-10	4.119273e+00	-4.108504e+01
8.900000e-07	6.716467e-07	2.718235e-10	4.845334e+00	1.472495e+01
9.000000e-07	7.721061e-07	1.137352e-09	5.570059e+00	7.131179e+01
9.100000e-07	8.723442e-07	2.014501e-09	6.293188e+00	1.288461e+02
9.200000e-07	9.723981e-07	2.905256e-09	7.014988e+00	1.874363e+02
9.300000e-07	1.072220e-06	3.809901e-09	7.735117e+00	2.470925e+02
9.400000e-07	1.171724e-06	4.728599e-09	8.452950e+00	3.077010e+02
9.500000e-07	1.270767e-06	5.660709e-09	9.167451e+00	3.690153e+02
9.600000e-07	1.369175e-06	6.602858e-09	9.877377e+00	4.306646e+02
9.700000e-07	1.466845e-06	7.544379e-09	1.058198e+01	4.921789e+02
9.800000e-07	1.563782e-06	8.472656e-09	1.128130e+01	5.530283e+02
9.900000e-07	1.660100e-06	9.378456e-09	1.197614e+01	6.126685e+02
1.000000e-06	1.755852e-06	1.025601e-08	1.266691e+01	6.705884e+02
1.010000e-06	1.850972e-06	1.110129e-08	1.335311e+01	7.263516e+02
1.020000e-06	1.945418e-06	1.191054e-08	1.403446e+01	7.796264e+02
1.030000e-06	2.039186e-06	1.267871e-08	1.471091e+01	8.302016e+02
1.040000e-06	2.132222e-06	1.340333e-08	1.538209e+01	8.779867e+02
1.050000e-06	2.224563e-06	1.408472e-08	1.604824e+01	9.229979e+02
1.060000e-06	2.316351e-06	1.472481e-08	1.671041e+01	9.653348e+02
1.070000e-06	2.407394e-06	1.532692e-08	1.736721e+01	1.005151e+03
1.080000e-06	2.497306e-06	1.589619e-08	1.801584e+01	1.042627e+03
1.090000e-06	2.586100e-06	1.643607e-08	1.865641e+01	1.077944e+03
1.100000e-06	2.674002e-06	1.694470e-08	1.929054e+01	1.111267e+03
1.110000e-06	2.760988e-06	1.742182e-08	1.991807e+01	1.142740e+03
1.120000e-06	2.847030e-06	1.787132e-08	2.053879e+01	1.172481e+03
1.130000e-06	2.932157e-06	1.829764e-08	2.115290e+01	1.200592e+03
1.140000e-06	3.016404e-06	1.870133e-08	2.176067e+01	1.227161e+03
1.150000e-06	3.099782e-06	1.908284e-08	2.236217e+01	1.252278e+03
1.160000e-06	3.182024e-06	1.944572e-08	2.295547e+01	1.276032e+03
1.170000e-06	3.263017e-06	1.979031e-08	2.353977e+01	1.298519e+03
1.180000e-06	3.342828e-06	2.011587e-08	2.411553e+01	1.319835e+03
1.190000e-06	3.421443e-06	2.042460e-08	2.468267e+01	1.340075e+03
1.200000e-06	3.498880e-06	2.071546e-08	2.524130e+01	1.359326e+03
1.210000e-06	3.575139e-06	2.099065e-08	2.579145e+01	1.377663e+03
1.220000e-06	3.650016e-06	2.125399e-08	2.633162e+01	1.395143e+03
1.230000e-06	3.723272e-06	2.150660e-08	2.686010e+01	1.411811e+03
1.240000e-06	3.795059e-06	2.174749e-08	2.737798e+01	1.427700e+03
1.250000e-06	3.865528e-06	2.197618e-08	2.788635e+01	1.442836e+03
1.260000e-06	3.934648e-06	2.219377e-08	2.838498e+01	1.457244e+03
1.270000e-06	4.002476e-06	2.240092e-08	2.887431e+01	1.470954e+03
1.280000e-06	4.068861e-06	2.259741e-08	2.935321e+01	1.484001e+03
1.290000e-06	4.133575e-06	2.278307e-08	2.982007e+01	1.496422e+03
1.300000e-06	4.196694e-06	2.296238e-08	3.027541e+01	1.508261e+03
1.310000e-06	4.258398e-06	2.313430e-08	3.072056e+01	1.519557e+03
1.320000e-06	4.318815e-06	2.329870e-08	3.115641e+01	1.530342e+03
1.330000e-06	4.377792e-06	2.345580e-08	3.158187e+01	1.540640e+03
1.340000e-06	4.435027e-06	2.360479e-08	3.199478e+01	1.550463e+03
1.350000e-06	4.490537e-06	2.374735e-08	3.239523e+01	1.559816e+03
1.360000e-06	4.544452e-06	2.388432e-08	3.278418e+01	1.568698e+03
1.370000e-06	4.596672e-06	2.401424e-08	3.316090e+01	1.577108e+03
1.380000e-06	4.646932e-06	2.413503e-08	3.352348e+01	1.585048e+03
1.390000e-06	4.695216e-06	2.424667e-08	3.387181e+01	1.592532e+03
1.400000e-06	4.741783e-06	2.435074e-08	3.420775e+01	1.599579e+03
1.410000e-06	4.786781e-06	2.444952e-08	3.453237e+01	1.606218e+03
1.420000e-06	4.830231e-06	2.454413e-08	3.484582e+01	1.612481e+03
1.430000e-06	4.871914e-06	2.463442e-08	3.514653e+01	1.618401e+03
1.440000e-06	4.911749e-06	2.472001e-08	3.543390e+01	1.624005e+03
1.450000e-06	4.949883e-06	2.480058e-08	3.570900e+01	1.629313e+03
1.460000e-06	4.986475e-06	2.487592e-08	3.597298e+01	1.634332e+03
1.470000e-06	5.021447e-06	2.494709e-08	3.622527e+01	1.639063e+03
1.480000e-06	5.054462e-06	2.501423e-08	3.646345e+01	1.643500e+03
1.490000e-06	5.085613e-06	2.507737e-08	3.668818e+01	1.647632e+03
1.500000e-06	5.115115e-06	2.513583e-08	3.690101e+01	1.651451e+03
1.510000e-06	5.142978e-06	2.518874e-08	3.710201e+01	1.654954e+03
1.520000e-06	5.168925e-06	2.523669e-08	3.728920e+01	1.658144e+03
1.530000e-06	5.192816e-06	2.528051e-08	3.746155e+01	1.661028e+03
1.540000e-06	5.214859e-06	2.531907e-08	3.762057e+01	1.663618e+03
1.550000e-06	5.235220e-06	2.535186e-08	3.776745e+01	1.665928e+03
1.560000e-06	5.253791e-06	2.537986e-08	3.790143e+01	1.667970e+03
1.570000e-06	5.270341e-06	2.540603e-08	3.802083e+01	1.669756e+03
1.580000e-06	5.284931e-06	2.543102e-08	3.812608e+01	1.671291e+03
1.590000e-06	5.297572e-06	2.545225e-08	3.821727e+01	1.672580e+03
1.600000e-06	5.308047e-06	2.546888e-08	3.829284e+01	1.673628e+03
1.610000e-06	5.316371e-06	2.548099e-08	3.835289e+01	1.674438e+03
1.620000e-06	5.322813e-06	2.548917e-08	3.839936e+01	1.675017e+03
1.630000e-06	5.327507e-06	2.549495e-08	3.843322e+01	1.675374e+03
1.640000e-06	5.330353e-06	2.549838e-08	3.845376e+01	1.675517e+03
1.650000e-06	5.331219e-06	2.550071e-08	3.846000e+01	1.675454e+03
1.660000e-06	5.330233e-06	2.549718e-08	3.845289e+01	1.675191e+03
1.670000e-06	5.327566e-06	2.548695e-08	3.843365e+01	1.674726e+03
1.680000e-06	5.323281e-06	2.547830e-08	3.840274e+01	1.674052e+03
1.690000e-06	5.317167e-06	2.546619e-08	3.835863e+01	1.673158e+03
1.700000e-06	5.309180e-06	2.545015e-08	3.830101e+01	1.672033e+03
1.710000e-06	5.299604e-06	2.543341e-08	3.823193e+01	1.670665e+03
1.720000e-06	5.288428e-06	2.541972e-08	3.815131e+01	1.669052e+03
1.730000e-06	5.275397e-06	2.540407e-08	3.805730e+01	1.667200e+03
1.740000e-06	5.260350e-06	2.529214e-08	3.794875e+01	1.665127e+03
1.750000e-06	5.243135e-06	2.522222e-08	3.782456e+01	1.662861e+03
1.760000e-06	5.223374e-06	2.523928e-08	3.768199e+01	1.660436e+03
1.770000e-06	5.201085e-06	2.523176e-08	3.752120e+01	1.657884e+03
1.780000e-06	5.177136e-06	2.531268e-08	3.734843e+01	1.655234e+03
1.790000e-06	5.152455e-06	2.517746e-08	3.717038e+01	1.652500e+03
1.800000e-06	5.126752e-06	2.498929e-08	3.698496e+01	1.649682e+03
1.810000e-06	5.099031e-06	2.512078e-08	3.678498e+01	1.646762e+03
1.820000e-06	5.069315e-06	2.498240e-08	3.657060e+01	1.643708e+03
1.830000e-06	5.037909e-06	2.489764e-08	3.634403e+01	1.640479e+03
1.840000e-06	5.004581e-06	2.510148e-08	3.610360e+01	1.637030e+03
1.850000e-06	4.969597e-06	2.489252e-08	3.585122e+01	1.633321e+03
1.860000e-06	4.933028e-06	2.477613e-08	3.558741e+01	1.629318e+03
1.870000e-06	4.894465e-06	2.485880e-08	3.530921e+01	1.625001e+03
1.880000e-06	4.854189e-06	2.466762e-08	3.501866e+01	1.620363e+03
1.890000e-06	4.812231e-06	2.464320e-08	3.471597e+01	1.615404e+03
1.900000e-06	4.768530e-06	2.454920e-08	3.440070e+01	1.610133e+03
1.910000e-06	4.723190e-06	2.444089e-08	3.407362e+01	1.604558e+03
1.920000e-06	4.675951e-06	2.454516e-08	3.373283e+01	1.598686e+03
1.930000e-06	4.627028e-06	2.431466e-08	3.337989e+01	1.592519e+03
1.940000e-06	4.576432e-06	2.416295e-08	3.301489e+01	1.586053e+03
1.950000e-06	4.523812e-06	2.412200e-08	3.263528e+01	1.579281e+03
1.960000e-06	4.469247e-06	2.398168e-08	3.224164e+01	1.572196e+03
1.970000e-06	4.412936e-06	2.391309e-08	3.183541e+01	1.564790e+03
1.980000e-06	4.355004e-06	2.372985e-08	3.141748e+01	1.557064e+03
1.990000e-06	4.295667e-06	2.367707e-08	3.098942e+01	1.549019e+03
2.000000e-06	4.234956e-06	2.358675e-08	3.055144e+01	1.540664e+03
2.010000e-06	4.172593e-06	2.334657e-08	3.010155e+01	1.532006e+03
2.020000e-06	4.108524e-06	2.323859e-08	2.963935e+01	1.523052e+03
2.030000e-06	4.043001e-06	2.310657e-08	2.916666e+01	1.513803e+03
2.040000e-06	3.976192e-06	2.301796e-08	2.868469e+01	1.504250e+03
2.050000e-06	3.908054e-06	2.283983e-08	2.819313e+01	1.494378e+03
2.060000e-06	3.838409e-06	2.263322e-08	2.769071e+01	1.484161e+03
2.070000e-06	3.767240e-06	2.252375e-08	2.717729e+01	1.473572e+03
2.080000e-06	3.694755e-06	2.232591e-08	2.665437e+01	1.462581e+03
2.090000e-06	3.621005e-06	2.215825e-08	2.612233e+01	1.451161e+03
2.100000e-06	3.545924e-06	2.197824e-08	2.558069e+01	1.439292e+03
2.110000e-06	3.469375e-06	2.180899e-08	2.502846e+01	1.426960e+03
2.120000e-06	3.391243e-06	2.162464e-08	2.446481e+01	1.414157e+03
2.130000e-06	3.311761e-06	2.138451e-08	2.389141e+01	1.400878e+03
2.140000e-06	3.231168e-06	2.118496e-08	2.331000e+01	1.387119e+03
2.150000e-06	3.149462e-06	2.096899e-08	2.272057e+01	1.372872e+03
2.160000e-06	3.066686e-06	2.075964e-08	2.212341e+01	1.358122e+03
2.170000e-06	2.982985e-06	2.052257e-08	2.151959e+01	1.342846e+03
2.180000e-06	2.898254e-06	2.027610e-08	2.090833e+01	1.327016e+03
2.190000e-06	2.812263e-06	2.003678e-08	2.028798e+01	1.310595e+03
2.200000e-06	2.725072e-06	1.977366e-08	1.965897e+01	1.293545e+03
2.210000e-06	2.636903e-06	1.950314e-08	1.902291e+01	1.275830e+03
2.220000e-06	2.547879e-06	1.921557e-08	1.838068e+01	1.257412e+03
2.230000e-06	2.457980e-06	1.893633e-08	1.773214e+01	1.238258e+03
2.240000e-06	2.367282e-06	1.864045e-08	1.707783e+01	1.218335e+03
2.250000e-06	2.275887e-06	1.832559e-08	1.641850e+01	1.197608e+03
2.260000e-06	2.183776e-06	1.798991e-08	1.575400e+01	1.176037e+03
2.270000e-06	2.090892e-06	1.764074e-08	1.508393e+01	1.153577e+03
2.280000e-06	1.997045e-06	1.728722e-08	1.440690e+01	1.130171e+03
2.290000e-06	1.902218e-06	1.691773e-08	1.372281e+01	1.105751e+03
2.300000e-06	1.806658e-06	1.653563e-08	1.303343e+01	1.080242e+03
2.310000e-06	1.710534e-06	1.613237e-08	1.233998e+01	1.053561e+03
2.320000e-06	1.613935e-06	1.570697e-08	1.164310e+01	1.025618e+03
2.330000e-06	1.516826e-06	1.525465e-08	1.094255e+01	9.963234e+02
2.340000e-06	1.419220e-06	1.478175e-08	1.023841e+01	9.655857e+02
2.350000e-06	1.321207e-06	1.429365e-08	9.531335e+00	9.333150e+02
2.360000e-06	1.222758e-06	1.378553e-08	8.821108e+00	8.994237e+02
2.370000e-06	1.123909e-06	1.324426e-08	8.108007e+00	8.638280e+02
2.380000e-06	1.024768e-06	1.266840e-08	7.392789e+00	8.264513e+02
2.390000e-06	9.253563e-07	1.206768e-08	6.675623e+00	7.872291e+02
2.400000e-06	8.256645e-07	1.144328e-08	5.956435e+00	7.461163e+02
2.410000e-06	7.257237e-07	1.079090e-08	5.235451e+00	7.030970e+02
2.420000e-06	6.255527e-07	1.010580e-08	4.512806e+00	6.581942e+02
2.430000e-06	5.251836e-07	9.393779e-09	3.788733e+00	6.114787e+02
2.440000e-06	4.246803e-07	8.657929e-09	3.063691e+00	5.630738e+02
2.450000e-06	3.240103e-07	7.895275e-09	2.337446e+00	5.131546e+02
2.460000e-06	2.231734e-07	7.108419e-09	1.609997e+00	4.619394e+02
2.470000e-06	1.222778e-07	6.310051e-09	8.821257e-01	4.096736e+02
2.480000e-06	2.139559e-08	5.504244e-09	1.543502e-01	3.566069e+02
2.490000e-06	-7.949295e-08	4.686707e-09	-5.734709e-01	3.029663e+02
2.500000e-06	-1.803321e-07	3.860178e-09	-1.300936e+00	2.489294e+02
2.510000e-06	-2.810778e-07	3.029602e-09	-2.027726e+00	1.946028e+02
2.520000e-06	-3.817615e-07	2.194848e-09	-2.754070e+00	1.400080e+02
2.530000e-06	-4.823861e-07	1.350239e-09	-3.479987e+00	8.508177e+01
2.540000e-06	-5.829033e-07	4.987103e-10	-4.205129e+00	2.968887e+01
2.550000e-06	-6.832345e-07	-3.582424e-10	-4.928930e+00	-2.635115e+01
2.560000e-06	-7.833391e-07	-1.224728e-09	-5.651095e+00	-8.322709e+01
2.570000e-06	-8.831776e-07	-2.106357e-09	-6.371341e+00	-1.410941e+02
2.580000e-06	-9.826730e-07	-3.006598e-09	-7.089112e+00	-2.000324e+02
2.590000e-06	-1.081821e-06	-3.923759e-09	-7.804378e+00	-2.600145e+02
2.600000e-06	-1.180580e-06	-4.855489e-09	-8.516837e+00	-3.208841e+02
2.610000e-06	-1.278939e-06	-5.794624e-09	-9.226410e+00	-3.823529e+02
2.620000e-06	-1.376902e-06	-6.736004e-09	-9.933120e+00	-4.440148e+02
2.630000e-06	-1.474360e-06	-7.674889e-09	-1.063619e+01	-5.053759e+02
2.640000e-06	-1.571247e-06	-8.603167e-09	-1.133515e+01	-5.658964e+02
2.650000e-06	-1.667615e-06	-9.510283e-09	-1.203036e+01	-6.250375e+02
2.660000e-06	-1.763589e-06	-1.038721e-08	-1.272272e+01	-6.823082e+02
2.670000e-06	-1.859046e-06	-1.122961e-08	-1.341136e+01	-7.373031e+02
2.680000e-06	-1.953721e-06	-1.203133e-08	-1.409436e+01	-7.897283e+02
2.690000e-06	-2.047413e-06	-1.278951e-08	-1.477027e+01	-8.394121e+02
2.700000e-06	-2.140144e-06	-1.350820e-08	-1.543923e+01	-8.863003e+02
2.710000e-06	-2.232116e-06	-1.418824e-08	-1.610273e+01	-9.304389e+02
2.720000e-06	-2.323303e-06	-1.482938e-08	-1.676057e+01	-9.719481e+02
2.730000e-06	-2.413683e-06	-1.543212e-08	-1.741258e+01	-1.010993e+03
2.740000e-06	-2.503249e-06	-1.599773e-08	-1.805871e+01	-1.047757e+03
2.750000e-06	-2.591945e-06	-1.652911e-08	-1.869858e+01	-1.082417e+03
2.760000e-06	-2.679902e-06	-1.702841e-08	-1.933311e+01	-1.115132e+03
2.770000e-06	-2.767025e-06	-1.749935e-08	-1.996162e+01	-1.146037e+03
2.780000e-06	-2.852966e-06	-1.794451e-08	-2.058161e+01	-1.175245e+03
2.790000e-06	-2.937719e-06	-1.836445e-08	-2.119303e+01	-1.202852e+03
2.800000e-06	-3.021483e-06	-1.876289e-08	-2.179731e+01	-1.228946e+03
2.810000e-06	-3.104224e-06	-1.914192e-08	-2.239421e+01	-1.253615e+03
2.820000e-06	-3.185926e-06	-1.950120e-08	-2.298362e+01	-1.276952e+03
2.830000e-06	-3.266644e-06	-1.984099e-08	-2.356593e+01	-1.299053e+03
2.840000e-06	-3.346342e-06	-2.016319e-08	-2.414088e+01	-1.320014e+03
2.850000e-06	-3.424730e-06	-2.046882e-08	-2.470638e+01	-1.339929e+03
2.860000e-06	-3.501609e-06	-2.075861e-08	-2.526099e+01	-1.358880e+03
2.870000e-06	-3.577040e-06	-2.103411e-08	-2.580516e+01	-1.376936e+03
2.880000e-06	-3.651063e-06	-2.129702e-08	-2.633917e+01	-1.394152e+03
2.890000e-06	-3.723753e-06	-2.154891e-08	-2.686356e+01	-1.410568e+03
2.900000e-06	-3.795187e-06	-2.178989e-08	-2.737890e+01	-1.426213e+03
2.910000e-06	-3.865144e-06	-2.201925e-08	-2.788358e+01	-1.441113e+03
2.920000e-06	-3.933521e-06	-2.223920e-08	-2.837686e+01	-1.455295e+03
2.930000e-06	-4.000545e-06	-2.244945e-08	-2.886038e+01	-1.468788e+03
2.940000e-06	-4.066220e-06	-2.264779e-08	-2.933416e+01	-1.481630e+03
