# Temperatura_=_28.9
# Concentracion g/m^3_=_28200.0
# C_Vs_to_Am_M_A/Vsm_=_65563218390.804596
# pendiente_HvsI_1/m_=_3716.3
# ordenada_HvsI_A/m_=_1297.0
# frecuencia_Hz_=_301763.6028388288

Tiempo_(s)	Campo_(V.s)	Magnetizacion_(V.s)	Campo_(kA/m)	Magnetizacion_(A/m)
0.000000e+00	-5.338361e-06	-1.946643e-08	-3.829666e+01	-1.272353e+03
1.000000e-08	-5.336223e-06	-1.946754e-08	-3.828133e+01	-1.272061e+03
2.000000e-08	-5.332245e-06	-1.945795e-08	-3.825278e+01	-1.271648e+03
3.000000e-08	-5.326639e-06	-1.944741e-08	-3.821257e+01	-1.271103e+03
4.000000e-08	-5.319451e-06	-1.943612e-08	-3.816100e+01	-1.270403e+03
5.000000e-08	-5.310512e-06	-1.941804e-08	-3.809687e+01	-1.269520e+03
6.000000e-08	-5.299516e-06	-1.939598e-08	-3.801799e+01	-1.268427e+03
7.000000e-08	-5.286675e-06	-1.935809e-08	-3.792587e+01	-1.267113e+03
8.000000e-08	-5.271877e-06	-1.933394e-08	-3.781971e+01	-1.265587e+03
9.000000e-08	-5.254803e-06	-1.941548e-08	-3.769723e+01	-1.263880e+03
1.000000e-07	-5.235659e-06	-1.940843e-08	-3.755989e+01	-1.262038e+03
1.100000e-07	-5.214622e-06	-1.930107e-08	-3.740898e+01	-1.260119e+03
1.200000e-07	-5.191783e-06	-1.927270e-08	-3.724513e+01	-1.258171e+03
1.300000e-07	-5.167385e-06	-1.911100e-08	-3.707010e+01	-1.256228e+03
1.400000e-07	-5.141399e-06	-1.904681e-08	-3.688368e+01	-1.254294e+03
1.500000e-07	-5.113742e-06	-1.927115e-08	-3.668527e+01	-1.252341e+03
1.600000e-07	-5.084594e-06	-1.905348e-08	-3.647617e+01	-1.250316e+03
1.700000e-07	-5.054079e-06	-1.901406e-08	-3.625726e+01	-1.248149e+03
1.800000e-07	-5.021727e-06	-1.922517e-08	-3.602517e+01	-1.245763e+03
1.900000e-07	-4.987216e-06	-1.888170e-08	-3.577760e+01	-1.243098e+03
2.000000e-07	-4.951101e-06	-1.882193e-08	-3.551851e+01	-1.240114e+03
2.100000e-07	-4.913404e-06	-1.893240e-08	-3.524808e+01	-1.236800e+03
2.200000e-07	-4.873925e-06	-1.875042e-08	-3.496486e+01	-1.233176e+03
2.300000e-07	-4.832625e-06	-1.876635e-08	-3.466858e+01	-1.229280e+03
2.400000e-07	-4.789341e-06	-1.872140e-08	-3.435807e+01	-1.225163e+03
2.500000e-07	-4.744233e-06	-1.856473e-08	-3.403447e+01	-1.220869e+03
2.600000e-07	-4.697374e-06	-1.855155e-08	-3.369831e+01	-1.216426e+03
2.700000e-07	-4.648554e-06	-1.842404e-08	-3.334808e+01	-1.211842e+03
2.800000e-07	-4.597633e-06	-1.839708e-08	-3.298278e+01	-1.207103e+03
2.900000e-07	-4.544751e-06	-1.835787e-08	-3.260341e+01	-1.202176e+03
3.000000e-07	-4.490192e-06	-1.822205e-08	-3.221201e+01	-1.197022e+03
3.100000e-07	-4.434042e-06	-1.813137e-08	-3.180920e+01	-1.191606e+03
3.200000e-07	-4.376088e-06	-1.804279e-08	-3.139345e+01	-1.185902e+03
3.300000e-07	-4.316461e-06	-1.797443e-08	-3.096569e+01	-1.179902e+03
3.400000e-07	-4.255383e-06	-1.787028e-08	-3.052753e+01	-1.173614e+03
3.500000e-07	-4.192893e-06	-1.779297e-08	-3.007923e+01	-1.167059e+03
3.600000e-07	-4.129059e-06	-1.767852e-08	-2.962130e+01	-1.160260e+03
3.700000e-07	-4.063612e-06	-1.753561e-08	-2.915179e+01	-1.153236e+03
3.800000e-07	-3.996476e-06	-1.746490e-08	-2.867016e+01	-1.145997e+03
3.900000e-07	-3.927904e-06	-1.734637e-08	-2.817823e+01	-1.138535e+03
4.000000e-07	-3.857971e-06	-1.721565e-08	-2.767654e+01	-1.130830e+03
4.100000e-07	-3.786797e-06	-1.710377e-08	-2.716595e+01	-1.122854e+03
4.200000e-07	-3.714502e-06	-1.695881e-08	-2.664732e+01	-1.114572e+03
4.300000e-07	-3.640797e-06	-1.682365e-08	-2.611857e+01	-1.105957e+03
4.400000e-07	-3.565437e-06	-1.669129e-08	-2.557795e+01	-1.096986e+03
4.500000e-07	-3.488640e-06	-1.657308e-08	-2.502702e+01	-1.087649e+03
4.600000e-07	-3.410487e-06	-1.642068e-08	-2.446636e+01	-1.077940e+03
4.700000e-07	-3.330869e-06	-1.623915e-08	-2.389519e+01	-1.067860e+03
4.800000e-07	-3.249961e-06	-1.607341e-08	-2.331477e+01	-1.057408e+03
4.900000e-07	-3.167928e-06	-1.590784e-08	-2.272627e+01	-1.046576e+03
5.000000e-07	-3.084857e-06	-1.575230e-08	-2.213033e+01	-1.035348e+03
5.100000e-07	-3.000926e-06	-1.557830e-08	-2.152823e+01	-1.023699e+03
5.200000e-07	-2.916106e-06	-1.539263e-08	-2.091974e+01	-1.011598e+03
5.300000e-07	-2.830266e-06	-1.519080e-08	-2.030394e+01	-9.990106e+02
5.400000e-07	-2.743507e-06	-1.497825e-08	-1.968154e+01	-9.859053e+02
5.500000e-07	-2.655950e-06	-1.477580e-08	-1.905342e+01	-9.722538e+02
5.600000e-07	-2.567348e-06	-1.456770e-08	-1.841780e+01	-9.580329e+02
5.700000e-07	-2.477508e-06	-1.434779e-08	-1.777330e+01	-9.432224e+02
5.800000e-07	-2.386568e-06	-1.410110e-08	-1.712090e+01	-9.278018e+02
5.900000e-07	-2.294757e-06	-1.384518e-08	-1.646227e+01	-9.117461e+02
6.000000e-07	-2.202230e-06	-1.358817e-08	-1.579849e+01	-8.950226e+02
6.100000e-07	-2.108955e-06	-1.332914e-08	-1.512935e+01	-8.775895e+02
6.200000e-07	-2.014868e-06	-1.305934e-08	-1.445438e+01	-8.593967e+02
6.300000e-07	-1.920070e-06	-1.276712e-08	-1.377431e+01	-8.403886e+02
6.400000e-07	-1.824652e-06	-1.245742e-08	-1.308980e+01	-8.205080e+02
6.500000e-07	-1.728642e-06	-1.213369e-08	-1.240104e+01	-7.996997e+02
6.600000e-07	-1.631965e-06	-1.179946e-08	-1.170749e+01	-7.779122e+02
6.700000e-07	-1.534514e-06	-1.145397e-08	-1.100839e+01	-7.550982e+02
6.800000e-07	-1.436349e-06	-1.109517e-08	-1.030417e+01	-7.312120e+02
6.900000e-07	-1.337558e-06	-1.071111e-08	-9.595457e+00	-7.062073e+02
7.000000e-07	-1.238308e-06	-1.030443e-08	-8.883451e+00	-6.800343e+02
7.100000e-07	-1.138782e-06	-9.880636e-09	-8.169465e+00	-6.526400e+02
7.200000e-07	-1.039001e-06	-9.444428e-09	-7.453652e+00	-6.239716e+02
7.300000e-07	-9.388917e-07	-8.992378e-09	-6.735479e+00	-5.939837e+02
7.400000e-07	-8.384897e-07	-8.514980e-09	-6.015209e+00	-5.626488e+02
7.500000e-07	-7.378446e-07	-8.017274e-09	-5.293195e+00	-5.299690e+02
7.600000e-07	-6.369322e-07	-7.498020e-09	-4.569263e+00	-4.959863e+02
7.700000e-07	-5.358094e-07	-6.959150e-09	-3.843822e+00	-4.607896e+02
7.800000e-07	-4.345330e-07	-6.406992e-09	-3.117279e+00	-4.245148e+02
7.900000e-07	-3.331503e-07	-5.843048e-09	-2.389974e+00	-3.873387e+02
8.000000e-07	-2.316776e-07	-5.266576e-09	-1.662023e+00	-3.494659e+02
8.100000e-07	-1.300173e-07	-4.681164e-09	-9.327257e-01	-3.111103e+02
8.200000e-07	-2.824355e-08	-4.093769e-09	-2.026153e-01	-2.724739e+02
8.300000e-07	7.353801e-08	-3.507679e-09	5.275515e-01	-2.337271e+02
8.400000e-07	1.753255e-07	-2.921309e-09	1.257761e+00	-1.949915e+02
8.500000e-07	2.770578e-07	-2.335109e-09	1.987574e+00	-1.563295e+02
8.600000e-07	3.787272e-07	-1.750837e-09	2.716936e+00	-1.177406e+02
8.700000e-07	4.802661e-07	-1.165775e-09	3.445362e+00	-7.916555e+01
8.800000e-07	5.816341e-07	-5.795729e-10	4.172562e+00	-4.049730e+01
8.900000e-07	6.828562e-07	1.148839e-11	4.898715e+00	-1.596476e+00
9.000000e-07	7.838790e-07	6.077831e-10	5.623439e+00	3.768937e+01
9.100000e-07	8.846238e-07	1.214062e-09	6.346168e+00	7.750554e+01
9.200000e-07	9.850243e-07	1.830599e-09	7.066427e+00	1.179704e+02
9.300000e-07	1.085098e-06	2.455375e-09	7.784344e+00	1.591578e+02
9.400000e-07	1.184874e-06	3.092932e-09	8.500124e+00	2.010826e+02
9.500000e-07	1.284354e-06	3.741482e-09	9.213774e+00	2.436910e+02
9.600000e-07	1.383439e-06	4.399747e-09	9.924597e+00	2.868562e+02
9.700000e-07	1.481936e-06	5.064486e-09	1.063120e+01	3.303809e+02
9.800000e-07	1.579713e-06	5.731548e-09	1.133264e+01	3.740057e+02
9.900000e-07	1.676660e-06	6.393634e-09	1.202812e+01	4.174249e+02
1.000000e-06	1.772770e-06	7.043952e-09	1.271760e+01	4.603070e+02
1.010000e-06	1.868180e-06	7.680007e-09	1.340206e+01	5.023197e+02
1.020000e-06	1.963033e-06	8.299023e-09	1.408253e+01	5.431545e+02
1.030000e-06	2.057260e-06	8.897717e-09	1.475850e+01	5.825497e+02
1.040000e-06	2.150752e-06	9.471660e-09	1.542919e+01	6.203074e+02
1.050000e-06	2.243538e-06	1.001778e-08	1.609483e+01	6.563032e+02
1.060000e-06	2.335649e-06	1.053535e-08	1.675562e+01	6.904863e+02
1.070000e-06	2.427070e-06	1.102570e-08	1.741146e+01	7.228713e+02
1.080000e-06	2.517578e-06	1.148993e-08	1.806076e+01	7.535231e+02
1.090000e-06	2.606877e-06	1.193088e-08	1.870137e+01	7.825382e+02
1.100000e-06	2.695019e-06	1.234837e-08	1.933369e+01	8.100253e+02
1.110000e-06	2.782291e-06	1.274545e-08	1.995977e+01	8.360896e+02
1.120000e-06	2.868709e-06	1.312307e-08	2.057972e+01	8.608223e+02
1.130000e-06	2.954178e-06	1.348232e-08	2.119286e+01	8.842966e+02
1.140000e-06	3.038699e-06	1.382209e-08	2.179920e+01	9.065698e+02
1.150000e-06	3.122346e-06	1.414223e-08	2.239928e+01	9.276891e+02
1.160000e-06	3.205014e-06	1.444328e-08	2.299232e+01	9.476998e+02
1.170000e-06	3.286441e-06	1.472732e-08	2.357647e+01	9.666516e+02
1.180000e-06	3.366615e-06	1.499939e-08	2.415163e+01	9.846029e+02
1.190000e-06	3.445636e-06	1.525926e-08	2.471852e+01	1.001620e+03
1.200000e-06	3.523482e-06	1.550618e-08	2.527697e+01	1.017773e+03
1.210000e-06	3.600094e-06	1.574024e-08	2.582657e+01	1.033133e+03
1.220000e-06	3.675408e-06	1.596306e-08	2.636686e+01	1.047761e+03
1.230000e-06	3.749151e-06	1.617449e-08	2.689589e+01	1.061708e+03
1.240000e-06	3.821226e-06	1.637412e-08	2.741294e+01	1.075009e+03
1.250000e-06	3.891896e-06	1.656248e-08	2.791992e+01	1.087690e+03
1.260000e-06	3.961240e-06	1.674257e-08	2.841738e+01	1.099767e+03
1.270000e-06	4.029291e-06	1.691465e-08	2.890557e+01	1.111254e+03
1.280000e-06	4.095990e-06	1.707946e-08	2.938406e+01	1.122167e+03
1.290000e-06	4.160992e-06	1.723740e-08	2.985038e+01	1.132526e+03
1.300000e-06	4.224369e-06	1.738928e-08	3.030504e+01	1.142357e+03
1.310000e-06	4.286331e-06	1.753372e-08	3.074954e+01	1.151688e+03
1.320000e-06	4.346897e-06	1.767059e-08	3.118404e+01	1.160546e+03
1.330000e-06	4.406092e-06	1.779889e-08	3.160870e+01	1.168955e+03
1.340000e-06	4.463571e-06	1.791842e-08	3.202104e+01	1.176931e+03
1.350000e-06	4.519262e-06	1.803059e-08	3.242056e+01	1.184484e+03
1.360000e-06	4.573397e-06	1.813715e-08	3.280891e+01	1.191621e+03
1.370000e-06	4.625809e-06	1.823913e-08	3.318491e+01	1.198349e+03
1.380000e-06	4.676210e-06	1.833424e-08	3.354648e+01	1.204682e+03
1.390000e-06	4.724620e-06	1.842230e-08	3.389376e+01	1.210643e+03
1.400000e-06	4.771307e-06	1.850572e-08	3.422869e+01	1.216263e+03
1.410000e-06	4.816443e-06	1.858704e-08	3.455250e+01	1.221583e+03
1.420000e-06	4.860085e-06	1.866527e-08	3.486558e+01	1.226640e+03
1.430000e-06	4.901869e-06	1.873982e-08	3.516533e+01	1.231469e+03
1.440000e-06	4.941715e-06	1.881110e-08	3.545118e+01	1.236089e+03
1.450000e-06	4.979935e-06	1.887832e-08	3.572536e+01	1.240506e+03
1.460000e-06	5.016588e-06	1.894006e-08	3.598830e+01	1.244703e+03
1.470000e-06	5.051587e-06	1.899774e-08	3.623938e+01	1.248657e+03
1.480000e-06	5.084656e-06	1.905280e-08	3.647661e+01	1.252333e+03
1.490000e-06	5.115845e-06	1.910319e-08	3.670036e+01	1.255704e+03
1.500000e-06	5.145369e-06	1.914726e-08	3.691216e+01	1.258753e+03
1.510000e-06	5.173300e-06	1.918721e-08	3.711253e+01	1.261481e+03
1.520000e-06	5.199286e-06	1.922499e-08	3.729896e+01	1.263906e+03
1.530000e-06	5.223121e-06	1.925864e-08	3.746994e+01	1.266062e+03
1.540000e-06	5.245129e-06	1.928730e-08	3.762782e+01	1.267989e+03
1.550000e-06	5.265471e-06	1.931193e-08	3.777376e+01	1.269724e+03
1.560000e-06	5.284075e-06	1.933416e-08	3.790722e+01	1.271296e+03
1.570000e-06	5.300678e-06	1.935530e-08	3.802633e+01	1.272717e+03
1.580000e-06	5.315213e-06	1.937520e-08	3.813060e+01	1.273984e+03
1.590000e-06	5.327804e-06	1.939314e-08	3.822092e+01	1.275081e+03
1.600000e-06	5.338307e-06	1.940787e-08	3.829627e+01	1.275988e+03
1.610000e-06	5.346619e-06	1.941798e-08	3.835590e+01	1.276689e+03
1.620000e-06	5.352964e-06	1.942421e-08	3.840142e+01	1.277177e+03
1.630000e-06	5.357588e-06	1.942932e-08	3.843459e+01	1.277459e+03
1.640000e-06	5.360401e-06	1.943305e-08	3.845477e+01	1.277553e+03
1.650000e-06	5.361130e-06	1.943654e-08	3.846000e+01	1.277484e+03
1.660000e-06	5.359920e-06	1.943246e-08	3.845132e+01	1.277277e+03
1.670000e-06	5.357079e-06	1.942360e-08	3.843094e+01	1.276945e+03
1.680000e-06	5.352702e-06	1.942118e-08	3.839954e+01	1.276491e+03
1.690000e-06	5.346418e-06	1.941390e-08	3.835446e+01	1.275898e+03
1.700000e-06	5.338214e-06	1.940137e-08	3.829560e+01	1.275142e+03
1.710000e-06	5.328483e-06	1.939069e-08	3.822579e+01	1.274192e+03
1.720000e-06	5.317157e-06	1.939272e-08	3.814455e+01	1.273028e+03
1.730000e-06	5.303958e-06	1.939995e-08	3.804985e+01	1.271644e+03
1.740000e-06	5.288702e-06	1.925498e-08	3.794041e+01	1.270054e+03
1.750000e-06	5.271234e-06	1.919333e-08	3.781510e+01	1.268297e+03
1.760000e-06	5.251168e-06	1.924544e-08	3.767115e+01	1.266423e+03
1.770000e-06	5.228558e-06	1.922127e-08	3.750895e+01	1.264489e+03
1.780000e-06	5.204339e-06	1.937319e-08	3.733520e+01	1.262540e+03
1.790000e-06	5.179438e-06	1.922380e-08	3.715657e+01	1.260600e+03
1.800000e-06	5.153512e-06	1.900249e-08	3.697058e+01	1.258663e+03
1.810000e-06	5.125560e-06	1.928296e-08	3.677006e+01	1.256693e+03
1.820000e-06	5.095564e-06	1.907609e-08	3.655487e+01	1.254630e+03
1.830000e-06	5.063869e-06	1.893315e-08	3.632749e+01	1.252399e+03
1.840000e-06	5.030243e-06	1.927832e-08	3.608626e+01	1.249929e+03
1.850000e-06	4.994941e-06	1.900399e-08	3.583301e+01	1.247164e+03
1.860000e-06	4.958035e-06	1.890868e-08	3.556825e+01	1.244072e+03
1.870000e-06	4.919135e-06	1.904161e-08	3.528919e+01	1.240654e+03
1.880000e-06	4.878578e-06	1.875453e-08	3.499824e+01	1.236937e+03
1.890000e-06	4.836321e-06	1.884256e-08	3.469509e+01	1.232964e+03
1.900000e-06	4.792342e-06	1.876431e-08	3.437959e+01	1.228785e+03
1.910000e-06	4.746701e-06	1.862557e-08	3.405217e+01	1.224440e+03
1.920000e-06	4.699072e-06	1.880128e-08	3.371049e+01	1.219951e+03
1.930000e-06	4.649716e-06	1.849874e-08	3.335642e+01	1.215319e+03
1.940000e-06	4.598634e-06	1.844365e-08	3.298996e+01	1.210523e+03
1.950000e-06	4.545492e-06	1.845778e-08	3.260872e+01	1.205527e+03
1.960000e-06	4.490452e-06	1.829582e-08	3.221388e+01	1.200291e+03
1.970000e-06	4.433672e-06	1.832698e-08	3.180655e+01	1.194784e+03
1.980000e-06	4.375310e-06	1.812132e-08	3.138786e+01	1.188984e+03
1.990000e-06	4.315565e-06	1.806514e-08	3.095926e+01	1.182889e+03
2.000000e-06	4.254362e-06	1.799086e-08	3.052020e+01	1.176512e+03
2.010000e-06	4.191486e-06	1.784108e-08	3.006914e+01	1.169875e+03
2.020000e-06	4.126913e-06	1.782190e-08	2.960590e+01	1.163001e+03
2.030000e-06	4.060924e-06	1.761553e-08	2.913250e+01	1.155907e+03
2.040000e-06	3.993613e-06	1.756755e-08	2.864963e+01	1.148597e+03
2.050000e-06	3.924875e-06	1.743391e-08	2.815651e+01	1.141058e+03
2.060000e-06	3.854560e-06	1.727043e-08	2.765208e+01	1.133269e+03
2.070000e-06	3.782782e-06	1.722965e-08	2.713715e+01	1.125197e+03
2.080000e-06	3.709784e-06	1.706559e-08	2.661347e+01	1.116811e+03
2.090000e-06	3.635420e-06	1.695436e-08	2.608000e+01	1.108082e+03
2.100000e-06	3.559672e-06	1.675999e-08	2.553659e+01	1.098994e+03
2.110000e-06	3.482513e-06	1.663863e-08	2.498307e+01	1.089536e+03
2.120000e-06	3.403772e-06	1.653463e-08	2.441819e+01	1.079707e+03
2.130000e-06	3.323755e-06	1.635117e-08	2.384416e+01	1.069507e+03
2.140000e-06	3.242700e-06	1.620265e-08	2.326268e+01	1.058933e+03
2.150000e-06	3.160575e-06	1.600861e-08	2.267352e+01	1.047975e+03
2.160000e-06	3.077385e-06	1.584959e-08	2.207673e+01	1.036614e+03
2.170000e-06	2.993208e-06	1.565340e-08	2.147286e+01	1.024823e+03
2.180000e-06	2.907944e-06	1.547834e-08	2.086118e+01	1.012568e+03
2.190000e-06	2.821338e-06	1.531355e-08	2.023988e+01	9.998173e+02
2.200000e-06	2.733540e-06	1.509887e-08	1.961003e+01	9.865384e+02
2.210000e-06	2.644834e-06	1.487663e-08	1.897367e+01	9.727054e+02
2.220000e-06	2.555267e-06	1.464054e-08	1.833113e+01	9.582963e+02
2.230000e-06	2.464835e-06	1.443362e-08	1.768239e+01	9.432913e+02
2.240000e-06	2.373642e-06	1.420054e-08	1.702818e+01	9.276688e+02
2.250000e-06	2.281771e-06	1.395287e-08	1.636911e+01	9.114017e+02
2.260000e-06	2.189157e-06	1.368863e-08	1.570471e+01	8.944543e+02
2.270000e-06	2.095621e-06	1.341279e-08	1.503369e+01	8.767819e+02
2.280000e-06	2.001071e-06	1.313454e-08	1.435540e+01	8.583324e+02
2.290000e-06	1.905633e-06	1.284369e-08	1.367075e+01	8.390493e+02
2.300000e-06	1.809512e-06	1.254781e-08	1.298118e+01	8.188756e+02
2.310000e-06	1.712909e-06	1.223094e-08	1.228817e+01	7.977571e+02
2.320000e-06	1.615855e-06	1.189182e-08	1.159192e+01	7.756439e+02
2.330000e-06	1.518216e-06	1.152892e-08	1.089147e+01	7.524894e+02
2.340000e-06	1.419976e-06	1.115884e-08	1.018671e+01	7.282481e+02
2.350000e-06	1.321266e-06	1.077794e-08	9.478580e+00	7.028726e+02
2.360000e-06	1.222150e-06	1.037820e-08	8.767537e+00	6.763121e+02
2.370000e-06	1.122749e-06	9.953107e-09	8.054449e+00	6.485131e+02
2.380000e-06	1.023185e-06	9.509455e-09	7.340185e+00	6.194241e+02
2.390000e-06	9.234007e-07	9.049837e-09	6.624348e+00	5.890042e+02
2.400000e-06	8.233000e-07	8.565915e-09	5.906240e+00	5.572342e+02
2.410000e-06	7.229062e-07	8.062908e-09	5.186029e+00	5.241281e+02
2.420000e-06	6.222649e-07	7.537773e-09	4.464042e+00	4.897424e+02
2.430000e-06	5.214069e-07	6.990454e-09	3.740501e+00	4.541813e+02
2.440000e-06	4.203844e-07	6.427123e-09	3.015779e+00	4.175951e+02
2.450000e-06	3.191756e-07	5.856009e-09	2.289721e+00	3.801711e+02
2.460000e-06	2.177746e-07	5.275975e-09	1.562285e+00	3.421191e+02
2.470000e-06	1.162241e-07	4.687685e-09	8.337758e-01	3.036515e+02
2.480000e-06	1.459021e-08	4.095567e-09	1.046682e-01	2.649622e+02
2.490000e-06	-8.703263e-08	3.502492e-09	-6.243600e-01	2.262077e+02
2.500000e-06	-1.886533e-07	2.909404e-09	-1.353373e+00	1.874912e+02
2.510000e-06	-2.902227e-07	2.316093e-09	-2.082017e+00	1.488548e+02
2.520000e-06	-3.916442e-07	1.724649e-09	-2.809601e+00	1.102786e+02
2.530000e-06	-4.929010e-07	1.131279e-09	-3.536003e+00	7.168641e+01
2.540000e-06	-5.939216e-07	5.359736e-10	-4.260711e+00	3.295882e+01
2.550000e-06	-6.946683e-07	-6.314772e-11	-4.983454e+00	-6.049876e+00
2.560000e-06	-7.950921e-07	-6.671297e-10	-5.703880e+00	-4.549206e+01
2.570000e-06	-8.951930e-07	-1.278590e-09	-6.421990e+00	-8.550645e+01
2.580000e-06	-9.950205e-07	-1.901562e-09	-7.138139e+00	-1.261989e+02
2.590000e-06	-1.094583e-06	-2.534736e-09	-7.852387e+00	-1.676257e+02
2.600000e-06	-1.193862e-06	-3.178730e-09	-8.564603e+00	-2.097803e+02
2.610000e-06	-1.292801e-06	-3.829949e-09	-9.274374e+00	-2.525858e+02
2.620000e-06	-1.391281e-06	-4.488155e-09	-9.980858e+00	-2.958922e+02
2.630000e-06	-1.489235e-06	-5.152960e-09	-1.068357e+01	-3.394808e+02
2.640000e-06	-1.586626e-06	-5.820670e-09	-1.138224e+01	-3.830753e+02
2.650000e-06	-1.683485e-06	-6.485231e-09	-1.207708e+01	-4.263593e+02
2.660000e-06	-1.779873e-06	-7.138564e-09	-1.276856e+01	-4.689984e+02
2.670000e-06	-1.875743e-06	-7.777992e-09	-1.345632e+01	-5.106652e+02
2.680000e-06	-1.971016e-06	-8.398031e-09	-1.413979e+01	-5.510638e+02
2.690000e-06	-2.065457e-06	-8.992292e-09	-1.481730e+01	-5.899516e+02
2.700000e-06	-2.158832e-06	-9.560930e-09	-1.548716e+01	-6.271537e+02
2.710000e-06	-2.251196e-06	-1.010627e-08	-1.614977e+01	-6.625698e+02
2.720000e-06	-2.342789e-06	-1.062483e-08	-1.680685e+01	-6.961714e+02
2.730000e-06	-2.433668e-06	-1.111337e-08	-1.745879e+01	-7.279912e+02
2.740000e-06	-2.523624e-06	-1.157536e-08	-1.810413e+01	-7.581063e+02
2.750000e-06	-2.612606e-06	-1.201216e-08	-1.874248e+01	-7.866190e+02
2.760000e-06	-2.700764e-06	-1.242501e-08	-1.937491e+01	-8.136386e+02
2.770000e-06	-2.788199e-06	-1.281785e-08	-2.000215e+01	-8.392666e+02
2.780000e-06	-2.874668e-06	-1.319148e-08	-2.062247e+01	-8.635886e+02
2.790000e-06	-2.959863e-06	-1.354422e-08	-2.123364e+01	-8.866720e+02
2.800000e-06	-3.043899e-06	-1.387753e-08	-2.183651e+01	-9.085701e+02
2.810000e-06	-3.127006e-06	-1.419457e-08	-2.243271e+01	-9.293289e+02
2.820000e-06	-3.209145e-06	-1.449739e-08	-2.302196e+01	-9.489943e+02
2.830000e-06	-3.290239e-06	-1.478521e-08	-2.360372e+01	-9.676185e+02
2.840000e-06	-3.370258e-06	-1.505627e-08	-2.417776e+01	-9.852628e+02
2.850000e-06	-3.449055e-06	-1.531067e-08	-2.474304e+01	-1.001995e+03
2.860000e-06	-3.526337e-06	-1.555257e-08	-2.529745e+01	-1.017887e+03
2.870000e-06	-3.602053e-06	-1.578511e-08	-2.584062e+01	-1.033006e+03
2.880000e-06	-3.676369e-06	-1.600990e-08	-2.637376e+01	-1.047411e+03
2.890000e-06	-3.749383e-06	-1.622610e-08	-2.689755e+01	-1.061148e+03
2.900000e-06	-3.821209e-06	-1.643024e-08	-2.741282e+01	-1.074248e+03
2.910000e-06	-3.891573e-06	-1.662100e-08	-2.791760e+01	-1.086734e+03
2.920000e-06	-3.960297e-06	-1.680186e-08	-2.841062e+01	-1.098621e+03
2.930000e-06	-4.027585e-06	-1.697405e-08	-2.889333e+01	-1.109922e+03
2.940000e-06	-4.093542e-06	-1.713695e-08	-2.936650e+01	-1.120655e+03
