# Temperatura_=_68.61
# Concentracion g/m^3_=_28200.0
# C_Vs_to_Am_M_A/Vsm_=_65563218390.804596
# pendiente_HvsI_1/m_=_3716.3
# ordenada_HvsI_A/m_=_1297.0
# frecuencia_Hz_=_301770.2481926126

Tiempo_(s)	Campo_(V.s)	Magnetizacion_(V.s)	Campo_(kA/m)	Magnetizacion_(A/m)
0.000000e+00	-5.347707e-06	-2.369537e-08	-3.829736e+01	-1.550022e+03
1.000000e-08	-5.345839e-06	-2.369253e-08	-3.828398e+01	-1.549673e+03
2.000000e-08	-5.342077e-06	-2.368208e-08	-3.825704e+01	-1.549154e+03
3.000000e-08	-5.336661e-06	-2.366897e-08	-3.821825e+01	-1.548460e+03
4.000000e-08	-5.329632e-06	-2.365642e-08	-3.816792e+01	-1.547577e+03
5.000000e-08	-5.320925e-06	-2.363911e-08	-3.810556e+01	-1.546489e+03
6.000000e-08	-5.310192e-06	-2.361709e-08	-3.802870e+01	-1.545178e+03
7.000000e-08	-5.297490e-06	-2.358595e-08	-3.793773e+01	-1.543632e+03
8.000000e-08	-5.282928e-06	-2.356030e-08	-3.783345e+01	-1.541851e+03
9.000000e-08	-5.266179e-06	-2.359726e-08	-3.771350e+01	-1.539849e+03
1.000000e-07	-5.247283e-06	-2.359017e-08	-3.757818e+01	-1.537651e+03
1.100000e-07	-5.226455e-06	-2.349719e-08	-3.742902e+01	-1.535294e+03
1.200000e-07	-5.203778e-06	-2.343635e-08	-3.726662e+01	-1.532814e+03
1.300000e-07	-5.179526e-06	-2.331552e-08	-3.709294e+01	-1.530244e+03
1.400000e-07	-5.153771e-06	-2.325107e-08	-3.690850e+01	-1.527607e+03
1.500000e-07	-5.126347e-06	-2.339125e-08	-3.671210e+01	-1.524905e+03
1.600000e-07	-5.097349e-06	-2.326253e-08	-3.650443e+01	-1.522125e+03
1.700000e-07	-5.066932e-06	-2.317426e-08	-3.628660e+01	-1.519235e+03
1.800000e-07	-5.034674e-06	-2.327302e-08	-3.605559e+01	-1.516192e+03
1.900000e-07	-5.000324e-06	-2.304286e-08	-3.580959e+01	-1.512949e+03
2.000000e-07	-4.964392e-06	-2.297712e-08	-3.555227e+01	-1.509461e+03
2.100000e-07	-4.926902e-06	-2.306149e-08	-3.528378e+01	-1.505693e+03
2.200000e-07	-4.887618e-06	-2.288282e-08	-3.500245e+01	-1.501621e+03
2.300000e-07	-4.846524e-06	-2.280363e-08	-3.470816e+01	-1.497237e+03
2.400000e-07	-4.803426e-06	-2.276487e-08	-3.439952e+01	-1.492541e+03
2.500000e-07	-4.758440e-06	-2.265283e-08	-3.407735e+01	-1.487544e+03
2.600000e-07	-4.711728e-06	-2.263190e-08	-3.374283e+01	-1.482259e+03
2.700000e-07	-4.663073e-06	-2.250020e-08	-3.339438e+01	-1.476694e+03
2.800000e-07	-4.612268e-06	-2.237754e-08	-3.303055e+01	-1.470857e+03
2.900000e-07	-4.559497e-06	-2.231509e-08	-3.265263e+01	-1.464745e+03
3.000000e-07	-4.505066e-06	-2.222447e-08	-3.226283e+01	-1.458355e+03
3.100000e-07	-4.449016e-06	-2.212610e-08	-3.186142e+01	-1.451678e+03
3.200000e-07	-4.391164e-06	-2.201447e-08	-3.144712e+01	-1.444708e+03
3.300000e-07	-4.331638e-06	-2.191546e-08	-3.102082e+01	-1.437440e+03
3.400000e-07	-4.270672e-06	-2.177337e-08	-3.058422e+01	-1.429875e+03
3.500000e-07	-4.208269e-06	-2.163381e-08	-3.013733e+01	-1.422016e+03
3.600000e-07	-4.144434e-06	-2.153097e-08	-2.968017e+01	-1.413868e+03
3.700000e-07	-4.079012e-06	-2.142370e-08	-2.921166e+01	-1.405436e+03
3.800000e-07	-4.011959e-06	-2.130281e-08	-2.873146e+01	-1.396719e+03
3.900000e-07	-3.943468e-06	-2.112632e-08	-2.824096e+01	-1.387711e+03
4.000000e-07	-3.873687e-06	-2.096257e-08	-2.774123e+01	-1.378399e+03
4.100000e-07	-3.802694e-06	-2.084343e-08	-2.723282e+01	-1.368763e+03
4.200000e-07	-3.730392e-06	-2.069310e-08	-2.671503e+01	-1.358778e+03
4.300000e-07	-3.656586e-06	-2.053565e-08	-2.618647e+01	-1.348419e+03
4.400000e-07	-3.581243e-06	-2.036970e-08	-2.564691e+01	-1.337663e+03
4.500000e-07	-3.504490e-06	-2.019733e-08	-2.509725e+01	-1.326489e+03
4.600000e-07	-3.426394e-06	-2.001170e-08	-2.453797e+01	-1.314882e+03
4.700000e-07	-3.346872e-06	-1.982407e-08	-2.396847e+01	-1.302832e+03
4.800000e-07	-3.266055e-06	-1.964407e-08	-2.338971e+01	-1.290328e+03
4.900000e-07	-3.184084e-06	-1.944104e-08	-2.280268e+01	-1.277363e+03
5.000000e-07	-3.101063e-06	-1.923299e-08	-2.220812e+01	-1.263925e+03
5.100000e-07	-3.017136e-06	-1.901648e-08	-2.160708e+01	-1.249998e+03
5.200000e-07	-2.932283e-06	-1.879498e-08	-2.099941e+01	-1.235561e+03
5.300000e-07	-2.846456e-06	-1.856722e-08	-2.038477e+01	-1.220585e+03
5.400000e-07	-2.759685e-06	-1.832824e-08	-1.976336e+01	-1.205040e+03
5.500000e-07	-2.672018e-06	-1.807948e-08	-1.913553e+01	-1.188889e+03
5.600000e-07	-2.583348e-06	-1.781798e-08	-1.850053e+01	-1.172097e+03
5.700000e-07	-2.493506e-06	-1.755401e-08	-1.785713e+01	-1.154626e+03
5.800000e-07	-2.402569e-06	-1.728026e-08	-1.720589e+01	-1.136440e+03
5.900000e-07	-2.310743e-06	-1.699154e-08	-1.654828e+01	-1.117500e+03
6.000000e-07	-2.218111e-06	-1.668650e-08	-1.588490e+01	-1.097768e+03
6.100000e-07	-2.124699e-06	-1.637195e-08	-1.521594e+01	-1.077201e+03
6.200000e-07	-2.030511e-06	-1.604749e-08	-1.454141e+01	-1.055750e+03
6.300000e-07	-1.935689e-06	-1.570433e-08	-1.386235e+01	-1.033360e+03
6.400000e-07	-1.840279e-06	-1.534394e-08	-1.317907e+01	-1.009972e+03
6.500000e-07	-1.744176e-06	-1.496759e-08	-1.249084e+01	-9.855159e+02
6.600000e-07	-1.647307e-06	-1.457229e-08	-1.179711e+01	-9.599192e+02
6.700000e-07	-1.549671e-06	-1.416003e-08	-1.109790e+01	-9.331026e+02
6.800000e-07	-1.451412e-06	-1.373425e-08	-1.039422e+01	-9.049825e+02
6.900000e-07	-1.352643e-06	-1.328784e-08	-9.686892e+00	-8.754721e+02
7.000000e-07	-1.253432e-06	-1.281678e-08	-8.976397e+00	-8.444828e+02
7.100000e-07	-1.153804e-06	-1.231659e-08	-8.262914e+00	-8.119271e+02
7.200000e-07	-1.053817e-06	-1.179040e-08	-7.546861e+00	-7.777230e+02
7.300000e-07	-9.535740e-07	-1.124316e-08	-6.828977e+00	-7.418001e+02
7.400000e-07	-8.530858e-07	-1.067186e-08	-6.109335e+00	-7.041078e+02
7.500000e-07	-7.523008e-07	-1.007280e-08	-5.387568e+00	-6.646248e+02
7.600000e-07	-6.512797e-07	-9.444682e-09	-4.664110e+00	-6.233689e+02
7.700000e-07	-5.500233e-07	-8.788658e-09	-3.938967e+00	-5.804046e+02
7.800000e-07	-4.485547e-07	-8.108598e-09	-3.212304e+00	-5.358471e+02
7.900000e-07	-3.469366e-07	-7.408880e-09	-2.484570e+00	-4.898617e+02
8.000000e-07	-2.451768e-07	-6.691226e-09	-1.755822e+00	-4.426551e+02
8.100000e-07	-1.432838e-07	-5.959570e-09	-1.026120e+00	-3.944609e+02
8.200000e-07	-4.129260e-08	-5.215078e-09	-2.957151e-01	-3.455186e+02
8.300000e-07	6.073047e-08	-4.460816e-09	4.349185e-01	-2.960488e+02
8.400000e-07	1.627773e-07	-3.700254e-09	1.165722e+00	-2.462284e+02
8.500000e-07	2.647439e-07	-2.938949e-09	1.895951e+00	-1.961699e+02
8.600000e-07	3.665733e-07	-2.178642e-09	2.625198e+00	-1.459072e+02
8.700000e-07	4.682473e-07	-1.413570e-09	3.353331e+00	-9.539299e+01
8.800000e-07	5.697840e-07	-6.414814e-10	4.080482e+00	-4.450865e+01
8.900000e-07	6.712278e-07	1.426171e-10	4.806967e+00	6.914328e+00
9.000000e-07	7.724513e-07	9.415787e-10	5.531875e+00	5.906234e+01
9.100000e-07	8.733836e-07	1.752993e-09	6.254697e+00	1.121021e+02
9.200000e-07	9.740606e-07	2.576083e-09	6.975690e+00	1.661424e+02
9.300000e-07	1.074441e-06	3.411501e-09	7.694561e+00	2.212010e+02
9.400000e-07	1.174496e-06	4.260689e-09	8.411096e+00	2.771823e+02
9.500000e-07	1.274185e-06	5.122402e-09	9.125017e+00	3.338686e+02
9.600000e-07	1.373403e-06	5.991706e-09	9.835565e+00	3.909276e+02
9.700000e-07	1.472081e-06	6.861658e-09	1.054224e+01	4.479350e+02
9.800000e-07	1.570080e-06	7.721921e-09	1.124405e+01	5.044088e+02
9.900000e-07	1.667314e-06	8.563999e-09	1.194039e+01	5.598508e+02
1.000000e-06	1.763793e-06	9.383466e-09	1.263132e+01	6.137890e+02
1.010000e-06	1.859560e-06	1.017292e-08	1.331715e+01	6.658153e+02
1.020000e-06	1.954654e-06	1.092618e-08	1.399816e+01	7.156132e+02
1.030000e-06	2.049038e-06	1.164254e-08	1.467409e+01	7.629732e+02
1.040000e-06	2.142700e-06	1.232336e-08	1.534485e+01	8.077940e+02
1.050000e-06	2.235659e-06	1.296563e-08	1.601057e+01	8.500717e+02
1.060000e-06	2.327934e-06	1.356885e-08	1.667139e+01	8.898798e+02
1.070000e-06	2.419557e-06	1.413683e-08	1.732755e+01	9.273444e+02
1.080000e-06	2.510388e-06	1.467230e-08	1.797803e+01	9.626189e+02
1.090000e-06	2.600152e-06	1.517752e-08	1.862087e+01	9.958627e+02
1.100000e-06	2.688767e-06	1.565562e-08	1.925548e+01	1.027226e+03
1.110000e-06	2.776354e-06	1.610611e-08	1.988273e+01	1.056841e+03
1.120000e-06	2.863032e-06	1.652935e-08	2.050348e+01	1.084823e+03
1.130000e-06	2.948794e-06	1.692961e-08	2.111765e+01	1.111270e+03
1.140000e-06	3.033622e-06	1.730939e-08	2.172515e+01	1.136273e+03
1.150000e-06	3.117532e-06	1.766987e-08	2.232606e+01	1.159918e+03
1.160000e-06	3.200427e-06	1.801169e-08	2.291972e+01	1.182292e+03
1.170000e-06	3.282133e-06	1.833608e-08	2.350484e+01	1.203484e+03
1.180000e-06	3.362614e-06	1.864330e-08	2.408121e+01	1.223581e+03
1.190000e-06	3.441869e-06	1.893389e-08	2.464879e+01	1.242666e+03
1.200000e-06	3.519899e-06	1.920823e-08	2.520760e+01	1.260812e+03
1.210000e-06	3.596758e-06	1.946756e-08	2.575802e+01	1.278083e+03
1.220000e-06	3.672385e-06	1.971482e-08	2.629962e+01	1.294528e+03
1.230000e-06	3.746495e-06	1.995268e-08	2.683035e+01	1.310186e+03
1.240000e-06	3.818933e-06	2.017920e-08	2.734911e+01	1.325088e+03
1.250000e-06	3.889928e-06	2.039476e-08	2.785754e+01	1.339263e+03
1.260000e-06	3.959569e-06	2.059880e-08	2.835627e+01	1.352744e+03
1.270000e-06	4.027875e-06	2.079110e-08	2.884544e+01	1.365567e+03
1.280000e-06	4.094812e-06	2.097351e-08	2.932481e+01	1.377771e+03
1.290000e-06	4.160143e-06	2.114839e-08	2.979268e+01	1.389401e+03
1.300000e-06	4.223843e-06	2.131921e-08	3.024886e+01	1.400495e+03
1.310000e-06	4.286097e-06	2.148309e-08	3.069469e+01	1.411090e+03
1.320000e-06	4.346976e-06	2.163766e-08	3.113067e+01	1.421207e+03
1.330000e-06	4.406459e-06	2.178411e-08	3.155666e+01	1.430857e+03
1.340000e-06	4.464282e-06	2.192250e-08	3.197075e+01	1.440042e+03
1.350000e-06	4.520309e-06	2.205368e-08	3.237199e+01	1.448753e+03
1.360000e-06	4.574741e-06	2.218007e-08	3.276180e+01	1.456985e+03
1.370000e-06	4.627505e-06	2.229935e-08	3.313966e+01	1.464735e+03
1.380000e-06	4.678318e-06	2.240887e-08	3.350356e+01	1.472014e+03
1.390000e-06	4.727086e-06	2.251087e-08	3.385281e+01	1.478845e+03
1.400000e-06	4.774025e-06	2.260669e-08	3.418896e+01	1.485264e+03
1.410000e-06	4.819374e-06	2.269654e-08	3.451372e+01	1.491316e+03
1.420000e-06	4.863243e-06	2.278309e-08	3.482789e+01	1.497049e+03
1.430000e-06	4.905364e-06	2.286738e-08	3.512954e+01	1.502503e+03
1.440000e-06	4.945575e-06	2.294747e-08	3.541751e+01	1.507711e+03
1.450000e-06	4.984086e-06	2.302419e-08	3.569331e+01	1.512685e+03
1.460000e-06	5.020994e-06	2.309713e-08	3.595762e+01	1.517425e+03
1.470000e-06	5.056269e-06	2.316534e-08	3.621024e+01	1.521914e+03
1.480000e-06	5.089645e-06	2.322840e-08	3.644926e+01	1.526131e+03
1.490000e-06	5.121112e-06	2.328597e-08	3.667461e+01	1.530051e+03
1.500000e-06	5.150889e-06	2.333962e-08	3.688786e+01	1.533656e+03
1.510000e-06	5.179043e-06	2.339033e-08	3.708948e+01	1.536939e+03
1.520000e-06	5.205360e-06	2.343625e-08	3.727795e+01	1.539906e+03
1.530000e-06	5.229564e-06	2.347765e-08	3.745128e+01	1.542571e+03
1.540000e-06	5.251783e-06	2.351412e-08	3.761040e+01	1.544958e+03
1.550000e-06	5.272289e-06	2.354555e-08	3.775726e+01	1.547091e+03
1.560000e-06	5.291049e-06	2.357356e-08	3.789160e+01	1.548991e+03
1.570000e-06	5.307806e-06	2.359940e-08	3.801161e+01	1.550672e+03
1.580000e-06	5.322574e-06	2.362297e-08	3.811737e+01	1.552139e+03
1.590000e-06	5.335452e-06	2.364226e-08	3.820960e+01	1.553390e+03
1.600000e-06	5.346234e-06	2.365792e-08	3.828681e+01	1.554420e+03
1.610000e-06	5.354852e-06	2.366943e-08	3.834853e+01	1.555224e+03
1.620000e-06	5.361516e-06	2.367756e-08	3.839626e+01	1.555801e+03
1.630000e-06	5.366359e-06	2.368477e-08	3.843093e+01	1.556157e+03
1.640000e-06	5.369380e-06	2.368981e-08	3.845257e+01	1.556302e+03
1.650000e-06	5.370418e-06	2.369176e-08	3.846000e+01	1.556251e+03
1.660000e-06	5.369549e-06	2.368684e-08	3.845378e+01	1.556018e+03
1.670000e-06	5.367001e-06	2.367627e-08	3.843553e+01	1.555613e+03
1.680000e-06	5.362821e-06	2.366956e-08	3.840560e+01	1.555038e+03
1.690000e-06	5.356791e-06	2.366078e-08	3.836241e+01	1.554284e+03
1.700000e-06	5.348859e-06	2.364826e-08	3.830561e+01	1.553337e+03
1.710000e-06	5.339341e-06	2.363382e-08	3.823745e+01	1.552178e+03
1.720000e-06	5.328258e-06	2.362166e-08	3.815807e+01	1.550791e+03
1.730000e-06	5.315311e-06	2.360882e-08	3.806536e+01	1.549168e+03
1.740000e-06	5.300279e-06	2.350722e-08	3.795770e+01	1.547313e+03
1.750000e-06	5.283056e-06	2.343165e-08	3.783437e+01	1.545244e+03
1.760000e-06	5.263330e-06	2.345317e-08	3.769310e+01	1.542989e+03
1.770000e-06	5.241047e-06	2.344530e-08	3.753352e+01	1.540587e+03
1.780000e-06	5.216943e-06	2.352245e-08	3.736090e+01	1.538075e+03
1.790000e-06	5.191951e-06	2.343329e-08	3.718192e+01	1.535481e+03
1.800000e-06	5.166042e-06	2.322357e-08	3.699637e+01	1.532822e+03
1.810000e-06	5.138268e-06	2.334411e-08	3.679747e+01	1.530097e+03
1.820000e-06	5.108403e-06	2.324893e-08	3.658359e+01	1.527285e+03
1.830000e-06	5.076858e-06	2.312410e-08	3.635769e+01	1.524350e+03
1.840000e-06	5.043407e-06	2.332142e-08	3.611813e+01	1.521247e+03
1.850000e-06	5.008212e-06	2.313963e-08	3.586609e+01	1.517929e+03
1.860000e-06	4.971456e-06	2.299346e-08	3.560286e+01	1.514353e+03
1.870000e-06	4.932741e-06	2.311031e-08	3.532560e+01	1.510488e+03
1.880000e-06	4.892316e-06	2.295645e-08	3.503610e+01	1.506316e+03
1.890000e-06	4.850236e-06	2.293580e-08	3.473474e+01	1.501829e+03
1.900000e-06	4.806350e-06	2.285473e-08	3.442045e+01	1.497035e+03
1.910000e-06	4.760740e-06	2.268839e-08	3.409382e+01	1.491943e+03
1.920000e-06	4.713245e-06	2.280799e-08	3.375369e+01	1.486566e+03
1.930000e-06	4.664057e-06	2.264441e-08	3.340143e+01	1.480912e+03
1.940000e-06	4.613210e-06	2.248576e-08	3.303729e+01	1.474986e+03
1.950000e-06	4.560287e-06	2.245855e-08	3.265828e+01	1.468785e+03
1.960000e-06	4.505435e-06	2.231573e-08	3.226547e+01	1.462303e+03
1.970000e-06	4.448850e-06	2.224194e-08	3.186024e+01	1.455531e+03
1.980000e-06	4.390613e-06	2.206392e-08	3.144318e+01	1.448465e+03
1.990000e-06	4.330934e-06	2.201460e-08	3.101579e+01	1.441100e+03
2.000000e-06	4.269748e-06	2.197760e-08	3.057760e+01	1.433439e+03
2.010000e-06	4.206932e-06	2.175335e-08	3.012775e+01	1.425486e+03
2.020000e-06	4.142485e-06	2.162974e-08	2.966622e+01	1.417246e+03
2.030000e-06	4.076597e-06	2.148596e-08	2.919437e+01	1.408721e+03
2.040000e-06	4.009391e-06	2.140976e-08	2.871307e+01	1.399911e+03
2.050000e-06	3.940743e-06	2.127435e-08	2.822145e+01	1.390806e+03
2.060000e-06	3.870517e-06	2.107562e-08	2.771853e+01	1.381391e+03
2.070000e-06	3.798852e-06	2.097929e-08	2.720531e+01	1.371645e+03
2.080000e-06	3.725974e-06	2.079460e-08	2.668339e+01	1.361542e+03
2.090000e-06	3.651755e-06	2.063354e-08	2.615188e+01	1.351057e+03
2.100000e-06	3.576092e-06	2.047093e-08	2.561002e+01	1.340167e+03
2.110000e-06	3.498873e-06	2.031491e-08	2.505702e+01	1.328855e+03
2.120000e-06	3.420135e-06	2.015397e-08	2.449314e+01	1.317106e+03
2.130000e-06	3.340218e-06	1.992838e-08	2.392082e+01	1.304909e+03
2.140000e-06	3.259207e-06	1.974203e-08	2.334066e+01	1.292257e+03
2.150000e-06	3.177118e-06	1.954052e-08	2.275279e+01	1.279140e+03
2.160000e-06	3.094008e-06	1.934995e-08	2.215760e+01	1.265547e+03
2.170000e-06	3.009880e-06	1.913920e-08	2.155512e+01	1.251457e+03
2.180000e-06	2.924577e-06	1.890912e-08	2.094422e+01	1.236850e+03
2.190000e-06	2.837957e-06	1.868598e-08	2.032390e+01	1.221694e+03
2.200000e-06	2.750210e-06	1.844504e-08	1.969550e+01	1.205957e+03
2.210000e-06	2.661529e-06	1.820095e-08	1.906042e+01	1.189603e+03
2.220000e-06	2.571953e-06	1.793137e-08	1.841892e+01	1.172595e+03
2.230000e-06	2.481463e-06	1.766132e-08	1.777089e+01	1.154898e+03
2.240000e-06	2.390214e-06	1.738256e-08	1.711741e+01	1.136473e+03
2.250000e-06	2.298335e-06	1.709511e-08	1.645942e+01	1.117282e+03
2.260000e-06	2.205686e-06	1.678939e-08	1.579592e+01	1.097286e+03
2.270000e-06	2.112034e-06	1.646814e-08	1.512523e+01	1.076439e+03
2.280000e-06	2.017362e-06	1.614278e-08	1.444724e+01	1.054692e+03
2.290000e-06	1.921857e-06	1.579813e-08	1.376329e+01	1.031987e+03
2.300000e-06	1.825672e-06	1.543808e-08	1.307447e+01	1.008262e+03
2.310000e-06	1.728965e-06	1.506287e-08	1.238190e+01	9.834470e+02
2.320000e-06	1.631800e-06	1.467265e-08	1.168606e+01	9.574661e+02
2.330000e-06	1.534091e-06	1.425477e-08	1.098633e+01	9.302389e+02
2.340000e-06	1.435800e-06	1.381055e-08	1.028242e+01	9.016807e+02
2.350000e-06	1.337046e-06	1.335094e-08	9.575194e+00	8.717036e+02
2.360000e-06	1.237953e-06	1.287974e-08	8.865545e+00	8.402194e+02
2.370000e-06	1.138574e-06	1.238457e-08	8.153842e+00	8.071415e+02
2.380000e-06	1.038945e-06	1.185621e-08	7.440356e+00	7.723909e+02
2.390000e-06	9.390671e-07	1.129695e-08	6.725086e+00	7.359026e+02
2.400000e-06	8.388925e-07	1.070735e-08	6.007691e+00	6.976345e+02
2.410000e-06	7.383534e-07	1.009238e-08	5.287684e+00	6.575767e+02
2.420000e-06	6.374196e-07	9.452200e-09	4.564852e+00	6.157613e+02
2.430000e-06	5.362142e-07	8.789412e-09	3.840073e+00	5.722689e+02
2.440000e-06	4.348872e-07	8.105676e-09	3.114425e+00	5.272313e+02
2.450000e-06	3.333913e-07	7.398324e-09	2.387566e+00	4.808282e+02
2.460000e-06	2.316790e-07	6.666559e-09	1.659159e+00	4.332771e+02
2.470000e-06	1.298124e-07	5.921654e-09	9.296455e-01	3.848158e+02
2.480000e-06	2.783927e-08	5.174195e-09	1.993696e-01	3.356806e+02
2.490000e-06	-7.417506e-08	4.420011e-09	-5.312013e-01	2.860806e+02
2.500000e-06	-1.761357e-07	3.656028e-09	-1.261387e+00	2.361742e+02
2.510000e-06	-2.780244e-07	2.886682e-09	-1.991059e+00	1.860494e+02
2.520000e-06	-3.798131e-07	2.115092e-09	-2.720014e+00	1.357138e+02
2.530000e-06	-4.814230e-07	1.338945e-09	-3.447689e+00	8.509561e+01
2.540000e-06	-5.827964e-07	5.572452e-10	-4.173670e+00	3.405718e+01
2.550000e-06	-6.838836e-07	-2.309205e-10	-4.897601e+00	-1.757958e+01
2.560000e-06	-7.846530e-07	-1.027799e-09	-5.619256e+00	-6.999899e+01
2.570000e-06	-8.850740e-07	-1.840268e-09	-6.338417e+00	-1.233532e+02
2.580000e-06	-9.851482e-07	-2.671782e-09	-7.055094e+00	-1.777249e+02
2.590000e-06	-1.084895e-06	-3.519181e-09	-7.769429e+00	-2.330973e+02
2.600000e-06	-1.184344e-06	-4.379560e-09	-8.481627e+00	-2.893356e+02
2.610000e-06	-1.283471e-06	-5.247479e-09	-9.191523e+00	-3.461838e+02
2.620000e-06	-1.382170e-06	-6.118393e-09	-9.898345e+00	-4.032769e+02
2.630000e-06	-1.480310e-06	-6.988726e-09	-1.060117e+01	-4.601679e+02
2.640000e-06	-1.577843e-06	-7.852026e-09	-1.129965e+01	-5.163649e+02
2.650000e-06	-1.674805e-06	-8.698943e-09	-1.199404e+01	-5.713735e+02
2.660000e-06	-1.771242e-06	-9.519133e-09	-1.268467e+01	-6.247387e+02
2.670000e-06	-1.867190e-06	-1.030619e-08	-1.337180e+01	-6.760791e+02
2.680000e-06	-1.962615e-06	-1.105570e-08	-1.405518e+01	-7.251119e+02
2.690000e-06	-2.057312e-06	-1.176560e-08	-1.473334e+01	-7.716626e+02
2.700000e-06	-2.151059e-06	-1.243841e-08	-1.540471e+01	-8.156632e+02
2.710000e-06	-2.243840e-06	-1.307561e-08	-1.606916e+01	-8.571370e+02
2.720000e-06	-2.335776e-06	-1.367840e-08	-1.672756e+01	-8.961772e+02
2.730000e-06	-2.426914e-06	-1.424800e-08	-1.738023e+01	-9.329213e+02
2.740000e-06	-2.517184e-06	-1.478277e-08	-1.802670e+01	-9.675268e+02
2.750000e-06	-2.606494e-06	-1.528172e-08	-1.866629e+01	-1.000151e+03
2.760000e-06	-2.694900e-06	-1.574972e-08	-1.929940e+01	-1.030940e+03
2.770000e-06	-2.782533e-06	-1.619114e-08	-1.992699e+01	-1.060020e+03
2.780000e-06	-2.869270e-06	-1.660884e-08	-2.054815e+01	-1.087499e+03
2.790000e-06	-2.954858e-06	-1.700654e-08	-2.116108e+01	-1.113473e+03
2.800000e-06	-3.039254e-06	-1.738545e-08	-2.176548e+01	-1.138031e+03
2.810000e-06	-3.122594e-06	-1.774281e-08	-2.236231e+01	-1.161259e+03
2.820000e-06	-3.204955e-06	-1.807883e-08	-2.295214e+01	-1.183244e+03
2.830000e-06	-3.286285e-06	-1.839755e-08	-2.353458e+01	-1.204076e+03
2.840000e-06	-3.366574e-06	-1.870121e-08	-2.410957e+01	-1.223839e+03
2.850000e-06	-3.445666e-06	-1.898949e-08	-2.467598e+01	-1.242616e+03
2.860000e-06	-3.523210e-06	-1.926177e-08	-2.523131e+01	-1.260476e+03
2.870000e-06	-3.599201e-06	-1.952012e-08	-2.577551e+01	-1.277477e+03
2.880000e-06	-3.673836e-06	-1.976769e-08	-2.631001e+01	-1.293666e+03
2.890000e-06	-3.747142e-06	-2.000544e-08	-2.683499e+01	-1.309079e+03
2.900000e-06	-3.819142e-06	-2.023253e-08	-2.735061e+01	-1.323745e+03
2.910000e-06	-3.889823e-06	-2.044878e-08	-2.785679e+01	-1.337694e+03
2.920000e-06	-3.958968e-06	-2.065546e-08	-2.835197e+01	-1.350960e+03
2.930000e-06	-4.026593e-06	-2.085166e-08	-2.883626e+01	-1.363581e+03
2.940000e-06	-4.092877e-06	-2.103515e-08	-2.931095e+01	-1.375596e+03
