# Temperatura_=_57.19
# Concentracion g/m^3_=_28200.0
# C_Vs_to_Am_M_A/Vsm_=_65563218390.804596
# pendiente_HvsI_1/m_=_3716.3
# ordenada_HvsI_A/m_=_1297.0
# frecuencia_Hz_=_301769.95160713576

Tiempo_(s)	Campo_(V.s)	Magnetizacion_(V.s)	Campo_(kA/m)	Magnetizacion_(A/m)
0.000000e+00	-5.337981e-06	-2.147094e-08	-3.829612e+01	-1.404726e+03
1.000000e-08	-5.335749e-06	-2.147270e-08	-3.828010e+01	-1.404354e+03
2.000000e-08	-5.331635e-06	-2.146472e-08	-3.825059e+01	-1.403831e+03
3.000000e-08	-5.325988e-06	-2.145271e-08	-3.821007e+01	-1.403157e+03
4.000000e-08	-5.318797e-06	-2.143825e-08	-3.815849e+01	-1.402324e+03
5.000000e-08	-5.309894e-06	-2.141945e-08	-3.809461e+01	-1.401314e+03
6.000000e-08	-5.298937e-06	-2.139735e-08	-3.801601e+01	-1.400110e+03
7.000000e-08	-5.286058e-06	-2.136371e-08	-3.792361e+01	-1.398698e+03
8.000000e-08	-5.271287e-06	-2.134524e-08	-3.781763e+01	-1.397073e+03
9.000000e-08	-5.254246e-06	-2.140535e-08	-3.769538e+01	-1.395246e+03
1.000000e-07	-5.235008e-06	-2.138642e-08	-3.755736e+01	-1.393239e+03
1.100000e-07	-5.213871e-06	-2.127847e-08	-3.740572e+01	-1.391087e+03
1.200000e-07	-5.190984e-06	-2.122739e-08	-3.724152e+01	-1.388832e+03
1.300000e-07	-5.166613e-06	-2.109126e-08	-3.706668e+01	-1.386511e+03
1.400000e-07	-5.140717e-06	-2.107219e-08	-3.688089e+01	-1.384153e+03
1.500000e-07	-5.113113e-06	-2.126280e-08	-3.668286e+01	-1.381769e+03
1.600000e-07	-5.083978e-06	-2.105832e-08	-3.647383e+01	-1.379347e+03
1.700000e-07	-5.053414e-06	-2.099041e-08	-3.625456e+01	-1.376858e+03
1.800000e-07	-5.021010e-06	-2.111230e-08	-3.602208e+01	-1.374254e+03
1.900000e-07	-4.986514e-06	-2.081677e-08	-3.577459e+01	-1.371479e+03
2.000000e-07	-4.950387e-06	-2.083020e-08	-3.551541e+01	-1.368477e+03
2.100000e-07	-4.912642e-06	-2.097135e-08	-3.524462e+01	-1.365201e+03
2.200000e-07	-4.873130e-06	-2.077551e-08	-3.496115e+01	-1.361617e+03
2.300000e-07	-4.831791e-06	-2.073007e-08	-3.466457e+01	-1.357711e+03
2.400000e-07	-4.788463e-06	-2.066852e-08	-3.435373e+01	-1.353487e+03
2.500000e-07	-4.743399e-06	-2.051925e-08	-3.403043e+01	-1.348961e+03
2.600000e-07	-4.696627e-06	-2.051333e-08	-3.369487e+01	-1.344158e+03
2.700000e-07	-4.647837e-06	-2.039900e-08	-3.334484e+01	-1.339102e+03
2.800000e-07	-4.596869e-06	-2.030992e-08	-3.297918e+01	-1.333811e+03
2.900000e-07	-4.543849e-06	-2.023996e-08	-3.259880e+01	-1.328296e+03
3.000000e-07	-4.489183e-06	-2.013791e-08	-3.220661e+01	-1.322555e+03
3.100000e-07	-4.433010e-06	-2.005298e-08	-3.180361e+01	-1.316579e+03
3.200000e-07	-4.375010e-06	-1.995898e-08	-3.138750e+01	-1.310353e+03
3.300000e-07	-4.315309e-06	-1.988818e-08	-3.095919e+01	-1.303861e+03
3.400000e-07	-4.254226e-06	-1.976040e-08	-3.052097e+01	-1.297091e+03
3.500000e-07	-4.191738e-06	-1.963693e-08	-3.007266e+01	-1.290033e+03
3.600000e-07	-4.127844e-06	-1.953374e-08	-2.961427e+01	-1.282688e+03
3.700000e-07	-4.062366e-06	-1.942286e-08	-2.914451e+01	-1.275057e+03
3.800000e-07	-3.995214e-06	-1.932398e-08	-2.866274e+01	-1.267144e+03
3.900000e-07	-3.926641e-06	-1.917127e-08	-2.817079e+01	-1.258951e+03
4.000000e-07	-3.856804e-06	-1.903197e-08	-2.766975e+01	-1.250474e+03
4.100000e-07	-3.785726e-06	-1.892313e-08	-2.715982e+01	-1.241705e+03
4.200000e-07	-3.713415e-06	-1.877462e-08	-2.664104e+01	-1.232626e+03
4.300000e-07	-3.639613e-06	-1.863034e-08	-2.611157e+01	-1.223217e+03
4.400000e-07	-3.564185e-06	-1.847940e-08	-2.557043e+01	-1.213453e+03
4.500000e-07	-3.487345e-06	-1.832200e-08	-2.501915e+01	-1.203313e+03
4.600000e-07	-3.409247e-06	-1.814690e-08	-2.445886e+01	-1.192774e+03
4.700000e-07	-3.329769e-06	-1.797774e-08	-2.388866e+01	-1.181822e+03
4.800000e-07	-3.248902e-06	-1.782417e-08	-2.330850e+01	-1.170444e+03
4.900000e-07	-3.166873e-06	-1.764399e-08	-2.272000e+01	-1.158631e+03
5.000000e-07	-3.083824e-06	-1.745686e-08	-2.212418e+01	-1.146374e+03
5.100000e-07	-2.999879e-06	-1.725574e-08	-2.152194e+01	-1.133661e+03
5.200000e-07	-2.915051e-06	-1.705040e-08	-2.091336e+01	-1.120473e+03
5.300000e-07	-2.829228e-06	-1.683968e-08	-2.029764e+01	-1.106789e+03
5.400000e-07	-2.742445e-06	-1.662052e-08	-1.967504e+01	-1.092579e+03
5.500000e-07	-2.654757e-06	-1.639526e-08	-1.904594e+01	-1.077807e+03
5.600000e-07	-2.566024e-06	-1.615504e-08	-1.840935e+01	-1.062435e+03
5.700000e-07	-2.476129e-06	-1.590749e-08	-1.776442e+01	-1.046425e+03
5.800000e-07	-2.385110e-06	-1.564995e-08	-1.711143e+01	-1.029736e+03
5.900000e-07	-2.293229e-06	-1.539031e-08	-1.645225e+01	-1.012330e+03
6.000000e-07	-2.200651e-06	-1.511974e-08	-1.578806e+01	-9.941712e+02
6.100000e-07	-2.107322e-06	-1.483323e-08	-1.511850e+01	-9.752224e+02
6.200000e-07	-2.013258e-06	-1.452848e-08	-1.444366e+01	-9.554459e+02
6.300000e-07	-1.918472e-06	-1.420491e-08	-1.376363e+01	-9.348001e+02
6.400000e-07	-1.823060e-06	-1.387052e-08	-1.307913e+01	-9.132383e+02
6.500000e-07	-1.727059e-06	-1.352477e-08	-1.239039e+01	-8.907060e+02
6.600000e-07	-1.630366e-06	-1.316537e-08	-1.169669e+01	-8.671413e+02
6.700000e-07	-1.532970e-06	-1.278843e-08	-1.099794e+01	-8.424736e+02
6.800000e-07	-1.434906e-06	-1.239290e-08	-1.029440e+01	-8.166256e+02
6.900000e-07	-1.336250e-06	-1.197597e-08	-9.586616e+00	-7.895145e+02
7.000000e-07	-1.237133e-06	-1.154056e-08	-8.875527e+00	-7.610561e+02
7.100000e-07	-1.137606e-06	-1.108387e-08	-8.161492e+00	-7.311685e+02
7.200000e-07	-1.037707e-06	-1.060509e-08	-7.444788e+00	-6.997787e+02
7.300000e-07	-9.375105e-07	-1.010411e-08	-6.725954e+00	-6.668292e+02
7.400000e-07	-8.370528e-07	-9.577282e-09	-6.005243e+00	-6.322863e+02
7.500000e-07	-7.363444e-07	-9.026406e-09	-5.282733e+00	-5.961481e+02
7.600000e-07	-6.353876e-07	-8.452151e-09	-4.558442e+00	-5.584515e+02
7.700000e-07	-5.342368e-07	-7.855814e-09	-3.832759e+00	-5.192770e+02
7.800000e-07	-4.329330e-07	-7.239272e-09	-3.105978e+00	-4.787500e+02
7.900000e-07	-3.315046e-07	-6.603172e-09	-2.378304e+00	-4.370370e+02
8.000000e-07	-2.299240e-07	-5.950444e-09	-1.649537e+00	-3.943365e+02
8.100000e-07	-1.282612e-07	-5.289287e-09	-9.201804e-01	-3.508643e+02
8.200000e-07	-2.657838e-08	-4.620106e-09	-1.906805e-01	-3.068351e+02
8.300000e-07	7.518847e-08	-3.944835e-09	5.394224e-01	-2.624415e+02
8.400000e-07	1.770058e-07	-3.267148e-09	1.269888e+00	-2.178333e+02
8.500000e-07	2.787638e-07	-2.590492e-09	1.999926e+00	-1.731012e+02
8.600000e-07	3.803901e-07	-1.915438e-09	2.729021e+00	-1.282664e+02
8.700000e-07	4.819356e-07	-1.235013e-09	3.457536e+00	-8.327933e+01
8.800000e-07	5.833552e-07	-5.478837e-10	4.185148e+00	-3.802904e+01
8.900000e-07	6.845800e-07	1.502253e-10	4.911362e+00	7.638496e+00
9.000000e-07	7.855644e-07	8.587808e-10	5.635851e+00	5.389359e+01
9.100000e-07	8.862688e-07	1.575561e-09	6.358332e+00	1.008916e+02
9.200000e-07	9.867497e-07	2.301886e-09	7.079209e+00	1.487413e+02
9.300000e-07	1.086926e-06	3.039236e-09	7.797904e+00	1.974768e+02
9.400000e-07	1.186695e-06	3.791483e-09	8.513672e+00	2.470386e+02
9.500000e-07	1.286088e-06	4.557174e-09	9.226746e+00	2.972643e+02
9.600000e-07	1.385080e-06	5.330831e-09	9.936939e+00	3.478933e+02
9.700000e-07	1.483497e-06	6.104603e-09	1.064300e+01	3.985827e+02
9.800000e-07	1.581179e-06	6.870940e-09	1.134380e+01	4.489337e+02
9.900000e-07	1.678058e-06	7.623430e-09	1.203884e+01	4.985243e+02
1.000000e-06	1.774117e-06	8.357666e-09	1.272799e+01	5.469439e+02
1.010000e-06	1.869480e-06	9.070065e-09	1.341215e+01	5.938252e+02
1.020000e-06	1.964285e-06	9.753165e-09	1.409231e+01	6.388700e+02
1.030000e-06	2.058457e-06	1.040361e-08	1.476793e+01	6.818646e+02
1.040000e-06	2.151869e-06	1.102119e-08	1.543809e+01	7.226860e+02
1.050000e-06	2.244544e-06	1.160519e-08	1.610297e+01	7.612961e+02
1.060000e-06	2.336582e-06	1.215719e-08	1.676327e+01	7.977295e+02
1.070000e-06	2.427947e-06	1.267809e-08	1.741875e+01	8.320744e+02
1.080000e-06	2.518464e-06	1.317059e-08	1.806814e+01	8.644523e+02
1.090000e-06	2.607882e-06	1.363699e-08	1.870965e+01	8.949990e+02
1.100000e-06	2.696142e-06	1.407668e-08	1.934285e+01	9.238491e+02
1.110000e-06	2.783475e-06	1.449061e-08	1.996940e+01	9.511254e+02
1.120000e-06	2.869944e-06	1.488166e-08	2.058976e+01	9.769348e+02
1.130000e-06	2.955448e-06	1.525363e-08	2.120318e+01	1.001368e+03
1.140000e-06	3.039996e-06	1.560612e-08	2.180976e+01	1.024503e+03
1.150000e-06	3.123668e-06	1.593923e-08	2.241004e+01	1.046409e+03
1.160000e-06	3.206352e-06	1.625368e-08	2.300323e+01	1.067154e+03
1.170000e-06	3.287782e-06	1.655194e-08	2.358744e+01	1.086804e+03
1.180000e-06	3.367951e-06	1.683453e-08	2.416259e+01	1.105428e+03
1.190000e-06	3.446902e-06	1.710325e-08	2.472901e+01	1.123094e+03
1.200000e-06	3.524634e-06	1.736007e-08	2.528667e+01	1.139869e+03
1.210000e-06	3.601195e-06	1.760331e-08	2.583594e+01	1.155813e+03
1.220000e-06	3.676463e-06	1.783395e-08	2.637594e+01	1.170984e+03
1.230000e-06	3.750175e-06	1.805201e-08	2.690477e+01	1.185429e+03
1.240000e-06	3.822267e-06	1.825711e-08	2.742198e+01	1.199188e+03
1.250000e-06	3.892930e-06	1.845267e-08	2.792893e+01	1.212296e+03
1.260000e-06	3.962237e-06	1.864086e-08	2.842616e+01	1.224782e+03
1.270000e-06	4.030231e-06	1.882056e-08	2.891396e+01	1.236673e+03
1.280000e-06	4.096822e-06	1.899257e-08	2.939171e+01	1.247996e+03
1.290000e-06	4.161743e-06	1.915766e-08	2.985747e+01	1.258775e+03
1.300000e-06	4.225068e-06	1.931673e-08	3.031178e+01	1.269034e+03
1.310000e-06	4.286987e-06	1.946806e-08	3.075600e+01	1.278791e+03
1.320000e-06	4.347555e-06	1.961139e-08	3.119053e+01	1.288064e+03
1.330000e-06	4.406721e-06	1.974528e-08	3.161501e+01	1.296865e+03
1.340000e-06	4.464164e-06	1.986988e-08	3.202712e+01	1.305202e+03
1.350000e-06	4.519819e-06	1.998750e-08	3.242640e+01	1.313085e+03
1.360000e-06	4.573879e-06	2.010051e-08	3.281425e+01	1.320523e+03
1.370000e-06	4.626222e-06	2.020964e-08	3.318977e+01	1.327531e+03
1.380000e-06	4.676540e-06	2.031114e-08	3.355076e+01	1.334129e+03
1.390000e-06	4.724885e-06	2.040340e-08	3.389760e+01	1.340345e+03
1.400000e-06	4.771552e-06	2.048904e-08	3.423240e+01	1.346215e+03
1.410000e-06	4.816652e-06	2.057184e-08	3.455596e+01	1.351773e+03
1.420000e-06	4.860219e-06	2.065306e-08	3.486852e+01	1.357055e+03
1.430000e-06	4.901952e-06	2.073171e-08	3.516793e+01	1.362089e+03
1.440000e-06	4.941809e-06	2.080576e-08	3.545387e+01	1.366892e+03
1.450000e-06	4.980064e-06	2.087504e-08	3.572833e+01	1.371468e+03
1.460000e-06	5.016769e-06	2.094080e-08	3.599166e+01	1.375812e+03
1.470000e-06	5.051808e-06	2.100329e-08	3.624303e+01	1.379907e+03
1.480000e-06	5.084858e-06	2.106218e-08	3.648015e+01	1.383734e+03
1.490000e-06	5.116032e-06	2.111645e-08	3.670379e+01	1.387272e+03
1.500000e-06	5.145575e-06	2.116459e-08	3.691575e+01	1.390511e+03
1.510000e-06	5.173435e-06	2.120678e-08	3.711562e+01	1.393447e+03
1.520000e-06	5.199345e-06	2.124545e-08	3.730151e+01	1.396089e+03
1.530000e-06	5.223178e-06	2.128219e-08	3.747249e+01	1.398456e+03
1.540000e-06	5.245144e-06	2.131533e-08	3.763008e+01	1.400571e+03
1.550000e-06	5.265447e-06	2.134284e-08	3.777574e+01	1.402460e+03
1.560000e-06	5.284015e-06	2.136691e-08	3.790895e+01	1.404142e+03
1.570000e-06	5.300565e-06	2.138911e-08	3.802768e+01	1.405632e+03
1.580000e-06	5.315120e-06	2.140944e-08	3.813211e+01	1.406934e+03
1.590000e-06	5.327705e-06	2.142709e-08	3.822240e+01	1.408044e+03
1.600000e-06	5.338083e-06	2.144128e-08	3.829685e+01	1.408955e+03
1.610000e-06	5.346334e-06	2.145153e-08	3.835604e+01	1.409660e+03
1.620000e-06	5.352703e-06	2.145911e-08	3.840174e+01	1.410153e+03
1.630000e-06	5.357290e-06	2.146493e-08	3.843464e+01	1.410438e+03
1.640000e-06	5.360061e-06	2.146820e-08	3.845452e+01	1.410525e+03
1.650000e-06	5.360824e-06	2.147089e-08	3.846000e+01	1.410427e+03
1.660000e-06	5.359703e-06	2.146507e-08	3.845196e+01	1.410160e+03
1.670000e-06	5.356924e-06	2.145270e-08	3.843202e+01	1.409738e+03
1.680000e-06	5.352505e-06	2.144658e-08	3.840032e+01	1.409166e+03
1.690000e-06	5.346253e-06	2.143810e-08	3.835547e+01	1.408441e+03
1.700000e-06	5.338154e-06	2.142594e-08	3.829736e+01	1.407551e+03
1.710000e-06	5.328443e-06	2.141329e-08	3.822769e+01	1.406480e+03
1.720000e-06	5.317107e-06	2.140957e-08	3.814636e+01	1.405209e+03
1.730000e-06	5.303875e-06	2.139938e-08	3.805143e+01	1.403728e+03
1.740000e-06	5.288594e-06	2.127125e-08	3.794180e+01	1.402036e+03
1.750000e-06	5.271095e-06	2.120945e-08	3.781626e+01	1.400146e+03
1.760000e-06	5.250966e-06	2.125220e-08	3.767185e+01	1.398088e+03
1.770000e-06	5.228314e-06	2.125076e-08	3.750933e+01	1.395897e+03
1.780000e-06	5.204088e-06	2.135464e-08	3.733553e+01	1.393616e+03
1.790000e-06	5.179157e-06	2.119703e-08	3.715667e+01	1.391280e+03
1.800000e-06	5.153146e-06	2.098855e-08	3.697006e+01	1.388912e+03
1.810000e-06	5.125078e-06	2.120635e-08	3.676869e+01	1.386516e+03
1.820000e-06	5.095032e-06	2.106066e-08	3.655313e+01	1.384076e+03
1.830000e-06	5.063321e-06	2.096512e-08	3.632563e+01	1.381555e+03
1.840000e-06	5.029651e-06	2.122261e-08	3.608407e+01	1.378902e+03
1.850000e-06	4.994325e-06	2.093566e-08	3.583064e+01	1.376059e+03
1.860000e-06	4.957398e-06	2.080360e-08	3.556571e+01	1.372972e+03
1.870000e-06	4.918463e-06	2.093795e-08	3.528638e+01	1.369598e+03
1.880000e-06	4.877835e-06	2.074495e-08	3.499491e+01	1.365910e+03
1.890000e-06	4.835543e-06	2.081598e-08	3.469149e+01	1.361900e+03
1.900000e-06	4.791530e-06	2.074238e-08	3.437573e+01	1.357576e+03
1.910000e-06	4.745757e-06	2.057014e-08	3.404734e+01	1.352957e+03
1.920000e-06	4.697983e-06	2.070223e-08	3.370460e+01	1.348069e+03
1.930000e-06	4.648572e-06	2.048154e-08	3.335011e+01	1.342935e+03
1.940000e-06	4.597502e-06	2.038740e-08	3.298372e+01	1.337570e+03
1.950000e-06	4.544306e-06	2.038708e-08	3.260208e+01	1.331982e+03
1.960000e-06	4.489180e-06	2.024437e-08	3.220659e+01	1.326166e+03
1.970000e-06	4.432385e-06	2.020589e-08	3.179912e+01	1.320110e+03
1.980000e-06	4.374058e-06	1.999967e-08	3.138068e+01	1.313800e+03
1.990000e-06	4.314335e-06	1.996880e-08	3.095220e+01	1.307218e+03
2.000000e-06	4.253126e-06	1.992731e-08	3.051307e+01	1.300355e+03
2.010000e-06	4.190221e-06	1.972664e-08	3.006178e+01	1.293204e+03
2.020000e-06	4.125637e-06	1.965266e-08	2.959844e+01	1.285765e+03
2.030000e-06	4.059658e-06	1.948913e-08	2.912508e+01	1.278042e+03
2.040000e-06	3.992332e-06	1.942240e-08	2.864207e+01	1.270038e+03
2.050000e-06	3.923572e-06	1.927706e-08	2.814876e+01	1.261753e+03
2.060000e-06	3.853244e-06	1.910087e-08	2.764421e+01	1.253183e+03
2.070000e-06	3.781474e-06	1.904421e-08	2.712932e+01	1.244315e+03
2.080000e-06	3.708507e-06	1.886523e-08	2.660583e+01	1.235132e+03
2.090000e-06	3.634220e-06	1.873055e-08	2.607287e+01	1.225610e+03
2.100000e-06	3.558547e-06	1.857271e-08	2.552997e+01	1.215727e+03
2.110000e-06	3.481427e-06	1.843883e-08	2.497670e+01	1.205459e+03
2.120000e-06	3.402808e-06	1.828741e-08	2.441267e+01	1.194788e+03
2.130000e-06	3.322897e-06	1.806809e-08	2.383936e+01	1.183699e+03
2.140000e-06	3.241846e-06	1.790784e-08	2.325788e+01	1.172182e+03
2.150000e-06	3.159728e-06	1.771867e-08	2.266874e+01	1.160226e+03
2.160000e-06	3.076567e-06	1.754622e-08	2.207213e+01	1.147823e+03
2.170000e-06	2.992404e-06	1.734807e-08	2.146832e+01	1.134958e+03
2.180000e-06	2.907099e-06	1.714725e-08	2.085631e+01	1.121613e+03
2.190000e-06	2.820505e-06	1.694951e-08	2.023506e+01	1.107762e+03
2.200000e-06	2.732766e-06	1.672132e-08	1.960560e+01	1.093374e+03
2.210000e-06	2.644060e-06	1.649935e-08	1.896920e+01	1.078413e+03
2.220000e-06	2.554472e-06	1.625924e-08	1.832647e+01	1.062839e+03
2.230000e-06	2.464007e-06	1.601941e-08	1.767745e+01	1.046614e+03
2.240000e-06	2.372787e-06	1.575261e-08	1.702302e+01	1.029697e+03
2.250000e-06	2.280891e-06	1.547768e-08	1.636373e+01	1.012053e+03
2.260000e-06	2.188205e-06	1.519463e-08	1.569877e+01	9.936427e+02
2.270000e-06	2.094612e-06	1.490481e-08	1.502731e+01	9.744311e+02
2.280000e-06	2.000053e-06	1.461222e-08	1.434892e+01	9.543789e+02
2.290000e-06	1.904661e-06	1.429801e-08	1.366455e+01	9.334431e+02
2.300000e-06	1.808627e-06	1.396650e-08	1.297558e+01	9.115745e+02
2.310000e-06	1.712051e-06	1.361529e-08	1.228272e+01	8.887166e+02
2.320000e-06	1.614949e-06	1.325229e-08	1.158608e+01	8.648043e+02
2.330000e-06	1.517316e-06	1.287028e-08	1.088563e+01	8.397650e+02
2.340000e-06	1.419118e-06	1.247085e-08	1.018113e+01	8.135191e+02
2.350000e-06	1.320413e-06	1.205282e-08	9.473003e+00	7.859831e+02
2.360000e-06	1.221378e-06	1.161469e-08	8.762495e+00	7.570729e+02
2.370000e-06	1.122082e-06	1.115341e-08	8.050120e+00	7.267088e+02
2.380000e-06	1.022548e-06	1.066957e-08	7.336037e+00	6.948218e+02
2.390000e-06	9.227993e-07	1.016305e-08	6.620411e+00	6.613615e+02
2.400000e-06	8.227838e-07	9.628381e-09	5.902873e+00	6.263032e+02
2.410000e-06	7.224687e-07	9.067084e-09	5.183186e+00	5.896570e+02
2.420000e-06	6.218233e-07	8.478108e-09	4.461128e+00	5.514734e+02
2.430000e-06	5.208522e-07	7.869167e-09	3.736734e+00	5.118474e+02
2.440000e-06	4.196880e-07	7.246055e-09	3.010955e+00	4.709182e+02
2.450000e-06	3.183893e-07	6.606465e-09	2.284211e+00	4.288639e+02
2.460000e-06	2.168998e-07	5.947295e-09	1.556098e+00	3.858904e+02
2.470000e-06	1.152451e-07	5.278862e-09	8.267998e-01	3.422154e+02
2.480000e-06	1.348822e-08	4.608451e-09	9.676812e-02	2.980487e+02
2.490000e-06	-8.830961e-08	3.929980e-09	-6.335570e-01	2.535713e+02
2.500000e-06	-1.900698e-07	3.243462e-09	-1.363612e+00	2.089156e+02
2.510000e-06	-2.917285e-07	2.554098e-09	-2.092939e+00	1.641506e+02
2.520000e-06	-3.932606e-07	1.862964e-09	-2.821358e+00	1.192744e+02
2.530000e-06	-4.946846e-07	1.168100e-09	-3.549001e+00	7.421630e+01
2.540000e-06	-5.959308e-07	4.724070e-10	-4.275369e+00	2.884903e+01
2.550000e-06	-6.968882e-07	-2.261517e-10	-4.999664e+00	-1.698989e+01
2.560000e-06	-7.974183e-07	-9.336981e-10	-5.720894e+00	-6.346949e+01
2.570000e-06	-8.975278e-07	-1.654792e-09	-6.439107e+00	-1.107335e+02
2.580000e-06	-9.973369e-07	-2.389556e-09	-7.155164e+00	-1.588694e+02
2.590000e-06	-1.096846e-06	-3.137465e-09	-7.869072e+00	-2.078830e+02
2.600000e-06	-1.196045e-06	-3.899092e-09	-8.580747e+00	-2.576819e+02
2.610000e-06	-1.294923e-06	-4.669538e-09	-9.290127e+00	-3.080711e+02
2.620000e-06	-1.393347e-06	-5.445116e-09	-9.996250e+00	-3.587612e+02
2.630000e-06	-1.491173e-06	-6.220399e-09	-1.069807e+01	-4.093882e+02
2.640000e-06	-1.588492e-06	-6.988875e-09	-1.139627e+01	-4.595420e+02
2.650000e-06	-1.685343e-06	-7.743644e-09	-1.209111e+01	-5.088005e+02
2.660000e-06	-1.781616e-06	-8.476883e-09	-1.278179e+01	-5.567638e+02
2.670000e-06	-1.877340e-06	-9.186806e-09	-1.346854e+01	-6.030845e+02
2.680000e-06	-1.972471e-06	-9.868518e-09	-1.415104e+01	-6.474903e+02
2.690000e-06	-2.066876e-06	-1.051794e-08	-1.482833e+01	-6.897966e+02
2.700000e-06	-2.160312e-06	-1.113466e-08	-1.549866e+01	-7.299086e+02
2.710000e-06	-2.252708e-06	-1.171755e-08	-1.616153e+01	-7.678134e+02
2.720000e-06	-2.344299e-06	-1.226853e-08	-1.681864e+01	-8.035648e+02
2.730000e-06	-2.435128e-06	-1.278722e-08	-1.747027e+01	-8.372642e+02
2.740000e-06	-2.525079e-06	-1.327415e-08	-1.811560e+01	-8.690395e+02
2.750000e-06	-2.614127e-06	-1.373276e-08	-1.875445e+01	-8.990277e+02
2.760000e-06	-2.702343e-06	-1.416373e-08	-1.938734e+01	-9.273602e+02
2.770000e-06	-2.789806e-06	-1.457214e-08	-2.001482e+01	-9.541553e+02
2.780000e-06	-2.876303e-06	-1.496130e-08	-2.063538e+01	-9.795141e+02
2.790000e-06	-2.961509e-06	-1.532902e-08	-2.124667e+01	-1.003523e+03
2.800000e-06	-3.045554e-06	-1.567734e-08	-2.184962e+01	-1.026256e+03
2.810000e-06	-3.128653e-06	-1.600594e-08	-2.244580e+01	-1.047783e+03
2.820000e-06	-3.210751e-06	-1.631854e-08	-2.303479e+01	-1.068170e+03
2.830000e-06	-3.291789e-06	-1.661666e-08	-2.361618e+01	-1.087484e+03
2.840000e-06	-3.371791e-06	-1.689720e-08	-2.419014e+01	-1.105794e+03
2.850000e-06	-3.450534e-06	-1.716110e-08	-2.475506e+01	-1.123167e+03
2.860000e-06	-3.527746e-06	-1.741027e-08	-2.530900e+01	-1.139669e+03
2.870000e-06	-3.603465e-06	-1.764955e-08	-2.585223e+01	-1.155361e+03
2.880000e-06	-3.677760e-06	-1.787935e-08	-2.638525e+01	-1.170295e+03
2.890000e-06	-3.750732e-06	-1.810201e-08	-2.690877e+01	-1.184516e+03
2.900000e-06	-3.822505e-06	-1.831638e-08	-2.742369e+01	-1.198063e+03
2.910000e-06	-3.892881e-06	-1.851597e-08	-2.792858e+01	-1.210969e+03
2.920000e-06	-3.961594e-06	-1.870264e-08	-2.842154e+01	-1.223262e+03
2.930000e-06	-4.028829e-06	-1.887979e-08	-2.890391e+01	-1.234969e+03
2.940000e-06	-4.094754e-06	-1.904915e-08	-2.937687e+01	-1.246115e+03
