# Temperatura_=_64.07
# Concentracion g/m^3_=_28200.0
# C_Vs_to_Am_M_A/Vsm_=_65563218390.804596
# pendiente_HvsI_1/m_=_3716.3
# ordenada_HvsI_A/m_=_1297.0
# frecuencia_Hz_=_301766.0462447582

Tiempo_(s)	Campo_(V.s)	Magnetizacion_(V.s)	Campo_(kA/m)	Magnetizacion_(A/m)
0.000000e+00	-5.324018e-06	-2.219723e-08	-3.830146e+01	-1.452428e+03
1.000000e-08	-5.322155e-06	-2.219989e-08	-3.828806e+01	-1.452091e+03
2.000000e-08	-5.318421e-06	-2.218949e-08	-3.826120e+01	-1.451575e+03
3.000000e-08	-5.313054e-06	-2.217525e-08	-3.822259e+01	-1.450879e+03
4.000000e-08	-5.306104e-06	-2.216231e-08	-3.817259e+01	-1.449997e+03
5.000000e-08	-5.297550e-06	-2.214379e-08	-3.811105e+01	-1.448922e+03
6.000000e-08	-5.286985e-06	-2.211939e-08	-3.803505e+01	-1.447649e+03
7.000000e-08	-5.274438e-06	-2.208339e-08	-3.794478e+01	-1.446176e+03
8.000000e-08	-5.259989e-06	-2.204664e-08	-3.784083e+01	-1.444508e+03
9.000000e-08	-5.243291e-06	-2.211354e-08	-3.772071e+01	-1.442655e+03
1.000000e-07	-5.224384e-06	-2.212581e-08	-3.758469e+01	-1.440636e+03
1.100000e-07	-5.203559e-06	-2.201145e-08	-3.743487e+01	-1.438473e+03
1.200000e-07	-5.180961e-06	-2.196211e-08	-3.727230e+01	-1.436191e+03
1.300000e-07	-5.156859e-06	-2.182169e-08	-3.709891e+01	-1.433810e+03
1.400000e-07	-5.131255e-06	-2.173188e-08	-3.691471e+01	-1.431344e+03
1.500000e-07	-5.103991e-06	-2.197891e-08	-3.671857e+01	-1.428794e+03
1.600000e-07	-5.075138e-06	-2.180153e-08	-3.651100e+01	-1.426151e+03
1.700000e-07	-5.044832e-06	-2.167168e-08	-3.629298e+01	-1.423392e+03
1.800000e-07	-5.012781e-06	-2.187740e-08	-3.606240e+01	-1.420488e+03
1.900000e-07	-4.978600e-06	-2.155047e-08	-3.581649e+01	-1.417401e+03
2.000000e-07	-4.942792e-06	-2.147279e-08	-3.555889e+01	-1.414097e+03
2.100000e-07	-4.905451e-06	-2.165490e-08	-3.529025e+01	-1.410545e+03
2.200000e-07	-4.866306e-06	-2.141396e-08	-3.500864e+01	-1.406720e+03
2.300000e-07	-4.825333e-06	-2.135007e-08	-3.471388e+01	-1.402611e+03
2.400000e-07	-4.782418e-06	-2.135833e-08	-3.440515e+01	-1.398214e+03
2.500000e-07	-4.737720e-06	-2.120692e-08	-3.408359e+01	-1.393534e+03
2.600000e-07	-4.691284e-06	-2.122786e-08	-3.374952e+01	-1.388580e+03
2.700000e-07	-4.642861e-06	-2.108954e-08	-3.340116e+01	-1.383363e+03
2.800000e-07	-4.592312e-06	-2.094756e-08	-3.303751e+01	-1.377889e+03
2.900000e-07	-4.539821e-06	-2.089965e-08	-3.265988e+01	-1.372164e+03
3.000000e-07	-4.485598e-06	-2.082939e-08	-3.226980e+01	-1.366187e+03
3.100000e-07	-4.429779e-06	-2.074029e-08	-3.186823e+01	-1.359955e+03
3.200000e-07	-4.372169e-06	-2.061766e-08	-3.145378e+01	-1.353460e+03
3.300000e-07	-4.312839e-06	-2.054369e-08	-3.102695e+01	-1.346699e+03
3.400000e-07	-4.252094e-06	-2.040243e-08	-3.058995e+01	-1.339665e+03
3.500000e-07	-4.189904e-06	-2.026477e-08	-3.014255e+01	-1.332359e+03
3.600000e-07	-4.126345e-06	-2.018616e-08	-2.968530e+01	-1.324779e+03
3.700000e-07	-4.061336e-06	-2.008183e-08	-2.921762e+01	-1.316927e+03
3.800000e-07	-3.994696e-06	-1.997129e-08	-2.873820e+01	-1.308800e+03
3.900000e-07	-3.926525e-06	-1.979748e-08	-2.824778e+01	-1.300394e+03
4.000000e-07	-3.857002e-06	-1.963509e-08	-2.774762e+01	-1.291698e+03
4.100000e-07	-3.786276e-06	-1.954143e-08	-2.723881e+01	-1.282695e+03
4.200000e-07	-3.714421e-06	-1.940417e-08	-2.672188e+01	-1.273364e+03
4.300000e-07	-3.641144e-06	-1.925815e-08	-2.619472e+01	-1.263682e+03
4.400000e-07	-3.566173e-06	-1.909559e-08	-2.565537e+01	-1.253623e+03
4.500000e-07	-3.489710e-06	-1.893052e-08	-2.510529e+01	-1.243168e+03
4.600000e-07	-3.412016e-06	-1.875463e-08	-2.454635e+01	-1.232300e+03
4.700000e-07	-3.332927e-06	-1.857980e-08	-2.397738e+01	-1.221006e+03
4.800000e-07	-3.252440e-06	-1.842299e-08	-2.339835e+01	-1.209279e+03
4.900000e-07	-3.170799e-06	-1.822924e-08	-2.281101e+01	-1.197113e+03
5.000000e-07	-3.088092e-06	-1.803482e-08	-2.221602e+01	-1.184502e+03
5.100000e-07	-3.004493e-06	-1.782959e-08	-2.161459e+01	-1.171433e+03
5.200000e-07	-2.920036e-06	-1.761908e-08	-2.100700e+01	-1.157890e+03
5.300000e-07	-2.834655e-06	-1.740612e-08	-2.039276e+01	-1.143848e+03
5.400000e-07	-2.748245e-06	-1.718381e-08	-1.977113e+01	-1.129275e+03
5.500000e-07	-2.660894e-06	-1.695188e-08	-1.914271e+01	-1.114134e+03
5.600000e-07	-2.572713e-06	-1.670391e-08	-1.850833e+01	-1.098384e+03
5.700000e-07	-2.483418e-06	-1.645580e-08	-1.786593e+01	-1.081984e+03
5.800000e-07	-2.392880e-06	-1.619487e-08	-1.721459e+01	-1.064893e+03
5.900000e-07	-2.301412e-06	-1.592337e-08	-1.655657e+01	-1.047074e+03
6.000000e-07	-2.209203e-06	-1.563668e-08	-1.589321e+01	-1.028489e+03
6.100000e-07	-2.116213e-06	-1.534232e-08	-1.522423e+01	-1.009103e+03
6.200000e-07	-2.022452e-06	-1.503879e-08	-1.454970e+01	-9.888764e+02
6.300000e-07	-1.927941e-06	-1.471554e-08	-1.386978e+01	-9.677671e+02
6.400000e-07	-1.832830e-06	-1.437465e-08	-1.318555e+01	-9.457251e+02
6.500000e-07	-1.737192e-06	-1.401724e-08	-1.249751e+01	-9.226928e+02
6.600000e-07	-1.640971e-06	-1.364538e-08	-1.180529e+01	-8.986038e+02
6.700000e-07	-1.544055e-06	-1.325897e-08	-1.110807e+01	-8.733841e+02
6.800000e-07	-1.446289e-06	-1.286067e-08	-1.040474e+01	-8.469533e+02
6.900000e-07	-1.347816e-06	-1.244052e-08	-9.696309e+00	-8.192268e+02
7.000000e-07	-1.248867e-06	-1.199677e-08	-8.984465e+00	-7.901191e+02
7.100000e-07	-1.149517e-06	-1.152521e-08	-8.269732e+00	-7.595469e+02
7.200000e-07	-1.049878e-06	-1.102973e-08	-7.552919e+00	-7.274346e+02
7.300000e-07	-9.500112e-07	-1.051589e-08	-6.834466e+00	-6.937192e+02
7.400000e-07	-8.499046e-07	-9.980691e-09	-6.114291e+00	-6.583580e+02
7.500000e-07	-7.495649e-07	-9.419861e-09	-5.392437e+00	-6.213363e+02
7.600000e-07	-6.489852e-07	-8.828279e-09	-4.668858e+00	-5.826757e+02
7.700000e-07	-5.482104e-07	-8.210158e-09	-3.943875e+00	-5.424407e+02
7.800000e-07	-4.472415e-07	-7.572548e-09	-3.217496e+00	-5.007427e+02
7.900000e-07	-3.460962e-07	-6.919452e-09	-2.489848e+00	-4.577396e+02
8.000000e-07	-2.448576e-07	-6.249646e-09	-1.761528e+00	-4.136286e+02
8.100000e-07	-1.434964e-07	-5.568547e-09	-1.032326e+00	-3.686335e+02
8.200000e-07	-4.196111e-08	-4.877320e-09	-3.018720e-01	-3.229851e+02
8.300000e-07	5.964930e-08	-4.175955e-09	4.291225e-01	-2.768980e+02
8.400000e-07	1.612230e-07	-3.468201e-09	1.159853e+00	-2.305461e+02
8.500000e-07	2.627510e-07	-2.761167e-09	1.890254e+00	-1.840410e+02
8.600000e-07	3.641857e-07	-2.055351e-09	2.619985e+00	-1.374180e+02
8.700000e-07	4.654699e-07	-1.344547e-09	3.348633e+00	-9.063120e+01
8.800000e-07	5.665867e-07	-6.289718e-10	4.076076e+00	-4.356177e+01
8.900000e-07	6.675331e-07	9.556780e-11	4.802293e+00	3.961475e+00
9.000000e-07	7.683001e-07	8.310177e-10	5.527221e+00	5.213141e+01
9.100000e-07	8.687926e-07	1.579151e-09	6.250172e+00	1.011254e+02
9.200000e-07	9.689793e-07	2.339864e-09	6.970924e+00	1.510674e+02
9.300000e-07	1.068929e-06	3.113672e-09	7.689971e+00	2.019944e+02
9.400000e-07	1.168644e-06	3.902256e-09	8.407331e+00	2.538338e+02
9.500000e-07	1.268035e-06	4.701999e-09	9.122358e+00	3.063949e+02
9.600000e-07	1.366934e-06	5.509224e-09	9.833848e+00	3.593753e+02
9.700000e-07	1.465138e-06	6.319409e-09	1.054034e+01	4.123832e+02
9.800000e-07	1.562572e-06	7.124959e-09	1.124128e+01	4.649701e+02
9.900000e-07	1.659252e-06	7.913975e-09	1.193681e+01	5.166713e+02
1.000000e-06	1.755230e-06	8.677485e-09	1.262729e+01	5.670460e+02
1.010000e-06	1.850554e-06	9.413292e-09	1.331305e+01	6.157123e+02
1.020000e-06	1.945211e-06	1.011986e-08	1.399402e+01	6.623733e+02
1.030000e-06	2.039222e-06	1.079410e-08	1.467035e+01	7.068302e+02
1.040000e-06	2.132545e-06	1.143466e-08	1.534172e+01	7.489828e+02
1.050000e-06	2.225132e-06	1.203767e-08	1.600780e+01	7.888190e+02
1.060000e-06	2.317095e-06	1.260528e-08	1.666939e+01	8.263962e+02
1.070000e-06	2.408426e-06	1.314008e-08	1.732643e+01	8.618189e+02
1.080000e-06	2.498828e-06	1.364556e-08	1.797679e+01	8.952168e+02
1.090000e-06	2.588057e-06	1.412643e-08	1.861871e+01	9.267263e+02
1.100000e-06	2.676204e-06	1.458202e-08	1.925286e+01	9.564773e+02
1.110000e-06	2.763448e-06	1.501007e-08	1.988050e+01	9.845865e+02
1.120000e-06	2.849765e-06	1.541136e-08	2.050147e+01	1.011156e+03
1.130000e-06	2.935114e-06	1.579241e-08	2.111547e+01	1.036278e+03
1.140000e-06	3.019583e-06	1.615511e-08	2.172315e+01	1.060035e+03
1.150000e-06	3.103224e-06	1.649806e-08	2.232488e+01	1.082508e+03
1.160000e-06	3.185847e-06	1.682126e-08	2.291927e+01	1.103776e+03
1.170000e-06	3.267171e-06	1.712841e-08	2.350432e+01	1.123920e+03
1.180000e-06	3.347247e-06	1.741970e-08	2.408039e+01	1.143019e+03
1.190000e-06	3.426174e-06	1.769486e-08	2.464821e+01	1.161148e+03
1.200000e-06	3.503888e-06	1.795414e-08	2.520729e+01	1.178375e+03
1.210000e-06	3.580413e-06	1.820024e-08	2.575781e+01	1.194760e+03
1.220000e-06	3.655700e-06	1.843694e-08	2.629943e+01	1.210355e+03
1.230000e-06	3.729403e-06	1.866388e-08	2.682966e+01	1.225203e+03
1.240000e-06	3.801479e-06	1.887687e-08	2.734818e+01	1.239340e+03
1.250000e-06	3.872170e-06	1.907736e-08	2.785674e+01	1.252802e+03
1.260000e-06	3.941499e-06	1.926866e-08	2.835550e+01	1.265621e+03
1.270000e-06	4.009538e-06	1.945138e-08	2.884498e+01	1.277828e+03
1.280000e-06	4.076165e-06	1.962750e-08	2.932430e+01	1.289456e+03
1.290000e-06	4.141109e-06	1.979684e-08	2.979151e+01	1.300533e+03
1.300000e-06	4.204511e-06	1.995891e-08	3.024763e+01	1.311086e+03
1.310000e-06	4.266508e-06	2.011345e-08	3.069365e+01	1.321134e+03
1.320000e-06	4.327083e-06	2.025988e-08	3.112943e+01	1.330692e+03
1.330000e-06	4.386367e-06	2.039692e-08	3.155592e+01	1.339769e+03
1.340000e-06	4.443962e-06	2.052562e-08	3.197026e+01	1.348369e+03
1.350000e-06	4.499728e-06	2.064719e-08	3.237145e+01	1.356499e+03
1.360000e-06	4.553949e-06	2.076314e-08	3.276152e+01	1.364166e+03
1.370000e-06	4.606459e-06	2.087261e-08	3.313928e+01	1.371387e+03
1.380000e-06	4.656965e-06	2.097586e-08	3.350262e+01	1.378184e+03
1.390000e-06	4.705450e-06	2.107367e-08	3.385143e+01	1.384589e+03
1.400000e-06	4.752204e-06	2.116488e-08	3.418778e+01	1.390639e+03
1.410000e-06	4.797387e-06	2.125185e-08	3.451283e+01	1.396372e+03
1.420000e-06	4.841068e-06	2.133547e-08	3.482708e+01	1.401823e+03
1.430000e-06	4.882976e-06	2.141459e-08	3.512857e+01	1.407021e+03
1.440000e-06	4.923003e-06	2.148875e-08	3.541653e+01	1.411983e+03
1.450000e-06	4.961378e-06	2.155929e-08	3.569260e+01	1.416714e+03
1.460000e-06	4.998133e-06	2.162769e-08	3.595702e+01	1.421210e+03
1.470000e-06	5.033218e-06	2.169258e-08	3.620942e+01	1.425454e+03
1.480000e-06	5.066377e-06	2.175363e-08	3.644797e+01	1.429431e+03
1.490000e-06	5.097678e-06	2.180959e-08	3.667315e+01	1.433123e+03
1.500000e-06	5.127367e-06	2.186056e-08	3.688674e+01	1.436516e+03
1.510000e-06	5.155399e-06	2.190790e-08	3.708841e+01	1.439608e+03
1.520000e-06	5.181508e-06	2.195153e-08	3.727623e+01	1.442401e+03
1.530000e-06	5.205578e-06	2.198940e-08	3.744940e+01	1.444908e+03
1.540000e-06	5.227778e-06	2.202109e-08	3.760910e+01	1.447147e+03
1.550000e-06	5.248256e-06	2.204832e-08	3.775642e+01	1.449136e+03
1.560000e-06	5.267012e-06	2.207275e-08	3.789136e+01	1.450895e+03
1.570000e-06	5.283770e-06	2.209694e-08	3.801192e+01	1.452438e+03
1.580000e-06	5.298523e-06	2.211989e-08	3.811805e+01	1.453777e+03
1.590000e-06	5.311395e-06	2.213911e-08	3.821065e+01	1.454915e+03
1.600000e-06	5.322086e-06	2.215401e-08	3.828757e+01	1.455856e+03
1.610000e-06	5.330559e-06	2.216519e-08	3.834852e+01	1.456599e+03
1.620000e-06	5.337143e-06	2.217402e-08	3.839589e+01	1.457146e+03
1.630000e-06	5.341982e-06	2.218051e-08	3.843070e+01	1.457496e+03
1.640000e-06	5.345032e-06	2.218338e-08	3.845264e+01	1.457655e+03
1.650000e-06	5.346055e-06	2.218628e-08	3.846000e+01	1.457628e+03
1.660000e-06	5.345165e-06	2.218277e-08	3.845360e+01	1.457418e+03
1.670000e-06	5.342635e-06	2.217139e-08	3.843540e+01	1.457029e+03
1.680000e-06	5.338536e-06	2.216768e-08	3.840591e+01	1.456462e+03
1.690000e-06	5.332589e-06	2.215938e-08	3.836313e+01	1.455712e+03
1.700000e-06	5.324725e-06	2.214507e-08	3.830655e+01	1.454775e+03
1.710000e-06	5.315233e-06	2.213093e-08	3.823826e+01	1.453643e+03
1.720000e-06	5.304121e-06	2.212271e-08	3.815833e+01	1.452313e+03
1.730000e-06	5.291211e-06	2.213420e-08	3.806545e+01	1.450782e+03
1.740000e-06	5.276265e-06	2.200644e-08	3.795793e+01	1.449059e+03
1.750000e-06	5.259117e-06	2.190726e-08	3.783456e+01	1.447156e+03
1.760000e-06	5.239477e-06	2.195820e-08	3.769327e+01	1.445092e+03
1.770000e-06	5.217232e-06	2.194042e-08	3.753324e+01	1.442893e+03
1.780000e-06	5.193208e-06	2.207356e-08	3.736041e+01	1.440580e+03
1.790000e-06	5.168463e-06	2.198024e-08	3.718239e+01	1.438173e+03
1.800000e-06	5.142836e-06	2.166376e-08	3.699802e+01	1.435682e+03
1.810000e-06	5.115235e-06	2.189884e-08	3.679946e+01	1.433106e+03
1.820000e-06	5.085515e-06	2.178443e-08	3.658565e+01	1.430432e+03
1.830000e-06	5.054202e-06	2.155671e-08	3.636039e+01	1.427635e+03
1.840000e-06	5.020981e-06	2.191314e-08	3.612139e+01	1.424681e+03
1.850000e-06	4.985998e-06	2.168469e-08	3.586972e+01	1.421536e+03
1.860000e-06	4.949474e-06	2.146229e-08	3.560696e+01	1.418163e+03
1.870000e-06	4.910908e-06	2.169369e-08	3.532951e+01	1.414533e+03
1.880000e-06	4.870626e-06	2.145762e-08	3.503972e+01	1.410628e+03
1.890000e-06	4.828743e-06	2.146825e-08	3.473842e+01	1.406436e+03
1.900000e-06	4.785111e-06	2.143199e-08	3.442452e+01	1.401957e+03
1.910000e-06	4.739808e-06	2.116590e-08	3.409861e+01	1.397197e+03
1.920000e-06	4.692512e-06	2.139057e-08	3.375835e+01	1.392166e+03
1.930000e-06	4.643447e-06	2.120474e-08	3.340538e+01	1.386873e+03
1.940000e-06	4.592785e-06	2.101895e-08	3.304091e+01	1.381327e+03
1.950000e-06	4.540125e-06	2.103433e-08	3.266207e+01	1.375530e+03
1.960000e-06	4.485506e-06	2.086988e-08	3.226914e+01	1.369480e+03
1.970000e-06	4.429103e-06	2.086010e-08	3.186336e+01	1.363172e+03
1.980000e-06	4.371051e-06	2.063590e-08	3.144574e+01	1.356601e+03
1.990000e-06	4.311659e-06	2.060080e-08	3.101846e+01	1.349761e+03
2.000000e-06	4.250909e-06	2.061697e-08	3.058142e+01	1.342649e+03
2.010000e-06	4.188475e-06	2.034450e-08	3.013227e+01	1.335264e+03
2.020000e-06	4.124271e-06	2.026600e-08	2.967038e+01	1.327606e+03
2.030000e-06	4.058632e-06	2.010461e-08	2.919816e+01	1.319675e+03
2.040000e-06	3.991654e-06	2.005534e-08	2.871632e+01	1.311468e+03
2.050000e-06	3.923349e-06	1.994400e-08	2.822493e+01	1.302980e+03
2.060000e-06	3.853580e-06	1.971483e-08	2.772300e+01	1.294197e+03
2.070000e-06	3.782252e-06	1.966565e-08	2.720986e+01	1.285102e+03
2.080000e-06	3.709646e-06	1.947099e-08	2.668753e+01	1.275673e+03
2.090000e-06	3.635731e-06	1.933213e-08	2.615578e+01	1.265884e+03
2.100000e-06	3.560481e-06	1.917652e-08	2.561442e+01	1.255714e+03
2.110000e-06	3.483810e-06	1.902830e-08	2.506284e+01	1.245142e+03
2.120000e-06	3.405502e-06	1.889273e-08	2.449949e+01	1.234152e+03
2.130000e-06	3.325868e-06	1.865756e-08	2.392659e+01	1.222734e+03
2.140000e-06	3.245132e-06	1.849867e-08	2.334578e+01	1.210882e+03
2.150000e-06	3.163292e-06	1.830106e-08	2.275701e+01	1.198589e+03
2.160000e-06	3.080367e-06	1.813140e-08	2.216044e+01	1.185847e+03
2.170000e-06	2.996516e-06	1.793463e-08	2.155720e+01	1.172644e+03
2.180000e-06	2.911688e-06	1.771173e-08	2.094694e+01	1.158960e+03
2.190000e-06	2.825498e-06	1.750854e-08	2.032689e+01	1.144770e+03
2.200000e-06	2.738068e-06	1.727609e-08	1.969791e+01	1.130038e+03
2.210000e-06	2.649707e-06	1.705309e-08	1.906223e+01	1.114726e+03
2.220000e-06	2.560491e-06	1.679777e-08	1.842040e+01	1.098794e+03
2.230000e-06	2.470385e-06	1.655287e-08	1.777218e+01	1.082200e+03
2.240000e-06	2.379426e-06	1.629127e-08	1.711781e+01	1.064904e+03
2.250000e-06	2.287799e-06	1.602054e-08	1.645863e+01	1.046869e+03
2.260000e-06	2.195576e-06	1.573174e-08	1.579517e+01	1.028058e+03
2.270000e-06	2.102516e-06	1.542534e-08	1.512569e+01	1.008435e+03
2.280000e-06	2.008343e-06	1.511988e-08	1.444820e+01	9.879608e+02
2.290000e-06	1.913192e-06	1.479258e-08	1.376367e+01	9.665897e+02
2.300000e-06	1.817389e-06	1.445598e-08	1.307446e+01	9.442703e+02
2.310000e-06	1.721095e-06	1.410394e-08	1.238171e+01	9.209425e+02
2.320000e-06	1.624316e-06	1.373847e-08	1.168548e+01	8.965376e+02
2.330000e-06	1.526962e-06	1.334519e-08	1.098510e+01	8.709796e+02
2.340000e-06	1.429040e-06	1.292942e-08	1.028064e+01	8.441866e+02
2.350000e-06	1.330658e-06	1.250000e-08	9.572872e+00	8.160734e+02
2.360000e-06	1.231875e-06	1.205803e-08	8.862223e+00	7.865548e+02
2.370000e-06	1.132761e-06	1.159218e-08	8.149185e+00	7.555492e+02
2.380000e-06	1.033383e-06	1.109528e-08	7.434251e+00	7.229838e+02
2.390000e-06	9.337848e-07	1.057191e-08	6.717732e+00	6.888007e+02
2.400000e-06	8.339608e-07	1.002158e-08	5.999589e+00	6.529644e+02
2.410000e-06	7.339279e-07	9.448297e-09	5.279943e+00	6.154698e+02
2.420000e-06	6.336336e-07	8.849709e-09	4.558417e+00	5.763501e+02
2.430000e-06	5.331079e-07	8.230960e-09	3.835227e+00	5.356829e+02
2.440000e-06	4.324468e-07	7.593983e-09	3.111061e+00	4.935932e+02
2.450000e-06	3.316361e-07	6.934968e-09	2.385820e+00	4.502512e+02
2.460000e-06	2.307029e-07	6.250094e-09	1.659697e+00	4.058634e+02
2.470000e-06	1.296034e-07	5.552829e-09	9.323785e-01	3.606576e+02
2.480000e-06	2.832050e-08	4.854132e-09	2.037402e-01	3.148626e+02
2.490000e-06	-7.302876e-08	4.147940e-09	-5.253755e-01	2.686837e+02
2.500000e-06	-1.742738e-07	3.435584e-09	-1.253742e+00	2.222791e+02
2.510000e-06	-2.753771e-07	2.723307e-09	-1.981088e+00	1.757396e+02
2.520000e-06	-3.763954e-07	2.011051e-09	-2.707822e+00	1.290772e+02
2.530000e-06	-4.772876e-07	1.292755e-09	-3.433650e+00	8.222377e+01
2.540000e-06	-5.779862e-07	5.707491e-10	-4.158085e+00	3.504303e+01
2.550000e-06	-6.784893e-07	-1.555294e-10	-4.881113e+00	-1.264598e+01
2.560000e-06	-7.787624e-07	-8.913827e-10	-5.602487e+00	-6.103564e+01
2.570000e-06	-8.787583e-07	-1.644320e-09	-6.321867e+00	-1.102918e+02
2.580000e-06	-9.785009e-07	-2.415277e-09	-7.039424e+00	-1.605166e+02
2.590000e-06	-1.077937e-06	-3.197860e-09	-7.754773e+00	-2.117176e+02
2.600000e-06	-1.177044e-06	-3.992320e-09	-8.467761e+00	-2.637886e+02
2.610000e-06	-1.275793e-06	-4.794877e-09	-9.178173e+00	-3.165055e+02
2.620000e-06	-1.374042e-06	-5.602258e-09	-9.884985e+00	-3.695376e+02
2.630000e-06	-1.471721e-06	-6.410113e-09	-1.058770e+01	-4.224731e+02
2.640000e-06	-1.568862e-06	-7.210849e-09	-1.128653e+01	-4.748548e+02
2.650000e-06	-1.665490e-06	-7.999265e-09	-1.198169e+01	-5.262208e+02
2.660000e-06	-1.761651e-06	-8.765279e-09	-1.267348e+01	-5.761437e+02
2.670000e-06	-1.857416e-06	-9.502920e-09	-1.336242e+01	-6.242639e+02
2.680000e-06	-1.952567e-06	-1.020896e-08	-1.404694e+01	-6.703118e+02
2.690000e-06	-2.046719e-06	-1.087787e-08	-1.472428e+01	-7.141172e+02
2.700000e-06	-2.139832e-06	-1.151227e-08	-1.539414e+01	-7.556065e+02
2.710000e-06	-2.232093e-06	-1.211641e-08	-1.605788e+01	-7.947896e+02
2.720000e-06	-2.323650e-06	-1.268905e-08	-1.671655e+01	-8.317397e+02
2.730000e-06	-2.414429e-06	-1.322756e-08	-1.736962e+01	-8.665708e+02
2.740000e-06	-2.504265e-06	-1.373034e-08	-1.801591e+01	-8.994161e+02
2.750000e-06	-2.593184e-06	-1.420162e-08	-1.865560e+01	-9.304112e+02
2.760000e-06	-2.681361e-06	-1.464635e-08	-1.928996e+01	-9.596825e+02
2.770000e-06	-2.768818e-06	-1.506698e-08	-1.991913e+01	-9.873427e+02
2.780000e-06	-2.855108e-06	-1.546774e-08	-2.053991e+01	-1.013491e+03
2.790000e-06	-2.940077e-06	-1.584817e-08	-2.115118e+01	-1.038215e+03
2.800000e-06	-3.024051e-06	-1.620672e-08	-2.175530e+01	-1.061597e+03
2.810000e-06	-3.107065e-06	-1.654343e-08	-2.235250e+01	-1.083719e+03
2.820000e-06	-3.189066e-06	-1.686169e-08	-2.294243e+01	-1.104658e+03
2.830000e-06	-3.270022e-06	-1.716472e-08	-2.352484e+01	-1.124497e+03
2.840000e-06	-3.349985e-06	-1.745501e-08	-2.410009e+01	-1.143312e+03
2.850000e-06	-3.428715e-06	-1.773068e-08	-2.466648e+01	-1.161177e+03
2.860000e-06	-3.505826e-06	-1.798968e-08	-2.522123e+01	-1.178159e+03
2.870000e-06	-3.581489e-06	-1.823589e-08	-2.576555e+01	-1.194314e+03
2.880000e-06	-3.655842e-06	-1.847227e-08	-2.630046e+01	-1.209692e+03
2.890000e-06	-3.728903e-06	-1.869986e-08	-2.682606e+01	-1.224334e+03
2.900000e-06	-3.800722e-06	-1.891759e-08	-2.734273e+01	-1.238275e+03
2.910000e-06	-3.871044e-06	-1.912367e-08	-2.784864e+01	-1.251551e+03
2.920000e-06	-3.939746e-06	-1.931826e-08	-2.834289e+01	-1.264192e+03
2.930000e-06	-4.007059e-06	-1.950243e-08	-2.882714e+01	-1.276231e+03
2.940000e-06	-4.073047e-06	-1.967717e-08	-2.930187e+01	-1.287700e+03
