# Temperatura_=_61.35
# Concentracion g/m^3_=_28200.0
# C_Vs_to_Am_M_A/Vsm_=_65563218390.804596
# pendiente_HvsI_1/m_=_3716.3
# ordenada_HvsI_A/m_=_1297.0
# frecuencia_Hz_=_301770.0347507992

Tiempo_(s)	Campo_(V.s)	Magnetizacion_(V.s)	Campo_(kA/m)	Magnetizacion_(A/m)
0.000000e+00	-5.321650e-06	-2.218520e-08	-3.829954e+01	-1.450884e+03
1.000000e-08	-5.319552e-06	-2.218294e-08	-3.828444e+01	-1.450538e+03
2.000000e-08	-5.315523e-06	-2.217156e-08	-3.825544e+01	-1.450028e+03
3.000000e-08	-5.309865e-06	-2.215974e-08	-3.821472e+01	-1.449342e+03
4.000000e-08	-5.302686e-06	-2.214752e-08	-3.816305e+01	-1.448467e+03
5.000000e-08	-5.293828e-06	-2.212971e-08	-3.809931e+01	-1.447388e+03
6.000000e-08	-5.283005e-06	-2.210693e-08	-3.802141e+01	-1.446094e+03
7.000000e-08	-5.270216e-06	-2.207524e-08	-3.792937e+01	-1.444586e+03
8.000000e-08	-5.255425e-06	-2.205433e-08	-3.782292e+01	-1.442875e+03
9.000000e-08	-5.238436e-06	-2.209801e-08	-3.770065e+01	-1.440983e+03
1.000000e-07	-5.219346e-06	-2.208146e-08	-3.756326e+01	-1.438940e+03
1.100000e-07	-5.198280e-06	-2.198755e-08	-3.741165e+01	-1.436782e+03
1.200000e-07	-5.175404e-06	-2.193214e-08	-3.724702e+01	-1.434541e+03
1.300000e-07	-5.151020e-06	-2.181285e-08	-3.707153e+01	-1.432237e+03
1.400000e-07	-5.125072e-06	-2.177973e-08	-3.688478e+01	-1.429880e+03
1.500000e-07	-5.097471e-06	-2.192794e-08	-3.668614e+01	-1.427461e+03
1.600000e-07	-5.068391e-06	-2.176796e-08	-3.647685e+01	-1.424955e+03
1.700000e-07	-5.037888e-06	-2.170579e-08	-3.625732e+01	-1.422326e+03
1.800000e-07	-5.005541e-06	-2.179615e-08	-3.602452e+01	-1.419531e+03
1.900000e-07	-4.971125e-06	-2.153972e-08	-3.577683e+01	-1.416526e+03
2.000000e-07	-4.935123e-06	-2.151219e-08	-3.551773e+01	-1.413274e+03
2.100000e-07	-4.897493e-06	-2.158423e-08	-3.524691e+01	-1.409748e+03
2.200000e-07	-4.858058e-06	-2.139828e-08	-3.496310e+01	-1.405933e+03
2.300000e-07	-4.816897e-06	-2.135012e-08	-3.466687e+01	-1.401825e+03
2.400000e-07	-4.773770e-06	-2.131766e-08	-3.435648e+01	-1.397429e+03
2.500000e-07	-4.728775e-06	-2.121970e-08	-3.403266e+01	-1.392755e+03
2.600000e-07	-4.682100e-06	-2.119625e-08	-3.369674e+01	-1.387810e+03
2.700000e-07	-4.633555e-06	-2.104644e-08	-3.334737e+01	-1.382603e+03
2.800000e-07	-4.582893e-06	-2.094622e-08	-3.298275e+01	-1.377136e+03
2.900000e-07	-4.530143e-06	-2.089120e-08	-3.260312e+01	-1.371405e+03
3.000000e-07	-4.475696e-06	-2.080122e-08	-3.221127e+01	-1.365407e+03
3.100000e-07	-4.419721e-06	-2.071381e-08	-3.180842e+01	-1.359136e+03
3.200000e-07	-4.361953e-06	-2.060617e-08	-3.139267e+01	-1.352590e+03
3.300000e-07	-4.302492e-06	-2.051101e-08	-3.096473e+01	-1.345768e+03
3.400000e-07	-4.241589e-06	-2.037500e-08	-3.052641e+01	-1.338675e+03
3.500000e-07	-4.179224e-06	-2.025387e-08	-3.007758e+01	-1.331316e+03
3.600000e-07	-4.115461e-06	-2.015981e-08	-2.961868e+01	-1.323696e+03
3.700000e-07	-4.050210e-06	-2.005594e-08	-2.914907e+01	-1.315818e+03
3.800000e-07	-3.983347e-06	-1.993651e-08	-2.866787e+01	-1.307676e+03
3.900000e-07	-3.914983e-06	-1.976599e-08	-2.817586e+01	-1.299261e+03
4.000000e-07	-3.845251e-06	-1.962633e-08	-2.767400e+01	-1.290553e+03
4.100000e-07	-3.774376e-06	-1.952086e-08	-2.716392e+01	-1.281528e+03
4.200000e-07	-3.702397e-06	-1.937397e-08	-2.664589e+01	-1.272162e+03
4.300000e-07	-3.628937e-06	-1.922317e-08	-2.611720e+01	-1.262426e+03
4.400000e-07	-3.553792e-06	-1.906450e-08	-2.557639e+01	-1.252301e+03
4.500000e-07	-3.477210e-06	-1.890142e-08	-2.502523e+01	-1.241767e+03
4.600000e-07	-3.399376e-06	-1.872771e-08	-2.446507e+01	-1.230815e+03
4.700000e-07	-3.320112e-06	-1.855509e-08	-2.389461e+01	-1.219439e+03
4.800000e-07	-3.239512e-06	-1.838691e-08	-2.331453e+01	-1.207633e+03
4.900000e-07	-3.157747e-06	-1.819363e-08	-2.272608e+01	-1.195392e+03
5.000000e-07	-3.074890e-06	-1.799810e-08	-2.212976e+01	-1.182709e+03
5.100000e-07	-2.991149e-06	-1.779340e-08	-2.152709e+01	-1.169568e+03
5.200000e-07	-2.906549e-06	-1.758465e-08	-2.091823e+01	-1.155948e+03
5.300000e-07	-2.820976e-06	-1.736955e-08	-2.030236e+01	-1.141821e+03
5.400000e-07	-2.734449e-06	-1.714464e-08	-1.967964e+01	-1.127154e+03
5.500000e-07	-2.647097e-06	-1.691081e-08	-1.905097e+01	-1.111909e+03
5.600000e-07	-2.558779e-06	-1.666434e-08	-1.841535e+01	-1.096050e+03
5.700000e-07	-2.469309e-06	-1.641578e-08	-1.777144e+01	-1.079539e+03
5.800000e-07	-2.378728e-06	-1.615380e-08	-1.711953e+01	-1.062342e+03
5.900000e-07	-2.287197e-06	-1.587740e-08	-1.646080e+01	-1.044422e+03
6.000000e-07	-2.194875e-06	-1.558794e-08	-1.579636e+01	-1.025744e+03
6.100000e-07	-2.101839e-06	-1.529231e-08	-1.512679e+01	-1.006269e+03
6.200000e-07	-2.008048e-06	-1.498634e-08	-1.445178e+01	-9.859553e+02
6.300000e-07	-1.913529e-06	-1.466213e-08	-1.377153e+01	-9.647544e+02
6.400000e-07	-1.818346e-06	-1.432205e-08	-1.308651e+01	-9.426111e+02
6.500000e-07	-1.722560e-06	-1.396547e-08	-1.239714e+01	-9.194637e+02
6.600000e-07	-1.626191e-06	-1.359227e-08	-1.170358e+01	-8.952440e+02
6.700000e-07	-1.529170e-06	-1.320243e-08	-1.100533e+01	-8.698783e+02
6.800000e-07	-1.431508e-06	-1.279800e-08	-1.030246e+01	-8.432888e+02
6.900000e-07	-1.333232e-06	-1.237289e-08	-9.595179e+00	-8.153947e+02
7.000000e-07	-1.234383e-06	-1.192527e-08	-8.883766e+00	-7.861146e+02
7.100000e-07	-1.135079e-06	-1.145231e-08	-8.169086e+00	-7.553694e+02
7.200000e-07	-1.035424e-06	-1.095744e-08	-7.451876e+00	-7.230862e+02
7.300000e-07	-9.354777e-07	-1.044310e-08	-6.732567e+00	-6.892048e+02
7.400000e-07	-8.353032e-07	-9.905077e-09	-6.011618e+00	-6.536846e+02
7.500000e-07	-7.348932e-07	-9.340210e-09	-5.288974e+00	-6.165137e+02
7.600000e-07	-6.342886e-07	-8.746201e-09	-4.564930e+00	-5.777174e+02
7.700000e-07	-5.335518e-07	-8.126197e-09	-3.839935e+00	-5.373650e+02
7.800000e-07	-4.326642e-07	-7.485055e-09	-3.113854e+00	-4.955736e+02
7.900000e-07	-3.316020e-07	-6.828073e-09	-2.386516e+00	-4.525065e+02
8.000000e-07	-2.304051e-07	-6.157658e-09	-1.658209e+00	-4.083654e+02
8.100000e-07	-1.290734e-07	-5.477347e-09	-9.289321e-01	-3.633758e+02
8.200000e-07	-2.761483e-08	-4.786634e-09	-1.987419e-01	-3.177669e+02
8.300000e-07	7.386928e-08	-4.087559e-09	5.316320e-01	-2.717479e+02
8.400000e-07	1.753593e-07	-3.385074e-09	1.262048e+00	-2.254841e+02
8.500000e-07	2.767603e-07	-2.681160e-09	1.991824e+00	-1.790770e+02
8.600000e-07	3.780048e-07	-1.975214e-09	2.720474e+00	-1.325508e+02
8.700000e-07	4.791885e-07	-1.264029e-09	3.448686e+00	-8.585072e+01
8.800000e-07	5.802892e-07	-5.479466e-10	4.176300e+00	-3.885198e+01
8.900000e-07	6.811485e-07	1.766518e-10	4.902178e+00	8.618269e+00
9.000000e-07	7.817559e-07	9.105642e-10	5.626242e+00	5.675008e+01
9.100000e-07	8.821573e-07	1.655962e-09	6.348824e+00	1.057142e+02
9.200000e-07	9.823059e-07	2.414631e-09	7.069586e+00	1.556252e+02
9.300000e-07	1.082249e-06	3.187296e-09	7.788869e+00	2.065099e+02
9.400000e-07	1.181902e-06	3.976103e-09	8.506068e+00	2.582866e+02
9.500000e-07	1.281128e-06	4.776677e-09	9.220184e+00	3.107571e+02
9.600000e-07	1.379793e-06	5.584164e-09	9.930270e+00	3.636150e+02
9.700000e-07	1.477729e-06	6.392643e-09	1.063511e+01	4.164677e+02
9.800000e-07	1.574972e-06	7.195070e-09	1.133496e+01	4.688694e+02
9.900000e-07	1.671541e-06	7.980966e-09	1.202996e+01	5.203606e+02
1.000000e-06	1.767392e-06	8.741306e-09	1.271979e+01	5.705072e+02
1.010000e-06	1.862578e-06	9.473137e-09	1.340484e+01	6.189350e+02
1.020000e-06	1.957152e-06	1.017494e-08	1.408548e+01	6.653548e+02
1.030000e-06	2.051096e-06	1.084404e-08	1.476160e+01	7.095747e+02
1.040000e-06	2.144316e-06	1.148076e-08	1.543249e+01	7.515002e+02
1.050000e-06	2.236795e-06	1.208317e-08	1.609806e+01	7.911236e+02
1.060000e-06	2.328655e-06	1.264965e-08	1.675917e+01	8.285047e+02
1.070000e-06	2.419836e-06	1.318172e-08	1.741539e+01	8.637490e+02
1.080000e-06	2.510032e-06	1.368313e-08	1.806452e+01	8.969854e+02
1.090000e-06	2.599055e-06	1.416004e-08	1.870521e+01	9.283480e+02
1.100000e-06	2.687015e-06	1.461163e-08	1.933825e+01	9.579640e+02
1.110000e-06	2.774068e-06	1.503741e-08	1.996477e+01	9.859470e+02
1.120000e-06	2.860218e-06	1.543867e-08	2.058479e+01	1.012397e+03
1.130000e-06	2.945464e-06	1.581930e-08	2.119830e+01	1.037405e+03
1.140000e-06	3.029833e-06	1.618034e-08	2.180549e+01	1.061053e+03
1.150000e-06	3.113327e-06	1.652044e-08	2.240639e+01	1.083424e+03
1.160000e-06	3.195742e-06	1.684182e-08	2.299952e+01	1.104603e+03
1.170000e-06	3.276854e-06	1.714713e-08	2.358329e+01	1.124672e+03
1.180000e-06	3.356748e-06	1.743638e-08	2.415828e+01	1.143713e+03
1.190000e-06	3.435487e-06	1.770930e-08	2.472496e+01	1.161801e+03
1.200000e-06	3.513022e-06	1.796810e-08	2.528297e+01	1.179005e+03
1.210000e-06	3.589384e-06	1.821604e-08	2.583254e+01	1.195380e+03
1.220000e-06	3.664470e-06	1.845398e-08	2.637293e+01	1.210970e+03
1.230000e-06	3.737902e-06	1.868004e-08	2.690141e+01	1.225813e+03
1.240000e-06	3.809728e-06	1.889326e-08	2.741835e+01	1.239937e+03
1.250000e-06	3.880184e-06	1.909433e-08	2.792541e+01	1.253373e+03
1.260000e-06	3.949304e-06	1.928547e-08	2.842286e+01	1.266151e+03
1.270000e-06	4.017178e-06	1.946797e-08	2.891135e+01	1.278304e+03
1.280000e-06	4.083565e-06	1.964323e-08	2.938913e+01	1.289867e+03
1.290000e-06	4.148229e-06	1.981162e-08	2.985451e+01	1.300878e+03
1.300000e-06	4.211388e-06	1.997415e-08	3.030906e+01	1.311368e+03
1.310000e-06	4.273163e-06	2.012885e-08	3.075365e+01	1.321365e+03
1.320000e-06	4.333551e-06	2.027464e-08	3.118826e+01	1.330887e+03
1.330000e-06	4.392517e-06	2.041246e-08	3.161263e+01	1.339944e+03
1.340000e-06	4.449778e-06	2.054080e-08	3.202474e+01	1.348540e+03
1.350000e-06	4.505323e-06	2.066149e-08	3.242449e+01	1.356675e+03
1.360000e-06	4.559283e-06	2.077791e-08	3.281284e+01	1.364352e+03
1.370000e-06	4.611477e-06	2.088810e-08	3.318847e+01	1.371582e+03
1.380000e-06	4.661641e-06	2.099111e-08	3.354950e+01	1.378383e+03
1.390000e-06	4.709840e-06	2.108890e-08	3.389638e+01	1.384784e+03
1.400000e-06	4.756359e-06	2.117998e-08	3.423118e+01	1.390821e+03
1.410000e-06	4.801331e-06	2.126608e-08	3.455484e+01	1.396533e+03
1.420000e-06	4.844743e-06	2.134930e-08	3.486727e+01	1.401957e+03
1.430000e-06	4.886337e-06	2.142856e-08	3.516662e+01	1.407121e+03
1.440000e-06	4.926097e-06	2.150316e-08	3.545277e+01	1.412045e+03
1.450000e-06	4.964241e-06	2.157321e-08	3.572729e+01	1.416733e+03
1.460000e-06	5.000775e-06	2.164008e-08	3.599022e+01	1.421179e+03
1.470000e-06	5.035641e-06	2.170247e-08	3.624115e+01	1.425369e+03
1.480000e-06	5.068576e-06	2.176049e-08	3.647818e+01	1.429284e+03
1.490000e-06	5.099653e-06	2.181624e-08	3.670184e+01	1.432911e+03
1.500000e-06	5.129102e-06	2.186866e-08	3.691378e+01	1.436240e+03
1.510000e-06	5.156874e-06	2.191589e-08	3.711365e+01	1.439271e+03
1.520000e-06	5.182733e-06	2.195707e-08	3.729976e+01	1.442014e+03
1.530000e-06	5.206541e-06	2.199306e-08	3.747111e+01	1.444483e+03
1.540000e-06	5.228498e-06	2.202485e-08	3.762913e+01	1.446696e+03
1.550000e-06	5.248785e-06	2.205164e-08	3.777514e+01	1.448671e+03
1.560000e-06	5.267305e-06	2.207517e-08	3.790842e+01	1.450421e+03
1.570000e-06	5.283793e-06	2.209751e-08	3.802708e+01	1.451954e+03
1.580000e-06	5.298294e-06	2.211849e-08	3.813145e+01	1.453273e+03
1.590000e-06	5.310855e-06	2.213665e-08	3.822185e+01	1.454379e+03
1.600000e-06	5.321223e-06	2.215135e-08	3.829646e+01	1.455271e+03
1.610000e-06	5.329412e-06	2.216317e-08	3.835540e+01	1.455952e+03
1.620000e-06	5.335717e-06	2.217190e-08	3.840077e+01	1.456428e+03
1.630000e-06	5.340317e-06	2.217793e-08	3.843388e+01	1.456708e+03
1.640000e-06	5.343120e-06	2.218030e-08	3.845406e+01	1.456806e+03
1.650000e-06	5.343946e-06	2.218043e-08	3.846000e+01	1.456733e+03
1.660000e-06	5.342879e-06	2.217411e-08	3.845232e+01	1.456496e+03
1.670000e-06	5.340102e-06	2.216303e-08	3.843234e+01	1.456097e+03
1.680000e-06	5.335720e-06	2.215705e-08	3.840080e+01	1.455531e+03
1.690000e-06	5.329504e-06	2.214915e-08	3.835606e+01	1.454785e+03
1.700000e-06	5.321416e-06	2.213791e-08	3.829785e+01	1.453845e+03
1.710000e-06	5.311736e-06	2.212485e-08	3.822819e+01	1.452696e+03
1.720000e-06	5.300399e-06	2.211514e-08	3.814659e+01	1.451333e+03
1.730000e-06	5.287147e-06	2.210319e-08	3.805122e+01	1.449757e+03
1.740000e-06	5.271902e-06	2.199399e-08	3.794150e+01	1.447983e+03
1.750000e-06	5.254464e-06	2.193116e-08	3.781600e+01	1.446038e+03
1.760000e-06	5.234442e-06	2.195798e-08	3.767191e+01	1.443954e+03
1.770000e-06	5.211960e-06	2.195078e-08	3.751011e+01	1.441765e+03
1.780000e-06	5.187860e-06	2.203352e-08	3.733666e+01	1.439501e+03
1.790000e-06	5.162913e-06	2.191340e-08	3.715712e+01	1.437179e+03
1.800000e-06	5.136931e-06	2.172349e-08	3.697013e+01	1.434803e+03
1.810000e-06	5.109049e-06	2.187130e-08	3.676946e+01	1.432358e+03
1.820000e-06	5.079170e-06	2.174173e-08	3.655442e+01	1.429817e+03
1.830000e-06	5.047613e-06	2.164465e-08	3.632731e+01	1.427138e+03
1.840000e-06	5.014172e-06	2.184975e-08	3.608664e+01	1.424279e+03
1.850000e-06	4.979013e-06	2.162974e-08	3.583360e+01	1.421197e+03
1.860000e-06	4.942187e-06	2.152028e-08	3.556857e+01	1.417859e+03
1.870000e-06	4.903427e-06	2.162961e-08	3.528962e+01	1.414240e+03
1.880000e-06	4.862974e-06	2.145318e-08	3.499848e+01	1.410330e+03
1.890000e-06	4.820820e-06	2.145554e-08	3.469510e+01	1.406128e+03
1.900000e-06	4.776886e-06	2.136119e-08	3.437891e+01	1.401640e+03
1.910000e-06	4.731280e-06	2.123328e-08	3.405069e+01	1.396877e+03
1.920000e-06	4.683805e-06	2.136194e-08	3.370901e+01	1.391847e+03
1.930000e-06	4.634647e-06	2.115821e-08	3.335522e+01	1.386555e+03
1.940000e-06	4.583780e-06	2.103910e-08	3.298914e+01	1.381002e+03
1.950000e-06	4.530797e-06	2.101005e-08	3.260783e+01	1.375185e+03
1.960000e-06	4.475940e-06	2.086508e-08	3.221302e+01	1.369099e+03
1.970000e-06	4.419399e-06	2.081097e-08	3.180610e+01	1.362739e+03
1.980000e-06	4.361245e-06	2.063440e-08	3.138757e+01	1.356103e+03
1.990000e-06	4.301708e-06	2.060692e-08	3.095909e+01	1.349193e+03
2.000000e-06	4.240681e-06	2.054995e-08	3.051988e+01	1.342013e+03
2.010000e-06	4.178007e-06	2.033422e-08	3.006882e+01	1.334568e+03
2.020000e-06	4.113712e-06	2.023937e-08	2.960609e+01	1.326865e+03
2.030000e-06	4.047953e-06	2.010332e-08	2.913283e+01	1.318902e+03
2.040000e-06	3.980865e-06	2.003983e-08	2.865000e+01	1.310673e+03
2.050000e-06	3.912347e-06	1.988992e-08	2.815688e+01	1.302164e+03
2.060000e-06	3.842238e-06	1.970951e-08	2.765232e+01	1.293357e+03
2.070000e-06	3.770696e-06	1.962791e-08	2.713743e+01	1.284224e+03
2.080000e-06	3.697958e-06	1.944680e-08	2.661394e+01	1.274741e+03
2.090000e-06	3.623903e-06	1.930497e-08	2.608098e+01	1.264881e+03
2.100000e-06	3.548466e-06	1.914681e-08	2.553805e+01	1.254625e+03
2.110000e-06	3.471561e-06	1.900481e-08	2.498458e+01	1.243957e+03
2.120000e-06	3.393116e-06	1.884560e-08	2.442002e+01	1.232869e+03
2.130000e-06	3.313428e-06	1.863365e-08	2.384650e+01	1.221353e+03
2.140000e-06	3.232635e-06	1.846654e-08	2.326505e+01	1.209407e+03
2.150000e-06	3.150678e-06	1.827352e-08	2.267521e+01	1.197025e+03
2.160000e-06	3.067712e-06	1.809217e-08	2.207811e+01	1.184196e+03
2.170000e-06	2.983819e-06	1.788374e-08	2.147433e+01	1.170903e+03
2.180000e-06	2.898703e-06	1.766868e-08	2.086176e+01	1.157122e+03
2.190000e-06	2.812295e-06	1.746025e-08	2.023989e+01	1.142824e+03
2.200000e-06	2.724863e-06	1.723351e-08	1.961065e+01	1.127974e+03
2.210000e-06	2.636499e-06	1.700478e-08	1.897469e+01	1.112535e+03
2.220000e-06	2.547188e-06	1.675168e-08	1.833193e+01	1.096470e+03
2.230000e-06	2.456994e-06	1.650237e-08	1.768281e+01	1.079741e+03
2.240000e-06	2.366027e-06	1.623884e-08	1.702813e+01	1.062315e+03
2.250000e-06	2.274422e-06	1.596438e-08	1.636885e+01	1.044154e+03
2.260000e-06	2.182143e-06	1.567101e-08	1.570473e+01	1.025223e+03
2.270000e-06	2.088890e-06	1.536563e-08	1.503359e+01	1.005483e+03
2.280000e-06	1.994611e-06	1.505617e-08	1.435507e+01	9.848888e+02
2.290000e-06	1.899472e-06	1.473056e-08	1.367036e+01	9.633904e+02
2.300000e-06	1.803642e-06	1.439322e-08	1.298069e+01	9.409305e+02
2.310000e-06	1.707301e-06	1.403961e-08	1.228733e+01	9.174452e+02
2.320000e-06	1.610453e-06	1.366952e-08	1.159032e+01	8.928645e+02
2.330000e-06	1.513066e-06	1.327288e-08	1.088943e+01	8.671132e+02
2.340000e-06	1.415133e-06	1.285515e-08	1.018461e+01	8.401123e+02
2.350000e-06	1.316746e-06	1.242343e-08	9.476527e+00	8.117806e+02
2.360000e-06	1.218028e-06	1.197723e-08	8.766064e+00	7.820371e+02
2.370000e-06	1.119012e-06	1.150657e-08	8.053452e+00	7.508041e+02
2.380000e-06	1.019758e-06	1.100809e-08	7.339128e+00	7.180121e+02
2.390000e-06	9.202588e-07	1.048393e-08	6.623037e+00	6.836062e+02
2.400000e-06	8.204686e-07	9.932779e-09	5.904854e+00	6.475542e+02
2.410000e-06	7.203709e-07	9.355383e-09	5.184458e+00	6.098552e+02
2.420000e-06	6.199603e-07	8.752427e-09	4.461810e+00	5.705480e+02
2.430000e-06	5.193337e-07	8.131145e-09	3.737607e+00	5.297170e+02
2.440000e-06	4.186020e-07	7.492350e-09	3.012649e+00	4.874948e+02
2.450000e-06	3.177747e-07	6.831354e-09	2.287002e+00	4.440581e+02
2.460000e-06	2.167364e-07	6.149065e-09	1.559837e+00	3.996181e+02
2.470000e-06	1.155453e-07	5.454965e-09	8.315713e-01	3.544040e+02
2.480000e-06	1.425952e-08	4.755259e-09	1.026248e-01	3.086412e+02
2.490000e-06	-8.714642e-08	4.048257e-09	-6.271866e-01	2.625273e+02
2.500000e-06	-1.885174e-07	3.336434e-09	-1.356747e+00	2.162090e+02
2.510000e-06	-2.896903e-07	2.625141e-09	-2.084880e+00	1.697639e+02
2.520000e-06	-3.907246e-07	1.913867e-09	-2.812017e+00	1.231906e+02
2.530000e-06	-4.916533e-07	1.198031e-09	-3.538394e+00	7.641000e+01
2.540000e-06	-5.923714e-07	4.775559e-10	-4.263255e+00	2.927916e+01
2.550000e-06	-6.928829e-07	-2.484434e-10	-4.986629e+00	-1.838409e+01
2.560000e-06	-7.931132e-07	-9.844833e-10	-5.707979e+00	-6.676770e+01
2.570000e-06	-8.930381e-07	-1.737411e-09	-6.427132e+00	-1.160282e+02
2.580000e-06	-9.926973e-07	-2.507968e-09	-7.144372e+00	-1.662551e+02
2.590000e-06	-1.092015e-06	-3.290364e-09	-7.859153e+00	-2.174420e+02
2.600000e-06	-1.190931e-06	-4.083516e-09	-8.571047e+00	-2.694697e+02
2.610000e-06	-1.289458e-06	-4.884318e-09	-9.280139e+00	-3.221037e+02
2.620000e-06	-1.387568e-06	-5.689089e-09	-9.986227e+00	-3.750070e+02
2.630000e-06	-1.485147e-06	-6.493741e-09	-1.068849e+01	-4.277657e+02
2.640000e-06	-1.582173e-06	-7.291834e-09	-1.138679e+01	-4.799254e+02
2.650000e-06	-1.678713e-06	-8.076594e-09	-1.208158e+01	-5.310304e+02
2.660000e-06	-1.774777e-06	-8.837795e-09	-1.277294e+01	-5.806625e+02
2.670000e-06	-1.870332e-06	-9.569330e-09	-1.346065e+01	-6.284728e+02
2.680000e-06	-1.965226e-06	-1.026859e-08	-1.414359e+01	-6.742026e+02
2.690000e-06	-2.059205e-06	-1.093339e-08	-1.481995e+01	-7.176917e+02
2.700000e-06	-2.152204e-06	-1.156534e-08	-1.548926e+01	-7.588754e+02
2.710000e-06	-2.244358e-06	-1.216520e-08	-1.615249e+01	-7.977697e+02
2.720000e-06	-2.335769e-06	-1.273350e-08	-1.681036e+01	-8.344519e+02
2.730000e-06	-2.426379e-06	-1.326886e-08	-1.746248e+01	-8.690370e+02
2.740000e-06	-2.516093e-06	-1.376933e-08	-1.810814e+01	-9.016576e+02
2.750000e-06	-2.604879e-06	-1.423900e-08	-1.874713e+01	-9.324465e+02
2.760000e-06	-2.692821e-06	-1.468151e-08	-1.938004e+01	-9.615267e+02
2.770000e-06	-2.780001e-06	-1.509976e-08	-2.000747e+01	-9.890077e+02
2.780000e-06	-2.866167e-06	-1.549771e-08	-2.062760e+01	-1.014986e+03
2.790000e-06	-2.951087e-06	-1.587467e-08	-2.123876e+01	-1.039548e+03
2.800000e-06	-3.034919e-06	-1.623068e-08	-2.184210e+01	-1.062778e+03
2.810000e-06	-3.117816e-06	-1.656670e-08	-2.243870e+01	-1.084758e+03
2.820000e-06	-3.199712e-06	-1.688479e-08	-2.302810e+01	-1.105571e+03
2.830000e-06	-3.280556e-06	-1.718820e-08	-2.360993e+01	-1.125302e+03
2.840000e-06	-3.360309e-06	-1.747755e-08	-2.418390e+01	-1.144030e+03
2.850000e-06	-3.438763e-06	-1.775217e-08	-2.474854e+01	-1.161828e+03
2.860000e-06	-3.515703e-06	-1.801074e-08	-2.530227e+01	-1.178761e+03
2.870000e-06	-3.591174e-06	-1.825545e-08	-2.584542e+01	-1.194880e+03
2.880000e-06	-3.665245e-06	-1.849032e-08	-2.637851e+01	-1.210227e+03
2.890000e-06	-3.737991e-06	-1.871782e-08	-2.690206e+01	-1.224837e+03
2.900000e-06	-3.809500e-06	-1.893525e-08	-2.741670e+01	-1.238738e+03
2.910000e-06	-3.879583e-06	-1.913930e-08	-2.792109e+01	-1.251960e+03
2.920000e-06	-3.948109e-06	-1.933290e-08	-2.841426e+01	-1.264533e+03
2.930000e-06	-4.015237e-06	-1.951648e-08	-2.889738e+01	-1.276494e+03
2.940000e-06	-4.081011e-06	-1.968891e-08	-2.937074e+01	-1.287876e+03
