# Temperatura_=_84.81
# Concentracion g/m^3_=_28200.0
# C_Vs_to_Am_M_A/Vsm_=_65563218390.804596
# pendiente_HvsI_1/m_=_3716.3
# ordenada_HvsI_A/m_=_1297.0
# frecuencia_Hz_=_301764.1957818543

Tiempo_(s)	Campo_(V.s)	Magnetizacion_(V.s)	Campo_(kA/m)	Magnetizacion_(A/m)
0.000000e+00	-5.308243e-06	-2.670217e-08	-3.830473e+01	-1.746372e+03
1.000000e-08	-5.306159e-06	-2.669817e-08	-3.828969e+01	-1.745938e+03
2.000000e-08	-5.302194e-06	-2.668411e-08	-3.826108e+01	-1.745304e+03
3.000000e-08	-5.296598e-06	-2.666721e-08	-3.822071e+01	-1.744456e+03
4.000000e-08	-5.289417e-06	-2.665049e-08	-3.816888e+01	-1.743375e+03
5.000000e-08	-5.280497e-06	-2.662895e-08	-3.810451e+01	-1.742039e+03
6.000000e-08	-5.269612e-06	-2.660299e-08	-3.802597e+01	-1.740433e+03
7.000000e-08	-5.256855e-06	-2.656524e-08	-3.793391e+01	-1.738554e+03
8.000000e-08	-5.242234e-06	-2.653822e-08	-3.782841e+01	-1.736414e+03
9.000000e-08	-5.225409e-06	-2.658524e-08	-3.770699e+01	-1.734044e+03
1.000000e-07	-5.206412e-06	-2.656305e-08	-3.756991e+01	-1.731485e+03
1.100000e-07	-5.185514e-06	-2.645440e-08	-3.741911e+01	-1.728787e+03
1.200000e-07	-5.162817e-06	-2.638737e-08	-3.725533e+01	-1.725996e+03
1.300000e-07	-5.138604e-06	-2.623402e-08	-3.708061e+01	-1.723148e+03
1.400000e-07	-5.112917e-06	-2.620045e-08	-3.689525e+01	-1.720255e+03
1.500000e-07	-5.085520e-06	-2.635946e-08	-3.669755e+01	-1.717306e+03
1.600000e-07	-5.056536e-06	-2.616561e-08	-3.648839e+01	-1.714265e+03
1.700000e-07	-5.026150e-06	-2.612226e-08	-3.626913e+01	-1.711076e+03
1.800000e-07	-4.993929e-06	-2.622290e-08	-3.603662e+01	-1.707674e+03
1.900000e-07	-4.959615e-06	-2.591980e-08	-3.578900e+01	-1.703994e+03
2.000000e-07	-4.923727e-06	-2.588294e-08	-3.553003e+01	-1.699984e+03
2.100000e-07	-4.886314e-06	-2.592937e-08	-3.526006e+01	-1.695607e+03
2.200000e-07	-4.847141e-06	-2.569887e-08	-3.497738e+01	-1.690851e+03
2.300000e-07	-4.806126e-06	-2.565295e-08	-3.468141e+01	-1.685722e+03
2.400000e-07	-4.763081e-06	-2.562328e-08	-3.437080e+01	-1.680239e+03
2.500000e-07	-4.718248e-06	-2.552325e-08	-3.404728e+01	-1.674429e+03
2.600000e-07	-4.671674e-06	-2.548507e-08	-3.371120e+01	-1.668314e+03
2.700000e-07	-4.623106e-06	-2.528528e-08	-3.336073e+01	-1.661909e+03
2.800000e-07	-4.572507e-06	-2.515260e-08	-3.299560e+01	-1.655214e+03
2.900000e-07	-4.519976e-06	-2.510547e-08	-3.261653e+01	-1.648218e+03
3.000000e-07	-4.465742e-06	-2.502257e-08	-3.222517e+01	-1.640903e+03
3.100000e-07	-4.409952e-06	-2.490654e-08	-3.182259e+01	-1.633248e+03
3.200000e-07	-4.352394e-06	-2.475424e-08	-3.140725e+01	-1.625238e+03
3.300000e-07	-4.293068e-06	-2.462441e-08	-3.097915e+01	-1.616867e+03
3.400000e-07	-4.232300e-06	-2.445445e-08	-3.054064e+01	-1.608138e+03
3.500000e-07	-4.170141e-06	-2.431453e-08	-3.009209e+01	-1.599066e+03
3.600000e-07	-4.106648e-06	-2.421856e-08	-2.963392e+01	-1.589668e+03
3.700000e-07	-4.041681e-06	-2.409858e-08	-2.916511e+01	-1.579961e+03
3.800000e-07	-3.975009e-06	-2.393232e-08	-2.868400e+01	-1.569951e+03
3.900000e-07	-3.906816e-06	-2.370458e-08	-2.819191e+01	-1.559634e+03
4.000000e-07	-3.837316e-06	-2.353325e-08	-2.769040e+01	-1.548991e+03
4.100000e-07	-3.766632e-06	-2.341219e-08	-2.718034e+01	-1.537994e+03
4.200000e-07	-3.694830e-06	-2.324514e-08	-2.666221e+01	-1.526606e+03
4.300000e-07	-3.621642e-06	-2.306376e-08	-2.613408e+01	-1.514791e+03
4.400000e-07	-3.546760e-06	-2.286669e-08	-2.559372e+01	-1.502518e+03
4.500000e-07	-3.470401e-06	-2.266452e-08	-2.504271e+01	-1.489763e+03
4.600000e-07	-3.392795e-06	-2.245759e-08	-2.448270e+01	-1.476514e+03
4.700000e-07	-3.313774e-06	-2.225481e-08	-2.391248e+01	-1.462766e+03
4.800000e-07	-3.233420e-06	-2.204970e-08	-2.333264e+01	-1.448517e+03
4.900000e-07	-3.151862e-06	-2.181367e-08	-2.274411e+01	-1.433762e+03
5.000000e-07	-3.069153e-06	-2.157525e-08	-2.214727e+01	-1.418489e+03
5.100000e-07	-2.985611e-06	-2.132826e-08	-2.154443e+01	-1.402677e+03
5.200000e-07	-2.901290e-06	-2.107698e-08	-2.093596e+01	-1.386294e+03
5.300000e-07	-2.816007e-06	-2.081978e-08	-2.032055e+01	-1.369301e+03
5.400000e-07	-2.729698e-06	-2.055146e-08	-1.969774e+01	-1.351654e+03
5.500000e-07	-2.642439e-06	-2.027087e-08	-1.906807e+01	-1.333313e+03
5.600000e-07	-2.554310e-06	-1.997688e-08	-1.843212e+01	-1.314239e+03
5.700000e-07	-2.465129e-06	-1.968130e-08	-1.778858e+01	-1.294400e+03
5.800000e-07	-2.374728e-06	-1.936597e-08	-1.713624e+01	-1.273768e+03
5.900000e-07	-2.283366e-06	-1.902811e-08	-1.647696e+01	-1.252315e+03
6.000000e-07	-2.191333e-06	-1.867566e-08	-1.581284e+01	-1.230007e+03
6.100000e-07	-2.098577e-06	-1.832306e-08	-1.514351e+01	-1.206802e+03
6.200000e-07	-2.004991e-06	-1.796496e-08	-1.446819e+01	-1.182642e+03
6.300000e-07	-1.910618e-06	-1.758407e-08	-1.378718e+01	-1.157453e+03
6.400000e-07	-1.815623e-06	-1.717872e-08	-1.310169e+01	-1.131150e+03
6.500000e-07	-1.720121e-06	-1.675075e-08	-1.241254e+01	-1.103638e+03
6.600000e-07	-1.624108e-06	-1.630578e-08	-1.171970e+01	-1.074818e+03
6.700000e-07	-1.527503e-06	-1.584605e-08	-1.102259e+01	-1.044592e+03
6.800000e-07	-1.430146e-06	-1.537130e-08	-1.032005e+01	-1.012866e+03
6.900000e-07	-1.332002e-06	-1.486977e-08	-9.611840e+00	-9.795514e+02
7.000000e-07	-1.233224e-06	-1.433448e-08	-8.899053e+00	-9.445647e+02
7.100000e-07	-1.134016e-06	-1.376385e-08	-8.183156e+00	-9.078248e+02
7.200000e-07	-1.034569e-06	-1.316770e-08	-7.465535e+00	-8.692531e+02
7.300000e-07	-9.349458e-07	-1.255392e-08	-6.746649e+00	-8.287761e+02
7.400000e-07	-8.351315e-07	-1.191462e-08	-6.026380e+00	-7.863316e+02
7.500000e-07	-7.350697e-07	-1.124298e-08	-5.304325e+00	-7.418792e+02
7.600000e-07	-6.347845e-07	-1.053462e-08	-4.580659e+00	-6.954138e+02
7.700000e-07	-5.343189e-07	-9.791781e-09	-3.855690e+00	-6.469794e+02
7.800000e-07	-4.336402e-07	-9.019345e-09	-3.129185e+00	-5.966796e+02
7.900000e-07	-3.327908e-07	-8.223697e-09	-2.401447e+00	-5.446819e+02
8.000000e-07	-2.318015e-07	-7.410205e-09	-1.672699e+00	-4.912120e+02
8.100000e-07	-1.306927e-07	-6.581588e-09	-9.430894e-01	-4.365378e+02
8.200000e-07	-2.952137e-08	-5.737834e-09	-2.130287e-01	-3.809436e+02
8.300000e-07	7.168467e-08	-4.882836e-09	5.172827e-01	-3.246978e+02
8.400000e-07	1.728834e-07	-4.020971e-09	1.247541e+00	-2.680191e+02
8.500000e-07	2.740281e-07	-3.156347e-09	1.977410e+00	-2.110476e+02
8.600000e-07	3.750950e-07	-2.287619e-09	2.706717e+00	-1.538253e+02
8.700000e-07	4.760292e-07	-1.409462e-09	3.435067e+00	-9.629291e+01
8.800000e-07	5.767872e-07	-5.235203e-10	4.162146e+00	-3.830308e+01
8.900000e-07	6.773699e-07	3.731973e-10	4.887959e+00	2.035010e+01
9.000000e-07	7.777356e-07	1.281466e-09	5.612206e+00	7.988851e+01
9.100000e-07	8.778759e-07	2.203267e-09	6.334827e+00	1.405012e+02
9.200000e-07	9.778081e-07	3.142841e-09	7.055946e+00	2.022970e+02
9.300000e-07	1.077496e-06	4.099958e-09	7.775306e+00	2.652653e+02
9.400000e-07	1.176922e-06	5.072660e-09	8.492769e+00	3.292530e+02
9.500000e-07	1.275973e-06	6.056557e-09	9.207531e+00	3.939604e+02
9.600000e-07	1.374452e-06	7.047151e-09	9.918160e+00	4.589564e+02
9.700000e-07	1.472203e-06	8.036281e-09	1.062354e+01	5.237129e+02
9.800000e-07	1.569137e-06	9.012564e-09	1.132303e+01	5.876500e+02
9.900000e-07	1.665328e-06	9.962989e-09	1.201715e+01	6.501882e+02
1.000000e-06	1.760916e-06	1.088002e-08	1.270692e+01	7.107975e+02
1.010000e-06	1.855933e-06	1.176147e-08	1.339257e+01	7.690385e+02
1.020000e-06	1.950329e-06	1.260267e-08	1.407374e+01	8.245896e+02
1.030000e-06	2.044036e-06	1.340195e-08	1.474994e+01	8.772574e+02
1.040000e-06	2.136995e-06	1.415876e-08	1.542074e+01	9.269726e+02
1.050000e-06	2.229264e-06	1.486756e-08	1.608656e+01	9.737716e+02
1.060000e-06	2.320907e-06	1.553029e-08	1.674787e+01	1.017770e+03
1.070000e-06	2.411796e-06	1.615407e-08	1.740372e+01	1.059134e+03
1.080000e-06	2.501630e-06	1.674458e-08	1.805198e+01	1.098051e+03
1.090000e-06	2.590339e-06	1.730443e-08	1.869211e+01	1.134706e+03
1.100000e-06	2.678110e-06	1.783296e-08	1.932547e+01	1.169269e+03
1.110000e-06	2.765005e-06	1.832971e-08	1.995252e+01	1.201891e+03
1.120000e-06	2.851004e-06	1.879497e-08	2.057309e+01	1.232696e+03
1.130000e-06	2.936068e-06	1.923286e-08	2.118692e+01	1.261796e+03
1.140000e-06	3.020226e-06	1.964877e-08	2.179421e+01	1.289292e+03
1.150000e-06	3.103494e-06	2.004495e-08	2.239508e+01	1.315283e+03
1.160000e-06	3.185609e-06	2.042058e-08	2.298762e+01	1.339869e+03
1.170000e-06	3.266469e-06	2.077649e-08	2.357112e+01	1.363151e+03
1.180000e-06	3.346215e-06	2.111334e-08	2.414657e+01	1.385231e+03
1.190000e-06	3.424805e-06	2.143368e-08	2.471368e+01	1.406203e+03
1.200000e-06	3.502219e-06	2.173644e-08	2.527231e+01	1.426153e+03
1.210000e-06	3.578413e-06	2.202329e-08	2.582213e+01	1.445151e+03
1.220000e-06	3.653218e-06	2.229713e-08	2.636193e+01	1.463253e+03
1.230000e-06	3.726433e-06	2.255870e-08	2.689026e+01	1.480501e+03
1.240000e-06	3.798140e-06	2.280749e-08	2.740770e+01	1.496928e+03
1.250000e-06	3.868503e-06	2.304344e-08	2.791545e+01	1.512561e+03
1.260000e-06	3.937503e-06	2.326735e-08	2.841336e+01	1.527431e+03
1.270000e-06	4.005199e-06	2.347958e-08	2.890186e+01	1.541571e+03
1.280000e-06	4.071420e-06	2.368209e-08	2.937971e+01	1.555024e+03
1.290000e-06	4.135944e-06	2.387580e-08	2.984532e+01	1.567835e+03
1.300000e-06	4.198974e-06	2.406239e-08	3.030015e+01	1.580052e+03
1.310000e-06	4.260644e-06	2.424024e-08	3.074517e+01	1.591720e+03
1.320000e-06	4.320952e-06	2.440979e-08	3.118035e+01	1.602873e+03
1.330000e-06	4.379841e-06	2.457162e-08	3.160530e+01	1.613537e+03
1.340000e-06	4.437017e-06	2.472464e-08	3.201790e+01	1.623724e+03
1.350000e-06	4.492429e-06	2.487141e-08	3.241775e+01	1.633434e+03
1.360000e-06	4.546228e-06	2.501360e-08	3.280597e+01	1.642663e+03
1.370000e-06	4.598367e-06	2.514898e-08	3.318221e+01	1.651403e+03
1.380000e-06	4.648548e-06	2.527551e-08	3.354432e+01	1.659654e+03
1.390000e-06	4.696687e-06	2.539263e-08	3.389169e+01	1.667424e+03
1.400000e-06	4.743100e-06	2.550152e-08	3.422662e+01	1.674731e+03
1.410000e-06	4.787985e-06	2.560533e-08	3.455051e+01	1.681605e+03
1.420000e-06	4.831334e-06	2.570453e-08	3.486332e+01	1.688081e+03
1.430000e-06	4.872876e-06	2.579659e-08	3.516309e+01	1.694197e+03
1.440000e-06	4.912588e-06	2.588333e-08	3.544966e+01	1.699986e+03
1.450000e-06	4.950663e-06	2.596660e-08	3.572441e+01	1.705473e+03
1.460000e-06	4.987168e-06	2.604489e-08	3.598783e+01	1.710670e+03
1.470000e-06	5.021986e-06	2.611917e-08	3.623908e+01	1.715581e+03
1.480000e-06	5.054872e-06	2.618917e-08	3.647638e+01	1.720199e+03
1.490000e-06	5.085938e-06	2.625499e-08	3.670056e+01	1.724512e+03
1.500000e-06	5.115363e-06	2.631651e-08	3.691290e+01	1.728509e+03
1.510000e-06	5.143175e-06	2.637299e-08	3.711359e+01	1.732184e+03
1.520000e-06	5.169001e-06	2.642515e-08	3.729995e+01	1.735534e+03
1.530000e-06	5.192703e-06	2.647232e-08	3.747099e+01	1.738566e+03
1.540000e-06	5.214568e-06	2.651331e-08	3.762877e+01	1.741288e+03
1.550000e-06	5.234756e-06	2.654869e-08	3.777444e+01	1.743715e+03
1.560000e-06	5.253178e-06	2.657889e-08	3.790738e+01	1.745857e+03
1.570000e-06	5.269655e-06	2.660634e-08	3.802628e+01	1.747724e+03
1.580000e-06	5.284188e-06	2.663206e-08	3.813115e+01	1.749322e+03
1.590000e-06	5.296735e-06	2.665363e-08	3.822169e+01	1.750654e+03
1.600000e-06	5.307113e-06	2.667074e-08	3.829658e+01	1.751724e+03
1.610000e-06	5.315330e-06	2.668291e-08	3.835587e+01	1.752536e+03
1.620000e-06	5.321642e-06	2.669192e-08	3.840143e+01	1.753100e+03
1.630000e-06	5.326233e-06	2.669918e-08	3.843455e+01	1.753426e+03
1.640000e-06	5.329009e-06	2.670334e-08	3.845458e+01	1.753531e+03
1.650000e-06	5.329760e-06	2.670469e-08	3.846000e+01	1.753428e+03
1.660000e-06	5.328633e-06	2.669799e-08	3.845187e+01	1.753127e+03
1.670000e-06	5.325868e-06	2.668670e-08	3.843192e+01	1.752629e+03
1.680000e-06	5.321581e-06	2.667962e-08	3.840098e+01	1.751927e+03
1.690000e-06	5.315467e-06	2.666757e-08	3.835686e+01	1.751005e+03
1.700000e-06	5.307407e-06	2.665029e-08	3.829870e+01	1.749842e+03
1.710000e-06	5.297759e-06	2.663265e-08	3.822908e+01	1.748419e+03
1.720000e-06	5.286551e-06	2.662147e-08	3.814820e+01	1.746724e+03
1.730000e-06	5.273554e-06	2.660664e-08	3.805442e+01	1.744758e+03
1.740000e-06	5.258479e-06	2.647759e-08	3.794563e+01	1.742539e+03
1.750000e-06	5.241098e-06	2.640479e-08	3.782021e+01	1.740102e+03
1.760000e-06	5.221200e-06	2.642969e-08	3.767662e+01	1.737491e+03
1.770000e-06	5.198832e-06	2.642273e-08	3.751522e+01	1.734758e+03
1.780000e-06	5.174823e-06	2.652226e-08	3.734197e+01	1.731945e+03
1.790000e-06	5.150102e-06	2.636320e-08	3.716358e+01	1.729081e+03
1.800000e-06	5.124316e-06	2.615968e-08	3.697750e+01	1.726171e+03
1.810000e-06	5.096503e-06	2.632715e-08	3.677680e+01	1.723196e+03
1.820000e-06	5.066725e-06	2.614450e-08	3.656192e+01	1.720113e+03
1.830000e-06	5.035266e-06	2.604649e-08	3.633491e+01	1.716862e+03
1.840000e-06	5.001916e-06	2.628950e-08	3.609426e+01	1.713376e+03
1.850000e-06	4.966904e-06	2.603215e-08	3.584160e+01	1.709594e+03
1.860000e-06	4.930264e-06	2.591851e-08	3.557720e+01	1.705467e+03
1.870000e-06	4.891618e-06	2.603619e-08	3.529833e+01	1.700968e+03
1.880000e-06	4.851260e-06	2.582316e-08	3.500710e+01	1.696089e+03
1.890000e-06	4.809232e-06	2.581000e-08	3.470383e+01	1.690843e+03
1.900000e-06	4.765469e-06	2.567264e-08	3.438803e+01	1.685251e+03
1.910000e-06	4.720041e-06	2.553887e-08	3.406022e+01	1.679339e+03
1.920000e-06	4.672711e-06	2.570152e-08	3.371868e+01	1.673129e+03
1.930000e-06	4.623674e-06	2.545668e-08	3.336482e+01	1.666630e+03
1.940000e-06	4.572976e-06	2.528551e-08	3.299898e+01	1.659839e+03
1.950000e-06	4.520350e-06	2.522717e-08	3.261923e+01	1.652742e+03
1.960000e-06	4.465796e-06	2.508018e-08	3.222557e+01	1.645318e+03
1.970000e-06	4.409422e-06	2.501814e-08	3.181877e+01	1.637550e+03
1.980000e-06	4.351396e-06	2.480626e-08	3.140004e+01	1.629422e+03
1.990000e-06	4.291997e-06	2.478559e-08	3.097141e+01	1.620934e+03
2.000000e-06	4.231272e-06	2.469954e-08	3.053322e+01	1.612092e+03
2.010000e-06	4.168857e-06	2.440967e-08	3.008283e+01	1.602912e+03
2.020000e-06	4.104668e-06	2.428400e-08	2.961963e+01	1.593412e+03
2.030000e-06	4.039063e-06	2.414834e-08	2.914622e+01	1.583606e+03
2.040000e-06	3.972155e-06	2.408980e-08	2.866341e+01	1.573497e+03
2.050000e-06	3.903903e-06	2.390515e-08	2.817090e+01	1.563077e+03
2.060000e-06	3.834091e-06	2.367845e-08	2.766713e+01	1.552323e+03
2.070000e-06	3.762733e-06	2.356246e-08	2.715221e+01	1.541203e+03
2.080000e-06	3.690136e-06	2.333739e-08	2.662834e+01	1.529681e+03
2.090000e-06	3.616242e-06	2.316713e-08	2.609511e+01	1.517720e+03
2.100000e-06	3.540991e-06	2.297937e-08	2.555209e+01	1.505293e+03
2.110000e-06	3.464388e-06	2.280543e-08	2.499932e+01	1.492379e+03
2.120000e-06	3.386310e-06	2.261170e-08	2.443590e+01	1.478969e+03
2.130000e-06	3.306851e-06	2.235793e-08	2.386252e+01	1.465059e+03
2.140000e-06	3.226228e-06	2.215522e-08	2.328074e+01	1.450647e+03
2.150000e-06	3.144551e-06	2.192666e-08	2.269135e+01	1.435725e+03
2.160000e-06	3.061807e-06	2.171477e-08	2.209426e+01	1.420281e+03
2.170000e-06	2.978069e-06	2.146415e-08	2.149000e+01	1.404288e+03
2.180000e-06	2.893401e-06	2.119643e-08	2.087903e+01	1.387712e+03
2.190000e-06	2.807484e-06	2.094055e-08	2.025905e+01	1.370513e+03
2.200000e-06	2.720272e-06	2.066775e-08	1.962971e+01	1.352647e+03
2.210000e-06	2.632123e-06	2.038850e-08	1.899363e+01	1.334072e+03
2.220000e-06	2.543145e-06	2.008118e-08	1.835155e+01	1.314754e+03
2.230000e-06	2.453257e-06	1.978703e-08	1.770291e+01	1.294662e+03
2.240000e-06	2.362520e-06	1.947978e-08	1.704814e+01	1.273768e+03
2.250000e-06	2.271046e-06	1.915531e-08	1.638806e+01	1.252044e+03
2.260000e-06	2.178925e-06	1.880329e-08	1.572331e+01	1.229452e+03
2.270000e-06	2.086067e-06	1.843510e-08	1.505324e+01	1.205946e+03
2.280000e-06	1.992239e-06	1.806383e-08	1.437617e+01	1.181462e+03
2.290000e-06	1.897341e-06	1.767409e-08	1.369138e+01	1.155924e+03
2.300000e-06	1.801644e-06	1.727423e-08	1.300082e+01	1.129242e+03
2.310000e-06	1.705493e-06	1.685645e-08	1.230698e+01	1.101319e+03
2.320000e-06	1.608907e-06	1.641579e-08	1.161001e+01	1.072056e+03
2.330000e-06	1.511828e-06	1.593836e-08	1.090948e+01	1.041357e+03
2.340000e-06	1.414259e-06	1.543542e-08	1.020542e+01	1.009128e+03
2.350000e-06	1.316238e-06	1.492047e-08	9.498086e+00	9.752844e+02
2.360000e-06	1.217800e-06	1.439170e-08	8.787745e+00	9.397417e+02
2.370000e-06	1.118971e-06	1.383095e-08	8.074587e+00	9.024202e+02
2.380000e-06	1.019793e-06	1.322914e-08	7.358913e+00	8.632425e+02
2.390000e-06	9.202884e-07	1.259487e-08	6.640880e+00	8.221380e+02
2.400000e-06	8.205183e-07	1.193223e-08	5.920930e+00	7.790499e+02
2.410000e-06	7.205654e-07	1.124340e-08	5.199661e+00	7.339478e+02
2.420000e-06	6.204143e-07	1.052661e-08	4.476962e+00	6.868408e+02
2.430000e-06	5.200913e-07	9.785506e-09	3.753023e+00	6.377913e+02
2.440000e-06	4.196462e-07	9.016124e-09	3.028203e+00	5.869233e+02
2.450000e-06	3.190970e-07	8.213799e-09	2.302631e+00	5.344242e+02
2.460000e-06	2.184623e-07	7.383028e-09	1.576442e+00	4.805354e+02
2.470000e-06	1.177502e-07	6.538429e-09	8.496954e-01	4.255334e+02
2.480000e-06	1.692109e-08	5.687771e-09	1.221040e-01	3.697010e+02
2.490000e-06	-8.395553e-08	4.826437e-09	-6.058303e-01	3.132943e+02
2.500000e-06	-1.848225e-07	3.956461e-09	-1.333695e+00	2.565096e+02
2.510000e-06	-2.856346e-07	3.082998e-09	-2.061164e+00	1.994566e+02
2.520000e-06	-3.862826e-07	2.207575e-09	-2.787448e+00	1.421446e+02
2.530000e-06	-4.868127e-07	1.325883e-09	-3.512882e+00	8.448364e+01
2.540000e-06	-5.872477e-07	4.383662e-10	-4.237630e+00	2.630358e+01
2.550000e-06	-6.875159e-07	-4.580691e-10	-4.961173e+00	-3.261167e+01
2.560000e-06	-7.875753e-07	-1.370362e-09	-5.683210e+00	-9.247890e+01
2.570000e-06	-8.873790e-07	-2.302667e-09	-6.403402e+00	-1.534663e+02
2.580000e-06	-9.868909e-07	-3.254544e-09	-7.121489e+00	-2.156478e+02
2.590000e-06	-1.086074e-06	-4.223544e-09	-7.837206e+00	-2.789687e+02
2.600000e-06	-1.184844e-06	-5.207266e-09	-8.549938e+00	-3.432285e+02
2.610000e-06	-1.283198e-06	-6.196002e-09	-9.259663e+00	-4.080823e+02
2.620000e-06	-1.381139e-06	-7.185668e-09	-9.966420e+00	-4.730636e+02
2.630000e-06	-1.478630e-06	-8.172060e-09	-1.066992e+01	-5.376221e+02
2.640000e-06	-1.575576e-06	-9.146274e-09	-1.136949e+01	-6.011725e+02
2.650000e-06	-1.672022e-06	-1.009901e-08	-1.206545e+01	-6.631460e+02
2.660000e-06	-1.768054e-06	-1.101920e-08	-1.275843e+01	-7.230379e+02
2.670000e-06	-1.863524e-06	-1.190034e-08	-1.344735e+01	-7.804444e+02
2.680000e-06	-1.958098e-06	-1.273784e-08	-1.412980e+01	-8.350848e+02
2.690000e-06	-2.051616e-06	-1.352802e-08	-1.480464e+01	-8.868067e+02
2.700000e-06	-2.144276e-06	-1.427411e-08	-1.547328e+01	-9.355774e+02
2.710000e-06	-2.236261e-06	-1.498147e-08	-1.613705e+01	-9.814618e+02
2.720000e-06	-2.327464e-06	-1.564928e-08	-1.679518e+01	-1.024595e+03
2.730000e-06	-2.417797e-06	-1.627562e-08	-1.744703e+01	-1.065153e+03
2.740000e-06	-2.507284e-06	-1.686133e-08	-1.809278e+01	-1.103324e+03
2.750000e-06	-2.595944e-06	-1.741046e-08	-1.873255e+01	-1.139290e+03
2.760000e-06	-2.683866e-06	-1.792781e-08	-1.936700e+01	-1.173216e+03
2.770000e-06	-2.770915e-06	-1.841768e-08	-1.999516e+01	-1.205241e+03
2.780000e-06	-2.856810e-06	-1.888303e-08	-2.061499e+01	-1.235488e+03
2.790000e-06	-2.941542e-06	-1.932122e-08	-2.122642e+01	-1.264063e+03
2.800000e-06	-3.025275e-06	-1.973317e-08	-2.183064e+01	-1.291065e+03
2.810000e-06	-3.108031e-06	-2.012294e-08	-2.242782e+01	-1.316595e+03
2.820000e-06	-3.189709e-06	-2.049288e-08	-2.301721e+01	-1.340752e+03
2.830000e-06	-3.270319e-06	-2.084407e-08	-2.359890e+01	-1.363638e+03
2.840000e-06	-3.349888e-06	-2.117778e-08	-2.417308e+01	-1.385353e+03
2.850000e-06	-3.428137e-06	-2.149473e-08	-2.473773e+01	-1.405990e+03
2.860000e-06	-3.504851e-06	-2.179549e-08	-2.529131e+01	-1.425628e+03
2.870000e-06	-3.580139e-06	-2.208054e-08	-2.583459e+01	-1.444334e+03
2.880000e-06	-3.654110e-06	-2.235245e-08	-2.636837e+01	-1.462158e+03
2.890000e-06	-3.726797e-06	-2.261265e-08	-2.689288e+01	-1.479140e+03
2.900000e-06	-3.798215e-06	-2.286125e-08	-2.740825e+01	-1.495309e+03
2.910000e-06	-3.868195e-06	-2.309843e-08	-2.791322e+01	-1.510695e+03
2.920000e-06	-3.936631e-06	-2.332500e-08	-2.840706e+01	-1.525328e+03
2.930000e-06	-4.003679e-06	-2.354104e-08	-2.889089e+01	-1.539244e+03
2.940000e-06	-4.069330e-06	-2.374519e-08	-2.936463e+01	-1.552486e+03
