# Temperatura_=_36.86
# Concentracion g/m^3_=_28200.0
# C_Vs_to_Am_M_A/Vsm_=_65563218390.804596
# pendiente_HvsI_1/m_=_3716.3
# ordenada_HvsI_A/m_=_1297.0
# frecuencia_Hz_=_301763.4193010437

Tiempo_(s)	Campo_(V.s)	Magnetizacion_(V.s)	Campo_(kA/m)	Magnetizacion_(A/m)
0.000000e+00	-5.334100e-06	-1.950255e-08	-3.829459e+01	-1.274470e+03
1.000000e-08	-5.331911e-06	-1.950479e-08	-3.827887e+01	-1.274168e+03
2.000000e-08	-5.327855e-06	-1.949458e-08	-3.824976e+01	-1.273740e+03
3.000000e-08	-5.322147e-06	-1.948364e-08	-3.820878e+01	-1.273169e+03
4.000000e-08	-5.314878e-06	-1.947212e-08	-3.815659e+01	-1.272435e+03
5.000000e-08	-5.305986e-06	-1.945323e-08	-3.809275e+01	-1.271510e+03
6.000000e-08	-5.295102e-06	-1.943019e-08	-3.801461e+01	-1.270377e+03
7.000000e-08	-5.282266e-06	-1.939062e-08	-3.792246e+01	-1.269030e+03
8.000000e-08	-5.267432e-06	-1.936923e-08	-3.781596e+01	-1.267480e+03
9.000000e-08	-5.250353e-06	-1.945777e-08	-3.769335e+01	-1.265760e+03
1.000000e-07	-5.231171e-06	-1.944620e-08	-3.755564e+01	-1.263915e+03
1.100000e-07	-5.210077e-06	-1.933686e-08	-3.740420e+01	-1.261994e+03
1.200000e-07	-5.187203e-06	-1.930866e-08	-3.723999e+01	-1.260040e+03
1.300000e-07	-5.162840e-06	-1.913578e-08	-3.706508e+01	-1.258077e+03
1.400000e-07	-5.136918e-06	-1.909376e-08	-3.687898e+01	-1.256105e+03
1.500000e-07	-5.109292e-06	-1.932173e-08	-3.668065e+01	-1.254096e+03
1.600000e-07	-5.080163e-06	-1.906962e-08	-3.647152e+01	-1.252001e+03
1.700000e-07	-5.049593e-06	-1.905193e-08	-3.625206e+01	-1.249753e+03
1.800000e-07	-5.017133e-06	-1.924999e-08	-3.601902e+01	-1.247289e+03
1.900000e-07	-4.982594e-06	-1.885763e-08	-3.577106e+01	-1.244553e+03
2.000000e-07	-4.946516e-06	-1.883209e-08	-3.551205e+01	-1.241511e+03
2.100000e-07	-4.908793e-06	-1.894736e-08	-3.524123e+01	-1.238158e+03
2.200000e-07	-4.869260e-06	-1.873975e-08	-3.495741e+01	-1.234509e+03
2.300000e-07	-4.827950e-06	-1.879937e-08	-3.466083e+01	-1.230602e+03
2.400000e-07	-4.784684e-06	-1.876589e-08	-3.435022e+01	-1.226479e+03
2.500000e-07	-4.739602e-06	-1.856679e-08	-3.402657e+01	-1.222181e+03
2.600000e-07	-4.692781e-06	-1.854982e-08	-3.369043e+01	-1.217733e+03
2.700000e-07	-4.644044e-06	-1.844168e-08	-3.334053e+01	-1.213145e+03
2.800000e-07	-4.593174e-06	-1.840755e-08	-3.297533e+01	-1.208403e+03
2.900000e-07	-4.540255e-06	-1.836619e-08	-3.259541e+01	-1.203483e+03
3.000000e-07	-4.485639e-06	-1.824695e-08	-3.220331e+01	-1.198349e+03
3.100000e-07	-4.429483e-06	-1.814474e-08	-3.180016e+01	-1.192970e+03
3.200000e-07	-4.371504e-06	-1.805305e-08	-3.138392e+01	-1.187322e+03
3.300000e-07	-4.311782e-06	-1.799699e-08	-3.095516e+01	-1.181397e+03
3.400000e-07	-4.250628e-06	-1.788410e-08	-3.051612e+01	-1.175197e+03
3.500000e-07	-4.188067e-06	-1.781193e-08	-3.006699e+01	-1.168735e+03
3.600000e-07	-4.124152e-06	-1.770098e-08	-2.960813e+01	-1.162029e+03
3.700000e-07	-4.058724e-06	-1.754371e-08	-2.913840e+01	-1.155092e+03
3.800000e-07	-3.991658e-06	-1.747734e-08	-2.865692e+01	-1.147927e+03
3.900000e-07	-3.923152e-06	-1.737654e-08	-2.816510e+01	-1.140527e+03
4.000000e-07	-3.853328e-06	-1.725177e-08	-2.766382e+01	-1.132873e+03
4.100000e-07	-3.782221e-06	-1.713518e-08	-2.715333e+01	-1.124938e+03
4.200000e-07	-3.709924e-06	-1.698636e-08	-2.663430e+01	-1.116692e+03
4.300000e-07	-3.636214e-06	-1.684643e-08	-2.610512e+01	-1.108111e+03
4.400000e-07	-3.560863e-06	-1.671401e-08	-2.556416e+01	-1.099175e+03
4.500000e-07	-3.484051e-06	-1.659838e-08	-2.501271e+01	-1.089875e+03
4.600000e-07	-3.405926e-06	-1.644468e-08	-2.445183e+01	-1.080209e+03
4.700000e-07	-3.326394e-06	-1.626592e-08	-2.388086e+01	-1.070176e+03
4.800000e-07	-3.245520e-06	-1.610104e-08	-2.330025e+01	-1.059778e+03
4.900000e-07	-3.163506e-06	-1.593604e-08	-2.271145e+01	-1.049009e+03
5.000000e-07	-3.080468e-06	-1.578606e-08	-2.211531e+01	-1.037855e+03
5.100000e-07	-2.996550e-06	-1.561670e-08	-2.151284e+01	-1.026294e+03
5.200000e-07	-2.911733e-06	-1.543319e-08	-2.090392e+01	-1.014294e+03
5.300000e-07	-2.825892e-06	-1.523044e-08	-2.028765e+01	-1.001820e+03
5.400000e-07	-2.739154e-06	-1.501531e-08	-1.966494e+01	-9.888380e+02
5.500000e-07	-2.651616e-06	-1.481377e-08	-1.903649e+01	-9.753129e+02
5.600000e-07	-2.563105e-06	-1.461042e-08	-1.840105e+01	-9.612151e+02
5.700000e-07	-2.473356e-06	-1.439233e-08	-1.775672e+01	-9.465179e+02
5.800000e-07	-2.382432e-06	-1.414561e-08	-1.710396e+01	-9.311962e+02
5.900000e-07	-2.290672e-06	-1.389289e-08	-1.644520e+01	-9.152231e+02
6.000000e-07	-2.198183e-06	-1.363805e-08	-1.578121e+01	-8.985680e+02
6.100000e-07	-2.104939e-06	-1.337993e-08	-1.511178e+01	-8.811942e+02
6.200000e-07	-2.010903e-06	-1.311131e-08	-1.443668e+01	-8.630596e+02
6.300000e-07	-1.916103e-06	-1.281934e-08	-1.375609e+01	-8.441168e+02
6.400000e-07	-1.820712e-06	-1.250795e-08	-1.307126e+01	-8.243159e+02
6.500000e-07	-1.724815e-06	-1.218283e-08	-1.238279e+01	-8.036056e+02
6.600000e-07	-1.628275e-06	-1.185101e-08	-1.168972e+01	-7.819348e+02
6.700000e-07	-1.531024e-06	-1.150935e-08	-1.099153e+01	-7.592521e+02
6.800000e-07	-1.433067e-06	-1.115302e-08	-1.028828e+01	-7.355042e+02
6.900000e-07	-1.334436e-06	-1.077037e-08	-9.580185e+00	-7.106345e+02
7.000000e-07	-1.235233e-06	-1.036445e-08	-8.867989e+00	-6.845823e+02
7.100000e-07	-1.135659e-06	-9.941666e-09	-8.153126e+00	-6.572834e+02
7.200000e-07	-1.035857e-06	-9.507670e-09	-7.436626e+00	-6.286751e+02
7.300000e-07	-9.358020e-07	-9.058257e-09	-6.718312e+00	-5.987030e+02
7.400000e-07	-8.355084e-07	-8.581949e-09	-5.998284e+00	-5.673312e+02
7.500000e-07	-7.350007e-07	-8.081850e-09	-5.276720e+00	-5.345538e+02
7.600000e-07	-6.341922e-07	-7.557818e-09	-4.552994e+00	-5.004043e+02
7.700000e-07	-5.330954e-07	-7.014318e-09	-3.827200e+00	-4.649626e+02
7.800000e-07	-4.318296e-07	-6.458208e-09	-3.100193e+00	-4.283558e+02
7.900000e-07	-3.304205e-07	-5.889661e-09	-2.372156e+00	-3.907532e+02
8.000000e-07	-2.289221e-07	-5.306396e-09	-1.643478e+00	-3.523534e+02
8.100000e-07	-1.273221e-07	-4.712419e-09	-9.140714e-01	-3.133678e+02
8.200000e-07	-2.558966e-08	-4.114494e-09	-1.837134e-01	-2.739990e+02
8.300000e-07	7.616870e-08	-3.515672e-09	5.468305e-01	-2.344201e+02
8.400000e-07	1.778568e-07	-2.914599e-09	1.276870e+00	-1.947570e+02
8.500000e-07	2.794708e-07	-2.312838e-09	2.006378e+00	-1.550753e+02
8.600000e-07	3.810371e-07	-1.713243e-09	2.735543e+00	-1.153754e+02
8.700000e-07	4.825309e-07	-1.111583e-09	3.464187e+00	-7.559573e+01
8.800000e-07	5.838913e-07	-5.064159e-10	4.191874e+00	-3.562398e+01
8.900000e-07	6.850491e-07	1.074548e-10	4.918107e+00	4.685056e+00
9.000000e-07	7.859498e-07	7.292724e-10	5.642493e+00	4.548682e+01
9.100000e-07	8.865749e-07	1.361647e-09	6.364901e+00	8.692245e+01
9.200000e-07	9.869025e-07	2.006620e-09	7.085174e+00	1.290948e+02
9.300000e-07	1.086944e-06	2.658912e-09	7.803390e+00	1.720480e+02
9.400000e-07	1.186705e-06	3.320610e-09	8.519596e+00	2.157522e+02
9.500000e-07	1.286131e-06	3.992571e-09	9.233394e+00	2.600960e+02
9.600000e-07	1.385125e-06	4.672702e-09	9.944095e+00	3.048868e+02
9.700000e-07	1.483476e-06	5.355717e-09	1.065017e+01	3.498602e+02
9.800000e-07	1.580986e-06	6.036791e-09	1.135022e+01	3.946966e+02
9.900000e-07	1.677704e-06	6.710430e-09	1.204458e+01	4.390439e+02
1.000000e-06	1.773772e-06	7.370925e-09	1.273427e+01	4.825449e+02
1.010000e-06	1.869208e-06	8.013107e-09	1.341943e+01	5.248639e+02
1.020000e-06	1.963990e-06	8.631732e-09	1.409988e+01	5.657118e+02
1.030000e-06	2.058068e-06	9.225399e-09	1.477529e+01	6.048649e+02
1.040000e-06	2.151429e-06	9.791874e-09	1.544555e+01	6.421764e+02
1.050000e-06	2.244123e-06	1.032676e-08	1.611101e+01	6.775780e+02
1.060000e-06	2.336172e-06	1.083049e-08	1.677185e+01	7.110732e+02
1.070000e-06	2.427536e-06	1.130877e-08	1.742777e+01	7.427229e+02
1.080000e-06	2.517948e-06	1.176290e-08	1.807686e+01	7.726267e+02
1.090000e-06	2.607165e-06	1.219464e-08	1.871737e+01	8.009029e+02
1.100000e-06	2.695286e-06	1.260217e-08	1.935001e+01	8.276703e+02
1.110000e-06	2.782523e-06	1.298841e-08	1.997630e+01	8.530355e+02
1.120000e-06	2.868893e-06	1.335517e-08	2.059636e+01	8.770858e+02
1.130000e-06	2.954298e-06	1.370241e-08	2.120950e+01	8.998891e+02
1.140000e-06	3.038769e-06	1.403025e-08	2.181594e+01	9.214984e+02
1.150000e-06	3.122352e-06	1.434107e-08	2.241600e+01	9.419598e+02
1.160000e-06	3.204912e-06	1.463486e-08	2.300871e+01	9.613205e+02
1.170000e-06	3.286250e-06	1.491088e-08	2.359266e+01	9.796350e+02
1.180000e-06	3.366387e-06	1.517408e-08	2.416797e+01	9.969677e+02
1.190000e-06	3.445339e-06	1.542459e-08	2.473479e+01	1.013391e+03
1.200000e-06	3.523026e-06	1.566195e-08	2.529252e+01	1.028981e+03
1.210000e-06	3.599478e-06	1.588702e-08	2.584138e+01	1.043812e+03
1.220000e-06	3.674616e-06	1.610153e-08	2.638082e+01	1.057946e+03
1.230000e-06	3.748205e-06	1.630532e-08	2.690913e+01	1.071434e+03
1.240000e-06	3.820193e-06	1.649860e-08	2.742594e+01	1.084311e+03
1.250000e-06	3.890770e-06	1.668209e-08	2.793263e+01	1.096596e+03
1.260000e-06	3.960026e-06	1.685873e-08	2.842983e+01	1.108301e+03
1.270000e-06	4.028017e-06	1.702775e-08	2.891795e+01	1.119435e+03
1.280000e-06	4.094584e-06	1.718942e-08	2.939585e+01	1.130006e+03
1.290000e-06	4.159466e-06	1.734360e-08	2.986165e+01	1.140029e+03
1.300000e-06	4.222799e-06	1.748997e-08	3.031633e+01	1.149525e+03
1.310000e-06	4.284714e-06	1.762691e-08	3.076083e+01	1.158519e+03
1.320000e-06	4.345230e-06	1.775562e-08	3.119529e+01	1.167039e+03
1.330000e-06	4.404355e-06	1.787793e-08	3.161976e+01	1.175112e+03
1.340000e-06	4.461736e-06	1.799261e-08	3.203171e+01	1.182760e+03
1.350000e-06	4.517323e-06	1.810084e-08	3.243078e+01	1.190003e+03
1.360000e-06	4.571379e-06	1.820370e-08	3.281886e+01	1.196855e+03
1.370000e-06	4.623762e-06	1.830159e-08	3.319492e+01	1.203331e+03
1.380000e-06	4.674171e-06	1.839391e-08	3.355682e+01	1.209446e+03
1.390000e-06	4.722558e-06	1.848025e-08	3.390420e+01	1.215223e+03
1.400000e-06	4.769200e-06	1.856201e-08	3.423906e+01	1.220686e+03
1.410000e-06	4.814277e-06	1.864067e-08	3.456267e+01	1.225864e+03
1.420000e-06	4.857798e-06	1.871679e-08	3.487512e+01	1.230786e+03
1.430000e-06	4.899485e-06	1.878923e-08	3.517439e+01	1.235473e+03
1.440000e-06	4.939317e-06	1.885710e-08	3.546036e+01	1.239940e+03
1.450000e-06	4.977521e-06	1.892072e-08	3.573463e+01	1.244188e+03
1.460000e-06	5.014123e-06	1.898016e-08	3.599741e+01	1.248208e+03
1.470000e-06	5.049019e-06	1.903568e-08	3.624793e+01	1.251982e+03
1.480000e-06	5.081949e-06	1.908732e-08	3.648434e+01	1.255490e+03
1.490000e-06	5.113037e-06	1.913504e-08	3.670753e+01	1.258714e+03
1.500000e-06	5.142486e-06	1.917863e-08	3.691895e+01	1.261646e+03
1.510000e-06	5.170289e-06	1.921713e-08	3.711855e+01	1.264290e+03
1.520000e-06	5.196153e-06	1.925205e-08	3.730424e+01	1.266663e+03
1.530000e-06	5.219969e-06	1.928490e-08	3.747522e+01	1.268788e+03
1.540000e-06	5.241918e-06	1.931391e-08	3.763279e+01	1.270694e+03
1.550000e-06	5.262148e-06	1.933816e-08	3.777803e+01	1.272407e+03
1.560000e-06	5.280659e-06	1.935942e-08	3.791092e+01	1.273945e+03
1.570000e-06	5.297199e-06	1.937955e-08	3.802967e+01	1.275315e+03
1.580000e-06	5.311732e-06	1.939938e-08	3.813400e+01	1.276513e+03
1.590000e-06	5.324278e-06	1.941656e-08	3.822407e+01	1.277530e+03
1.600000e-06	5.334601e-06	1.942978e-08	3.829818e+01	1.278353e+03
1.610000e-06	5.342780e-06	1.943917e-08	3.835690e+01	1.278977e+03
1.620000e-06	5.349130e-06	1.944595e-08	3.840249e+01	1.279401e+03
1.630000e-06	5.353763e-06	1.945105e-08	3.843575e+01	1.279636e+03
1.640000e-06	5.356513e-06	1.945372e-08	3.845550e+01	1.279702e+03
1.650000e-06	5.357141e-06	1.945636e-08	3.846000e+01	1.279618e+03
1.660000e-06	5.355875e-06	1.944945e-08	3.845091e+01	1.279401e+03
1.670000e-06	5.353011e-06	1.943833e-08	3.843036e+01	1.279059e+03
1.680000e-06	5.348604e-06	1.943512e-08	3.839871e+01	1.278586e+03
1.690000e-06	5.342339e-06	1.942711e-08	3.835374e+01	1.277965e+03
1.700000e-06	5.334177e-06	1.941509e-08	3.829514e+01	1.277171e+03
1.710000e-06	5.324464e-06	1.940509e-08	3.822541e+01	1.276180e+03
1.720000e-06	5.313133e-06	1.940814e-08	3.814406e+01	1.274977e+03
1.730000e-06	5.299827e-06	1.941297e-08	3.804853e+01	1.273561e+03
1.740000e-06	5.284491e-06	1.925611e-08	3.793843e+01	1.271952e+03
1.750000e-06	5.267022e-06	1.919589e-08	3.781302e+01	1.270186e+03
1.760000e-06	5.246953e-06	1.924881e-08	3.766894e+01	1.268310e+03
1.770000e-06	5.224339e-06	1.922629e-08	3.750659e+01	1.266374e+03
1.780000e-06	5.200125e-06	1.938773e-08	3.733275e+01	1.264414e+03
1.790000e-06	5.175199e-06	1.921620e-08	3.715380e+01	1.262449e+03
1.800000e-06	5.149208e-06	1.900318e-08	3.696721e+01	1.260468e+03
1.810000e-06	5.121155e-06	1.930870e-08	3.676581e+01	1.258437e+03
1.820000e-06	5.091081e-06	1.908336e-08	3.654991e+01	1.256300e+03
1.830000e-06	5.059329e-06	1.896007e-08	3.632195e+01	1.253989e+03
1.840000e-06	5.025654e-06	1.932015e-08	3.608019e+01	1.251441e+03
1.850000e-06	4.990377e-06	1.901481e-08	3.582693e+01	1.248608e+03
1.860000e-06	4.953489e-06	1.896145e-08	3.556210e+01	1.245465e+03
1.870000e-06	4.914583e-06	1.911029e-08	3.528279e+01	1.242013e+03
1.880000e-06	4.874029e-06	1.875748e-08	3.499165e+01	1.238276e+03
1.890000e-06	4.831760e-06	1.885494e-08	3.468818e+01	1.234294e+03
1.900000e-06	4.787747e-06	1.879885e-08	3.437221e+01	1.230110e+03
1.910000e-06	4.742020e-06	1.864802e-08	3.404393e+01	1.225760e+03
1.920000e-06	4.694269e-06	1.882603e-08	3.370111e+01	1.221267e+03
1.930000e-06	4.644858e-06	1.853320e-08	3.334638e+01	1.216631e+03
1.940000e-06	4.593772e-06	1.848141e-08	3.297963e+01	1.211834e+03
1.950000e-06	4.540573e-06	1.846845e-08	3.259770e+01	1.206848e+03
1.960000e-06	4.485465e-06	1.831609e-08	3.220206e+01	1.201638e+03
1.970000e-06	4.428721e-06	1.836049e-08	3.179469e+01	1.196173e+03
1.980000e-06	4.370435e-06	1.814825e-08	3.137624e+01	1.190436e+03
1.990000e-06	4.310741e-06	1.810684e-08	3.094769e+01	1.184420e+03
2.000000e-06	4.249546e-06	1.801298e-08	3.050835e+01	1.178134e+03
2.010000e-06	4.186686e-06	1.787233e-08	3.005707e+01	1.171591e+03
2.020000e-06	4.122215e-06	1.787954e-08	2.959422e+01	1.164809e+03
2.030000e-06	4.056276e-06	1.765378e-08	2.912083e+01	1.157798e+03
2.040000e-06	3.988963e-06	1.760000e-08	2.863757e+01	1.150558e+03
2.050000e-06	3.920269e-06	1.746378e-08	2.814441e+01	1.143078e+03
2.060000e-06	3.850013e-06	1.730492e-08	2.764003e+01	1.135336e+03
2.070000e-06	3.778337e-06	1.727036e-08	2.712545e+01	1.127303e+03
2.080000e-06	3.705427e-06	1.710842e-08	2.660201e+01	1.118951e+03
2.090000e-06	3.631106e-06	1.700849e-08	2.606844e+01	1.110257e+03
2.100000e-06	3.555399e-06	1.681265e-08	2.552493e+01	1.101204e+03
2.110000e-06	3.478222e-06	1.668605e-08	2.497086e+01	1.091785e+03
2.120000e-06	3.399491e-06	1.657509e-08	2.440564e+01	1.082000e+03
2.130000e-06	3.319524e-06	1.639869e-08	2.383153e+01	1.071849e+03
2.140000e-06	3.238459e-06	1.625539e-08	2.324956e+01	1.061332e+03
2.150000e-06	3.156304e-06	1.605717e-08	2.265975e+01	1.050441e+03
2.160000e-06	3.073128e-06	1.589789e-08	2.206261e+01	1.039158e+03
2.170000e-06	2.989006e-06	1.570068e-08	2.145868e+01	1.027458e+03
2.180000e-06	2.903794e-06	1.553350e-08	2.084693e+01	1.015309e+03
2.190000e-06	2.817193e-06	1.537359e-08	2.022520e+01	1.002675e+03
2.200000e-06	2.729428e-06	1.515948e-08	1.959511e+01	9.895208e+02
2.210000e-06	2.640836e-06	1.493560e-08	1.895909e+01	9.758138e+02
2.220000e-06	2.551333e-06	1.470255e-08	1.831654e+01	9.615253e+02
2.230000e-06	2.460929e-06	1.449811e-08	1.766751e+01	9.466294e+02
2.240000e-06	2.369809e-06	1.426287e-08	1.701334e+01	9.311005e+02
2.250000e-06	2.277996e-06	1.402131e-08	1.635419e+01	9.149109e+02
2.260000e-06	2.185436e-06	1.375935e-08	1.568969e+01	8.980282e+02
2.270000e-06	2.091964e-06	1.348205e-08	1.501863e+01	8.804139e+02
2.280000e-06	1.997436e-06	1.320371e-08	1.434000e+01	8.620240e+02
2.290000e-06	1.902007e-06	1.291558e-08	1.365489e+01	8.428101e+02
2.300000e-06	1.805994e-06	1.262424e-08	1.296560e+01	8.227216e+02
2.310000e-06	1.709501e-06	1.230700e-08	1.227286e+01	8.017074e+02
2.320000e-06	1.612470e-06	1.196690e-08	1.157625e+01	7.797162e+02
2.330000e-06	1.514865e-06	1.160587e-08	1.087552e+01	7.566961e+02
2.340000e-06	1.416715e-06	1.123911e-08	1.017089e+01	7.325932e+02
2.350000e-06	1.318112e-06	1.086172e-08	9.462994e+00	7.073494e+02
2.360000e-06	1.219109e-06	1.046589e-08	8.752231e+00	6.809026e+02
2.370000e-06	1.119828e-06	1.004373e-08	8.039470e+00	6.531887e+02
2.380000e-06	1.020311e-06	9.599279e-09	7.325019e+00	6.241464e+02
2.390000e-06	9.205146e-07	9.136113e-09	6.608561e+00	5.937263e+02
2.400000e-06	8.204229e-07	8.650368e-09	5.889982e+00	5.619008e+02
2.410000e-06	7.200658e-07	8.146786e-09	5.169499e+00	5.286757e+02
2.420000e-06	6.195021e-07	7.618798e-09	4.447532e+00	4.940990e+02
2.430000e-06	5.187440e-07	7.065750e-09	3.724169e+00	4.582659e+02
2.440000e-06	4.177833e-07	6.495936e-09	2.999351e+00	4.213180e+02
2.450000e-06	3.166164e-07	5.919100e-09	2.273053e+00	3.834356e+02
2.460000e-06	2.152730e-07	5.331459e-09	1.545489e+00	3.448237e+02
2.470000e-06	1.138387e-07	4.731843e-09	8.172708e-01	3.056929e+02
2.480000e-06	1.235732e-08	4.126520e-09	8.871568e-02	2.662388e+02
2.490000e-06	-8.917128e-08	3.519282e-09	-6.401787e-01	2.266210e+02
2.500000e-06	-1.906926e-07	2.911878e-09	-1.369021e+00	1.869470e+02
2.510000e-06	-2.921100e-07	2.303303e-09	-2.097117e+00	1.472617e+02
2.520000e-06	-3.934067e-07	1.694365e-09	-2.824346e+00	1.075448e+02
2.530000e-06	-4.945634e-07	1.082462e-09	-3.550571e+00	6.771677e+01
2.540000e-06	-5.955046e-07	4.662243e-10	-4.275248e+00	2.765257e+01
2.550000e-06	-6.962196e-07	-1.558417e-10	-4.998302e+00	-1.279892e+01
2.560000e-06	-7.966848e-07	-7.826882e-10	-5.719562e+00	-5.379125e+01
2.570000e-06	-8.968918e-07	-1.417373e-09	-6.438968e+00	-9.545577e+01
2.580000e-06	-9.967758e-07	-2.063457e-09	-7.156056e+00	-1.378785e+02
2.590000e-06	-1.096290e-06	-2.721359e-09	-7.870488e+00	-1.810810e+02
2.600000e-06	-1.195480e-06	-3.393915e-09	-8.582596e+00	-2.250078e+02
2.610000e-06	-1.294319e-06	-4.075782e-09	-9.292176e+00	-2.695208e+02
2.620000e-06	-1.392726e-06	-4.762854e-09	-9.998665e+00	-3.144030e+02
2.630000e-06	-1.490655e-06	-5.451816e-09	-1.070171e+01	-3.593701e+02
2.640000e-06	-1.588040e-06	-6.140178e-09	-1.140086e+01	-4.040893e+02
2.650000e-06	-1.684845e-06	-6.821775e-09	-1.209584e+01	-4.482040e+02
2.660000e-06	-1.781125e-06	-7.484818e-09	-1.278706e+01	-4.913607e+02
2.670000e-06	-1.876896e-06	-8.125406e-09	-1.347462e+01	-5.332364e+02
2.680000e-06	-1.972071e-06	-8.741909e-09	-1.415790e+01	-5.735612e+02
2.690000e-06	-2.066473e-06	-9.331404e-09	-1.483563e+01	-6.121354e+02
2.700000e-06	-2.159875e-06	-9.894039e-09	-1.550618e+01	-6.488376e+02
2.710000e-06	-2.252268e-06	-1.043089e-08	-1.616949e+01	-6.836238e+02
2.720000e-06	-2.343826e-06	-1.093834e-08	-1.682680e+01	-7.165177e+02
2.730000e-06	-2.434554e-06	-1.141691e-08	-1.747816e+01	-7.475949e+02
2.740000e-06	-2.524349e-06	-1.186900e-08	-1.812281e+01	-7.769632e+02
2.750000e-06	-2.613269e-06	-1.229476e-08	-1.876119e+01	-8.047426e+02
2.760000e-06	-2.701423e-06	-1.269849e-08	-1.939406e+01	-8.310494e+02
2.770000e-06	-2.788797e-06	-1.308145e-08	-2.002134e+01	-8.559843e+02
2.780000e-06	-2.875220e-06	-1.344243e-08	-2.064179e+01	-8.796281e+02
2.790000e-06	-2.960383e-06	-1.378191e-08	-2.125319e+01	-9.020432e+02
2.800000e-06	-3.044357e-06	-1.410379e-08	-2.185605e+01	-9.232794e+02
2.810000e-06	-3.127419e-06	-1.441098e-08	-2.245238e+01	-9.433824e+02
2.820000e-06	-3.209513e-06	-1.470384e-08	-2.304174e+01	-9.624013e+02
2.830000e-06	-3.290514e-06	-1.498125e-08	-2.362327e+01	-9.803936e+02
2.840000e-06	-3.370370e-06	-1.524290e-08	-2.419657e+01	-9.974266e+02
2.850000e-06	-3.448946e-06	-1.549113e-08	-2.476069e+01	-1.013575e+03
2.860000e-06	-3.526010e-06	-1.572722e-08	-2.531394e+01	-1.028914e+03
2.870000e-06	-3.601621e-06	-1.595219e-08	-2.585677e+01	-1.043515e+03
2.880000e-06	-3.675898e-06	-1.616848e-08	-2.639002e+01	-1.057438e+03
2.890000e-06	-3.748832e-06	-1.637575e-08	-2.691363e+01	-1.070727e+03
2.900000e-06	-3.820526e-06	-1.657004e-08	-2.742833e+01	-1.083413e+03
2.910000e-06	-3.890816e-06	-1.675103e-08	-2.793296e+01	-1.095511e+03
2.920000e-06	-3.959502e-06	-1.692454e-08	-2.842607e+01	-1.107033e+03
2.930000e-06	-4.026728e-06	-1.709259e-08	-2.890870e+01	-1.117985e+03
2.940000e-06	-4.092595e-06	-1.725240e-08	-2.938157e+01	-1.128379e+03
