# Temperatura_=_69.57
# Concentracion g/m^3_=_28200.0
# C_Vs_to_Am_M_A/Vsm_=_65563218390.804596
# pendiente_HvsI_1/m_=_3716.3
# ordenada_HvsI_A/m_=_1297.0
# frecuencia_Hz_=_301769.20776878454

Tiempo_(s)	Campo_(V.s)	Magnetizacion_(V.s)	Campo_(kA/m)	Magnetizacion_(A/m)
0.000000e+00	-5.314534e-06	-2.397018e-08	-3.830248e+01	-1.568133e+03
1.000000e-08	-5.312428e-06	-2.397094e-08	-3.828731e+01	-1.567741e+03
2.000000e-08	-5.308485e-06	-2.395990e-08	-3.825889e+01	-1.567160e+03
3.000000e-08	-5.302914e-06	-2.394667e-08	-3.821874e+01	-1.566385e+03
4.000000e-08	-5.295745e-06	-2.393333e-08	-3.816707e+01	-1.565408e+03
5.000000e-08	-5.286912e-06	-2.391213e-08	-3.810341e+01	-1.564217e+03
6.000000e-08	-5.276149e-06	-2.388433e-08	-3.802584e+01	-1.562808e+03
7.000000e-08	-5.263402e-06	-2.384383e-08	-3.793397e+01	-1.561178e+03
8.000000e-08	-5.248673e-06	-2.381945e-08	-3.782781e+01	-1.559335e+03
9.000000e-08	-5.231785e-06	-2.388863e-08	-3.770610e+01	-1.557296e+03
1.000000e-07	-5.212784e-06	-2.386863e-08	-3.756916e+01	-1.555086e+03
1.100000e-07	-5.191888e-06	-2.375495e-08	-3.741856e+01	-1.552733e+03
1.200000e-07	-5.169183e-06	-2.370550e-08	-3.725492e+01	-1.550266e+03
1.300000e-07	-5.145000e-06	-2.353532e-08	-3.708063e+01	-1.547706e+03
1.400000e-07	-5.119347e-06	-2.351372e-08	-3.689575e+01	-1.545064e+03
1.500000e-07	-5.091951e-06	-2.372768e-08	-3.669830e+01	-1.542334e+03
1.600000e-07	-5.062994e-06	-2.348616e-08	-3.648961e+01	-1.539499e+03
1.700000e-07	-5.032647e-06	-2.344533e-08	-3.627089e+01	-1.536527e+03
1.800000e-07	-5.000475e-06	-2.357746e-08	-3.603902e+01	-1.533383e+03
1.900000e-07	-4.966149e-06	-2.321763e-08	-3.579163e+01	-1.530025e+03
2.000000e-07	-4.930212e-06	-2.323043e-08	-3.553263e+01	-1.526419e+03
2.100000e-07	-4.892732e-06	-2.335274e-08	-3.526251e+01	-1.522539e+03
2.200000e-07	-4.853486e-06	-2.313115e-08	-3.497966e+01	-1.518366e+03
2.300000e-07	-4.812458e-06	-2.309907e-08	-3.468396e+01	-1.513897e+03
2.400000e-07	-4.769498e-06	-2.303291e-08	-3.437434e+01	-1.509132e+03
2.500000e-07	-4.724745e-06	-2.289202e-08	-3.405181e+01	-1.504079e+03
2.600000e-07	-4.678186e-06	-2.287869e-08	-3.371625e+01	-1.498743e+03
2.700000e-07	-4.629648e-06	-2.272188e-08	-3.336643e+01	-1.493128e+03
2.800000e-07	-4.579044e-06	-2.263360e-08	-3.300172e+01	-1.487236e+03
2.900000e-07	-4.526465e-06	-2.257584e-08	-3.262278e+01	-1.481060e+03
3.000000e-07	-4.472210e-06	-2.247080e-08	-3.223176e+01	-1.474594e+03
3.100000e-07	-4.416397e-06	-2.236605e-08	-3.182950e+01	-1.467831e+03
3.200000e-07	-4.358767e-06	-2.223654e-08	-3.141416e+01	-1.460766e+03
3.300000e-07	-4.299392e-06	-2.214689e-08	-3.098623e+01	-1.453401e+03
3.400000e-07	-4.238600e-06	-2.200889e-08	-3.054810e+01	-1.445737e+03
3.500000e-07	-4.176396e-06	-2.188414e-08	-3.009979e+01	-1.437783e+03
3.600000e-07	-4.112807e-06	-2.177790e-08	-2.964149e+01	-1.429544e+03
3.700000e-07	-4.047708e-06	-2.166066e-08	-2.917232e+01	-1.421024e+03
3.800000e-07	-3.980970e-06	-2.153701e-08	-2.869133e+01	-1.412221e+03
3.900000e-07	-3.912754e-06	-2.134546e-08	-2.819968e+01	-1.403124e+03
4.000000e-07	-3.843206e-06	-2.119560e-08	-2.769845e+01	-1.393715e+03
4.100000e-07	-3.772422e-06	-2.108393e-08	-2.718830e+01	-1.383968e+03
4.200000e-07	-3.700532e-06	-2.092734e-08	-2.667018e+01	-1.373857e+03
4.300000e-07	-3.627243e-06	-2.076581e-08	-2.614198e+01	-1.363352e+03
4.400000e-07	-3.552272e-06	-2.059267e-08	-2.560165e+01	-1.352430e+03
4.500000e-07	-3.475869e-06	-2.041467e-08	-2.505101e+01	-1.341072e+03
4.600000e-07	-3.398179e-06	-2.022095e-08	-2.449108e+01	-1.329265e+03
4.700000e-07	-3.319137e-06	-2.003345e-08	-2.392142e+01	-1.317001e+03
4.800000e-07	-3.238768e-06	-1.985715e-08	-2.334219e+01	-1.304276e+03
4.900000e-07	-3.157210e-06	-1.965472e-08	-2.275439e+01	-1.291084e+03
5.000000e-07	-3.074586e-06	-1.944633e-08	-2.215891e+01	-1.277414e+03
5.100000e-07	-2.991030e-06	-1.922150e-08	-2.155671e+01	-1.263252e+03
5.200000e-07	-2.906612e-06	-1.899022e-08	-2.094830e+01	-1.248574e+03
5.300000e-07	-2.821241e-06	-1.875654e-08	-2.033302e+01	-1.233353e+03
5.400000e-07	-2.734837e-06	-1.851694e-08	-1.971030e+01	-1.217556e+03
5.500000e-07	-2.647510e-06	-1.827037e-08	-1.908092e+01	-1.201144e+03
5.600000e-07	-2.559324e-06	-1.800524e-08	-1.844536e+01	-1.184083e+03
5.700000e-07	-2.470051e-06	-1.773517e-08	-1.780195e+01	-1.166332e+03
5.800000e-07	-2.379551e-06	-1.745099e-08	-1.714971e+01	-1.147857e+03
5.900000e-07	-2.288069e-06	-1.715750e-08	-1.649039e+01	-1.128618e+03
6.000000e-07	-2.195893e-06	-1.685415e-08	-1.582606e+01	-1.108575e+03
6.100000e-07	-2.102983e-06	-1.654028e-08	-1.515645e+01	-1.087684e+03
6.200000e-07	-2.009240e-06	-1.620923e-08	-1.448084e+01	-1.065894e+03
6.300000e-07	-1.914795e-06	-1.585336e-08	-1.380016e+01	-1.043150e+03
6.400000e-07	-1.819752e-06	-1.548314e-08	-1.311517e+01	-1.019386e+03
6.500000e-07	-1.724128e-06	-1.510091e-08	-1.242600e+01	-9.945344e+02
6.600000e-07	-1.627960e-06	-1.470540e-08	-1.173290e+01	-9.685189e+02
6.700000e-07	-1.531165e-06	-1.429183e-08	-1.103529e+01	-9.412606e+02
6.800000e-07	-1.433638e-06	-1.386112e-08	-1.033240e+01	-9.126771e+02
6.900000e-07	-1.335455e-06	-1.340388e-08	-9.624787e+00	-8.826837e+02
7.000000e-07	-1.236687e-06	-1.291831e-08	-8.912953e+00	-8.511946e+02
7.100000e-07	-1.137439e-06	-1.240627e-08	-8.197659e+00	-8.181253e+02
7.200000e-07	-1.037893e-06	-1.187317e-08	-7.480219e+00	-7.833967e+02
7.300000e-07	-9.381223e-07	-1.132220e-08	-6.761160e+00	-7.469411e+02
7.400000e-07	-8.381279e-07	-1.074499e-08	-6.040489e+00	-7.087098e+02
7.500000e-07	-7.379055e-07	-1.013993e-08	-5.318173e+00	-6.686836e+02
7.600000e-07	-6.374265e-07	-9.502160e-09	-4.594009e+00	-6.268822e+02
7.700000e-07	-5.367097e-07	-8.834342e-09	-3.868132e+00	-5.833721e+02
7.800000e-07	-4.359089e-07	-8.144094e-09	-3.141648e+00	-5.382714e+02
7.900000e-07	-3.350525e-07	-7.435323e-09	-2.414764e+00	-4.917484e+02
8.000000e-07	-2.339935e-07	-6.709834e-09	-1.686419e+00	-4.440127e+02
8.100000e-07	-1.327584e-07	-5.971920e-09	-9.568056e-01	-3.953004e+02
8.200000e-07	-3.144060e-08	-5.222826e-09	-2.265962e-01	-3.458523e+02
8.300000e-07	6.991629e-08	-4.462137e-09	5.038951e-01	-2.958887e+02
8.400000e-07	1.711816e-07	-3.694109e-09	1.233727e+00	-2.455846e+02
8.500000e-07	2.723457e-07	-2.925606e-09	1.962828e+00	-1.950486e+02
8.600000e-07	3.734790e-07	-2.157441e-09	2.691708e+00	-1.443099e+02
8.700000e-07	4.745251e-07	-1.383179e-09	3.419959e+00	-9.331638e+01
8.800000e-07	5.753957e-07	-6.021993e-10	4.146946e+00	-4.194520e+01
8.900000e-07	6.760893e-07	1.923435e-10	4.872657e+00	9.974702e+00
9.000000e-07	7.765923e-07	1.000046e-09	5.596994e+00	6.263028e+01
9.100000e-07	8.768736e-07	1.817220e-09	6.319733e+00	1.161867e+02
9.200000e-07	9.769430e-07	2.644362e-09	7.040945e+00	1.707498e+02
9.300000e-07	1.076793e-06	3.484416e-09	7.760579e+00	2.263334e+02
9.400000e-07	1.176379e-06	4.342115e-09	8.478302e+00	2.828381e+02
9.500000e-07	1.275572e-06	5.213592e-09	9.193202e+00	3.400434e+02
9.600000e-07	1.374114e-06	6.093562e-09	9.903404e+00	3.976154e+02
9.700000e-07	1.471860e-06	6.973424e-09	1.060787e+01	4.551296e+02
9.800000e-07	1.568874e-06	7.842382e-09	1.130707e+01	5.121042e+02
9.900000e-07	1.665274e-06	8.690520e-09	1.200183e+01	5.680413e+02
1.000000e-06	1.761073e-06	9.513678e-09	1.269226e+01	6.224680e+02
1.010000e-06	1.856163e-06	1.030918e-08	1.337759e+01	6.749738e+02
1.020000e-06	1.950558e-06	1.107065e-08	1.405791e+01	7.252382e+02
1.030000e-06	2.044308e-06	1.179465e-08	1.473358e+01	7.730464e+02
1.040000e-06	2.137346e-06	1.248024e-08	1.540411e+01	8.182915e+02
1.050000e-06	2.229735e-06	1.312677e-08	1.606997e+01	8.609650e+02
1.060000e-06	2.321584e-06	1.373510e-08	1.673194e+01	9.011384e+02
1.070000e-06	2.412646e-06	1.430993e-08	1.738823e+01	9.389386e+02
1.080000e-06	2.502630e-06	1.485253e-08	1.803675e+01	9.745230e+02
1.090000e-06	2.591553e-06	1.536402e-08	1.867763e+01	1.008058e+03
1.100000e-06	2.679518e-06	1.584448e-08	1.931161e+01	1.039701e+03
1.110000e-06	2.766550e-06	1.629538e-08	1.993886e+01	1.069593e+03
1.120000e-06	2.852653e-06	1.672068e-08	2.055942e+01	1.097853e+03
1.130000e-06	2.937777e-06	1.712502e-08	2.117291e+01	1.124582e+03
1.140000e-06	3.022014e-06	1.750974e-08	2.178002e+01	1.149869e+03
1.150000e-06	3.105420e-06	1.787493e-08	2.238113e+01	1.173797e+03
1.160000e-06	3.187737e-06	1.822179e-08	2.297440e+01	1.196444e+03
1.170000e-06	3.268802e-06	1.855004e-08	2.355865e+01	1.217895e+03
1.180000e-06	3.348662e-06	1.886063e-08	2.413421e+01	1.238231e+03
1.190000e-06	3.427347e-06	1.915430e-08	2.470130e+01	1.257535e+03
1.200000e-06	3.504806e-06	1.943060e-08	2.525955e+01	1.275885e+03
1.210000e-06	3.581071e-06	1.969201e-08	2.580921e+01	1.293347e+03
1.220000e-06	3.656012e-06	1.994223e-08	2.634932e+01	1.309981e+03
1.230000e-06	3.729334e-06	2.018188e-08	2.687775e+01	1.325832e+03
1.240000e-06	3.801127e-06	2.041110e-08	2.739518e+01	1.340937e+03
1.250000e-06	3.871585e-06	2.062940e-08	2.790298e+01	1.355325e+03
1.260000e-06	3.940699e-06	2.083712e-08	2.840109e+01	1.369025e+03
1.270000e-06	4.008573e-06	2.103382e-08	2.889026e+01	1.382064e+03
1.280000e-06	4.074978e-06	2.122103e-08	2.936885e+01	1.394472e+03
1.290000e-06	4.139660e-06	2.139927e-08	2.983503e+01	1.406283e+03
1.300000e-06	4.202819e-06	2.156985e-08	3.029022e+01	1.417530e+03
1.310000e-06	4.264605e-06	2.173315e-08	3.073552e+01	1.428245e+03
1.320000e-06	4.325072e-06	2.188954e-08	3.117131e+01	1.438455e+03
1.330000e-06	4.384098e-06	2.203840e-08	3.159672e+01	1.448178e+03
1.340000e-06	4.441368e-06	2.217897e-08	3.200947e+01	1.457429e+03
1.350000e-06	4.496893e-06	2.231267e-08	3.240964e+01	1.466213e+03
1.360000e-06	4.550818e-06	2.244128e-08	3.279829e+01	1.474535e+03
1.370000e-06	4.603013e-06	2.256216e-08	3.317446e+01	1.482399e+03
1.380000e-06	4.653181e-06	2.267287e-08	3.353603e+01	1.489815e+03
1.390000e-06	4.701408e-06	2.277579e-08	3.388361e+01	1.496799e+03
1.400000e-06	4.747954e-06	2.287297e-08	3.421907e+01	1.503377e+03
1.410000e-06	4.792873e-06	2.296637e-08	3.454281e+01	1.509579e+03
1.420000e-06	4.836297e-06	2.305614e-08	3.485578e+01	1.515440e+03
1.430000e-06	4.877898e-06	2.314147e-08	3.515560e+01	1.520992e+03
1.440000e-06	4.917645e-06	2.322203e-08	3.544206e+01	1.526260e+03
1.450000e-06	4.955795e-06	2.329824e-08	3.571701e+01	1.531263e+03
1.460000e-06	4.992373e-06	2.337078e-08	3.598063e+01	1.536006e+03
1.470000e-06	5.027308e-06	2.343984e-08	3.623241e+01	1.540484e+03
1.480000e-06	5.060309e-06	2.350494e-08	3.647025e+01	1.544686e+03
1.490000e-06	5.091472e-06	2.356467e-08	3.669485e+01	1.548599e+03
1.500000e-06	5.120960e-06	2.361820e-08	3.690737e+01	1.552208e+03
1.510000e-06	5.148792e-06	2.366645e-08	3.710796e+01	1.555508e+03
1.520000e-06	5.174693e-06	2.371091e-08	3.729463e+01	1.558498e+03
1.530000e-06	5.198532e-06	2.375236e-08	3.746644e+01	1.561186e+03
1.540000e-06	5.220502e-06	2.378973e-08	3.762478e+01	1.563586e+03
1.550000e-06	5.240770e-06	2.382169e-08	3.777086e+01	1.565715e+03
1.560000e-06	5.259251e-06	2.384874e-08	3.790405e+01	1.567592e+03
1.570000e-06	5.275721e-06	2.387204e-08	3.802276e+01	1.569230e+03
1.580000e-06	5.290245e-06	2.389287e-08	3.812743e+01	1.570640e+03
1.590000e-06	5.302858e-06	2.391253e-08	3.821833e+01	1.571828e+03
1.600000e-06	5.313318e-06	2.392989e-08	3.829372e+01	1.572797e+03
1.610000e-06	5.321614e-06	2.394209e-08	3.835351e+01	1.573548e+03
1.620000e-06	5.328034e-06	2.394898e-08	3.839978e+01	1.574085e+03
1.630000e-06	5.332722e-06	2.395402e-08	3.843357e+01	1.574412e+03
1.640000e-06	5.335560e-06	2.395854e-08	3.845402e+01	1.574536e+03
1.650000e-06	5.336390e-06	2.396174e-08	3.846000e+01	1.574462e+03
1.660000e-06	5.335364e-06	2.395452e-08	3.845261e+01	1.574197e+03
1.670000e-06	5.332695e-06	2.394213e-08	3.843337e+01	1.573744e+03
1.680000e-06	5.328447e-06	2.393509e-08	3.840276e+01	1.573100e+03
1.690000e-06	5.322330e-06	2.392457e-08	3.835867e+01	1.572260e+03
1.700000e-06	5.314291e-06	2.391060e-08	3.830073e+01	1.571214e+03
1.710000e-06	5.304663e-06	2.389677e-08	3.823134e+01	1.569953e+03
1.720000e-06	5.293478e-06	2.389162e-08	3.815073e+01	1.568471e+03
1.730000e-06	5.280372e-06	2.388791e-08	3.805627e+01	1.566771e+03
1.740000e-06	5.265169e-06	2.374253e-08	3.794671e+01	1.564861e+03
1.750000e-06	5.247816e-06	2.367658e-08	3.782164e+01	1.562763e+03
1.760000e-06	5.227989e-06	2.371613e-08	3.767875e+01	1.560503e+03
1.770000e-06	5.205637e-06	2.370164e-08	3.751765e+01	1.558110e+03
1.780000e-06	5.181593e-06	2.383823e-08	3.734436e+01	1.555610e+03
1.790000e-06	5.156839e-06	2.365056e-08	3.716596e+01	1.553022e+03
1.800000e-06	5.131083e-06	2.343075e-08	3.698033e+01	1.550351e+03
1.810000e-06	5.103369e-06	2.367298e-08	3.678060e+01	1.547589e+03
1.820000e-06	5.073717e-06	2.346173e-08	3.656688e+01	1.544713e+03
1.830000e-06	5.042320e-06	2.337737e-08	3.634060e+01	1.541690e+03
1.840000e-06	5.008897e-06	2.368584e-08	3.609972e+01	1.538480e+03
1.850000e-06	4.973853e-06	2.335982e-08	3.584715e+01	1.535045e+03
1.860000e-06	4.937233e-06	2.324865e-08	3.558323e+01	1.531352e+03
1.870000e-06	4.898574e-06	2.338197e-08	3.530461e+01	1.527378e+03
1.880000e-06	4.858241e-06	2.314513e-08	3.501393e+01	1.523109e+03
1.890000e-06	4.816211e-06	2.322054e-08	3.471101e+01	1.518543e+03
1.900000e-06	4.772513e-06	2.309484e-08	3.439608e+01	1.513684e+03
1.910000e-06	4.727186e-06	2.294918e-08	3.406939e+01	1.508538e+03
1.920000e-06	4.679811e-06	2.312857e-08	3.372796e+01	1.503111e+03
1.930000e-06	4.630720e-06	2.284057e-08	3.337415e+01	1.497407e+03
1.940000e-06	4.579979e-06	2.273181e-08	3.300846e+01	1.491423e+03
1.950000e-06	4.527245e-06	2.270946e-08	3.262839e+01	1.485153e+03
1.960000e-06	4.472599e-06	2.256129e-08	3.223456e+01	1.478591e+03
1.970000e-06	4.416173e-06	2.254094e-08	3.182789e+01	1.471731e+03
1.980000e-06	4.358141e-06	2.230271e-08	3.140965e+01	1.464568e+03
1.990000e-06	4.298728e-06	2.228335e-08	3.098145e+01	1.457105e+03
2.000000e-06	4.237924e-06	2.221678e-08	3.054323e+01	1.449346e+03
2.010000e-06	4.175466e-06	2.197597e-08	3.009308e+01	1.441299e+03
2.020000e-06	4.111236e-06	2.189048e-08	2.963017e+01	1.432969e+03
2.030000e-06	4.045544e-06	2.172697e-08	2.915672e+01	1.424358e+03
2.040000e-06	3.978580e-06	2.168364e-08	2.867410e+01	1.415461e+03
2.050000e-06	3.910258e-06	2.150481e-08	2.818170e+01	1.406265e+03
2.060000e-06	3.840370e-06	2.130146e-08	2.767801e+01	1.396749e+03
2.070000e-06	3.768972e-06	2.122500e-08	2.716343e+01	1.386887e+03
2.080000e-06	3.696342e-06	2.101984e-08	2.663998e+01	1.376651e+03
2.090000e-06	3.622401e-06	2.087936e-08	2.610708e+01	1.366013e+03
2.100000e-06	3.547113e-06	2.070073e-08	2.556447e+01	1.354952e+03
2.110000e-06	3.470486e-06	2.055951e-08	2.501221e+01	1.343449e+03
2.120000e-06	3.392307e-06	2.038990e-08	2.444876e+01	1.331495e+03
2.130000e-06	3.312726e-06	2.014827e-08	2.387522e+01	1.319083e+03
2.140000e-06	3.232023e-06	1.996655e-08	2.329358e+01	1.306208e+03
2.150000e-06	3.150255e-06	1.975355e-08	2.270426e+01	1.292862e+03
2.160000e-06	3.067426e-06	1.956801e-08	2.210731e+01	1.279035e+03
2.170000e-06	2.983639e-06	1.934493e-08	2.150344e+01	1.264708e+03
2.180000e-06	2.898843e-06	1.911782e-08	2.089231e+01	1.249859e+03
2.190000e-06	2.812754e-06	1.889343e-08	2.027186e+01	1.234455e+03
2.200000e-06	2.725410e-06	1.864289e-08	1.964236e+01	1.218463e+03
2.210000e-06	2.637129e-06	1.839468e-08	1.900610e+01	1.201846e+03
2.220000e-06	2.548002e-06	1.812203e-08	1.836375e+01	1.184566e+03
2.230000e-06	2.457959e-06	1.786092e-08	1.771480e+01	1.166586e+03
2.240000e-06	2.367123e-06	1.757450e-08	1.706014e+01	1.147868e+03
2.250000e-06	2.275605e-06	1.727390e-08	1.640056e+01	1.128374e+03
2.260000e-06	2.183370e-06	1.695429e-08	1.573581e+01	1.108063e+03
2.270000e-06	2.090309e-06	1.662871e-08	1.506511e+01	1.086888e+03
2.280000e-06	1.996270e-06	1.630362e-08	1.438736e+01	1.064797e+03
2.290000e-06	1.901256e-06	1.595695e-08	1.370258e+01	1.041731e+03
2.300000e-06	1.805522e-06	1.559545e-08	1.301262e+01	1.017624e+03
2.310000e-06	1.709301e-06	1.521111e-08	1.231914e+01	9.924058e+02
2.320000e-06	1.612630e-06	1.480808e-08	1.162242e+01	9.659986e+02
2.330000e-06	1.515390e-06	1.437865e-08	1.092160e+01	9.383225e+02
2.340000e-06	1.417610e-06	1.393201e-08	1.021689e+01	9.092941e+02
2.350000e-06	1.319401e-06	1.347230e-08	9.509083e+00	8.788282e+02
2.360000e-06	1.220816e-06	1.299483e-08	8.798566e+00	8.468392e+02
2.370000e-06	1.121913e-06	1.248596e-08	8.085761e+00	8.132438e+02
2.380000e-06	1.022724e-06	1.194326e-08	7.370892e+00	7.779657e+02
2.390000e-06	9.232702e-07	1.137541e-08	6.654119e+00	7.409424e+02
2.400000e-06	8.235488e-07	1.078162e-08	5.935415e+00	7.021336e+02
2.410000e-06	7.236012e-07	1.016285e-08	5.215081e+00	6.615315e+02
2.420000e-06	6.234009e-07	9.515666e-09	4.492925e+00	6.191701e+02
2.430000e-06	5.229946e-07	8.843119e-09	3.769285e+00	5.751324e+02
2.440000e-06	4.224271e-07	8.147945e-09	3.044483e+00	5.295529e+02
2.450000e-06	3.216268e-07	7.429927e-09	2.318003e+00	4.826145e+02
2.460000e-06	2.206904e-07	6.689132e-09	1.590542e+00	4.345375e+02
2.470000e-06	1.197109e-07	5.938536e-09	8.627710e-01	3.855619e+02
2.480000e-06	1.864163e-08	5.185891e-09	1.343525e-01	3.359247e+02
2.490000e-06	-8.244338e-08	4.423939e-09	-5.941794e-01	2.858344e+02
2.500000e-06	-1.834642e-07	3.652105e-09	-1.322248e+00	2.354465e+02
2.510000e-06	-2.844090e-07	2.875451e-09	-2.049770e+00	1.848451e+02
2.520000e-06	-3.852543e-07	2.095773e-09	-2.776574e+00	1.340329e+02
2.530000e-06	-4.860032e-07	1.309296e-09	-3.502684e+00	8.293326e+01
2.540000e-06	-5.866191e-07	5.204310e-10	-4.227834e+00	3.140482e+01
2.550000e-06	-6.870627e-07	-2.713983e-10	-4.951743e+00	-2.073244e+01
2.560000e-06	-7.872714e-07	-1.074535e-09	-5.673959e+00	-7.366272e+01
2.570000e-06	-8.872048e-07	-1.896634e-09	-6.394191e+00	-1.275361e+02
2.580000e-06	-9.868281e-07	-2.738749e-09	-7.112188e+00	-1.824318e+02
2.590000e-06	-1.086075e-06	-3.594468e-09	-7.827475e+00	-2.383291e+02
2.600000e-06	-1.184967e-06	-4.461914e-09	-8.540196e+00	-2.950899e+02
2.610000e-06	-1.283512e-06	-5.336056e-09	-9.250423e+00	-3.524554e+02
2.620000e-06	-1.381590e-06	-6.212875e-09	-9.957285e+00	-4.100596e+02
2.630000e-06	-1.479050e-06	-7.089612e-09	-1.065969e+01	-4.674556e+02
2.640000e-06	-1.575948e-06	-7.960591e-09	-1.135805e+01	-5.241516e+02
2.650000e-06	-1.672441e-06	-8.817692e-09	-1.205348e+01	-5.796535e+02
2.660000e-06	-1.768510e-06	-9.646546e-09	-1.274586e+01	-6.335047e+02
2.670000e-06	-1.864037e-06	-1.043940e-08	-1.343434e+01	-6.853212e+02
2.680000e-06	-1.958822e-06	-1.119435e-08	-1.411746e+01	-7.348153e+02
2.690000e-06	-2.052648e-06	-1.191087e-08	-1.479368e+01	-7.818073e+02
2.700000e-06	-2.145502e-06	-1.259052e-08	-1.546289e+01	-8.262234e+02
2.710000e-06	-2.237508e-06	-1.323492e-08	-1.612599e+01	-8.680835e+02
2.720000e-06	-2.328780e-06	-1.384567e-08	-1.678380e+01	-9.074793e+02
2.730000e-06	-2.419326e-06	-1.442090e-08	-1.743637e+01	-9.445502e+02
2.740000e-06	-2.508949e-06	-1.495955e-08	-1.808229e+01	-9.794589e+02
2.750000e-06	-2.597666e-06	-1.546290e-08	-1.872169e+01	-1.012370e+03
2.760000e-06	-2.685659e-06	-1.593645e-08	-1.935587e+01	-1.043437e+03
2.770000e-06	-2.772813e-06	-1.638329e-08	-1.998399e+01	-1.072793e+03
2.780000e-06	-2.858799e-06	-1.680416e-08	-2.060371e+01	-1.100552e+03
2.790000e-06	-2.943568e-06	-1.720442e-08	-2.121465e+01	-1.126810e+03
2.800000e-06	-3.027305e-06	-1.758778e-08	-2.181815e+01	-1.151652e+03
2.810000e-06	-3.110092e-06	-1.795162e-08	-2.241480e+01	-1.175160e+03
2.820000e-06	-3.191875e-06	-1.829310e-08	-2.300422e+01	-1.197415e+03
2.830000e-06	-3.272611e-06	-1.861487e-08	-2.358610e+01	-1.218499e+03
2.840000e-06	-3.352301e-06	-1.892158e-08	-2.416043e+01	-1.238496e+03
2.850000e-06	-3.430683e-06	-1.921348e-08	-2.472534e+01	-1.257486e+03
2.860000e-06	-3.507599e-06	-1.948933e-08	-2.527969e+01	-1.275545e+03
2.870000e-06	-3.583074e-06	-1.975152e-08	-2.582364e+01	-1.292737e+03
2.880000e-06	-3.657167e-06	-2.000205e-08	-2.635764e+01	-1.309115e+03
2.890000e-06	-3.730009e-06	-2.024238e-08	-2.688262e+01	-1.324724e+03
2.900000e-06	-3.801596e-06	-2.047295e-08	-2.739856e+01	-1.339596e+03
2.910000e-06	-3.871613e-06	-2.069354e-08	-2.790318e+01	-1.353761e+03
2.920000e-06	-3.940090e-06	-2.090338e-08	-2.839670e+01	-1.367246e+03
2.930000e-06	-4.007243e-06	-2.110054e-08	-2.888068e+01	-1.380080e+03
2.940000e-06	-4.073002e-06	-2.128693e-08	-2.935462e+01	-1.392294e+03
