# Temperatura_=_84.1
# Concentracion g/m^3_=_28200.0
# C_Vs_to_Am_M_A/Vsm_=_65563218390.804596
# pendiente_HvsI_1/m_=_3716.3
# ordenada_HvsI_A/m_=_1297.0
# frecuencia_Hz_=_301765.6027650045

Tiempo_(s)	Campo_(V.s)	Magnetizacion_(V.s)	Campo_(kA/m)	Magnetizacion_(A/m)
0.000000e+00	-5.344365e-06	-2.668824e-08	-3.829675e+01	-1.745918e+03
1.000000e-08	-5.342031e-06	-2.668611e-08	-3.828002e+01	-1.745445e+03
2.000000e-08	-5.337835e-06	-2.667245e-08	-3.824996e+01	-1.744758e+03
3.000000e-08	-5.331926e-06	-2.665604e-08	-3.820761e+01	-1.743855e+03
4.000000e-08	-5.324397e-06	-2.663785e-08	-3.815366e+01	-1.742725e+03
5.000000e-08	-5.315145e-06	-2.661342e-08	-3.808736e+01	-1.741358e+03
6.000000e-08	-5.303953e-06	-2.658449e-08	-3.800716e+01	-1.739744e+03
7.000000e-08	-5.290872e-06	-2.654401e-08	-3.791343e+01	-1.737880e+03
8.000000e-08	-5.275750e-06	-2.653171e-08	-3.780507e+01	-1.735770e+03
9.000000e-08	-5.258360e-06	-2.657965e-08	-3.768045e+01	-1.733432e+03
1.000000e-07	-5.238873e-06	-2.653806e-08	-3.754081e+01	-1.730895e+03
1.100000e-07	-5.217542e-06	-2.643671e-08	-3.738796e+01	-1.728196e+03
1.200000e-07	-5.194507e-06	-2.636949e-08	-3.722289e+01	-1.725372e+03
1.300000e-07	-5.169980e-06	-2.621923e-08	-3.704714e+01	-1.722455e+03
1.400000e-07	-5.143825e-06	-2.622778e-08	-3.685972e+01	-1.719465e+03
1.500000e-07	-5.115942e-06	-2.633681e-08	-3.665991e+01	-1.716404e+03
1.600000e-07	-5.086591e-06	-2.612901e-08	-3.644959e+01	-1.713250e+03
1.700000e-07	-5.055776e-06	-2.612201e-08	-3.622877e+01	-1.709966e+03
1.800000e-07	-5.023005e-06	-2.616081e-08	-3.599394e+01	-1.706501e+03
1.900000e-07	-4.988182e-06	-2.589673e-08	-3.574441e+01	-1.702797e+03
2.000000e-07	-4.951798e-06	-2.593167e-08	-3.548369e+01	-1.698802e+03
2.100000e-07	-4.913791e-06	-2.595354e-08	-3.521133e+01	-1.694473e+03
2.200000e-07	-4.874040e-06	-2.575785e-08	-3.492648e+01	-1.689786e+03
2.300000e-07	-4.832422e-06	-2.570405e-08	-3.462826e+01	-1.684731e+03
2.400000e-07	-4.788810e-06	-2.559558e-08	-3.431574e+01	-1.679317e+03
2.500000e-07	-4.743457e-06	-2.549451e-08	-3.399075e+01	-1.673558e+03
2.600000e-07	-4.696321e-06	-2.545331e-08	-3.365298e+01	-1.667474e+03
2.700000e-07	-4.647133e-06	-2.528472e-08	-3.330051e+01	-1.661081e+03
2.800000e-07	-4.595864e-06	-2.518207e-08	-3.293313e+01	-1.654384e+03
2.900000e-07	-4.542711e-06	-2.510065e-08	-3.255224e+01	-1.647383e+03
3.000000e-07	-4.487876e-06	-2.498871e-08	-3.215930e+01	-1.640068e+03
3.100000e-07	-4.431383e-06	-2.487642e-08	-3.175448e+01	-1.632426e+03
3.200000e-07	-4.373096e-06	-2.474901e-08	-3.133681e+01	-1.624445e+03
3.300000e-07	-4.313171e-06	-2.463328e-08	-3.090740e+01	-1.616117e+03
3.400000e-07	-4.251794e-06	-2.447422e-08	-3.046759e+01	-1.607442e+03
3.500000e-07	-4.189002e-06	-2.433049e-08	-3.001762e+01	-1.598428e+03
3.600000e-07	-4.124878e-06	-2.420492e-08	-2.955812e+01	-1.589084e+03
3.700000e-07	-4.059164e-06	-2.408220e-08	-2.908723e+01	-1.579417e+03
3.800000e-07	-3.991782e-06	-2.393610e-08	-2.860439e+01	-1.569431e+03
3.900000e-07	-3.923001e-06	-2.372925e-08	-2.811151e+01	-1.559116e+03
4.000000e-07	-3.852938e-06	-2.356844e-08	-2.760946e+01	-1.548455e+03
4.100000e-07	-3.781647e-06	-2.342670e-08	-2.709859e+01	-1.537421e+03
4.200000e-07	-3.709084e-06	-2.324794e-08	-2.657862e+01	-1.525980e+03
4.300000e-07	-3.634979e-06	-2.306298e-08	-2.604760e+01	-1.514100e+03
4.400000e-07	-3.559259e-06	-2.286783e-08	-2.550500e+01	-1.501756e+03
4.500000e-07	-3.482208e-06	-2.266668e-08	-2.495287e+01	-1.488929e+03
4.600000e-07	-3.403866e-06	-2.245551e-08	-2.439148e+01	-1.475609e+03
4.700000e-07	-3.324125e-06	-2.225396e-08	-2.382007e+01	-1.461795e+03
4.800000e-07	-3.243058e-06	-2.204851e-08	-2.323917e+01	-1.447484e+03
4.900000e-07	-3.160795e-06	-2.181839e-08	-2.264968e+01	-1.432673e+03
5.000000e-07	-3.077500e-06	-2.158094e-08	-2.205281e+01	-1.417350e+03
5.100000e-07	-2.993327e-06	-2.133091e-08	-2.144963e+01	-1.401488e+03
5.200000e-07	-2.908244e-06	-2.107649e-08	-2.083995e+01	-1.385054e+03
5.300000e-07	-2.822179e-06	-2.081590e-08	-2.022322e+01	-1.368002e+03
5.400000e-07	-2.735164e-06	-2.054592e-08	-1.959969e+01	-1.350287e+03
5.500000e-07	-2.647278e-06	-2.026368e-08	-1.896991e+01	-1.331861e+03
5.600000e-07	-2.558380e-06	-1.996658e-08	-1.833288e+01	-1.312687e+03
5.700000e-07	-2.468276e-06	-1.966534e-08	-1.768722e+01	-1.292730e+03
5.800000e-07	-2.377068e-06	-1.935232e-08	-1.703363e+01	-1.271966e+03
5.900000e-07	-2.285025e-06	-1.902479e-08	-1.637407e+01	-1.250368e+03
6.000000e-07	-2.192269e-06	-1.868080e-08	-1.570940e+01	-1.227908e+03
6.100000e-07	-2.098697e-06	-1.832370e-08	-1.503888e+01	-1.204544e+03
6.200000e-07	-2.004357e-06	-1.795028e-08	-1.436286e+01	-1.180221e+03
6.300000e-07	-1.909360e-06	-1.755680e-08	-1.368213e+01	-1.154866e+03
6.400000e-07	-1.813768e-06	-1.714888e-08	-1.299713e+01	-1.128391e+03
6.500000e-07	-1.717610e-06	-1.672422e-08	-1.230808e+01	-1.100698e+03
6.600000e-07	-1.620772e-06	-1.628139e-08	-1.161416e+01	-1.071683e+03
6.700000e-07	-1.523182e-06	-1.581786e-08	-1.091484e+01	-1.041244e+03
6.800000e-07	-1.424877e-06	-1.533213e-08	-1.021041e+01	-1.009283e+03
6.900000e-07	-1.325976e-06	-1.482233e-08	-9.501704e+00	-9.757102e+02
7.000000e-07	-1.226595e-06	-1.428606e-08	-8.789560e+00	-9.404397e+02
7.100000e-07	-1.126880e-06	-1.371982e-08	-8.075016e+00	-9.033901e+02
7.200000e-07	-1.026900e-06	-1.312411e-08	-7.358580e+00	-8.644831e+02
7.300000e-07	-9.266684e-07	-1.250126e-08	-6.640337e+00	-8.236453e+02
7.400000e-07	-8.262201e-07	-1.184930e-08	-5.920543e+00	-7.808150e+02
7.500000e-07	-7.254832e-07	-1.116839e-08	-5.198681e+00	-7.359531e+02
7.600000e-07	-6.244178e-07	-1.045401e-08	-4.474464e+00	-6.890571e+02
7.700000e-07	-5.231350e-07	-9.707041e-09	-3.748690e+00	-6.401760e+02
7.800000e-07	-4.217129e-07	-8.932570e-09	-3.021918e+00	-5.894217e+02
7.900000e-07	-3.201511e-07	-8.131775e-09	-2.294145e+00	-5.369723e+02
8.000000e-07	-2.184207e-07	-7.310174e-09	-1.565163e+00	-4.830663e+02
8.100000e-07	-1.165796e-07	-6.473211e-09	-8.353882e-01	-4.279840e+02
8.200000e-07	-1.464620e-08	-5.622130e-09	-1.049520e-01	-3.720197e+02
8.300000e-07	8.736509e-08	-4.759937e-09	6.260423e-01	-3.154464e+02
8.400000e-07	1.893363e-07	-3.891963e-09	1.356750e+00	-2.584799e+02
8.500000e-07	2.912474e-07	-3.021901e-09	2.087026e+00	-2.012494e+02
8.600000e-07	3.930647e-07	-2.149350e-09	2.816630e+00	-1.437792e+02
8.700000e-07	4.947540e-07	-1.270126e-09	3.545317e+00	-8.598794e+01
8.800000e-07	5.963067e-07	-3.810142e-10	4.273025e+00	-2.770617e+01
8.900000e-07	6.975913e-07	5.209593e-10	4.998812e+00	3.128908e+01
9.000000e-07	7.985528e-07	1.435169e-09	5.722284e+00	9.122719e+01
9.100000e-07	8.992351e-07	2.365768e-09	6.443755e+00	1.522920e+02
9.200000e-07	9.996884e-07	3.314903e-09	7.163585e+00	2.145731e+02
9.300000e-07	1.099887e-06	4.280020e-09	7.881593e+00	2.780288e+02
9.400000e-07	1.199764e-06	5.259879e-09	8.597293e+00	3.424663e+02
9.500000e-07	1.299314e-06	6.249325e-09	9.310644e+00	4.075436e+02
9.600000e-07	1.398452e-06	7.242563e-09	1.002105e+01	4.727916e+02
9.700000e-07	1.496962e-06	8.230545e-09	1.072696e+01	5.376533e+02
9.800000e-07	1.594669e-06	9.203124e-09	1.142711e+01	6.015340e+02
9.900000e-07	1.691596e-06	1.014976e-08	1.212167e+01	6.638548e+02
1.000000e-06	1.787801e-06	1.106269e-08	1.281106e+01	7.241006e+02
1.010000e-06	1.883345e-06	1.193846e-08	1.349571e+01	7.818584e+02
1.020000e-06	1.978245e-06	1.277229e-08	1.417575e+01	8.368392e+02
1.030000e-06	2.072504e-06	1.356198e-08	1.485119e+01	8.888838e+02
1.040000e-06	2.166058e-06	1.430634e-08	1.552158e+01	9.379534e+02
1.050000e-06	2.258816e-06	1.500504e-08	1.618627e+01	9.841089e+02
1.060000e-06	2.350894e-06	1.566072e-08	1.684608e+01	1.027482e+03
1.070000e-06	2.442331e-06	1.627769e-08	1.750130e+01	1.068249e+03
1.080000e-06	2.532830e-06	1.686083e-08	1.814980e+01	1.106598e+03
1.090000e-06	2.622129e-06	1.741290e-08	1.878970e+01	1.142717e+03
1.100000e-06	2.710368e-06	1.793095e-08	1.942200e+01	1.176775e+03
1.110000e-06	2.797727e-06	1.841734e-08	2.004800e+01	1.208917e+03
1.120000e-06	2.884175e-06	1.887701e-08	2.066747e+01	1.239272e+03
1.130000e-06	2.969629e-06	1.931347e-08	2.127982e+01	1.267950e+03
1.140000e-06	3.054142e-06	1.972633e-08	2.188543e+01	1.295052e+03
1.150000e-06	3.137842e-06	2.011593e-08	2.248521e+01	1.320676e+03
1.160000e-06	3.220490e-06	2.048442e-08	2.307744e+01	1.344920e+03
1.170000e-06	3.301818e-06	2.083351e-08	2.366023e+01	1.367882e+03
1.180000e-06	3.381928e-06	2.116671e-08	2.423428e+01	1.389659e+03
1.190000e-06	3.460861e-06	2.148425e-08	2.479990e+01	1.410342e+03
1.200000e-06	3.538550e-06	2.178329e-08	2.535660e+01	1.430015e+03
1.210000e-06	3.614982e-06	2.206517e-08	2.590430e+01	1.448749e+03
1.220000e-06	3.690099e-06	2.233412e-08	2.644258e+01	1.466602e+03
1.230000e-06	3.763604e-06	2.259013e-08	2.696930e+01	1.483622e+03
1.240000e-06	3.835490e-06	2.283463e-08	2.748443e+01	1.499845e+03
1.250000e-06	3.906070e-06	2.306732e-08	2.799019e+01	1.515301e+03
1.260000e-06	3.975340e-06	2.329030e-08	2.848656e+01	1.530021e+03
1.270000e-06	4.043279e-06	2.350352e-08	2.897341e+01	1.544035e+03
1.280000e-06	4.109742e-06	2.370500e-08	2.944967e+01	1.557376e+03
1.290000e-06	4.174503e-06	2.389672e-08	2.991373e+01	1.570084e+03
1.300000e-06	4.237735e-06	2.408014e-08	3.036684e+01	1.582196e+03
1.310000e-06	4.299581e-06	2.425512e-08	3.081002e+01	1.593751e+03
1.320000e-06	4.360068e-06	2.442202e-08	3.124345e+01	1.604782e+03
1.330000e-06	4.419133e-06	2.458166e-08	3.166670e+01	1.615316e+03
1.340000e-06	4.476483e-06	2.473517e-08	3.207766e+01	1.625367e+03
1.350000e-06	4.532112e-06	2.488225e-08	3.247629e+01	1.634946e+03
1.360000e-06	4.586096e-06	2.502221e-08	3.286313e+01	1.644052e+03
1.370000e-06	4.638264e-06	2.515531e-08	3.323696e+01	1.652686e+03
1.380000e-06	4.688434e-06	2.528094e-08	3.359646e+01	1.660848e+03
1.390000e-06	4.736649e-06	2.539779e-08	3.394196e+01	1.668543e+03
1.400000e-06	4.783131e-06	2.550533e-08	3.427505e+01	1.675786e+03
1.410000e-06	4.828085e-06	2.560572e-08	3.459718e+01	1.682601e+03
1.420000e-06	4.871499e-06	2.570278e-08	3.490828e+01	1.689015e+03
1.430000e-06	4.913035e-06	2.579536e-08	3.520591e+01	1.695064e+03
1.440000e-06	4.952719e-06	2.588282e-08	3.549028e+01	1.700779e+03
1.450000e-06	4.990796e-06	2.596588e-08	3.576314e+01	1.706187e+03
1.460000e-06	5.027299e-06	2.604325e-08	3.602471e+01	1.711306e+03
1.470000e-06	5.062071e-06	2.611538e-08	3.627388e+01	1.716141e+03
1.480000e-06	5.094953e-06	2.618395e-08	3.650950e+01	1.720690e+03
1.490000e-06	5.126017e-06	2.624979e-08	3.673210e+01	1.724944e+03
1.500000e-06	5.155415e-06	2.631086e-08	3.694276e+01	1.728887e+03
1.510000e-06	5.183152e-06	2.636626e-08	3.714152e+01	1.732507e+03
1.520000e-06	5.208862e-06	2.641644e-08	3.732576e+01	1.735798e+03
1.530000e-06	5.232465e-06	2.646136e-08	3.749489e+01	1.738758e+03
1.540000e-06	5.254258e-06	2.650087e-08	3.765106e+01	1.741397e+03
1.550000e-06	5.274391e-06	2.653475e-08	3.779533e+01	1.743727e+03
1.560000e-06	5.292694e-06	2.656442e-08	3.792648e+01	1.745767e+03
1.570000e-06	5.308969e-06	2.659057e-08	3.804311e+01	1.747534e+03
1.580000e-06	5.323266e-06	2.661475e-08	3.814555e+01	1.749043e+03
1.590000e-06	5.335574e-06	2.663654e-08	3.823375e+01	1.750307e+03
1.600000e-06	5.345717e-06	2.665379e-08	3.830644e+01	1.751332e+03
1.610000e-06	5.353732e-06	2.666514e-08	3.836387e+01	1.752122e+03
1.620000e-06	5.359853e-06	2.667261e-08	3.840773e+01	1.752681e+03
1.630000e-06	5.364210e-06	2.667788e-08	3.843895e+01	1.753010e+03
1.640000e-06	5.366672e-06	2.668051e-08	3.845659e+01	1.753115e+03
1.650000e-06	5.367147e-06	2.668232e-08	3.846000e+01	1.752999e+03
1.660000e-06	5.365805e-06	2.667550e-08	3.845038e+01	1.752669e+03
1.670000e-06	5.362800e-06	2.666471e-08	3.842885e+01	1.752126e+03
1.680000e-06	5.358162e-06	2.665621e-08	3.839561e+01	1.751370e+03
1.690000e-06	5.351635e-06	2.664312e-08	3.834884e+01	1.750394e+03
1.700000e-06	5.343255e-06	2.662626e-08	3.828879e+01	1.749187e+03
1.710000e-06	5.333343e-06	2.660852e-08	3.821777e+01	1.747741e+03
1.720000e-06	5.321750e-06	2.659912e-08	3.813469e+01	1.746045e+03
1.730000e-06	5.308206e-06	2.656349e-08	3.803764e+01	1.744099e+03
1.740000e-06	5.292630e-06	2.642954e-08	3.792603e+01	1.741912e+03
1.750000e-06	5.274834e-06	2.638873e-08	3.779850e+01	1.739506e+03
1.760000e-06	5.254455e-06	2.641203e-08	3.765247e+01	1.736911e+03
1.770000e-06	5.231636e-06	2.641669e-08	3.748895e+01	1.734166e+03
1.780000e-06	5.207358e-06	2.648900e-08	3.731498e+01	1.731308e+03
1.790000e-06	5.182328e-06	2.628209e-08	3.713562e+01	1.728365e+03
1.800000e-06	5.156097e-06	2.615960e-08	3.694766e+01	1.725352e+03
1.810000e-06	5.127780e-06	2.631261e-08	3.674474e+01	1.722263e+03
1.820000e-06	5.097432e-06	2.610711e-08	3.652727e+01	1.719071e+03
1.830000e-06	5.065406e-06	2.610487e-08	3.629778e+01	1.715734e+03
1.840000e-06	5.031561e-06	2.627209e-08	3.605525e+01	1.712197e+03
1.850000e-06	4.996121e-06	2.597203e-08	3.580130e+01	1.708403e+03
1.860000e-06	4.958987e-06	2.592827e-08	3.553520e+01	1.704303e+03
1.870000e-06	4.919870e-06	2.597111e-08	3.525490e+01	1.699860e+03
1.880000e-06	4.879059e-06	2.580760e-08	3.496245e+01	1.695053e+03
1.890000e-06	4.836519e-06	2.585989e-08	3.465762e+01	1.689881e+03
1.900000e-06	4.792263e-06	2.566988e-08	3.434048e+01	1.684352e+03
1.910000e-06	4.746226e-06	2.558178e-08	3.401059e+01	1.678486e+03
1.920000e-06	4.698269e-06	2.567647e-08	3.366694e+01	1.672300e+03
1.930000e-06	4.648654e-06	2.541018e-08	3.331141e+01	1.665807e+03
1.940000e-06	4.597239e-06	2.532261e-08	3.294298e+01	1.659012e+03
1.950000e-06	4.543780e-06	2.525678e-08	3.255990e+01	1.651910e+03
1.960000e-06	4.488449e-06	2.512335e-08	3.216341e+01	1.644490e+03
1.970000e-06	4.431388e-06	2.502679e-08	3.175452e+01	1.636739e+03
1.980000e-06	4.372781e-06	2.481064e-08	3.133456e+01	1.628645e+03
1.990000e-06	4.312808e-06	2.479591e-08	3.090480e+01	1.620204e+03
2.000000e-06	4.251260e-06	2.467307e-08	3.046376e+01	1.611418e+03
2.010000e-06	4.188000e-06	2.444778e-08	3.001045e+01	1.602296e+03
2.020000e-06	4.123157e-06	2.431469e-08	2.954579e+01	1.592846e+03
2.030000e-06	4.056918e-06	2.415522e-08	2.907114e+01	1.583075e+03
2.040000e-06	3.989399e-06	2.408255e-08	2.858731e+01	1.572983e+03
2.050000e-06	3.920393e-06	2.387257e-08	2.809282e+01	1.562559e+03
2.060000e-06	3.849748e-06	2.369267e-08	2.758660e+01	1.551780e+03
2.070000e-06	3.777722e-06	2.357175e-08	2.707047e+01	1.540617e+03
2.080000e-06	3.704507e-06	2.335693e-08	2.654582e+01	1.529037e+03
2.090000e-06	3.629941e-06	2.318727e-08	2.601150e+01	1.517010e+03
2.100000e-06	3.553940e-06	2.298606e-08	2.546689e+01	1.504510e+03
2.110000e-06	3.476441e-06	2.281783e-08	2.491155e+01	1.491524e+03
2.120000e-06	3.397486e-06	2.260145e-08	2.434577e+01	1.478044e+03
2.130000e-06	3.317343e-06	2.235574e-08	2.377147e+01	1.464069e+03
2.140000e-06	3.236080e-06	2.214909e-08	2.318916e+01	1.449598e+03
2.150000e-06	3.153702e-06	2.192352e-08	2.259886e+01	1.434623e+03
2.160000e-06	3.070365e-06	2.171207e-08	2.200168e+01	1.419128e+03
2.170000e-06	2.986012e-06	2.146019e-08	2.139722e+01	1.403085e+03
2.180000e-06	2.900354e-06	2.120600e-08	2.078341e+01	1.386456e+03
2.190000e-06	2.813410e-06	2.094203e-08	2.016039e+01	1.369195e+03
2.200000e-06	2.725455e-06	2.066646e-08	1.953011e+01	1.351255e+03
2.210000e-06	2.636603e-06	2.038494e-08	1.889342e+01	1.332591e+03
2.220000e-06	2.546855e-06	2.007977e-08	1.825030e+01	1.313167e+03
2.230000e-06	2.456204e-06	1.977577e-08	1.760071e+01	1.292953e+03
2.240000e-06	2.364810e-06	1.945616e-08	1.694580e+01	1.271922e+03
2.250000e-06	2.272783e-06	1.912877e-08	1.628635e+01	1.250050e+03
2.260000e-06	2.179894e-06	1.878113e-08	1.562072e+01	1.227303e+03
2.270000e-06	2.085955e-06	1.842363e-08	1.494757e+01	1.203636e+03
2.280000e-06	1.991039e-06	1.805167e-08	1.426743e+01	1.178989e+03
2.290000e-06	1.895377e-06	1.765528e-08	1.358193e+01	1.153283e+03
2.300000e-06	1.799139e-06	1.724482e-08	1.289231e+01	1.126426e+03
2.310000e-06	1.702369e-06	1.681949e-08	1.219886e+01	1.098318e+03
2.320000e-06	1.605105e-06	1.637737e-08	1.150189e+01	1.068855e+03
2.330000e-06	1.507342e-06	1.590448e-08	1.080134e+01	1.037936e+03
2.340000e-06	1.409070e-06	1.540446e-08	1.009714e+01	1.005465e+03
2.350000e-06	1.310318e-06	1.488347e-08	9.389499e+00	9.713545e+02
2.360000e-06	1.211186e-06	1.434237e-08	8.679136e+00	9.355196e+02
2.370000e-06	1.111778e-06	1.377119e-08	7.966802e+00	8.978801e+02
2.380000e-06	1.012142e-06	1.316673e-08	7.252827e+00	8.583588e+02
2.390000e-06	9.122632e-07	1.253129e-08	6.537112e+00	8.168852e+02
2.400000e-06	8.120753e-07	1.186537e-08	5.819184e+00	7.734034e+02
2.410000e-06	7.115577e-07	1.116979e-08	5.098893e+00	7.278845e+02
2.420000e-06	6.106887e-07	1.044395e-08	4.376084e+00	6.803409e+02
2.430000e-06	5.095323e-07	9.692402e-09	3.651216e+00	6.308411e+02
2.440000e-06	4.082019e-07	8.913588e-09	2.925100e+00	5.795181e+02
2.450000e-06	3.066491e-07	8.104325e-09	2.197392e+00	5.265707e+02
2.460000e-06	2.048825e-07	7.269304e-09	1.468151e+00	4.722534e+02
2.470000e-06	1.029958e-07	6.422756e-09	7.380488e-01	4.168546e+02
2.480000e-06	1.039647e-09	5.568609e-09	7.449918e-03	3.606655e+02
2.490000e-06	-1.008898e-07	4.702299e-09	-7.229582e-01	3.039446e+02
2.500000e-06	-2.027183e-07	3.826772e-09	-1.452643e+00	2.468827e+02
2.510000e-06	-3.044357e-07	2.948578e-09	-2.181531e+00	1.895765e+02
2.520000e-06	-4.060488e-07	2.068071e-09	-2.909672e+00	1.320155e+02
2.530000e-06	-5.074759e-07	1.181840e-09	-3.636480e+00	7.408717e+01
2.540000e-06	-6.086610e-07	2.896325e-10	-4.361554e+00	1.560044e+01
2.550000e-06	-7.095889e-07	-6.125813e-10	-5.084785e+00	-4.367526e+01
2.560000e-06	-8.102178e-07	-1.530887e-09	-5.805874e+00	-1.039604e+02
2.570000e-06	-9.104856e-07	-2.470060e-09	-6.524374e+00	-1.654134e+02
2.580000e-06	-1.010422e-06	-3.427444e-09	-7.240498e+00	-2.280849e+02
2.590000e-06	-1.110091e-06	-4.400225e-09	-7.954708e+00	-2.918858e+02
2.600000e-06	-1.209450e-06	-5.388598e-09	-8.666702e+00	-3.565743e+02
2.610000e-06	-1.308434e-06	-6.385459e-09	-9.375998e+00	-4.217641e+02
2.620000e-06	-1.406958e-06	-7.383256e-09	-1.008200e+01	-4.869528e+02
2.630000e-06	-1.504968e-06	-8.372824e-09	-1.078433e+01	-5.515656e+02
2.640000e-06	-1.602410e-06	-9.344770e-09	-1.148258e+01	-6.150072e+02
2.650000e-06	-1.699263e-06	-1.029149e-08	-1.217661e+01	-6.767142e+02
2.660000e-06	-1.795582e-06	-1.120383e-08	-1.286682e+01	-7.362010e+02
2.670000e-06	-1.891416e-06	-1.207683e-08	-1.355354e+01	-7.930927e+02
2.680000e-06	-1.986672e-06	-1.290504e-08	-1.423613e+01	-8.471422e+02
2.690000e-06	-2.081037e-06	-1.368578e-08	-1.491233e+01	-8.982308e+02
2.700000e-06	-2.174375e-06	-1.442277e-08	-1.558117e+01	-9.463543e+02
2.710000e-06	-2.266833e-06	-1.511800e-08	-1.624371e+01	-9.915998e+02
2.720000e-06	-2.358495e-06	-1.577271e-08	-1.690055e+01	-1.034116e+03
2.730000e-06	-2.449342e-06	-1.638927e-08	-1.755154e+01	-1.074086e+03
2.740000e-06	-2.539308e-06	-1.697052e-08	-1.819622e+01	-1.111701e+03
2.750000e-06	-2.628352e-06	-1.751629e-08	-1.883429e+01	-1.147141e+03
2.760000e-06	-2.716576e-06	-1.802533e-08	-1.946649e+01	-1.180569e+03
2.770000e-06	-2.803984e-06	-1.850422e-08	-2.009284e+01	-1.212125e+03
2.780000e-06	-2.890407e-06	-1.895886e-08	-2.071213e+01	-1.241931e+03
2.790000e-06	-2.975662e-06	-1.938842e-08	-2.132305e+01	-1.270092e+03
2.800000e-06	-3.059725e-06	-1.979570e-08	-2.192543e+01	-1.296710e+03
2.810000e-06	-3.142747e-06	-2.018262e-08	-2.252035e+01	-1.321881e+03
2.820000e-06	-3.224777e-06	-2.054930e-08	-2.310817e+01	-1.345704e+03
2.830000e-06	-3.305743e-06	-2.089596e-08	-2.368836e+01	-1.368276e+03
2.840000e-06	-3.385655e-06	-2.122335e-08	-2.426099e+01	-1.389693e+03
2.850000e-06	-3.464309e-06	-2.153428e-08	-2.482461e+01	-1.410044e+03
2.860000e-06	-3.541457e-06	-2.183125e-08	-2.537743e+01	-1.429409e+03
2.870000e-06	-3.617122e-06	-2.211528e-08	-2.591964e+01	-1.447855e+03
2.880000e-06	-3.691366e-06	-2.238540e-08	-2.645166e+01	-1.465437e+03
2.890000e-06	-3.764293e-06	-2.264229e-08	-2.697424e+01	-1.482199e+03
2.900000e-06	-3.835979e-06	-2.288706e-08	-2.748792e+01	-1.498173e+03
2.910000e-06	-3.906227e-06	-2.311989e-08	-2.799131e+01	-1.513391e+03
2.920000e-06	-3.974869e-06	-2.334374e-08	-2.848319e+01	-1.527882e+03
2.930000e-06	-4.042073e-06	-2.355883e-08	-2.896476e+01	-1.541677e+03
2.940000e-06	-4.107895e-06	-2.376367e-08	-2.943643e+01	-1.554811e+03
