# Temperatura_=_70.6
# Concentracion g/m^3_=_28200.0
# C_Vs_to_Am_M_A/Vsm_=_65563218390.804596
# pendiente_HvsI_1/m_=_3716.3
# ordenada_HvsI_A/m_=_1297.0
# frecuencia_Hz_=_301765.9051311083

Tiempo_(s)	Campo_(V.s)	Magnetizacion_(V.s)	Campo_(kA/m)	Magnetizacion_(A/m)
0.000000e+00	-5.321863e-06	-2.403384e-08	-3.829979e+01	-1.572692e+03
1.000000e-08	-5.319739e-06	-2.403107e-08	-3.828450e+01	-1.572323e+03
2.000000e-08	-5.315796e-06	-2.402085e-08	-3.825612e+01	-1.571775e+03
3.000000e-08	-5.310197e-06	-2.400827e-08	-3.821583e+01	-1.571040e+03
4.000000e-08	-5.302998e-06	-2.399405e-08	-3.816402e+01	-1.570104e+03
5.000000e-08	-5.294150e-06	-2.397431e-08	-3.810035e+01	-1.568950e+03
6.000000e-08	-5.283353e-06	-2.395001e-08	-3.802264e+01	-1.567561e+03
7.000000e-08	-5.270597e-06	-2.391640e-08	-3.793084e+01	-1.565930e+03
8.000000e-08	-5.255881e-06	-2.389607e-08	-3.782493e+01	-1.564059e+03
9.000000e-08	-5.238943e-06	-2.393136e-08	-3.770303e+01	-1.561966e+03
1.000000e-07	-5.219869e-06	-2.391332e-08	-3.756576e+01	-1.559682e+03
1.100000e-07	-5.198918e-06	-2.382105e-08	-3.741499e+01	-1.557244e+03
1.200000e-07	-5.176181e-06	-2.375661e-08	-3.725136e+01	-1.554693e+03
1.300000e-07	-5.151884e-06	-2.363769e-08	-3.707650e+01	-1.552060e+03
1.400000e-07	-5.126064e-06	-2.360722e-08	-3.689068e+01	-1.549365e+03
1.500000e-07	-5.098567e-06	-2.372185e-08	-3.669280e+01	-1.546607e+03
1.600000e-07	-5.069517e-06	-2.357525e-08	-3.648373e+01	-1.543766e+03
1.700000e-07	-5.039054e-06	-2.351730e-08	-3.626450e+01	-1.540805e+03
1.800000e-07	-5.006790e-06	-2.358424e-08	-3.603230e+01	-1.537678e+03
1.900000e-07	-4.972417e-06	-2.335320e-08	-3.578493e+01	-1.534336e+03
2.000000e-07	-4.936412e-06	-2.331230e-08	-3.552582e+01	-1.530734e+03
2.100000e-07	-4.898889e-06	-2.337414e-08	-3.525577e+01	-1.526840e+03
2.200000e-07	-4.859641e-06	-2.320837e-08	-3.497332e+01	-1.522636e+03
2.300000e-07	-4.818523e-06	-2.314527e-08	-3.467741e+01	-1.518120e+03
2.400000e-07	-4.775374e-06	-2.308654e-08	-3.436687e+01	-1.513298e+03
2.500000e-07	-4.730400e-06	-2.297229e-08	-3.404321e+01	-1.508185e+03
2.600000e-07	-4.683715e-06	-2.293601e-08	-3.370723e+01	-1.502793e+03
2.700000e-07	-4.635134e-06	-2.279783e-08	-3.335761e+01	-1.497132e+03
2.800000e-07	-4.584413e-06	-2.268891e-08	-3.299259e+01	-1.491201e+03
2.900000e-07	-4.531704e-06	-2.263013e-08	-3.261326e+01	-1.484996e+03
3.000000e-07	-4.477327e-06	-2.252609e-08	-3.222192e+01	-1.478505e+03
3.100000e-07	-4.421333e-06	-2.241540e-08	-3.181895e+01	-1.471715e+03
3.200000e-07	-4.363541e-06	-2.230866e-08	-3.140304e+01	-1.464617e+03
3.300000e-07	-4.304051e-06	-2.221113e-08	-3.097491e+01	-1.457207e+03
3.400000e-07	-4.243180e-06	-2.207441e-08	-3.053684e+01	-1.449487e+03
3.500000e-07	-4.180905e-06	-2.194352e-08	-3.008867e+01	-1.441464e+03
3.600000e-07	-4.117217e-06	-2.183385e-08	-2.963032e+01	-1.433146e+03
3.700000e-07	-4.052048e-06	-2.171389e-08	-2.916132e+01	-1.424540e+03
3.800000e-07	-3.985178e-06	-2.158386e-08	-2.868008e+01	-1.415646e+03
3.900000e-07	-3.916754e-06	-2.140867e-08	-2.818765e+01	-1.406455e+03
4.000000e-07	-3.847061e-06	-2.125485e-08	-2.768610e+01	-1.396950e+03
4.100000e-07	-3.776203e-06	-2.113464e-08	-2.717615e+01	-1.387108e+03
4.200000e-07	-3.704127e-06	-2.097628e-08	-2.665744e+01	-1.376900e+03
4.300000e-07	-3.630642e-06	-2.081091e-08	-2.612860e+01	-1.366300e+03
4.400000e-07	-3.555604e-06	-2.063891e-08	-2.558857e+01	-1.355286e+03
4.500000e-07	-3.479059e-06	-2.046072e-08	-2.503770e+01	-1.343841e+03
4.600000e-07	-3.401184e-06	-2.027200e-08	-2.447726e+01	-1.331956e+03
4.700000e-07	-3.321996e-06	-2.008446e-08	-2.390737e+01	-1.319627e+03
4.800000e-07	-3.241491e-06	-1.990193e-08	-2.332800e+01	-1.306848e+03
4.900000e-07	-3.159750e-06	-1.969991e-08	-2.273973e+01	-1.293615e+03
5.000000e-07	-3.076902e-06	-1.949042e-08	-2.214350e+01	-1.279914e+03
5.100000e-07	-2.993132e-06	-1.926672e-08	-2.154064e+01	-1.265726e+03
5.200000e-07	-2.908522e-06	-1.903813e-08	-2.093173e+01	-1.251022e+03
5.300000e-07	-2.823011e-06	-1.880536e-08	-2.031633e+01	-1.235767e+03
5.400000e-07	-2.736538e-06	-1.856305e-08	-1.969401e+01	-1.219923e+03
5.500000e-07	-2.649150e-06	-1.831100e-08	-1.906510e+01	-1.203450e+03
5.600000e-07	-2.560830e-06	-1.804645e-08	-1.842949e+01	-1.186313e+03
5.700000e-07	-2.471387e-06	-1.777576e-08	-1.778580e+01	-1.168477e+03
5.800000e-07	-2.380744e-06	-1.749341e-08	-1.713347e+01	-1.149912e+03
5.900000e-07	-2.289133e-06	-1.719920e-08	-1.647417e+01	-1.130584e+03
6.000000e-07	-2.196871e-06	-1.689273e-08	-1.581019e+01	-1.110461e+03
6.100000e-07	-2.103974e-06	-1.657499e-08	-1.514164e+01	-1.089501e+03
6.200000e-07	-2.010243e-06	-1.624120e-08	-1.446709e+01	-1.067654e+03
6.300000e-07	-1.915728e-06	-1.588660e-08	-1.378690e+01	-1.044861e+03
6.400000e-07	-1.820578e-06	-1.551695e-08	-1.310213e+01	-1.021051e+03
6.500000e-07	-1.724801e-06	-1.513524e-08	-1.241286e+01	-9.961480e+02
6.600000e-07	-1.628420e-06	-1.473760e-08	-1.171923e+01	-9.700709e+02
6.700000e-07	-1.531481e-06	-1.432289e-08	-1.102159e+01	-9.427353e+02
6.800000e-07	-1.433901e-06	-1.389015e-08	-1.031934e+01	-9.140572e+02
6.900000e-07	-1.335610e-06	-1.343229e-08	-9.611967e+00	-8.839533e+02
7.000000e-07	-1.236752e-06	-1.294785e-08	-8.900518e+00	-8.523421e+02
7.100000e-07	-1.137471e-06	-1.243674e-08	-8.186024e+00	-8.191447e+02
7.200000e-07	-1.037842e-06	-1.190269e-08	-7.469025e+00	-7.842877e+02
7.300000e-07	-9.379346e-07	-1.134660e-08	-6.750022e+00	-7.477071e+02
7.400000e-07	-8.377717e-07	-1.076589e-08	-6.029182e+00	-7.093559e+02
7.500000e-07	-7.373626e-07	-1.015727e-08	-5.306569e+00	-6.692128e+02
7.600000e-07	-6.367552e-07	-9.519172e-09	-4.582529e+00	-6.272926e+02
7.700000e-07	-5.359897e-07	-8.853491e-09	-3.857351e+00	-5.836554e+02
7.800000e-07	-4.350253e-07	-8.164098e-09	-3.130741e+00	-5.384125e+02
7.900000e-07	-3.338970e-07	-7.454675e-09	-2.402952e+00	-4.917258e+02
8.000000e-07	-2.326275e-07	-6.726097e-09	-1.674147e+00	-4.438016e+02
8.100000e-07	-1.312259e-07	-5.982409e-09	-9.443921e-01	-3.948749e+02
8.200000e-07	-2.975857e-08	-5.225723e-09	-2.141632e-01	-3.451881e+02
8.300000e-07	7.171219e-08	-4.459802e-09	5.160902e-01	-2.949653e+02
8.400000e-07	1.731616e-07	-3.688496e-09	1.246190e+00	-2.443863e+02
8.500000e-07	2.745829e-07	-2.917085e-09	1.976087e+00	-1.935640e+02
8.600000e-07	3.758817e-07	-2.146236e-09	2.705103e+00	-1.425312e+02
8.700000e-07	4.770212e-07	-1.368878e-09	3.432973e+00	-9.123759e+01
8.800000e-07	5.780103e-07	-5.815051e-10	4.159759e+00	-3.956096e+01
8.900000e-07	6.788478e-07	2.191060e-10	4.885455e+00	1.266977e+01
9.000000e-07	7.795326e-07	1.031356e-09	5.610053e+00	6.564119e+01
9.100000e-07	8.799898e-07	1.853959e-09	6.333011e+00	1.195167e+02
9.200000e-07	9.801564e-07	2.687813e-09	7.053879e+00	1.743980e+02
9.300000e-07	1.080073e-06	3.534940e-09	7.772951e+00	2.302926e+02
9.400000e-07	1.179741e-06	4.396130e-09	8.490230e+00	2.870923e+02
9.500000e-07	1.279074e-06	5.270025e-09	9.205095e+00	3.445667e+02
9.600000e-07	1.377872e-06	6.150921e-09	9.916112e+00	4.023722e+02
9.700000e-07	1.475989e-06	7.030548e-09	1.062223e+01	4.600762e+02
9.800000e-07	1.573325e-06	7.901152e-09	1.132273e+01	5.171920e+02
9.900000e-07	1.669841e-06	8.753606e-09	1.201732e+01	5.732204e+02
1.000000e-06	1.765667e-06	9.581726e-09	1.270695e+01	6.276917e+02
1.010000e-06	1.860879e-06	1.038019e-08	1.339216e+01	6.802025e+02
1.020000e-06	1.955434e-06	1.114328e-08	1.407265e+01	7.304418e+02
1.030000e-06	2.049289e-06	1.186630e-08	1.474809e+01	7.782058e+02
1.040000e-06	2.142470e-06	1.254984e-08	1.541869e+01	8.233983e+02
1.050000e-06	2.234981e-06	1.319247e-08	1.608446e+01	8.660196e+02
1.060000e-06	2.326832e-06	1.379686e-08	1.674548e+01	9.061470e+02
1.070000e-06	2.417973e-06	1.436810e-08	1.740140e+01	9.439099e+02
1.080000e-06	2.508128e-06	1.491006e-08	1.805021e+01	9.794650e+02
1.090000e-06	2.597121e-06	1.542405e-08	1.869067e+01	1.012975e+03
1.100000e-06	2.685125e-06	1.590743e-08	1.932400e+01	1.044594e+03
1.110000e-06	2.772264e-06	1.636010e-08	1.995112e+01	1.074457e+03
1.120000e-06	2.858494e-06	1.678537e-08	2.057169e+01	1.102680e+03
1.130000e-06	2.943795e-06	1.718852e-08	2.118557e+01	1.129363e+03
1.140000e-06	3.028192e-06	1.757141e-08	2.179295e+01	1.154596e+03
1.150000e-06	3.111687e-06	1.793397e-08	2.239384e+01	1.178463e+03
1.160000e-06	3.194105e-06	1.827695e-08	2.298698e+01	1.201050e+03
1.170000e-06	3.275230e-06	1.860318e-08	2.357081e+01	1.222443e+03
1.180000e-06	3.355159e-06	1.891389e-08	2.414603e+01	1.242731e+03
1.190000e-06	3.433936e-06	1.920871e-08	2.471297e+01	1.261998e+03
1.200000e-06	3.511489e-06	1.948617e-08	2.527109e+01	1.280320e+03
1.210000e-06	3.587865e-06	1.974749e-08	2.582074e+01	1.297766e+03
1.220000e-06	3.662918e-06	1.999700e-08	2.636088e+01	1.314388e+03
1.230000e-06	3.736339e-06	2.023671e-08	2.688926e+01	1.330227e+03
1.240000e-06	3.808205e-06	2.046518e-08	2.740646e+01	1.345317e+03
1.250000e-06	3.878734e-06	2.068318e-08	2.791404e+01	1.359684e+03
1.260000e-06	3.947951e-06	2.089158e-08	2.841217e+01	1.373354e+03
1.270000e-06	4.015906e-06	2.108787e-08	2.890122e+01	1.386355e+03
1.280000e-06	4.082399e-06	2.127264e-08	2.937975e+01	1.398722e+03
1.290000e-06	4.147146e-06	2.144911e-08	2.984571e+01	1.410491e+03
1.300000e-06	4.210350e-06	2.161919e-08	3.030058e+01	1.421700e+03
1.310000e-06	4.272208e-06	2.178318e-08	3.074575e+01	1.432383e+03
1.320000e-06	4.332674e-06	2.193986e-08	3.118090e+01	1.442570e+03
1.330000e-06	4.391699e-06	2.208878e-08	3.160569e+01	1.452278e+03
1.340000e-06	4.449021e-06	2.222973e-08	3.201821e+01	1.461519e+03
1.350000e-06	4.504567e-06	2.236248e-08	3.241796e+01	1.470295e+03
1.360000e-06	4.558471e-06	2.248915e-08	3.280589e+01	1.478607e+03
1.370000e-06	4.610686e-06	2.260952e-08	3.318167e+01	1.486456e+03
1.380000e-06	4.660901e-06	2.272280e-08	3.354305e+01	1.493851e+03
1.390000e-06	4.709094e-06	2.282620e-08	3.388987e+01	1.500810e+03
1.400000e-06	4.755641e-06	2.292029e-08	3.422486e+01	1.507362e+03
1.410000e-06	4.800671e-06	2.301026e-08	3.454893e+01	1.513543e+03
1.420000e-06	4.844155e-06	2.309827e-08	3.486187e+01	1.519390e+03
1.430000e-06	4.885857e-06	2.318271e-08	3.516199e+01	1.524939e+03
1.440000e-06	4.925712e-06	2.326293e-08	3.544881e+01	1.530219e+03
1.450000e-06	4.963884e-06	2.334006e-08	3.572352e+01	1.535244e+03
1.460000e-06	5.000487e-06	2.341398e-08	3.598694e+01	1.540016e+03
1.470000e-06	5.035466e-06	2.348256e-08	3.623868e+01	1.544525e+03
1.480000e-06	5.068523e-06	2.354499e-08	3.647658e+01	1.548757e+03
1.490000e-06	5.099693e-06	2.360291e-08	3.670090e+01	1.552691e+03
1.500000e-06	5.129173e-06	2.365625e-08	3.691305e+01	1.556314e+03
1.510000e-06	5.156970e-06	2.370549e-08	3.711310e+01	1.559620e+03
1.520000e-06	5.182795e-06	2.375181e-08	3.729895e+01	1.562613e+03
1.530000e-06	5.206556e-06	2.379522e-08	3.746995e+01	1.565307e+03
1.540000e-06	5.228506e-06	2.383252e-08	3.762793e+01	1.567721e+03
1.550000e-06	5.248778e-06	2.386362e-08	3.777382e+01	1.569878e+03
1.560000e-06	5.267311e-06	2.389053e-08	3.790719e+01	1.571795e+03
1.570000e-06	5.283809e-06	2.391492e-08	3.802592e+01	1.573485e+03
1.580000e-06	5.298259e-06	2.393717e-08	3.812991e+01	1.574955e+03
1.590000e-06	5.310776e-06	2.395641e-08	3.821999e+01	1.576205e+03
1.600000e-06	5.321187e-06	2.397266e-08	3.829492e+01	1.577230e+03
1.610000e-06	5.329504e-06	2.398499e-08	3.835477e+01	1.578027e+03
1.620000e-06	5.335927e-06	2.399395e-08	3.840100e+01	1.578598e+03
1.630000e-06	5.340580e-06	2.400076e-08	3.843449e+01	1.578947e+03
1.640000e-06	5.343366e-06	2.400471e-08	3.845454e+01	1.579084e+03
1.650000e-06	5.344125e-06	2.400603e-08	3.846000e+01	1.579023e+03
1.660000e-06	5.343016e-06	2.400079e-08	3.845201e+01	1.578775e+03
1.670000e-06	5.340256e-06	2.399111e-08	3.843216e+01	1.578348e+03
1.680000e-06	5.335933e-06	2.398491e-08	3.840105e+01	1.577739e+03
1.690000e-06	5.329796e-06	2.397540e-08	3.835688e+01	1.576941e+03
1.700000e-06	5.321778e-06	2.396025e-08	3.829917e+01	1.575936e+03
1.710000e-06	5.312103e-06	2.394324e-08	3.822955e+01	1.574707e+03
1.720000e-06	5.300789e-06	2.393353e-08	3.814812e+01	1.573240e+03
1.730000e-06	5.287620e-06	2.391435e-08	3.805335e+01	1.571529e+03
1.740000e-06	5.272442e-06	2.381055e-08	3.794412e+01	1.569583e+03
1.750000e-06	5.255100e-06	2.374419e-08	3.781931e+01	1.567424e+03
1.760000e-06	5.235179e-06	2.376220e-08	3.767595e+01	1.565085e+03
1.770000e-06	5.212722e-06	2.376428e-08	3.751433e+01	1.562606e+03
1.780000e-06	5.188635e-06	2.382509e-08	3.734099e+01	1.560025e+03
1.790000e-06	5.163798e-06	2.369868e-08	3.716224e+01	1.557370e+03
1.800000e-06	5.137921e-06	2.353293e-08	3.697601e+01	1.554655e+03
1.810000e-06	5.110045e-06	2.366605e-08	3.677540e+01	1.551872e+03
1.820000e-06	5.080137e-06	2.355706e-08	3.656016e+01	1.548996e+03
1.830000e-06	5.048572e-06	2.347717e-08	3.633300e+01	1.545986e+03
1.840000e-06	5.015175e-06	2.366922e-08	3.609264e+01	1.542794e+03
1.850000e-06	4.980106e-06	2.348234e-08	3.584027e+01	1.539372e+03
1.860000e-06	4.943364e-06	2.335504e-08	3.557584e+01	1.535678e+03
1.870000e-06	4.904649e-06	2.343541e-08	3.529722e+01	1.531685e+03
1.880000e-06	4.864233e-06	2.328202e-08	3.500637e+01	1.527379e+03
1.890000e-06	4.822100e-06	2.327265e-08	3.470315e+01	1.522763e+03
1.900000e-06	4.778199e-06	2.318607e-08	3.438720e+01	1.517845e+03
1.910000e-06	4.732589e-06	2.305415e-08	3.405896e+01	1.512640e+03
1.920000e-06	4.685078e-06	2.314745e-08	3.371704e+01	1.507160e+03
1.930000e-06	4.635906e-06	2.295618e-08	3.336316e+01	1.501411e+03
1.940000e-06	4.585047e-06	2.281088e-08	3.299715e+01	1.495392e+03
1.950000e-06	4.532159e-06	2.278814e-08	3.261653e+01	1.489095e+03
1.960000e-06	4.477375e-06	2.266171e-08	3.222227e+01	1.482508e+03
1.970000e-06	4.420852e-06	2.258381e-08	3.181549e+01	1.475619e+03
1.980000e-06	4.362685e-06	2.240741e-08	3.139688e+01	1.468420e+03
1.990000e-06	4.303080e-06	2.234542e-08	3.096792e+01	1.460909e+03
2.000000e-06	4.242077e-06	2.227775e-08	3.052890e+01	1.453090e+03
2.010000e-06	4.179485e-06	2.206379e-08	3.007845e+01	1.444971e+03
2.020000e-06	4.115188e-06	2.195360e-08	2.961572e+01	1.436559e+03
2.030000e-06	4.049404e-06	2.182071e-08	2.914230e+01	1.427860e+03
2.040000e-06	3.982313e-06	2.173024e-08	2.865946e+01	1.418870e+03
2.050000e-06	3.913825e-06	2.157470e-08	2.816657e+01	1.409580e+03
2.060000e-06	3.843806e-06	2.138277e-08	2.766267e+01	1.399968e+03
2.070000e-06	3.772335e-06	2.128276e-08	2.714832e+01	1.390010e+03
2.080000e-06	3.699607e-06	2.109857e-08	2.662492e+01	1.379679e+03
2.090000e-06	3.625632e-06	2.093661e-08	2.609254e+01	1.368947e+03
2.100000e-06	3.550309e-06	2.077060e-08	2.555047e+01	1.357795e+03
2.110000e-06	3.473462e-06	2.060967e-08	2.499742e+01	1.346208e+03
2.120000e-06	3.395069e-06	2.043862e-08	2.443325e+01	1.334180e+03
2.130000e-06	3.315353e-06	2.020972e-08	2.385956e+01	1.321705e+03
2.140000e-06	3.234531e-06	2.001783e-08	2.327791e+01	1.308781e+03
2.150000e-06	3.152656e-06	1.981202e-08	2.268868e+01	1.295398e+03
2.160000e-06	3.069728e-06	1.961411e-08	2.209187e+01	1.281542e+03
2.170000e-06	2.985817e-06	1.939719e-08	2.148799e+01	1.267191e+03
2.180000e-06	2.900782e-06	1.916727e-08	2.087602e+01	1.252313e+03
2.190000e-06	2.814440e-06	1.894109e-08	2.025464e+01	1.236871e+03
2.200000e-06	2.726929e-06	1.869153e-08	1.962486e+01	1.220828e+03
2.210000e-06	2.638530e-06	1.843965e-08	1.898868e+01	1.204145e+03
2.220000e-06	2.549240e-06	1.816994e-08	1.834608e+01	1.186786e+03
2.230000e-06	2.459038e-06	1.789917e-08	1.769693e+01	1.168718e+03
2.240000e-06	2.368114e-06	1.761267e-08	1.704257e+01	1.149910e+03
2.250000e-06	2.276516e-06	1.731223e-08	1.638338e+01	1.130330e+03
2.260000e-06	2.184146e-06	1.699765e-08	1.571862e+01	1.109942e+03
2.270000e-06	2.090936e-06	1.667217e-08	1.504782e+01	1.088702e+03
2.280000e-06	1.996768e-06	1.634296e-08	1.437011e+01	1.066557e+03
2.290000e-06	1.901606e-06	1.599429e-08	1.368526e+01	1.043443e+03
2.300000e-06	1.805695e-06	1.562874e-08	1.299503e+01	1.019290e+03
2.310000e-06	1.709288e-06	1.524412e-08	1.230121e+01	9.940176e+02
2.320000e-06	1.612479e-06	1.484116e-08	1.160451e+01	9.675442e+02
2.330000e-06	1.515142e-06	1.441488e-08	1.090400e+01	9.397853e+02
2.340000e-06	1.417241e-06	1.396781e-08	1.019944e+01	9.106570e+02
2.350000e-06	1.318921e-06	1.350352e-08	9.491866e+00	8.800764e+02
2.360000e-06	1.220249e-06	1.301982e-08	8.781753e+00	8.479628e+02
2.370000e-06	1.121241e-06	1.250735e-08	8.069218e+00	8.142387e+02
2.380000e-06	1.021888e-06	1.196524e-08	7.354210e+00	7.788330e+02
2.390000e-06	9.222646e-07	1.139774e-08	6.637250e+00	7.416865e+02
2.400000e-06	8.224059e-07	1.080265e-08	5.918599e+00	7.027591e+02
2.410000e-06	7.223149e-07	1.018186e-08	5.198274e+00	6.620402e+02
2.420000e-06	6.220370e-07	9.532226e-09	4.476606e+00	6.195582e+02
2.430000e-06	5.215604e-07	8.856936e-09	3.753507e+00	5.753893e+02
2.440000e-06	4.209110e-07	8.159327e-09	3.029165e+00	5.296613e+02
2.450000e-06	3.200759e-07	7.438990e-09	2.303486e+00	4.825517e+02
2.460000e-06	2.189929e-07	6.696898e-09	1.576023e+00	4.342778e+02
2.470000e-06	1.177782e-07	5.942314e-09	8.476128e-01	3.850797e+02
2.480000e-06	1.652898e-08	5.182532e-09	1.189539e-01	3.351969e+02
2.490000e-06	-8.474711e-08	4.414513e-09	-6.098985e-01	2.848419e+02
2.500000e-06	-1.859541e-07	3.638722e-09	-1.338253e+00	2.341750e+02
2.510000e-06	-2.870853e-07	2.859444e-09	-2.066063e+00	1.832846e+02
2.520000e-06	-3.881452e-07	2.077491e-09	-2.793360e+00	1.321762e+02
2.530000e-06	-4.890584e-07	1.290401e-09	-3.519600e+00	8.077483e+01
2.540000e-06	-5.897776e-07	4.995904e-10	-4.244445e+00	2.893928e+01
2.550000e-06	-6.902743e-07	-2.978084e-10	-4.967689e+00	-2.351045e+01
2.560000e-06	-7.905085e-07	-1.108367e-09	-5.689043e+00	-7.675783e+01
2.570000e-06	-8.904124e-07	-1.938437e-09	-6.408020e+00	-1.309505e+02
2.580000e-06	-9.900602e-07	-2.785519e-09	-7.125154e+00	-1.861629e+02
2.590000e-06	-1.089476e-06	-3.645717e-09	-7.840619e+00	-2.423670e+02
2.600000e-06	-1.188541e-06	-4.517501e-09	-8.553558e+00	-2.994154e+02
2.610000e-06	-1.287185e-06	-5.394911e-09	-9.263465e+00	-3.570396e+02
2.620000e-06	-1.385360e-06	-6.274687e-09	-9.970004e+00	-4.148640e+02
2.630000e-06	-1.482990e-06	-7.153285e-09	-1.067261e+01	-4.724344e+02
2.640000e-06	-1.579999e-06	-8.025994e-09	-1.137076e+01	-5.292555e+02
2.650000e-06	-1.676508e-06	-8.882289e-09	-1.206531e+01	-5.848331e+02
2.660000e-06	-1.772589e-06	-9.709785e-09	-1.275677e+01	-6.387152e+02
2.670000e-06	-1.868167e-06	-1.050242e-08	-1.344461e+01	-6.905257e+02
2.680000e-06	-1.963149e-06	-1.125747e-08	-1.412817e+01	-7.399873e+02
2.690000e-06	-2.057284e-06	-1.197429e-08	-1.480563e+01	-7.869312e+02
2.700000e-06	-2.150370e-06	-1.265408e-08	-1.547554e+01	-8.312940e+02
2.710000e-06	-2.242519e-06	-1.329774e-08	-1.613871e+01	-8.731033e+02
2.720000e-06	-2.333889e-06	-1.390593e-08	-1.679627e+01	-9.124557e+02
2.730000e-06	-2.424488e-06	-1.447864e-08	-1.744828e+01	-9.494921e+02
2.740000e-06	-2.514214e-06	-1.501616e-08	-1.809401e+01	-9.843734e+02
2.750000e-06	-2.602984e-06	-1.551943e-08	-1.873286e+01	-1.017261e+03
2.760000e-06	-2.690957e-06	-1.599289e-08	-1.936598e+01	-1.048302e+03
2.770000e-06	-2.778167e-06	-1.644017e-08	-1.999360e+01	-1.077627e+03
2.780000e-06	-2.864272e-06	-1.686229e-08	-2.061327e+01	-1.105346e+03
2.790000e-06	-2.949134e-06	-1.726271e-08	-2.122399e+01	-1.131554e+03
2.800000e-06	-3.032967e-06	-1.764348e-08	-2.182731e+01	-1.156340e+03
2.810000e-06	-3.115871e-06	-1.800420e-08	-2.242395e+01	-1.179787e+03
2.820000e-06	-3.197743e-06	-1.834475e-08	-2.301316e+01	-1.201982e+03
2.830000e-06	-3.278585e-06	-1.866689e-08	-2.359495e+01	-1.223011e+03
2.840000e-06	-3.358435e-06	-1.897324e-08	-2.416961e+01	-1.242963e+03
2.850000e-06	-3.437033e-06	-1.926519e-08	-2.473525e+01	-1.261919e+03
2.860000e-06	-3.514038e-06	-1.954274e-08	-2.528944e+01	-1.279954e+03
2.870000e-06	-3.589503e-06	-1.980477e-08	-2.583253e+01	-1.297130e+03
2.880000e-06	-3.663627e-06	-2.005380e-08	-2.636598e+01	-1.313498e+03
2.890000e-06	-3.736457e-06	-2.029387e-08	-2.689012e+01	-1.329094e+03
2.900000e-06	-3.808057e-06	-2.052381e-08	-2.740539e+01	-1.343950e+03
2.910000e-06	-3.878267e-06	-2.074248e-08	-2.791067e+01	-1.358091e+03
2.920000e-06	-3.946886e-06	-2.095174e-08	-2.840451e+01	-1.371543e+03
2.930000e-06	-4.014065e-06	-2.115029e-08	-2.888797e+01	-1.384338e+03
2.940000e-06	-4.079860e-06	-2.133668e-08	-2.936147e+01	-1.396509e+03
