# Temperatura_=_58.48
# Concentracion g/m^3_=_28200.0
# C_Vs_to_Am_M_A/Vsm_=_65563218390.804596
# pendiente_HvsI_1/m_=_3716.3
# ordenada_HvsI_A/m_=_1297.0
# frecuencia_Hz_=_301769.2979145508

Tiempo_(s)	Campo_(V.s)	Magnetizacion_(V.s)	Campo_(kA/m)	Magnetizacion_(A/m)
0.000000e+00	-5.344899e-06	-2.198564e-08	-3.829711e+01	-1.439124e+03
1.000000e-08	-5.343267e-06	-2.198701e-08	-3.828542e+01	-1.438785e+03
2.000000e-08	-5.339680e-06	-2.197784e-08	-3.825971e+01	-1.438279e+03
3.000000e-08	-5.334468e-06	-2.196431e-08	-3.822237e+01	-1.437605e+03
4.000000e-08	-5.327643e-06	-2.195249e-08	-3.817347e+01	-1.436759e+03
5.000000e-08	-5.319140e-06	-2.193728e-08	-3.811255e+01	-1.435732e+03
6.000000e-08	-5.308700e-06	-2.191605e-08	-3.803774e+01	-1.434515e+03
7.000000e-08	-5.296335e-06	-2.188471e-08	-3.794914e+01	-1.433101e+03
8.000000e-08	-5.282107e-06	-2.184329e-08	-3.784720e+01	-1.431490e+03
9.000000e-08	-5.265592e-06	-2.189691e-08	-3.772886e+01	-1.429691e+03
1.000000e-07	-5.246838e-06	-2.192360e-08	-3.759449e+01	-1.427721e+03
1.100000e-07	-5.226165e-06	-2.181603e-08	-3.744636e+01	-1.425607e+03
1.200000e-07	-5.203679e-06	-2.176061e-08	-3.728525e+01	-1.423377e+03
1.300000e-07	-5.179630e-06	-2.165174e-08	-3.711293e+01	-1.421059e+03
1.400000e-07	-5.154055e-06	-2.152436e-08	-3.692968e+01	-1.418674e+03
1.500000e-07	-5.126814e-06	-2.174391e-08	-3.673450e+01	-1.416230e+03
1.600000e-07	-5.097964e-06	-2.163992e-08	-3.652778e+01	-1.413720e+03
1.700000e-07	-5.067674e-06	-2.145446e-08	-3.631074e+01	-1.411121e+03
1.800000e-07	-5.035701e-06	-2.164791e-08	-3.608166e+01	-1.408395e+03
1.900000e-07	-5.001595e-06	-2.140068e-08	-3.583728e+01	-1.405498e+03
2.000000e-07	-4.965868e-06	-2.127895e-08	-3.558129e+01	-1.402382e+03
2.100000e-07	-4.928596e-06	-2.148028e-08	-3.531423e+01	-1.399006e+03
2.200000e-07	-4.889501e-06	-2.128601e-08	-3.503411e+01	-1.395339e+03
2.300000e-07	-4.848645e-06	-2.118269e-08	-3.474137e+01	-1.391364e+03
2.400000e-07	-4.805783e-06	-2.117305e-08	-3.443425e+01	-1.387079e+03
2.500000e-07	-4.761060e-06	-2.100704e-08	-3.411381e+01	-1.382495e+03
2.600000e-07	-4.714619e-06	-2.103607e-08	-3.378105e+01	-1.377632e+03
2.700000e-07	-4.666274e-06	-2.093312e-08	-3.343465e+01	-1.372512e+03
2.800000e-07	-4.615792e-06	-2.079148e-08	-3.307294e+01	-1.367153e+03
2.900000e-07	-4.563276e-06	-2.073974e-08	-3.269665e+01	-1.361569e+03
3.000000e-07	-4.509046e-06	-2.064679e-08	-3.230808e+01	-1.355760e+03
3.100000e-07	-4.453279e-06	-2.055716e-08	-3.190850e+01	-1.349721e+03
3.200000e-07	-4.395685e-06	-2.046145e-08	-3.149583e+01	-1.343438e+03
3.300000e-07	-4.336316e-06	-2.039335e-08	-3.107044e+01	-1.336895e+03
3.400000e-07	-4.275500e-06	-2.026251e-08	-3.063468e+01	-1.330076e+03
3.500000e-07	-4.213180e-06	-2.012315e-08	-3.018815e+01	-1.322968e+03
3.600000e-07	-4.149511e-06	-2.003124e-08	-2.973195e+01	-1.315565e+03
3.700000e-07	-4.084325e-06	-1.992051e-08	-2.926488e+01	-1.307866e+03
3.800000e-07	-4.017461e-06	-1.983175e-08	-2.878579e+01	-1.299872e+03
3.900000e-07	-3.949135e-06	-1.968099e-08	-2.829623e+01	-1.291584e+03
4.000000e-07	-3.879470e-06	-1.950796e-08	-2.779707e+01	-1.283000e+03
4.100000e-07	-3.808601e-06	-1.940880e-08	-2.728927e+01	-1.274115e+03
4.200000e-07	-3.736576e-06	-1.926873e-08	-2.677321e+01	-1.264915e+03
4.300000e-07	-3.663085e-06	-1.912409e-08	-2.624663e+01	-1.255382e+03
4.400000e-07	-3.587955e-06	-1.896939e-08	-2.570831e+01	-1.245491e+03
4.500000e-07	-3.511360e-06	-1.881005e-08	-2.515949e+01	-1.235221e+03
4.600000e-07	-3.433425e-06	-1.863606e-08	-2.460107e+01	-1.224549e+03
4.700000e-07	-3.354117e-06	-1.845947e-08	-2.403282e+01	-1.213457e+03
4.800000e-07	-3.273485e-06	-1.830680e-08	-2.345508e+01	-1.201930e+03
4.900000e-07	-3.191657e-06	-1.812149e-08	-2.286877e+01	-1.189959e+03
5.000000e-07	-3.108733e-06	-1.793285e-08	-2.227460e+01	-1.177533e+03
5.100000e-07	-3.024896e-06	-1.772929e-08	-2.167390e+01	-1.164643e+03
5.200000e-07	-2.940167e-06	-1.752047e-08	-2.106679e+01	-1.151273e+03
5.300000e-07	-2.854468e-06	-1.730838e-08	-2.045275e+01	-1.137401e+03
5.400000e-07	-2.767807e-06	-1.708772e-08	-1.983181e+01	-1.123000e+03
5.500000e-07	-2.680294e-06	-1.685996e-08	-1.920476e+01	-1.108036e+03
5.600000e-07	-2.591893e-06	-1.661495e-08	-1.857135e+01	-1.092470e+03
5.700000e-07	-2.502235e-06	-1.636730e-08	-1.792894e+01	-1.076262e+03
5.800000e-07	-2.411372e-06	-1.611253e-08	-1.727789e+01	-1.059370e+03
5.900000e-07	-2.319708e-06	-1.584943e-08	-1.662111e+01	-1.041757e+03
6.000000e-07	-2.227263e-06	-1.556838e-08	-1.595872e+01	-1.023385e+03
6.100000e-07	-2.134006e-06	-1.527518e-08	-1.529052e+01	-1.004219e+03
6.200000e-07	-2.039987e-06	-1.497105e-08	-1.461685e+01	-9.842228e+02
6.300000e-07	-1.945214e-06	-1.464919e-08	-1.393779e+01	-9.633541e+02
6.400000e-07	-1.849798e-06	-1.431230e-08	-1.325411e+01	-9.415659e+02
6.500000e-07	-1.753846e-06	-1.396270e-08	-1.256660e+01	-9.188022e+02
6.600000e-07	-1.657221e-06	-1.359750e-08	-1.187427e+01	-8.949974e+02
6.700000e-07	-1.559838e-06	-1.321339e-08	-1.117651e+01	-8.700769e+02
6.800000e-07	-1.461752e-06	-1.281468e-08	-1.047370e+01	-8.439586e+02
6.900000e-07	-1.363020e-06	-1.239779e-08	-9.766273e+00	-8.165557e+02
7.000000e-07	-1.263794e-06	-1.196326e-08	-9.055297e+00	-7.877798e+02
7.100000e-07	-1.164214e-06	-1.150142e-08	-8.341790e+00	-7.575463e+02
7.200000e-07	-1.064364e-06	-1.101258e-08	-7.626350e+00	-7.257788e+02
7.300000e-07	-9.642561e-07	-1.050223e-08	-6.909059e+00	-6.924158e+02
7.400000e-07	-8.638499e-07	-9.969693e-09	-6.189631e+00	-6.574176e+02
7.500000e-07	-7.631459e-07	-9.412466e-09	-5.468070e+00	-6.207733e+02
7.600000e-07	-6.621570e-07	-8.829255e-09	-4.744467e+00	-5.825086e+02
7.700000e-07	-5.609002e-07	-8.221438e-09	-4.018945e+00	-5.426913e+02
7.800000e-07	-4.594930e-07	-7.592062e-09	-3.292345e+00	-5.014348e+02
7.900000e-07	-3.579985e-07	-6.945595e-09	-2.565120e+00	-4.588970e+02
8.000000e-07	-2.564167e-07	-6.282192e-09	-1.837269e+00	-4.152737e+02
8.100000e-07	-1.546475e-07	-5.607584e-09	-1.108076e+00	-3.707864e+02
8.200000e-07	-5.270570e-08	-4.921180e-09	-3.776453e-01	-3.256640e+02
8.300000e-07	4.928482e-08	-4.227586e-09	3.531341e-01	-2.801207e+02
8.400000e-07	1.512255e-07	-3.529848e-09	1.083556e+00	-2.343328e+02
8.500000e-07	2.530939e-07	-2.833533e-09	1.813461e+00	-1.884177e+02
8.600000e-07	3.549012e-07	-2.139561e-09	2.542927e+00	-1.424188e+02
8.700000e-07	4.565981e-07	-1.440693e-09	3.271603e+00	-9.630012e+01
8.800000e-07	5.581631e-07	-7.374489e-10	3.999334e+00	-4.995231e+01
8.900000e-07	6.595407e-07	-2.487155e-11	4.725722e+00	-3.210558e+00
9.000000e-07	7.607050e-07	6.985018e-10	5.450581e+00	4.411708e+01
9.100000e-07	8.616635e-07	1.432892e-09	6.173965e+00	9.221454e+01
9.200000e-07	9.623129e-07	2.178338e-09	6.895135e+00	1.412207e+02
9.300000e-07	1.062596e-06	2.936235e-09	7.613682e+00	1.911959e+02
9.400000e-07	1.162558e-06	3.710185e-09	8.329929e+00	2.420976e+02
9.500000e-07	1.262158e-06	4.498038e-09	9.043578e+00	2.937685e+02
9.600000e-07	1.361356e-06	5.293961e-09	9.754347e+00	3.459399e+02
9.700000e-07	1.460054e-06	6.092699e-09	1.046154e+01	3.982497e+02
9.800000e-07	1.558085e-06	6.888464e-09	1.116395e+01	4.502719e+02
9.900000e-07	1.655365e-06	7.671000e-09	1.186097e+01	5.015541e+02
1.000000e-06	1.751817e-06	8.431728e-09	1.255207e+01	5.516564e+02
1.010000e-06	1.847516e-06	9.167168e-09	1.323776e+01	6.001870e+02
1.020000e-06	1.942614e-06	9.874192e-09	1.391916e+01	6.468302e+02
1.030000e-06	2.037065e-06	1.054859e-08	1.459592e+01	6.913620e+02
1.040000e-06	2.130789e-06	1.119049e-08	1.526747e+01	7.336546e+02
1.050000e-06	2.223801e-06	1.179580e-08	1.593391e+01	7.736692e+02
1.060000e-06	2.316137e-06	1.236727e-08	1.659551e+01	8.114408e+02
1.070000e-06	2.407811e-06	1.290761e-08	1.725238e+01	8.470573e+02
1.080000e-06	2.498718e-06	1.341782e-08	1.790374e+01	8.806386e+02
1.090000e-06	2.588555e-06	1.390187e-08	1.854743e+01	9.123173e+02
1.100000e-06	2.677180e-06	1.435872e-08	1.918245e+01	9.422244e+02
1.110000e-06	2.764787e-06	1.478775e-08	1.981017e+01	9.704810e+02
1.120000e-06	2.851514e-06	1.519090e-08	2.043158e+01	9.971944e+02
1.130000e-06	2.937328e-06	1.557498e-08	2.104646e+01	1.022459e+03
1.140000e-06	3.022188e-06	1.594031e-08	2.165449e+01	1.046361e+03
1.150000e-06	3.106104e-06	1.628559e-08	2.225577e+01	1.068979e+03
1.160000e-06	3.189084e-06	1.661024e-08	2.285033e+01	1.090392e+03
1.170000e-06	3.270902e-06	1.691848e-08	2.343657e+01	1.110673e+03
1.180000e-06	3.351483e-06	1.721225e-08	2.401395e+01	1.129899e+03
1.190000e-06	3.430919e-06	1.749036e-08	2.458312e+01	1.148140e+03
1.200000e-06	3.509141e-06	1.775405e-08	2.514360e+01	1.165462e+03
1.210000e-06	3.586148e-06	1.800423e-08	2.569536e+01	1.181925e+03
1.220000e-06	3.661916e-06	1.824144e-08	2.623825e+01	1.197581e+03
1.230000e-06	3.736193e-06	1.846656e-08	2.677046e+01	1.212475e+03
1.240000e-06	3.808793e-06	1.867910e-08	2.729065e+01	1.226647e+03
1.250000e-06	3.879906e-06	1.888202e-08	2.780019e+01	1.240135e+03
1.260000e-06	3.949618e-06	1.907661e-08	2.829968e+01	1.252972e+03
1.270000e-06	4.018018e-06	1.926257e-08	2.878979e+01	1.265193e+03
1.280000e-06	4.085122e-06	1.943897e-08	2.927059e+01	1.276831e+03
1.290000e-06	4.150587e-06	1.960674e-08	2.973966e+01	1.287916e+03
1.300000e-06	4.214425e-06	1.976856e-08	3.019707e+01	1.298475e+03
1.310000e-06	4.276841e-06	1.992223e-08	3.064429e+01	1.308529e+03
1.320000e-06	4.337807e-06	2.006878e-08	3.108112e+01	1.318095e+03
1.330000e-06	4.397342e-06	2.020787e-08	3.150771e+01	1.327181e+03
1.340000e-06	4.455294e-06	2.033884e-08	3.192294e+01	1.335794e+03
1.350000e-06	4.511520e-06	2.046215e-08	3.232581e+01	1.343940e+03
1.360000e-06	4.566076e-06	2.057954e-08	3.271671e+01	1.351625e+03
1.370000e-06	4.618943e-06	2.069055e-08	3.309551e+01	1.358862e+03
1.380000e-06	4.669933e-06	2.079391e-08	3.346087e+01	1.365673e+03
1.390000e-06	4.718889e-06	2.088935e-08	3.381164e+01	1.372083e+03
1.400000e-06	4.766067e-06	2.097929e-08	3.414968e+01	1.378126e+03
1.410000e-06	4.811656e-06	2.106591e-08	3.447634e+01	1.383839e+03
1.420000e-06	4.855706e-06	2.114886e-08	3.479196e+01	1.389255e+03
1.430000e-06	4.898023e-06	2.122726e-08	3.509517e+01	1.394404e+03
1.440000e-06	4.938428e-06	2.130163e-08	3.538468e+01	1.399305e+03
1.450000e-06	4.977119e-06	2.137271e-08	3.566190e+01	1.403968e+03
1.460000e-06	5.014196e-06	2.144144e-08	3.592757e+01	1.408391e+03
1.470000e-06	5.049670e-06	2.150588e-08	3.618174e+01	1.412564e+03
1.480000e-06	5.083212e-06	2.156498e-08	3.642208e+01	1.416472e+03
1.490000e-06	5.114826e-06	2.161970e-08	3.664860e+01	1.420102e+03
1.500000e-06	5.144806e-06	2.166912e-08	3.686341e+01	1.423443e+03
1.510000e-06	5.173132e-06	2.171406e-08	3.706637e+01	1.426489e+03
1.520000e-06	5.199657e-06	2.175535e-08	3.725643e+01	1.429244e+03
1.530000e-06	5.224121e-06	2.179413e-08	3.743172e+01	1.431721e+03
1.540000e-06	5.246582e-06	2.182963e-08	3.759265e+01	1.433936e+03
1.550000e-06	5.267289e-06	2.185938e-08	3.774102e+01	1.435906e+03
1.560000e-06	5.286253e-06	2.188425e-08	3.787690e+01	1.437652e+03
1.570000e-06	5.303272e-06	2.190628e-08	3.799885e+01	1.439185e+03
1.580000e-06	5.318285e-06	2.192602e-08	3.810641e+01	1.440516e+03
1.590000e-06	5.331375e-06	2.194269e-08	3.820021e+01	1.441648e+03
1.600000e-06	5.342376e-06	2.195643e-08	3.827903e+01	1.442581e+03
1.610000e-06	5.351204e-06	2.196867e-08	3.834229e+01	1.443315e+03
1.620000e-06	5.358074e-06	2.197899e-08	3.839151e+01	1.443849e+03
1.630000e-06	5.363109e-06	2.198682e-08	3.842759e+01	1.444185e+03
1.640000e-06	5.366359e-06	2.199064e-08	3.845087e+01	1.444329e+03
1.650000e-06	5.367632e-06	2.199369e-08	3.846000e+01	1.444287e+03
1.660000e-06	5.366948e-06	2.199029e-08	3.845510e+01	1.444069e+03
1.670000e-06	5.364543e-06	2.197618e-08	3.843786e+01	1.443681e+03
1.680000e-06	5.360571e-06	2.196938e-08	3.840941e+01	1.443127e+03
1.690000e-06	5.354798e-06	2.196109e-08	3.836804e+01	1.442404e+03
1.700000e-06	5.347081e-06	2.194797e-08	3.831275e+01	1.441507e+03
1.710000e-06	5.337741e-06	2.193491e-08	3.824582e+01	1.440425e+03
1.720000e-06	5.326834e-06	2.192451e-08	3.816767e+01	1.439152e+03
1.730000e-06	5.314054e-06	2.193661e-08	3.807610e+01	1.437680e+03
1.740000e-06	5.299212e-06	2.182741e-08	3.796976e+01	1.436014e+03
1.750000e-06	5.282240e-06	2.171244e-08	3.784815e+01	1.434163e+03
1.760000e-06	5.262818e-06	2.175942e-08	3.770898e+01	1.432148e+03
1.770000e-06	5.240779e-06	2.174502e-08	3.755107e+01	1.429997e+03
1.780000e-06	5.216858e-06	2.185026e-08	3.737967e+01	1.427738e+03
1.790000e-06	5.192099e-06	2.181975e-08	3.720227e+01	1.425399e+03
1.800000e-06	5.166453e-06	2.148742e-08	3.701851e+01	1.422996e+03
1.810000e-06	5.138909e-06	2.167588e-08	3.682116e+01	1.420534e+03
1.820000e-06	5.109214e-06	2.165128e-08	3.660839e+01	1.418001e+03
1.830000e-06	5.077922e-06	2.138241e-08	3.638418e+01	1.415369e+03
1.840000e-06	5.044790e-06	2.170031e-08	3.614678e+01	1.412598e+03
1.850000e-06	5.009855e-06	2.154408e-08	3.589646e+01	1.409642e+03
1.860000e-06	4.973384e-06	2.126272e-08	3.563514e+01	1.406456e+03
1.870000e-06	4.934910e-06	2.148654e-08	3.535947e+01	1.402998e+03
1.880000e-06	4.894694e-06	2.129141e-08	3.507132e+01	1.399243e+03
1.890000e-06	4.852842e-06	2.128757e-08	3.477144e+01	1.395178e+03
1.900000e-06	4.809181e-06	2.130999e-08	3.445860e+01	1.390806e+03
1.910000e-06	4.763821e-06	2.100051e-08	3.413359e+01	1.386139e+03
1.920000e-06	4.716470e-06	2.118940e-08	3.379431e+01	1.381200e+03
1.930000e-06	4.667359e-06	2.105935e-08	3.344242e+01	1.376009e+03
1.940000e-06	4.616705e-06	2.085295e-08	3.307948e+01	1.370584e+03
1.950000e-06	4.563972e-06	2.089643e-08	3.270163e+01	1.364935e+03
1.960000e-06	4.509194e-06	2.072862e-08	3.230914e+01	1.359061e+03
1.970000e-06	4.452768e-06	2.070944e-08	3.190484e+01	1.352953e+03
1.980000e-06	4.394764e-06	2.050750e-08	3.148923e+01	1.346597e+03
1.990000e-06	4.335356e-06	2.042558e-08	3.106357e+01	1.339976e+03
2.000000e-06	4.274458e-06	2.046553e-08	3.062722e+01	1.333074e+03
2.010000e-06	4.211834e-06	2.022091e-08	3.017851e+01	1.325882e+03
2.020000e-06	4.147550e-06	2.014125e-08	2.971790e+01	1.318394e+03
2.030000e-06	4.081848e-06	1.997239e-08	2.924714e+01	1.310609e+03
2.040000e-06	4.014804e-06	1.989937e-08	2.876675e+01	1.302530e+03
2.050000e-06	3.946365e-06	1.981361e-08	2.827638e+01	1.294157e+03
2.060000e-06	3.876291e-06	1.958068e-08	2.777428e+01	1.285488e+03
2.070000e-06	3.804708e-06	1.953410e-08	2.726138e+01	1.276514e+03
2.080000e-06	3.731978e-06	1.935153e-08	2.674025e+01	1.267220e+03
2.090000e-06	3.657957e-06	1.920680e-08	2.620988e+01	1.257586e+03
2.100000e-06	3.582544e-06	1.905709e-08	2.566954e+01	1.247589e+03
2.110000e-06	3.505615e-06	1.890072e-08	2.511833e+01	1.237205e+03
2.120000e-06	3.427083e-06	1.877707e-08	2.455563e+01	1.226414e+03
2.130000e-06	3.347327e-06	1.854728e-08	2.398417e+01	1.215198e+03
2.140000e-06	3.266479e-06	1.838659e-08	2.340488e+01	1.203544e+03
2.150000e-06	3.184466e-06	1.819177e-08	2.281724e+01	1.191443e+03
2.160000e-06	3.101392e-06	1.802042e-08	2.222200e+01	1.178886e+03
2.170000e-06	3.017413e-06	1.782927e-08	2.162028e+01	1.165859e+03
2.180000e-06	2.932331e-06	1.760931e-08	2.101065e+01	1.152347e+03
2.190000e-06	2.845844e-06	1.740963e-08	2.039096e+01	1.138327e+03
2.200000e-06	2.758240e-06	1.717711e-08	1.976326e+01	1.123768e+03
2.210000e-06	2.669750e-06	1.695963e-08	1.912921e+01	1.108636e+03
2.220000e-06	2.580341e-06	1.671070e-08	1.848858e+01	1.092889e+03
2.230000e-06	2.490000e-06	1.646468e-08	1.784128e+01	1.076489e+03
2.240000e-06	2.398869e-06	1.620079e-08	1.718830e+01	1.059394e+03
2.250000e-06	2.307111e-06	1.592935e-08	1.653085e+01	1.041567e+03
2.260000e-06	2.214696e-06	1.564632e-08	1.586867e+01	1.022972e+03
2.270000e-06	2.121338e-06	1.534632e-08	1.519975e+01	1.003572e+03
2.280000e-06	2.026861e-06	1.504755e-08	1.452281e+01	9.833295e+02
2.290000e-06	1.931495e-06	1.472581e-08	1.383949e+01	9.622025e+02
2.300000e-06	1.835466e-06	1.439027e-08	1.315143e+01	9.401410e+02
2.310000e-06	1.738852e-06	1.403771e-08	1.245917e+01	9.170861e+02
2.320000e-06	1.641710e-06	1.367727e-08	1.176313e+01	8.929698e+02
2.330000e-06	1.544052e-06	1.329447e-08	1.106339e+01	8.677150e+02
2.340000e-06	1.445848e-06	1.288661e-08	1.035975e+01	8.412379e+02
2.350000e-06	1.347185e-06	1.245925e-08	9.652811e+00	8.134508e+02
2.360000e-06	1.248143e-06	1.201666e-08	8.943159e+00	7.842662e+02
2.370000e-06	1.148841e-06	1.155416e-08	8.231642e+00	7.536009e+02
2.380000e-06	1.049301e-06	1.106459e-08	7.518419e+00	7.213822e+02
2.390000e-06	9.494911e-07	1.054955e-08	6.803265e+00	6.875542e+02
2.400000e-06	8.493893e-07	1.000623e-08	6.086019e+00	6.520846e+02
2.410000e-06	7.489502e-07	9.438305e-09	5.366355e+00	6.149722e+02
2.420000e-06	6.482578e-07	8.843107e-09	4.644877e+00	5.762542e+02
2.430000e-06	5.473036e-07	8.227860e-09	3.921523e+00	5.360114e+02
2.440000e-06	4.461077e-07	7.596803e-09	3.196437e+00	4.943701e+02
2.450000e-06	3.447256e-07	6.946279e-09	2.470017e+00	4.515000e+02
2.460000e-06	2.431214e-07	6.270854e-09	1.742006e+00	4.076058e+02
2.470000e-06	1.413469e-07	5.580838e-09	1.012774e+00	3.629132e+02
2.480000e-06	3.946629e-08	4.889417e-09	2.827827e-01	3.176491e+02
2.490000e-06	-6.252428e-08	4.193833e-09	-4.479971e-01	2.720195e+02
2.500000e-06	-1.645313e-07	3.491788e-09	-1.178895e+00	2.261855e+02
2.510000e-06	-2.663503e-07	2.787027e-09	-1.908445e+00	1.802447e+02
2.520000e-06	-3.680349e-07	2.082056e-09	-2.637032e+00	1.342179e+02
2.530000e-06	-4.696410e-07	1.372961e-09	-3.365058e+00	8.804705e+01
2.540000e-06	-5.710258e-07	6.608509e-10	-4.091497e+00	4.160454e+01
2.550000e-06	-6.720991e-07	-5.609154e-11	-4.815704e+00	-5.285425e+00
2.560000e-06	-7.727923e-07	-7.808388e-10	-5.537188e+00	-5.281628e+01
2.570000e-06	-8.731730e-07	-1.519271e-09	-6.256433e+00	-1.011628e+02
2.580000e-06	-9.732607e-07	-2.273958e-09	-6.973578e+00	-1.504446e+02
2.590000e-06	-1.073017e-06	-3.041002e-09	-7.688349e+00	-2.006945e+02
2.600000e-06	-1.172455e-06	-3.820906e-09	-8.400840e+00	-2.518378e+02
2.610000e-06	-1.271581e-06	-4.610346e-09	-9.111093e+00	-3.036844e+02
2.620000e-06	-1.370299e-06	-5.405608e-09	-9.818424e+00	-3.559365e+02
2.630000e-06	-1.468431e-06	-6.203659e-09	-1.052156e+01	-4.082103e+02
2.640000e-06	-1.565960e-06	-6.997595e-09	-1.122037e+01	-4.600682e+02
2.650000e-06	-1.662961e-06	-7.780900e-09	-1.191540e+01	-5.110574e+02
2.660000e-06	-1.759474e-06	-8.543218e-09	-1.260693e+01	-5.607485e+02
2.670000e-06	-1.855493e-06	-9.278402e-09	-1.329492e+01	-6.087690e+02
2.680000e-06	-1.950917e-06	-9.984304e-09	-1.397865e+01	-6.548283e+02
2.690000e-06	-2.045650e-06	-1.065497e-08	-1.465743e+01	-6.987300e+02
2.700000e-06	-2.139466e-06	-1.129151e-08	-1.532964e+01	-7.403728e+02
2.710000e-06	-2.232232e-06	-1.189638e-08	-1.599432e+01	-7.797411e+02
2.720000e-06	-2.324158e-06	-1.246906e-08	-1.665298e+01	-8.168869e+02
2.730000e-06	-2.415344e-06	-1.300951e-08	-1.730635e+01	-8.519096e+02
2.740000e-06	-2.505705e-06	-1.351604e-08	-1.795380e+01	-8.849343e+02
2.750000e-06	-2.595075e-06	-1.399174e-08	-1.859416e+01	-9.160946e+02
2.760000e-06	-2.683530e-06	-1.444014e-08	-1.922795e+01	-9.455191e+02
2.770000e-06	-2.771252e-06	-1.486283e-08	-1.985649e+01	-9.733252e+02
2.780000e-06	-2.858096e-06	-1.526405e-08	-2.047874e+01	-9.996163e+02
2.790000e-06	-2.943719e-06	-1.564495e-08	-2.109225e+01	-1.024484e+03
2.800000e-06	-3.028133e-06	-1.600536e-08	-2.169709e+01	-1.048012e+03
2.810000e-06	-3.111547e-06	-1.634511e-08	-2.229477e+01	-1.070279e+03
2.820000e-06	-3.193989e-06	-1.666590e-08	-2.288548e+01	-1.091361e+03
2.830000e-06	-3.275457e-06	-1.697134e-08	-2.346921e+01	-1.111334e+03
2.840000e-06	-3.355895e-06	-1.726253e-08	-2.404556e+01	-1.130272e+03
2.850000e-06	-3.435114e-06	-1.753917e-08	-2.461318e+01	-1.148245e+03
2.860000e-06	-3.512779e-06	-1.779996e-08	-2.516966e+01	-1.165316e+03
2.870000e-06	-3.588867e-06	-1.804568e-08	-2.571484e+01	-1.181544e+03
2.880000e-06	-3.663577e-06	-1.828134e-08	-2.625015e+01	-1.196979e+03
2.890000e-06	-3.736980e-06	-1.850915e-08	-2.677610e+01	-1.211664e+03
2.900000e-06	-3.809113e-06	-1.872640e-08	-2.729294e+01	-1.225637e+03
2.910000e-06	-3.879873e-06	-1.893058e-08	-2.779995e+01	-1.238936e+03
2.920000e-06	-3.949062e-06	-1.912427e-08	-2.829570e+01	-1.251595e+03
2.930000e-06	-4.016768e-06	-1.930909e-08	-2.878083e+01	-1.263647e+03
2.940000e-06	-4.083098e-06	-1.948388e-08	-2.925610e+01	-1.275125e+03
