# Temperatura_=_35.33
# Concentracion g/m^3_=_28200.0
# C_Vs_to_Am_M_A/Vsm_=_65563218390.804596
# pendiente_HvsI_1/m_=_3716.3
# ordenada_HvsI_A/m_=_1297.0
# frecuencia_Hz_=_301762.0952115822

Tiempo_(s)	Campo_(V.s)	Magnetizacion_(V.s)	Campo_(kA/m)	Magnetizacion_(A/m)
0.000000e+00	-5.316843e-06	-1.946393e-08	-3.830056e+01	-1.272386e+03
1.000000e-08	-5.315056e-06	-1.946604e-08	-3.828768e+01	-1.272098e+03
2.000000e-08	-5.311362e-06	-1.945687e-08	-3.826107e+01	-1.271688e+03
3.000000e-08	-5.305993e-06	-1.944606e-08	-3.822240e+01	-1.271145e+03
4.000000e-08	-5.299009e-06	-1.943773e-08	-3.817209e+01	-1.270447e+03
5.000000e-08	-5.290432e-06	-1.942213e-08	-3.811030e+01	-1.269568e+03
6.000000e-08	-5.279930e-06	-1.939974e-08	-3.803465e+01	-1.268483e+03
7.000000e-08	-5.267463e-06	-1.936621e-08	-3.794484e+01	-1.267181e+03
8.000000e-08	-5.253069e-06	-1.932872e-08	-3.784115e+01	-1.265664e+03
9.000000e-08	-5.236417e-06	-1.939535e-08	-3.772120e+01	-1.263960e+03
1.000000e-07	-5.217570e-06	-1.941833e-08	-3.758543e+01	-1.262108e+03
1.100000e-07	-5.196810e-06	-1.931256e-08	-3.743588e+01	-1.260158e+03
1.200000e-07	-5.174243e-06	-1.927094e-08	-3.727332e+01	-1.258161e+03
1.300000e-07	-5.150171e-06	-1.914194e-08	-3.709991e+01	-1.256151e+03
1.400000e-07	-5.124630e-06	-1.902821e-08	-3.691592e+01	-1.254142e+03
1.500000e-07	-5.097386e-06	-1.925660e-08	-3.671967e+01	-1.252124e+03
1.600000e-07	-5.068554e-06	-1.910642e-08	-3.651198e+01	-1.250058e+03
1.700000e-07	-5.038346e-06	-1.896777e-08	-3.629437e+01	-1.247888e+03
1.800000e-07	-5.006420e-06	-1.919749e-08	-3.606439e+01	-1.245549e+03
1.900000e-07	-4.972311e-06	-1.891029e-08	-3.581868e+01	-1.242980e+03
2.000000e-07	-4.936538e-06	-1.878033e-08	-3.556098e+01	-1.240133e+03
2.100000e-07	-4.899251e-06	-1.896054e-08	-3.529238e+01	-1.236985e+03
2.200000e-07	-4.860158e-06	-1.878668e-08	-3.501077e+01	-1.233531e+03
2.300000e-07	-4.819303e-06	-1.874701e-08	-3.471646e+01	-1.229792e+03
2.400000e-07	-4.776460e-06	-1.874594e-08	-3.440784e+01	-1.225798e+03
2.500000e-07	-4.731792e-06	-1.856018e-08	-3.408606e+01	-1.221585e+03
2.600000e-07	-4.685403e-06	-1.855309e-08	-3.375190e+01	-1.217183e+03
2.700000e-07	-4.637116e-06	-1.845872e-08	-3.340406e+01	-1.212608e+03
2.800000e-07	-4.586772e-06	-1.838530e-08	-3.304140e+01	-1.207863e+03
2.900000e-07	-4.534390e-06	-1.834365e-08	-3.266405e+01	-1.202936e+03
3.000000e-07	-4.480272e-06	-1.822510e-08	-3.227421e+01	-1.197806e+03
3.100000e-07	-4.424575e-06	-1.813889e-08	-3.187299e+01	-1.192451e+03
3.200000e-07	-4.367127e-06	-1.805167e-08	-3.145916e+01	-1.186849e+03
3.300000e-07	-4.307913e-06	-1.799306e-08	-3.103260e+01	-1.180989e+03
3.400000e-07	-4.247244e-06	-1.789342e-08	-3.059557e+01	-1.174868e+03
3.500000e-07	-4.185142e-06	-1.778805e-08	-3.014820e+01	-1.168490e+03
3.600000e-07	-4.121672e-06	-1.768622e-08	-2.969099e+01	-1.161863e+03
3.700000e-07	-4.056759e-06	-1.755355e-08	-2.922338e+01	-1.154995e+03
3.800000e-07	-3.990186e-06	-1.748339e-08	-2.874382e+01	-1.147886e+03
3.900000e-07	-3.922079e-06	-1.737952e-08	-2.825320e+01	-1.140532e+03
4.000000e-07	-3.852633e-06	-1.723556e-08	-2.775294e+01	-1.132917e+03
4.100000e-07	-3.781977e-06	-1.712685e-08	-2.724395e+01	-1.125021e+03
4.200000e-07	-3.710178e-06	-1.698339e-08	-2.672674e+01	-1.116822e+03
4.300000e-07	-3.637009e-06	-1.685000e-08	-2.619966e+01	-1.108300e+03
4.400000e-07	-3.562220e-06	-1.671931e-08	-2.566090e+01	-1.099437e+03
4.500000e-07	-3.485938e-06	-1.659612e-08	-2.511140e+01	-1.090224e+03
4.600000e-07	-3.408358e-06	-1.644426e-08	-2.455254e+01	-1.080654e+03
4.700000e-07	-3.329379e-06	-1.626505e-08	-2.398361e+01	-1.070723e+03
4.800000e-07	-3.248981e-06	-1.611124e-08	-2.340445e+01	-1.060428e+03
4.900000e-07	-3.167399e-06	-1.594996e-08	-2.281676e+01	-1.049757e+03
5.000000e-07	-3.084772e-06	-1.579674e-08	-2.222155e+01	-1.038696e+03
5.100000e-07	-3.001243e-06	-1.562657e-08	-2.161984e+01	-1.027221e+03
5.200000e-07	-2.916896e-06	-1.544075e-08	-2.101223e+01	-1.015305e+03
5.300000e-07	-2.831585e-06	-1.524059e-08	-2.039769e+01	-1.002916e+03
5.400000e-07	-2.745256e-06	-1.503283e-08	-1.977580e+01	-9.900233e+02
5.500000e-07	-2.658059e-06	-1.483375e-08	-1.914767e+01	-9.765963e+02
5.600000e-07	-2.570063e-06	-1.462770e-08	-1.851378e+01	-9.626076e+02
5.700000e-07	-2.480968e-06	-1.441021e-08	-1.787197e+01	-9.480314e+02
5.800000e-07	-2.390539e-06	-1.416882e-08	-1.722055e+01	-9.328410e+02
5.900000e-07	-2.299136e-06	-1.391880e-08	-1.656212e+01	-9.170072e+02
6.000000e-07	-2.207074e-06	-1.366599e-08	-1.589894e+01	-9.004960e+02
6.100000e-07	-2.114276e-06	-1.341080e-08	-1.523046e+01	-8.832675e+02
6.200000e-07	-2.020690e-06	-1.314472e-08	-1.455630e+01	-8.652766e+02
6.300000e-07	-1.926370e-06	-1.285570e-08	-1.387685e+01	-8.464744e+02
6.400000e-07	-1.831422e-06	-1.254662e-08	-1.319288e+01	-8.268104e+02
6.500000e-07	-1.735936e-06	-1.222638e-08	-1.250503e+01	-8.062345e+02
6.600000e-07	-1.639892e-06	-1.189785e-08	-1.181317e+01	-7.846979e+02
6.700000e-07	-1.543158e-06	-1.155451e-08	-1.111634e+01	-7.621520e+02
6.800000e-07	-1.445624e-06	-1.119677e-08	-1.041374e+01	-7.385476e+02
6.900000e-07	-1.347383e-06	-1.081767e-08	-9.706045e+00	-7.138319e+02
7.000000e-07	-1.248597e-06	-1.041831e-08	-8.994428e+00	-6.879476e+02
7.100000e-07	-1.149390e-06	-1.000069e-08	-8.279777e+00	-6.608337e+02
7.200000e-07	-1.049888e-06	-9.569154e-09	-7.563005e+00	-6.324288e+02
7.300000e-07	-9.501310e-07	-9.120756e-09	-6.844389e+00	-6.026788e+02
7.400000e-07	-8.501390e-07	-8.647027e-09	-6.124084e+00	-5.715465e+02
7.500000e-07	-7.499014e-07	-8.151026e-09	-5.402010e+00	-5.390224e+02
7.600000e-07	-6.494496e-07	-7.634590e-09	-4.678393e+00	-5.051354e+02
7.700000e-07	-5.488214e-07	-7.098311e-09	-3.953505e+00	-4.699597e+02
7.800000e-07	-4.479911e-07	-6.546462e-09	-3.227161e+00	-4.336164e+02
7.900000e-07	-3.469951e-07	-5.979721e-09	-2.499624e+00	-3.962689e+02
8.000000e-07	-2.458866e-07	-5.397302e-09	-1.771276e+00	-3.581118e+02
8.100000e-07	-1.446530e-07	-4.805389e-09	-1.042027e+00	-3.193539e+02
8.200000e-07	-4.332906e-08	-4.209972e-09	-3.121264e-01	-2.801979e+02
8.300000e-07	5.803420e-08	-3.616437e-09	4.180568e-01	-2.408201e+02
8.400000e-07	1.594082e-07	-3.021320e-09	1.148317e+00	-2.013515e+02
8.500000e-07	2.607584e-07	-2.424270e-09	1.878406e+00	-1.618650e+02
8.600000e-07	3.620322e-07	-1.827055e-09	2.607945e+00	-1.223696e+02
8.700000e-07	4.631703e-07	-1.227125e-09	3.336506e+00	-8.281235e+01
8.800000e-07	5.641455e-07	-6.257047e-10	4.063894e+00	-4.308854e+01
8.900000e-07	6.649630e-07	-1.730361e-11	4.790146e+00	-3.058468e+00
9.000000e-07	7.655965e-07	5.991025e-10	5.515072e+00	3.743101e+01
9.100000e-07	8.659823e-07	1.225792e-09	6.238214e+00	7.852276e+01
9.200000e-07	9.661302e-07	1.864869e-09	6.959642e+00	1.203259e+02
9.300000e-07	1.066005e-06	2.512705e-09	7.679105e+00	1.628956e+02
9.400000e-07	1.165570e-06	3.169139e-09	8.396330e+00	2.062171e+02
9.500000e-07	1.264780e-06	3.835004e-09	9.111002e+00	2.501979e+02
9.600000e-07	1.363510e-06	4.510199e-09	9.822218e+00	2.946659e+02
9.700000e-07	1.461546e-06	5.190927e-09	1.052843e+01	3.393775e+02
9.800000e-07	1.558750e-06	5.871193e-09	1.122865e+01	3.840313e+02
9.900000e-07	1.655184e-06	6.543951e-09	1.192333e+01	4.282895e+02
1.000000e-06	1.750978e-06	7.204540e-09	1.261339e+01	4.718022e+02
1.010000e-06	1.846162e-06	7.847980e-09	1.329907e+01	5.142338e+02
1.020000e-06	1.940739e-06	8.470385e-09	1.398036e+01	5.552867e+02
1.030000e-06	2.034668e-06	9.069301e-09	1.465699e+01	5.947219e+02
1.040000e-06	2.127845e-06	9.643527e-09	1.532821e+01	6.323712e+02
1.050000e-06	2.220343e-06	1.018667e-08	1.599452e+01	6.681424e+02
1.060000e-06	2.312281e-06	1.069848e-08	1.665681e+01	7.020147e+02
1.070000e-06	2.403510e-06	1.118233e-08	1.731399e+01	7.340283e+02
1.080000e-06	2.493716e-06	1.164102e-08	1.796380e+01	7.642676e+02
1.090000e-06	2.582742e-06	1.207644e-08	1.860511e+01	7.928429e+02
1.100000e-06	2.670721e-06	1.248767e-08	1.923888e+01	8.198723e+02
1.110000e-06	2.757865e-06	1.287851e-08	1.986663e+01	8.454682e+02
1.120000e-06	2.844149e-06	1.324906e-08	2.048819e+01	8.697279e+02
1.130000e-06	2.929478e-06	1.360015e-08	2.110287e+01	8.927307e+02
1.140000e-06	3.013898e-06	1.393249e-08	2.171100e+01	9.145402e+02
1.150000e-06	3.097455e-06	1.424810e-08	2.231291e+01	9.352095e+02
1.160000e-06	3.179939e-06	1.454578e-08	2.290709e+01	9.547883e+02
1.170000e-06	3.261182e-06	1.482637e-08	2.349234e+01	9.733287e+02
1.180000e-06	3.341246e-06	1.509254e-08	2.406909e+01	9.908884e+02
1.190000e-06	3.420174e-06	1.534605e-08	2.463766e+01	1.007531e+03
1.200000e-06	3.497909e-06	1.558606e-08	2.519763e+01	1.023325e+03
1.210000e-06	3.574380e-06	1.581338e-08	2.574850e+01	1.038335e+03
1.220000e-06	3.649472e-06	1.603058e-08	2.628943e+01	1.052621e+03
1.230000e-06	3.722977e-06	1.623742e-08	2.681894e+01	1.066234e+03
1.240000e-06	3.794954e-06	1.643218e-08	2.733744e+01	1.079210e+03
1.250000e-06	3.865570e-06	1.661653e-08	2.784613e+01	1.091578e+03
1.260000e-06	3.934849e-06	1.679459e-08	2.834518e+01	1.103357e+03
1.270000e-06	4.002872e-06	1.696518e-08	2.883520e+01	1.114562e+03
1.280000e-06	4.069479e-06	1.712626e-08	2.931501e+01	1.125209e+03
1.290000e-06	4.134397e-06	1.728005e-08	2.978266e+01	1.135317e+03
1.300000e-06	4.197730e-06	1.742849e-08	3.023888e+01	1.144909e+03
1.310000e-06	4.259649e-06	1.756816e-08	3.068493e+01	1.154008e+03
1.320000e-06	4.320252e-06	1.769965e-08	3.112149e+01	1.162641e+03
1.330000e-06	4.379473e-06	1.782352e-08	3.154809e+01	1.170831e+03
1.340000e-06	4.436949e-06	1.794002e-08	3.196213e+01	1.178596e+03
1.350000e-06	4.492650e-06	1.804958e-08	3.236338e+01	1.185951e+03
1.360000e-06	4.546827e-06	1.815476e-08	3.275365e+01	1.192909e+03
1.370000e-06	4.599351e-06	1.825541e-08	3.313201e+01	1.199481e+03
1.380000e-06	4.649895e-06	1.834874e-08	3.349611e+01	1.205682e+03
1.390000e-06	4.698393e-06	1.843537e-08	3.384547e+01	1.211532e+03
1.400000e-06	4.745165e-06	1.851649e-08	3.418240e+01	1.217056e+03
1.410000e-06	4.790406e-06	1.859519e-08	3.450830e+01	1.222284e+03
1.420000e-06	4.834079e-06	1.867191e-08	3.482291e+01	1.227244e+03
1.430000e-06	4.875938e-06	1.874434e-08	3.512444e+01	1.231961e+03
1.440000e-06	4.915945e-06	1.881255e-08	3.541264e+01	1.236452e+03
1.450000e-06	4.954277e-06	1.887772e-08	3.568876e+01	1.240723e+03
1.460000e-06	4.991004e-06	1.893960e-08	3.595333e+01	1.244766e+03
1.470000e-06	5.026097e-06	1.899623e-08	3.620613e+01	1.248568e+03
1.480000e-06	5.059268e-06	1.904866e-08	3.644508e+01	1.252108e+03
1.490000e-06	5.090578e-06	1.909685e-08	3.667063e+01	1.255372e+03
1.500000e-06	5.120212e-06	1.913999e-08	3.688410e+01	1.258349e+03
1.510000e-06	5.148225e-06	1.918053e-08	3.708589e+01	1.261042e+03
1.520000e-06	5.174321e-06	1.921808e-08	3.727388e+01	1.263466e+03
1.530000e-06	5.198317e-06	1.925206e-08	3.744674e+01	1.265643e+03
1.540000e-06	5.220475e-06	1.928237e-08	3.760635e+01	1.267602e+03
1.550000e-06	5.240945e-06	1.930764e-08	3.775382e+01	1.269365e+03
1.560000e-06	5.259726e-06	1.932790e-08	3.788911e+01	1.270953e+03
1.570000e-06	5.276539e-06	1.934636e-08	3.801022e+01	1.272372e+03
1.580000e-06	5.291313e-06	1.936625e-08	3.811665e+01	1.273618e+03
1.590000e-06	5.304177e-06	1.938487e-08	3.820931e+01	1.274682e+03
1.600000e-06	5.314923e-06	1.939898e-08	3.828672e+01	1.275551e+03
1.610000e-06	5.323475e-06	1.940825e-08	3.834833e+01	1.276216e+03
1.620000e-06	5.330100e-06	1.941498e-08	3.839606e+01	1.276676e+03
1.630000e-06	5.334996e-06	1.942147e-08	3.843132e+01	1.276941e+03
1.640000e-06	5.338019e-06	1.942434e-08	3.845310e+01	1.277029e+03
1.650000e-06	5.338977e-06	1.942690e-08	3.846000e+01	1.276962e+03
1.660000e-06	5.338082e-06	1.942380e-08	3.845355e+01	1.276762e+03
1.670000e-06	5.335555e-06	1.941204e-08	3.843535e+01	1.276438e+03
1.680000e-06	5.331430e-06	1.940772e-08	3.840564e+01	1.275991e+03
1.690000e-06	5.325474e-06	1.940068e-08	3.836273e+01	1.275405e+03
1.700000e-06	5.317653e-06	1.938964e-08	3.830639e+01	1.274658e+03
1.710000e-06	5.308241e-06	1.937899e-08	3.823859e+01	1.273722e+03
1.720000e-06	5.297183e-06	1.937348e-08	3.815893e+01	1.272575e+03
1.730000e-06	5.284248e-06	1.938958e-08	3.806575e+01	1.271209e+03
1.740000e-06	5.269318e-06	1.926861e-08	3.795820e+01	1.269635e+03
1.750000e-06	5.252222e-06	1.916760e-08	3.783505e+01	1.267882e+03
1.760000e-06	5.232675e-06	1.921980e-08	3.769424e+01	1.265997e+03
1.770000e-06	5.210587e-06	1.919855e-08	3.753513e+01	1.264028e+03
1.780000e-06	5.186699e-06	1.932525e-08	3.736305e+01	1.262023e+03
1.790000e-06	5.162011e-06	1.925945e-08	3.718521e+01	1.260013e+03
1.800000e-06	5.136378e-06	1.896262e-08	3.700055e+01	1.258003e+03
1.810000e-06	5.108813e-06	1.921370e-08	3.680198e+01	1.255976e+03
1.820000e-06	5.079219e-06	1.913317e-08	3.658880e+01	1.253885e+03
1.830000e-06	5.047986e-06	1.887977e-08	3.636381e+01	1.251673e+03
1.840000e-06	5.014797e-06	1.923067e-08	3.612473e+01	1.249273e+03
1.850000e-06	4.979832e-06	1.905457e-08	3.587286e+01	1.246628e+03
1.860000e-06	4.943353e-06	1.883285e-08	3.561007e+01	1.243696e+03
1.870000e-06	4.904902e-06	1.904012e-08	3.533309e+01	1.240459e+03
1.880000e-06	4.864730e-06	1.877982e-08	3.504371e+01	1.236921e+03
1.890000e-06	4.822883e-06	1.879225e-08	3.474226e+01	1.233105e+03
1.900000e-06	4.779276e-06	1.882507e-08	3.442813e+01	1.229044e+03
1.910000e-06	4.734062e-06	1.858222e-08	3.410242e+01	1.224774e+03
1.920000e-06	4.686877e-06	1.876683e-08	3.376251e+01	1.220320e+03
1.930000e-06	4.637957e-06	1.857230e-08	3.341011e+01	1.215696e+03
1.940000e-06	4.587422e-06	1.842155e-08	3.304608e+01	1.210900e+03
1.950000e-06	4.534833e-06	1.847524e-08	3.266725e+01	1.205917e+03
1.960000e-06	4.480298e-06	1.830003e-08	3.227440e+01	1.200725e+03
1.970000e-06	4.424055e-06	1.832656e-08	3.186925e+01	1.195300e+03
1.980000e-06	4.366185e-06	1.814335e-08	3.145237e+01	1.189625e+03
1.990000e-06	4.306878e-06	1.804329e-08	3.102515e+01	1.183689e+03
2.000000e-06	4.246160e-06	1.804710e-08	3.058776e+01	1.177493e+03
2.010000e-06	4.183826e-06	1.786131e-08	3.013872e+01	1.171043e+03
2.020000e-06	4.119813e-06	1.784166e-08	2.967760e+01	1.164345e+03
2.030000e-06	4.054320e-06	1.765296e-08	2.920581e+01	1.157408e+03
2.040000e-06	3.987428e-06	1.756987e-08	2.872394e+01	1.150230e+03
2.050000e-06	3.919243e-06	1.748986e-08	2.823277e+01	1.142802e+03
2.060000e-06	3.849545e-06	1.728901e-08	2.773069e+01	1.135108e+03
2.070000e-06	3.778215e-06	1.726509e-08	2.721685e+01	1.127127e+03
2.080000e-06	3.705624e-06	1.710845e-08	2.669394e+01	1.118837e+03
2.090000e-06	3.631789e-06	1.698537e-08	2.616205e+01	1.110218e+03
2.100000e-06	3.556656e-06	1.682261e-08	2.562083e+01	1.101255e+03
2.110000e-06	3.480093e-06	1.668035e-08	2.506930e+01	1.091940e+03
2.120000e-06	3.401893e-06	1.659414e-08	2.450597e+01	1.082267e+03
2.130000e-06	3.322348e-06	1.639953e-08	2.393296e+01	1.072232e+03
2.140000e-06	3.241685e-06	1.625355e-08	2.335189e+01	1.061830e+03
2.150000e-06	3.159965e-06	1.606071e-08	2.276321e+01	1.051049e+03
2.160000e-06	3.077197e-06	1.589648e-08	2.216698e+01	1.039871e+03
2.170000e-06	2.993506e-06	1.572081e-08	2.156410e+01	1.028273e+03
2.180000e-06	2.908902e-06	1.554020e-08	2.095465e+01	1.016224e+03
2.190000e-06	2.822884e-06	1.538261e-08	2.033500e+01	1.003694e+03
2.200000e-06	2.735545e-06	1.516909e-08	1.970585e+01	9.906504e+02
2.210000e-06	2.647369e-06	1.495546e-08	1.907066e+01	9.770650e+02
2.220000e-06	2.558330e-06	1.472285e-08	1.842925e+01	9.629104e+02
2.230000e-06	2.468351e-06	1.451368e-08	1.778108e+01	9.481607e+02
2.240000e-06	2.377559e-06	1.428399e-08	1.712705e+01	9.327889e+02
2.250000e-06	2.286067e-06	1.403842e-08	1.646798e+01	9.167646e+02
2.260000e-06	2.193950e-06	1.378080e-08	1.580440e+01	9.000521e+02
2.270000e-06	2.101032e-06	1.350537e-08	1.513505e+01	8.826099e+02
2.280000e-06	2.007035e-06	1.323495e-08	1.445793e+01	8.643916e+02
2.290000e-06	1.912003e-06	1.294944e-08	1.377336e+01	8.453476e+02
2.300000e-06	1.816266e-06	1.265572e-08	1.308371e+01	8.254275e+02
2.310000e-06	1.720108e-06	1.234080e-08	1.239101e+01	8.045814e+02
2.320000e-06	1.623510e-06	1.200695e-08	1.169516e+01	7.827606e+02
2.330000e-06	1.526354e-06	1.165108e-08	1.099529e+01	7.599168e+02
2.340000e-06	1.428632e-06	1.128361e-08	1.029134e+01	7.359997e+02
2.350000e-06	1.330422e-06	1.090628e-08	9.583863e+00	7.109555e+02
2.360000e-06	1.231731e-06	1.051265e-08	8.872935e+00	6.847255e+02
2.370000e-06	1.132678e-06	1.009629e-08	8.159394e+00	6.572481e+02
2.380000e-06	1.033430e-06	9.656849e-09	7.444443e+00	6.284632e+02
2.390000e-06	9.339550e-07	9.199209e-09	6.727864e+00	5.983204e+02
2.400000e-06	8.342578e-07	8.717978e-09	6.009683e+00	5.667891e+02
2.410000e-06	7.343230e-07	8.216986e-09	5.289789e+00	5.338701e+02
2.420000e-06	6.341504e-07	7.691287e-09	4.568183e+00	4.996046e+02
2.430000e-06	5.337958e-07	7.143466e-09	3.845266e+00	4.640803e+02
2.440000e-06	4.332422e-07	6.580042e-09	3.120915e+00	4.274311e+02
2.450000e-06	3.325473e-07	6.007824e-09	2.395547e+00	3.898307e+02
2.460000e-06	2.317302e-07	5.423563e-09	1.669298e+00	3.514798e+02
2.470000e-06	1.307738e-07	4.826760e-09	9.420457e-01	3.125876e+02
2.480000e-06	2.966643e-08	4.226288e-09	2.137059e-01	2.733512e+02
2.490000e-06	-7.143629e-08	3.623755e-09	-5.146004e-01	2.339357e+02
2.500000e-06	-1.724111e-07	3.018168e-09	-1.241985e+00	1.944566e+02
2.510000e-06	-2.733505e-07	2.409071e-09	-1.969115e+00	1.549688e+02
2.520000e-06	-3.742519e-07	1.800219e-09	-2.695972e+00	1.154629e+02
2.530000e-06	-4.750448e-07	1.189252e-09	-3.422045e+00	7.586999e+01
2.540000e-06	-5.756053e-07	5.768125e-10	-4.146446e+00	3.607325e+01
2.550000e-06	-6.759404e-07	-3.790965e-11	-4.869223e+00	-4.073149e+00
2.560000e-06	-7.760739e-07	-6.563191e-10	-5.590547e+00	-4.472188e+01
2.570000e-06	-8.759587e-07	-1.283325e-09	-6.310080e+00	-8.600847e+01
2.580000e-06	-9.755682e-07	-1.923127e-09	-7.027630e+00	-1.280285e+02
2.590000e-06	-1.074861e-06	-2.576322e-09	-7.742899e+00	-1.708185e+02
2.600000e-06	-1.173863e-06	-3.246401e-09	-8.456070e+00	-2.143421e+02
2.610000e-06	-1.272495e-06	-3.925152e-09	-9.166579e+00	-2.584836e+02
2.620000e-06	-1.370700e-06	-4.605651e-09	-9.874011e+00	-3.030496e+02
2.630000e-06	-1.468405e-06	-5.288136e-09	-1.057784e+01	-3.477782e+02
2.640000e-06	-1.565468e-06	-5.972065e-09	-1.127705e+01	-3.923551e+02
2.650000e-06	-1.662001e-06	-6.650991e-09	-1.197243e+01	-4.364366e+02
2.660000e-06	-1.758124e-06	-7.314294e-09	-1.266487e+01	-4.796742e+02
2.670000e-06	-1.853820e-06	-7.957611e-09	-1.335423e+01	-5.217406e+02
2.680000e-06	-1.948830e-06	-8.579768e-09	-1.403865e+01	-5.623535e+02
2.690000e-06	-2.042840e-06	-9.175262e-09	-1.471586e+01	-6.012930e+02
2.700000e-06	-2.135840e-06	-9.743062e-09	-1.538579e+01	-6.384126e+02
2.710000e-06	-2.227965e-06	-1.028637e-08	-1.604943e+01	-6.736410e+02
2.720000e-06	-2.319329e-06	-1.080197e-08	-1.670758e+01	-7.069766e+02
2.730000e-06	-2.409911e-06	-1.128667e-08	-1.736010e+01	-7.384739e+02
2.740000e-06	-2.499616e-06	-1.174219e-08	-1.800631e+01	-7.682266e+02
2.750000e-06	-2.588474e-06	-1.217004e-08	-1.864640e+01	-7.963488e+02
2.760000e-06	-2.676538e-06	-1.257611e-08	-1.928078e+01	-8.229585e+02
2.770000e-06	-2.763777e-06	-1.296374e-08	-1.990922e+01	-8.481641e+02
2.780000e-06	-2.849994e-06	-1.332962e-08	-2.053029e+01	-8.720581e+02
2.790000e-06	-2.934971e-06	-1.367406e-08	-2.114244e+01	-8.947147e+02
2.800000e-06	-3.018845e-06	-1.400019e-08	-2.174663e+01	-9.161940e+02
2.810000e-06	-3.101783e-06	-1.431134e-08	-2.234409e+01	-9.365474e+02
2.820000e-06	-3.183719e-06	-1.460779e-08	-2.293432e+01	-9.558247e+02
2.830000e-06	-3.264651e-06	-1.488794e-08	-2.351733e+01	-9.740793e+02
2.840000e-06	-3.344496e-06	-1.515218e-08	-2.409250e+01	-9.913711e+02
2.850000e-06	-3.423004e-06	-1.540208e-08	-2.465805e+01	-1.007765e+03
2.860000e-06	-3.500060e-06	-1.563940e-08	-2.521313e+01	-1.023329e+03
2.870000e-06	-3.575728e-06	-1.586679e-08	-2.575821e+01	-1.038127e+03
2.880000e-06	-3.649976e-06	-1.608702e-08	-2.629307e+01	-1.052217e+03
2.890000e-06	-3.722890e-06	-1.629892e-08	-2.681831e+01	-1.065645e+03
2.900000e-06	-3.794623e-06	-1.649629e-08	-2.733505e+01	-1.078446e+03
2.910000e-06	-3.864917e-06	-1.667948e-08	-2.784142e+01	-1.090645e+03
2.920000e-06	-3.933620e-06	-1.685519e-08	-2.833634e+01	-1.102258e+03
2.930000e-06	-4.000897e-06	-1.702319e-08	-2.882097e+01	-1.113303e+03
2.940000e-06	-4.066768e-06	-1.718232e-08	-2.929548e+01	-1.123795e+03
