# Temperatura_=_74.8
# Concentracion g/m^3_=_28200.0
# C_Vs_to_Am_M_A/Vsm_=_65563218390.804596
# pendiente_HvsI_1/m_=_3716.3
# ordenada_HvsI_A/m_=_1297.0
# frecuencia_Hz_=_301760.719172883

Tiempo_(s)	Campo_(V.s)	Magnetizacion_(V.s)	Campo_(kA/m)	Magnetizacion_(A/m)
0.000000e+00	-5.296487e-06	-2.484454e-08	-3.829752e+01	-1.624983e+03
1.000000e-08	-5.294499e-06	-2.484498e-08	-3.828314e+01	-1.624593e+03
2.000000e-08	-5.290738e-06	-2.483321e-08	-3.825595e+01	-1.624004e+03
3.000000e-08	-5.285381e-06	-2.481911e-08	-3.821721e+01	-1.623213e+03
4.000000e-08	-5.278385e-06	-2.480560e-08	-3.816662e+01	-1.622211e+03
5.000000e-08	-5.269721e-06	-2.478412e-08	-3.810397e+01	-1.620988e+03
6.000000e-08	-5.259065e-06	-2.475685e-08	-3.802692e+01	-1.619535e+03
7.000000e-08	-5.246496e-06	-2.471620e-08	-3.793604e+01	-1.617849e+03
8.000000e-08	-5.232051e-06	-2.467919e-08	-3.783160e+01	-1.615937e+03
9.000000e-08	-5.215358e-06	-2.475028e-08	-3.771089e+01	-1.613819e+03
1.000000e-07	-5.196487e-06	-2.475152e-08	-3.757444e+01	-1.611522e+03
1.100000e-07	-5.175688e-06	-2.463103e-08	-3.742405e+01	-1.609083e+03
1.200000e-07	-5.153042e-06	-2.457763e-08	-3.726030e+01	-1.606540e+03
1.300000e-07	-5.128869e-06	-2.441682e-08	-3.708551e+01	-1.603923e+03
1.400000e-07	-5.103253e-06	-2.435408e-08	-3.690029e+01	-1.601250e+03
1.500000e-07	-5.075993e-06	-2.459203e-08	-3.670318e+01	-1.598518e+03
1.600000e-07	-5.047180e-06	-2.436562e-08	-3.649484e+01	-1.595707e+03
1.700000e-07	-5.016949e-06	-2.426731e-08	-3.627625e+01	-1.592777e+03
1.800000e-07	-4.984942e-06	-2.444549e-08	-3.604481e+01	-1.589675e+03
1.900000e-07	-4.950789e-06	-2.408264e-08	-3.579786e+01	-1.586344e+03
2.000000e-07	-4.915015e-06	-2.403829e-08	-3.553919e+01	-1.582730e+03
2.100000e-07	-4.877761e-06	-2.420665e-08	-3.526982e+01	-1.578794e+03
2.200000e-07	-4.838747e-06	-2.398326e-08	-3.498772e+01	-1.574508e+03
2.300000e-07	-4.797902e-06	-2.393540e-08	-3.469238e+01	-1.569866e+03
2.400000e-07	-4.755072e-06	-2.388337e-08	-3.438269e+01	-1.564876e+03
2.500000e-07	-4.710454e-06	-2.370410e-08	-3.406006e+01	-1.559556e+03
2.600000e-07	-4.664110e-06	-2.370658e-08	-3.372496e+01	-1.553929e+03
2.700000e-07	-4.615871e-06	-2.355266e-08	-3.337616e+01	-1.548014e+03
2.800000e-07	-4.565562e-06	-2.344348e-08	-3.301239e+01	-1.541823e+03
2.900000e-07	-4.513181e-06	-2.339188e-08	-3.263363e+01	-1.535359e+03
3.000000e-07	-4.459045e-06	-2.327112e-08	-3.224219e+01	-1.528615e+03
3.100000e-07	-4.403420e-06	-2.316016e-08	-3.183998e+01	-1.521580e+03
3.200000e-07	-4.346078e-06	-2.303495e-08	-3.142535e+01	-1.514239e+03
3.300000e-07	-4.286962e-06	-2.294586e-08	-3.099790e+01	-1.506582e+03
3.400000e-07	-4.226396e-06	-2.280478e-08	-3.055997e+01	-1.498604e+03
3.500000e-07	-4.164451e-06	-2.266781e-08	-3.011206e+01	-1.490304e+03
3.600000e-07	-4.101195e-06	-2.255117e-08	-2.965467e+01	-1.481686e+03
3.700000e-07	-4.036527e-06	-2.241892e-08	-2.918707e+01	-1.472757e+03
3.800000e-07	-3.970122e-06	-2.230282e-08	-2.870691e+01	-1.463519e+03
3.900000e-07	-3.902117e-06	-2.211733e-08	-2.821519e+01	-1.453968e+03
4.000000e-07	-3.832850e-06	-2.194828e-08	-2.771434e+01	-1.444093e+03
4.100000e-07	-3.762368e-06	-2.183221e-08	-2.720470e+01	-1.433873e+03
4.200000e-07	-3.690759e-06	-2.166214e-08	-2.668691e+01	-1.423283e+03
4.300000e-07	-3.617852e-06	-2.149220e-08	-2.615974e+01	-1.412296e+03
4.400000e-07	-3.543262e-06	-2.131622e-08	-2.562040e+01	-1.400886e+03
4.500000e-07	-3.467115e-06	-2.113505e-08	-2.506981e+01	-1.389032e+03
4.600000e-07	-3.389733e-06	-2.093441e-08	-2.451027e+01	-1.376721e+03
4.700000e-07	-3.311009e-06	-2.073201e-08	-2.394104e+01	-1.363944e+03
4.800000e-07	-3.230891e-06	-2.055073e-08	-2.336173e+01	-1.350697e+03
4.900000e-07	-3.149578e-06	-2.034086e-08	-2.277378e+01	-1.336975e+03
5.000000e-07	-3.067144e-06	-2.012670e-08	-2.217772e+01	-1.322768e+03
5.100000e-07	-2.983785e-06	-1.989485e-08	-2.157497e+01	-1.308058e+03
5.200000e-07	-2.899632e-06	-1.965554e-08	-2.096648e+01	-1.292822e+03
5.300000e-07	-2.814552e-06	-1.941213e-08	-2.035129e+01	-1.277025e+03
5.400000e-07	-2.728493e-06	-1.916131e-08	-1.972902e+01	-1.260629e+03
5.500000e-07	-2.641506e-06	-1.890721e-08	-1.910004e+01	-1.243593e+03
5.600000e-07	-2.553692e-06	-1.863238e-08	-1.846508e+01	-1.225876e+03
5.700000e-07	-2.464876e-06	-1.835054e-08	-1.782287e+01	-1.207442e+03
5.800000e-07	-2.374785e-06	-1.805390e-08	-1.717145e+01	-1.188258e+03
5.900000e-07	-2.283604e-06	-1.774994e-08	-1.651214e+01	-1.168293e+03
6.000000e-07	-2.191725e-06	-1.743618e-08	-1.584779e+01	-1.147513e+03
6.100000e-07	-2.099196e-06	-1.711199e-08	-1.517874e+01	-1.125880e+03
6.200000e-07	-2.005828e-06	-1.677171e-08	-1.450361e+01	-1.103347e+03
6.300000e-07	-1.911671e-06	-1.640606e-08	-1.382279e+01	-1.079853e+03
6.400000e-07	-1.816890e-06	-1.602392e-08	-1.313746e+01	-1.055328e+03
6.500000e-07	-1.721570e-06	-1.562848e-08	-1.244823e+01	-1.029690e+03
6.600000e-07	-1.625783e-06	-1.521975e-08	-1.175561e+01	-1.002850e+03
6.700000e-07	-1.529485e-06	-1.479320e-08	-1.105930e+01	-9.747145e+02
6.800000e-07	-1.432551e-06	-1.434684e-08	-1.035840e+01	-9.451904e+02
6.900000e-07	-1.334848e-06	-1.387340e-08	-9.651934e+00	-9.141874e+02
7.000000e-07	-1.236432e-06	-1.337616e-08	-8.940315e+00	-8.816203e+02
7.100000e-07	-1.137512e-06	-1.285204e-08	-8.225049e+00	-8.474102e+02
7.200000e-07	-1.038234e-06	-1.230294e-08	-7.507199e+00	-8.114865e+02
7.300000e-07	-9.386997e-07	-1.173236e-08	-6.787492e+00	-7.737900e+02
7.400000e-07	-8.389785e-07	-1.113410e-08	-6.066435e+00	-7.342779e+02
7.500000e-07	-7.391194e-07	-1.050568e-08	-5.344379e+00	-6.929315e+02
7.600000e-07	-6.390807e-07	-9.844878e-09	-4.621025e+00	-6.497645e+02
7.700000e-07	-5.388128e-07	-9.156593e-09	-3.896014e+00	-6.048325e+02
7.800000e-07	-4.383589e-07	-8.446731e-09	-3.169659e+00	-5.582389e+02
7.900000e-07	-3.377788e-07	-7.717343e-09	-2.442390e+00	-5.101371e+02
8.000000e-07	-2.370939e-07	-6.965633e-09	-1.714364e+00	-4.607257e+02
8.100000e-07	-1.362890e-07	-6.198394e-09	-9.854704e-01	-4.102358e+02
8.200000e-07	-3.537892e-08	-5.418085e-09	-2.558158e-01	-3.589111e+02
8.300000e-07	6.559696e-08	-4.624372e-09	4.743145e-01	-3.069826e+02
8.400000e-07	1.665595e-07	-3.824696e-09	1.204348e+00	-2.546420e+02
8.500000e-07	2.674504e-07	-3.024144e-09	1.933864e+00	-2.020178e+02
8.600000e-07	3.682940e-07	-2.223521e-09	2.663038e+00	-1.491581e+02
8.700000e-07	4.689892e-07	-1.416729e-09	3.391138e+00	-9.602644e+01
8.800000e-07	5.695086e-07	-6.014105e-10	4.117968e+00	-4.250939e+01
8.900000e-07	6.699129e-07	2.256863e-10	4.843965e+00	1.156086e+01
9.000000e-07	7.701470e-07	1.062838e-09	5.568732e+00	6.637330e+01
9.100000e-07	8.701701e-07	1.911663e-09	6.291973e+00	1.220979e+02
9.200000e-07	9.699898e-07	2.774694e-09	7.013743e+00	1.788446e+02
9.300000e-07	1.069571e-06	3.651233e-09	7.733789e+00	2.366281e+02
9.400000e-07	1.168836e-06	4.542332e-09	8.451546e+00	2.953439e+02
9.500000e-07	1.267659e-06	5.444403e-09	9.166114e+00	3.547596e+02
9.600000e-07	1.365875e-06	6.353327e-09	9.876286e+00	4.145232e+02
9.700000e-07	1.463304e-06	7.262705e-09	1.058077e+01	4.741882e+02
9.800000e-07	1.559953e-06	8.164257e-09	1.127961e+01	5.332498e+02
9.900000e-07	1.655996e-06	9.046390e-09	1.197407e+01	5.911886e+02
1.000000e-06	1.751474e-06	9.901457e-09	1.266445e+01	6.475157e+02
1.010000e-06	1.846327e-06	1.072600e-08	1.335031e+01	7.018106e+02
1.020000e-06	1.940507e-06	1.151438e-08	1.403130e+01	7.537498e+02
1.030000e-06	2.034033e-06	1.226133e-08	1.470756e+01	8.031220e+02
1.040000e-06	2.126858e-06	1.296842e-08	1.537875e+01	8.498279e+02
1.050000e-06	2.219022e-06	1.363550e-08	1.604517e+01	8.938692e+02
1.060000e-06	2.310634e-06	1.426459e-08	1.670759e+01	9.353272e+02
1.070000e-06	2.401468e-06	1.485737e-08	1.736439e+01	9.743371e+02
1.080000e-06	2.491110e-06	1.541604e-08	1.801257e+01	1.011063e+03
1.090000e-06	2.579576e-06	1.594477e-08	1.865224e+01	1.045673e+03
1.100000e-06	2.667225e-06	1.644168e-08	1.928601e+01	1.078327e+03
1.110000e-06	2.754062e-06	1.690909e-08	1.991390e+01	1.109167e+03
1.120000e-06	2.839917e-06	1.734932e-08	2.053469e+01	1.138313e+03
1.130000e-06	2.924763e-06	1.776588e-08	2.114820e+01	1.165869e+03
1.140000e-06	3.008755e-06	1.816015e-08	2.175552e+01	1.191927e+03
1.150000e-06	3.091945e-06	1.853563e-08	2.235705e+01	1.216576e+03
1.160000e-06	3.173992e-06	1.889335e-08	2.295031e+01	1.239903e+03
1.170000e-06	3.254770e-06	1.923231e-08	2.353439e+01	1.261998e+03
1.180000e-06	3.334319e-06	1.955326e-08	2.410959e+01	1.282950e+03
1.190000e-06	3.412675e-06	1.985828e-08	2.467616e+01	1.302845e+03
1.200000e-06	3.489907e-06	2.014453e-08	2.523461e+01	1.321764e+03
1.210000e-06	3.565972e-06	2.041383e-08	2.578461e+01	1.339773e+03
1.220000e-06	3.640655e-06	2.067234e-08	2.632462e+01	1.356931e+03
1.230000e-06	3.713727e-06	2.091976e-08	2.685299e+01	1.373279e+03
1.240000e-06	3.785351e-06	2.115474e-08	2.737088e+01	1.388852e+03
1.250000e-06	3.855705e-06	2.137807e-08	2.787960e+01	1.403680e+03
1.260000e-06	3.924716e-06	2.159121e-08	2.837860e+01	1.417788e+03
1.270000e-06	3.992409e-06	2.179399e-08	2.886806e+01	1.431208e+03
1.280000e-06	4.058555e-06	2.198788e-08	2.934635e+01	1.443975e+03
1.290000e-06	4.123016e-06	2.217224e-08	2.981245e+01	1.456128e+03
1.300000e-06	4.186027e-06	2.234854e-08	3.026807e+01	1.467707e+03
1.310000e-06	4.247637e-06	2.251652e-08	3.071355e+01	1.478750e+03
1.320000e-06	4.307925e-06	2.267626e-08	3.114948e+01	1.489289e+03
1.330000e-06	4.366793e-06	2.282856e-08	3.157514e+01	1.499348e+03
1.340000e-06	4.423912e-06	2.297461e-08	3.198815e+01	1.508938e+03
1.350000e-06	4.479273e-06	2.311322e-08	3.238845e+01	1.518064e+03
1.360000e-06	4.533057e-06	2.324583e-08	3.277735e+01	1.526722e+03
1.370000e-06	4.585163e-06	2.337157e-08	3.315411e+01	1.534913e+03
1.380000e-06	4.635254e-06	2.348969e-08	3.351631e+01	1.542637e+03
1.390000e-06	4.683389e-06	2.360062e-08	3.386436e+01	1.549905e+03
1.400000e-06	4.729872e-06	2.370227e-08	3.420047e+01	1.556741e+03
1.410000e-06	4.774812e-06	2.379752e-08	3.452542e+01	1.563173e+03
1.420000e-06	4.818211e-06	2.388865e-08	3.483922e+01	1.569239e+03
1.430000e-06	4.859771e-06	2.397594e-08	3.513974e+01	1.574978e+03
1.440000e-06	4.899462e-06	2.405871e-08	3.542673e+01	1.580421e+03
1.450000e-06	4.937548e-06	2.413732e-08	3.570212e+01	1.585592e+03
1.460000e-06	4.974078e-06	2.421322e-08	3.596626e+01	1.590503e+03
1.470000e-06	5.008907e-06	2.428534e-08	3.621810e+01	1.595151e+03
1.480000e-06	5.041863e-06	2.435274e-08	3.645640e+01	1.599526e+03
1.490000e-06	5.073047e-06	2.441389e-08	3.668188e+01	1.603611e+03
1.500000e-06	5.102522e-06	2.446886e-08	3.689500e+01	1.607386e+03
1.510000e-06	5.130362e-06	2.452018e-08	3.709631e+01	1.610841e+03
1.520000e-06	5.156298e-06	2.456775e-08	3.728385e+01	1.613970e+03
1.530000e-06	5.180152e-06	2.461026e-08	3.745633e+01	1.616779e+03
1.540000e-06	5.202162e-06	2.464688e-08	3.761548e+01	1.619283e+03
1.550000e-06	5.222479e-06	2.467898e-08	3.776238e+01	1.621499e+03
1.560000e-06	5.241076e-06	2.470690e-08	3.789685e+01	1.623451e+03
1.570000e-06	5.257678e-06	2.473237e-08	3.801689e+01	1.625156e+03
1.580000e-06	5.272259e-06	2.475669e-08	3.812233e+01	1.626630e+03
1.590000e-06	5.284954e-06	2.477773e-08	3.821412e+01	1.627882e+03
1.600000e-06	5.295490e-06	2.479463e-08	3.829030e+01	1.628914e+03
1.610000e-06	5.303828e-06	2.480718e-08	3.835060e+01	1.629728e+03
1.620000e-06	5.310286e-06	2.481605e-08	3.839729e+01	1.630322e+03
1.630000e-06	5.315026e-06	2.482241e-08	3.843156e+01	1.630699e+03
1.640000e-06	5.318006e-06	2.482530e-08	3.845311e+01	1.630861e+03
1.650000e-06	5.318959e-06	2.482810e-08	3.846000e+01	1.630815e+03
1.660000e-06	5.317977e-06	2.482396e-08	3.845290e+01	1.630567e+03
1.670000e-06	5.315343e-06	2.481199e-08	3.843386e+01	1.630119e+03
1.680000e-06	5.311151e-06	2.480495e-08	3.840355e+01	1.629472e+03
1.690000e-06	5.305111e-06	2.479293e-08	3.835987e+01	1.628621e+03
1.700000e-06	5.297153e-06	2.477657e-08	3.830233e+01	1.627555e+03
1.710000e-06	5.287606e-06	2.476102e-08	3.823330e+01	1.626266e+03
1.720000e-06	5.276501e-06	2.475346e-08	3.815300e+01	1.624746e+03
1.730000e-06	5.263599e-06	2.476314e-08	3.805971e+01	1.622994e+03
1.740000e-06	5.248628e-06	2.461839e-08	3.795146e+01	1.621020e+03
1.750000e-06	5.231401e-06	2.452165e-08	3.782689e+01	1.618846e+03
1.760000e-06	5.211671e-06	2.456788e-08	3.768423e+01	1.616504e+03
1.770000e-06	5.189423e-06	2.454992e-08	3.752336e+01	1.614031e+03
1.780000e-06	5.165445e-06	2.469451e-08	3.734998e+01	1.611463e+03
1.790000e-06	5.140759e-06	2.454927e-08	3.717148e+01	1.608828e+03
1.800000e-06	5.115076e-06	2.426122e-08	3.698578e+01	1.606138e+03
1.810000e-06	5.087421e-06	2.452934e-08	3.678581e+01	1.603386e+03
1.820000e-06	5.057874e-06	2.436505e-08	3.657217e+01	1.600545e+03
1.830000e-06	5.026668e-06	2.417814e-08	3.634653e+01	1.597570e+03
1.840000e-06	4.993465e-06	2.454088e-08	3.610644e+01	1.594408e+03
1.850000e-06	4.958534e-06	2.425516e-08	3.585387e+01	1.591000e+03
1.860000e-06	4.922052e-06	2.404908e-08	3.559007e+01	1.587297e+03
1.870000e-06	4.883548e-06	2.423455e-08	3.531166e+01	1.583262e+03
1.880000e-06	4.843336e-06	2.397815e-08	3.502090e+01	1.578873e+03
1.890000e-06	4.801449e-06	2.403861e-08	3.471803e+01	1.574130e+03
1.900000e-06	4.757817e-06	2.398311e-08	3.440253e+01	1.569043e+03
1.910000e-06	4.712642e-06	2.374863e-08	3.407588e+01	1.563632e+03
1.920000e-06	4.665547e-06	2.395843e-08	3.373535e+01	1.557920e+03
1.930000e-06	4.616735e-06	2.369490e-08	3.338240e+01	1.551925e+03
1.940000e-06	4.566264e-06	2.353099e-08	3.301746e+01	1.545655e+03
1.950000e-06	4.513815e-06	2.355462e-08	3.263821e+01	1.539111e+03
1.960000e-06	4.459392e-06	2.337358e-08	3.224470e+01	1.532284e+03
1.970000e-06	4.403150e-06	2.336204e-08	3.183802e+01	1.525162e+03
1.980000e-06	4.345357e-06	2.311792e-08	3.142014e+01	1.517731e+03
1.990000e-06	4.286178e-06	2.305397e-08	3.099223e+01	1.509982e+03
2.000000e-06	4.225675e-06	2.303049e-08	3.055475e+01	1.501910e+03
2.010000e-06	4.163531e-06	2.276349e-08	3.010540e+01	1.493518e+03
2.020000e-06	4.099598e-06	2.268634e-08	2.964312e+01	1.484810e+03
2.030000e-06	4.034238e-06	2.250346e-08	2.917052e+01	1.475792e+03
2.040000e-06	3.967512e-06	2.243687e-08	2.868804e+01	1.466464e+03
2.050000e-06	3.899464e-06	2.228552e-08	2.819601e+01	1.456822e+03
2.060000e-06	3.829938e-06	2.204368e-08	2.769328e+01	1.446849e+03
2.070000e-06	3.758796e-06	2.198475e-08	2.717887e+01	1.436526e+03
2.080000e-06	3.686390e-06	2.176794e-08	2.665533e+01	1.425824e+03
2.090000e-06	3.612787e-06	2.161141e-08	2.612312e+01	1.414718e+03
2.100000e-06	3.537884e-06	2.143055e-08	2.558151e+01	1.403182e+03
2.110000e-06	3.461608e-06	2.126726e-08	2.502998e+01	1.391198e+03
2.120000e-06	3.383766e-06	2.111038e-08	2.446712e+01	1.378754e+03
2.130000e-06	3.304515e-06	2.084896e-08	2.389409e+01	1.365842e+03
2.140000e-06	3.224145e-06	2.066488e-08	2.331295e+01	1.352459e+03
2.150000e-06	3.142706e-06	2.043967e-08	2.272408e+01	1.338598e+03
2.160000e-06	3.060141e-06	2.024124e-08	2.212708e+01	1.324249e+03
2.170000e-06	2.976577e-06	2.001427e-08	2.152285e+01	1.309391e+03
2.180000e-06	2.892132e-06	1.977343e-08	2.091225e+01	1.293998e+03
2.190000e-06	2.806465e-06	1.954715e-08	2.029282e+01	1.278033e+03
2.200000e-06	2.719449e-06	1.927990e-08	1.966363e+01	1.261457e+03
2.210000e-06	2.631487e-06	1.902479e-08	1.902759e+01	1.244229e+03
2.220000e-06	2.542739e-06	1.874201e-08	1.838588e+01	1.226310e+03
2.230000e-06	2.453072e-06	1.847068e-08	1.773752e+01	1.207665e+03
2.240000e-06	2.362550e-06	1.817365e-08	1.708298e+01	1.188260e+03
2.250000e-06	2.271301e-06	1.786250e-08	1.642318e+01	1.168065e+03
2.260000e-06	2.179392e-06	1.753628e-08	1.575862e+01	1.147044e+03
2.270000e-06	2.086821e-06	1.719634e-08	1.508925e+01	1.125158e+03
2.280000e-06	1.993319e-06	1.685893e-08	1.441317e+01	1.102356e+03
2.290000e-06	1.898697e-06	1.649911e-08	1.372898e+01	1.078575e+03
2.300000e-06	1.803208e-06	1.612698e-08	1.303852e+01	1.053740e+03
2.310000e-06	1.707196e-06	1.573216e-08	1.234429e+01	1.027767e+03
2.320000e-06	1.610795e-06	1.531987e-08	1.164724e+01	1.000566e+03
2.330000e-06	1.513917e-06	1.487963e-08	1.094674e+01	9.720418e+02
2.340000e-06	1.416487e-06	1.441822e-08	1.024225e+01	9.421033e+02
2.350000e-06	1.318638e-06	1.394005e-08	9.534726e+00	9.106610e+02
2.360000e-06	1.220385e-06	1.344262e-08	8.824282e+00	8.776314e+02
2.370000e-06	1.121751e-06	1.291685e-08	8.111090e+00	8.429376e+02
2.380000e-06	1.022821e-06	1.235720e-08	7.395751e+00	8.065119e+02
2.390000e-06	9.235725e-07	1.177258e-08	6.678111e+00	7.682993e+02
2.400000e-06	8.240415e-07	1.116192e-08	5.958429e+00	7.282629e+02
2.410000e-06	7.243132e-07	1.052595e-08	5.237319e+00	6.863924e+02
2.420000e-06	6.244109e-07	9.858544e-09	4.514952e+00	6.427126e+02
2.430000e-06	5.243499e-07	9.164302e-09	3.791437e+00	5.972922e+02
2.440000e-06	4.241467e-07	8.446079e-09	3.066894e+00	5.502491e+02
2.450000e-06	3.237983e-07	7.704404e-09	2.341301e+00	5.017503e+02
2.460000e-06	2.233305e-07	6.939019e-09	1.614845e+00	4.520053e+02
2.470000e-06	1.227781e-07	6.160188e-09	8.877765e-01	4.012512e+02
2.480000e-06	2.220066e-08	5.377506e-09	1.605271e-01	3.497308e+02
2.490000e-06	-7.837771e-08	4.586122e-09	-5.667287e-01	2.976665e+02
2.500000e-06	-1.788974e-07	3.786670e-09	-1.293560e+00	2.452342e+02
2.510000e-06	-2.793635e-07	2.982871e-09	-2.020004e+00	1.925406e+02
2.520000e-06	-3.798136e-07	2.174849e-09	-2.746333e+00	1.396098e+02
2.530000e-06	-4.801845e-07	1.356386e-09	-3.472089e+00	8.638162e+01
2.540000e-06	-5.804268e-07	5.339372e-10	-4.196915e+00	3.272441e+01
2.550000e-06	-6.805163e-07	-2.919784e-10	-4.920635e+00	-2.153952e+01
2.560000e-06	-7.804470e-07	-1.129503e-09	-5.643208e+00	-7.659795e+01
2.570000e-06	-8.801109e-07	-1.986407e-09	-6.363852e+00	-1.326078e+02
2.580000e-06	-9.794587e-07	-2.861824e-09	-7.082210e+00	-1.896550e+02
2.590000e-06	-1.078477e-06	-3.748416e-09	-7.798184e+00	-2.477220e+02
2.600000e-06	-1.177107e-06	-4.647061e-09	-8.511351e+00	-3.066678e+02
2.610000e-06	-1.275330e-06	-5.554045e-09	-9.221578e+00	-3.662244e+02
2.620000e-06	-1.373074e-06	-6.467274e-09	-9.928340e+00	-4.260096e+02
2.630000e-06	-1.470280e-06	-7.379151e-09	-1.063121e+01	-4.855561e+02
2.640000e-06	-1.566975e-06	-8.281695e-09	-1.133039e+01	-5.443502e+02
2.650000e-06	-1.663249e-06	-9.168147e-09	-1.202652e+01	-6.018769e+02
2.660000e-06	-1.759135e-06	-1.002652e-08	-1.271985e+01	-6.576633e+02
2.670000e-06	-1.854468e-06	-1.084861e-08	-1.340917e+01	-7.113143e+02
2.680000e-06	-1.948932e-06	-1.162920e-08	-1.409222e+01	-7.625375e+02
2.690000e-06	-2.042352e-06	-1.236867e-08	-1.476771e+01	-8.111541e+02
2.700000e-06	-2.134882e-06	-1.307096e-08	-1.543677e+01	-8.570954e+02
2.710000e-06	-2.226678e-06	-1.373709e-08	-1.610053e+01	-9.003884e+02
2.720000e-06	-2.317711e-06	-1.436697e-08	-1.675876e+01	-9.411323e+02
2.730000e-06	-2.407937e-06	-1.496052e-08	-1.741116e+01	-9.794730e+02
2.740000e-06	-2.497270e-06	-1.551797e-08	-1.805711e+01	-1.015578e+03
2.750000e-06	-2.585778e-06	-1.603980e-08	-1.869708e+01	-1.049615e+03
2.760000e-06	-2.673588e-06	-1.652948e-08	-1.933202e+01	-1.081738e+03
2.770000e-06	-2.760481e-06	-1.699312e-08	-1.996032e+01	-1.112083e+03
2.780000e-06	-2.846170e-06	-1.743058e-08	-2.057992e+01	-1.140766e+03
2.790000e-06	-2.930712e-06	-1.784248e-08	-2.119121e+01	-1.167885e+03
2.800000e-06	-3.014265e-06	-1.823450e-08	-2.179537e+01	-1.193533e+03
2.810000e-06	-3.096830e-06	-1.860730e-08	-2.239237e+01	-1.217796e+03
2.820000e-06	-3.178366e-06	-1.895913e-08	-2.298194e+01	-1.240763e+03
2.830000e-06	-3.258932e-06	-1.929175e-08	-2.356449e+01	-1.262523e+03
2.840000e-06	-3.338416e-06	-1.960835e-08	-2.413921e+01	-1.283165e+03
2.850000e-06	-3.416480e-06	-1.991156e-08	-2.470367e+01	-1.302775e+03
2.860000e-06	-3.493106e-06	-2.020045e-08	-2.525774e+01	-1.321428e+03
2.870000e-06	-3.568338e-06	-2.047096e-08	-2.580172e+01	-1.339190e+03
2.880000e-06	-3.642146e-06	-2.072647e-08	-2.633541e+01	-1.356113e+03
2.890000e-06	-3.714737e-06	-2.097272e-08	-2.686029e+01	-1.372237e+03
2.900000e-06	-3.786137e-06	-2.120978e-08	-2.737656e+01	-1.387596e+03
2.910000e-06	-3.856016e-06	-2.143611e-08	-2.788184e+01	-1.402215e+03
2.920000e-06	-3.924405e-06	-2.165312e-08	-2.837635e+01	-1.416125e+03
2.930000e-06	-3.991427e-06	-2.185864e-08	-2.886097e+01	-1.429356e+03
2.940000e-06	-4.056987e-06	-2.205199e-08	-2.933501e+01	-1.441944e+03
