# Temperatura_=_65.58
# Concentracion g/m^3_=_28200.0
# C_Vs_to_Am_M_A/Vsm_=_65563218390.804596
# pendiente_HvsI_1/m_=_3716.3
# ordenada_HvsI_A/m_=_1297.0
# frecuencia_Hz_=_301766.8079644053

Tiempo_(s)	Campo_(V.s)	Magnetizacion_(V.s)	Campo_(kA/m)	Magnetizacion_(A/m)
0.000000e+00	-5.353068e-06	-2.228616e-08	-3.830081e+01	-1.458866e+03
1.000000e-08	-5.351079e-06	-2.228537e-08	-3.828658e+01	-1.458554e+03
2.000000e-08	-5.347150e-06	-2.227757e-08	-3.825847e+01	-1.458068e+03
3.000000e-08	-5.341585e-06	-2.226702e-08	-3.821865e+01	-1.457406e+03
4.000000e-08	-5.334471e-06	-2.225472e-08	-3.816775e+01	-1.456560e+03
5.000000e-08	-5.325702e-06	-2.223717e-08	-3.810501e+01	-1.455521e+03
6.000000e-08	-5.314938e-06	-2.221575e-08	-3.802799e+01	-1.454281e+03
7.000000e-08	-5.302214e-06	-2.218652e-08	-3.793695e+01	-1.452833e+03
8.000000e-08	-5.287525e-06	-2.216954e-08	-3.783185e+01	-1.451179e+03
9.000000e-08	-5.270536e-06	-2.220726e-08	-3.771030e+01	-1.449329e+03
1.000000e-07	-5.251455e-06	-2.219254e-08	-3.757378e+01	-1.447299e+03
1.100000e-07	-5.230457e-06	-2.210154e-08	-3.742354e+01	-1.445109e+03
1.200000e-07	-5.207639e-06	-2.204098e-08	-3.726028e+01	-1.442785e+03
1.300000e-07	-5.183300e-06	-2.192670e-08	-3.708613e+01	-1.440345e+03
1.400000e-07	-5.157388e-06	-2.189215e-08	-3.690074e+01	-1.437806e+03
1.500000e-07	-5.129796e-06	-2.202176e-08	-3.670331e+01	-1.435171e+03
1.600000e-07	-5.100694e-06	-2.189946e-08	-3.649509e+01	-1.432433e+03
1.700000e-07	-5.070163e-06	-2.182972e-08	-3.627665e+01	-1.429574e+03
1.800000e-07	-5.037762e-06	-2.189303e-08	-3.604481e+01	-1.426568e+03
1.900000e-07	-5.003256e-06	-2.166601e-08	-3.579793e+01	-1.423383e+03
2.000000e-07	-4.967188e-06	-2.161516e-08	-3.553987e+01	-1.419988e+03
2.100000e-07	-4.929552e-06	-2.169264e-08	-3.527059e+01	-1.416355e+03
2.200000e-07	-4.890081e-06	-2.154621e-08	-3.498817e+01	-1.412463e+03
2.300000e-07	-4.848795e-06	-2.148815e-08	-3.469277e+01	-1.408300e+03
2.400000e-07	-4.805544e-06	-2.144566e-08	-3.438331e+01	-1.403861e+03
2.500000e-07	-4.760444e-06	-2.133499e-08	-3.406063e+01	-1.399148e+03
2.600000e-07	-4.713597e-06	-2.128024e-08	-3.372544e+01	-1.394168e+03
2.700000e-07	-4.664746e-06	-2.115690e-08	-3.337591e+01	-1.388927e+03
2.800000e-07	-4.613723e-06	-2.108254e-08	-3.301085e+01	-1.383428e+03
2.900000e-07	-4.560744e-06	-2.102902e-08	-3.263179e+01	-1.377674e+03
3.000000e-07	-4.506124e-06	-2.092576e-08	-3.224098e+01	-1.371661e+03
3.100000e-07	-4.449940e-06	-2.082183e-08	-3.183899e+01	-1.365384e+03
3.200000e-07	-4.391968e-06	-2.070866e-08	-3.142421e+01	-1.358837e+03
3.300000e-07	-4.332273e-06	-2.061810e-08	-3.099709e+01	-1.352015e+03
3.400000e-07	-4.271101e-06	-2.050176e-08	-3.055942e+01	-1.344917e+03
3.500000e-07	-4.208461e-06	-2.038576e-08	-3.011123e+01	-1.337542e+03
3.600000e-07	-4.144439e-06	-2.028909e-08	-2.965316e+01	-1.329892e+03
3.700000e-07	-4.078951e-06	-2.017363e-08	-2.918460e+01	-1.321969e+03
3.800000e-07	-4.011821e-06	-2.004393e-08	-2.870429e+01	-1.313775e+03
3.900000e-07	-3.943188e-06	-1.988344e-08	-2.821322e+01	-1.305305e+03
4.000000e-07	-3.873252e-06	-1.975251e-08	-2.771283e+01	-1.296549e+03
4.100000e-07	-3.802062e-06	-1.964457e-08	-2.720348e+01	-1.287489e+03
4.200000e-07	-3.729554e-06	-1.949638e-08	-2.668469e+01	-1.278104e+03
4.300000e-07	-3.655489e-06	-1.934280e-08	-2.615476e+01	-1.268367e+03
4.400000e-07	-3.579836e-06	-1.918181e-08	-2.561347e+01	-1.258254e+03
4.500000e-07	-3.502847e-06	-1.901945e-08	-2.506261e+01	-1.247740e+03
4.600000e-07	-3.424560e-06	-1.884791e-08	-2.450248e+01	-1.236807e+03
4.700000e-07	-3.344843e-06	-1.867433e-08	-2.393211e+01	-1.225440e+03
4.800000e-07	-3.263823e-06	-1.850458e-08	-2.335241e+01	-1.213632e+03
4.900000e-07	-3.181697e-06	-1.831546e-08	-2.276481e+01	-1.201378e+03
5.000000e-07	-3.098544e-06	-1.812038e-08	-2.216985e+01	-1.188672e+03
5.100000e-07	-3.014488e-06	-1.791384e-08	-2.156844e+01	-1.175505e+03
5.200000e-07	-2.929477e-06	-1.770319e-08	-2.096019e+01	-1.161863e+03
5.300000e-07	-2.843492e-06	-1.748871e-08	-2.034498e+01	-1.147725e+03
5.400000e-07	-2.756617e-06	-1.726567e-08	-1.972339e+01	-1.133061e+03
5.500000e-07	-2.668877e-06	-1.703243e-08	-1.909562e+01	-1.117833e+03
5.600000e-07	-2.580138e-06	-1.678603e-08	-1.846070e+01	-1.102002e+03
5.700000e-07	-2.490167e-06	-1.653390e-08	-1.781696e+01	-1.085524e+03
5.800000e-07	-2.399087e-06	-1.626725e-08	-1.716529e+01	-1.068356e+03
5.900000e-07	-2.307201e-06	-1.598881e-08	-1.650785e+01	-1.050457e+03
6.000000e-07	-2.214556e-06	-1.570521e-08	-1.584499e+01	-1.031787e+03
6.100000e-07	-2.121080e-06	-1.541459e-08	-1.517617e+01	-1.012308e+03
6.200000e-07	-2.026806e-06	-1.510840e-08	-1.450164e+01	-9.919777e+02
6.300000e-07	-1.931839e-06	-1.478094e-08	-1.382217e+01	-9.707537e+02
6.400000e-07	-1.836266e-06	-1.443643e-08	-1.313835e+01	-9.485859e+02
6.500000e-07	-1.740066e-06	-1.407834e-08	-1.245005e+01	-9.254168e+02
6.600000e-07	-1.643105e-06	-1.370687e-08	-1.175630e+01	-9.011807e+02
6.700000e-07	-1.545333e-06	-1.332008e-08	-1.105675e+01	-8.758035e+02
6.800000e-07	-1.446887e-06	-1.291464e-08	-1.035237e+01	-8.492042e+02
6.900000e-07	-1.347970e-06	-1.248687e-08	-9.644627e+00	-8.212972e+02
7.000000e-07	-1.248648e-06	-1.203727e-08	-8.933982e+00	-7.919950e+02
7.100000e-07	-1.148912e-06	-1.156415e-08	-8.220382e+00	-7.612127e+02
7.200000e-07	-1.048824e-06	-1.106955e-08	-7.504258e+00	-7.288727e+02
7.300000e-07	-9.484554e-07	-1.055376e-08	-6.786129e+00	-6.949112e+02
7.400000e-07	-8.478131e-07	-1.001274e-08	-6.066040e+00	-6.592855e+02
7.500000e-07	-7.468949e-07	-9.443444e-09	-5.343978e+00	-6.219824e+02
7.600000e-07	-6.457319e-07	-8.846024e-09	-4.620164e+00	-5.830258e+02
7.700000e-07	-5.443383e-07	-8.224751e-09	-3.894701e+00	-5.424836e+02
7.800000e-07	-4.427594e-07	-7.582560e-09	-3.167911e+00	-5.004710e+02
7.900000e-07	-3.410362e-07	-6.923744e-09	-2.440089e+00	-4.571493e+02
8.000000e-07	-2.391786e-07	-6.250173e-09	-1.711306e+00	-4.127185e+02
8.100000e-07	-1.372060e-07	-5.563704e-09	-9.816990e-01	-3.674036e+02
8.200000e-07	-3.516208e-08	-4.864803e-09	-2.515821e-01	-3.214345e+02
8.300000e-07	6.689880e-08	-4.157159e-09	4.786560e-01	-2.750231e+02
8.400000e-07	1.689101e-07	-3.446854e-09	1.208539e+00	-2.283387e+02
8.500000e-07	2.708630e-07	-2.737147e-09	1.938005e+00	-1.814869e+02
8.600000e-07	3.727597e-07	-2.026706e-09	2.667069e+00	-1.344961e+02
8.700000e-07	4.745788e-07	-1.310738e-09	3.395576e+00	-8.731419e+01
8.800000e-07	5.762487e-07	-5.877327e-10	4.123017e+00	-3.981753e+01
8.900000e-07	6.777180e-07	1.459793e-10	4.849023e+00	8.167241e+00
9.000000e-07	7.789447e-07	8.900271e-10	5.573292e+00	5.683154e+01
9.100000e-07	8.798870e-07	1.644415e-09	6.295527e+00	1.063471e+02
9.200000e-07	9.805883e-07	2.412297e-09	7.016037e+00	1.568279e+02
9.300000e-07	1.081030e-06	3.195294e-09	7.734688e+00	2.082974e+02
9.400000e-07	1.181133e-06	3.992957e-09	8.450920e+00	2.606670e+02
9.500000e-07	1.280803e-06	4.801868e-09	9.164055e+00	3.137289e+02
9.600000e-07	1.380011e-06	5.617360e-09	9.873877e+00	3.671644e+02
9.700000e-07	1.478705e-06	6.432292e-09	1.058003e+01	4.205685e+02
9.800000e-07	1.576833e-06	7.238869e-09	1.128213e+01	4.734837e+02
9.900000e-07	1.674283e-06	8.028775e-09	1.197937e+01	5.254414e+02
1.000000e-06	1.770869e-06	8.794861e-09	1.267044e+01	5.760021e+02
1.010000e-06	1.866630e-06	9.533437e-09	1.335560e+01	6.247902e+02
1.020000e-06	1.961708e-06	1.024161e-08	1.403588e+01	6.715182e+02
1.030000e-06	2.056160e-06	1.091650e-08	1.471167e+01	7.159982e+02
1.040000e-06	2.149917e-06	1.155708e-08	1.538250e+01	7.581408e+02
1.050000e-06	2.242926e-06	1.215993e-08	1.604797e+01	7.979432e+02
1.060000e-06	2.335217e-06	1.272568e-08	1.670831e+01	8.354694e+02
1.070000e-06	2.426787e-06	1.325921e-08	1.736349e+01	8.708279e+02
1.080000e-06	2.517557e-06	1.376484e-08	1.801294e+01	9.041501e+02
1.090000e-06	2.607397e-06	1.424442e-08	1.865573e+01	9.355726e+02
1.100000e-06	2.696079e-06	1.469676e-08	1.929024e+01	9.652260e+02
1.110000e-06	2.783625e-06	1.512186e-08	1.991663e+01	9.932286e+02
1.120000e-06	2.870289e-06	1.552255e-08	2.053671e+01	1.019687e+03
1.130000e-06	2.956107e-06	1.590214e-08	2.115073e+01	1.044696e+03
1.140000e-06	3.040998e-06	1.626223e-08	2.175811e+01	1.068346e+03
1.150000e-06	3.124945e-06	1.660304e-08	2.235876e+01	1.090724e+03
1.160000e-06	3.207912e-06	1.692533e-08	2.295238e+01	1.111915e+03
1.170000e-06	3.289751e-06	1.723174e-08	2.353793e+01	1.132000e+03
1.180000e-06	3.370311e-06	1.752184e-08	2.411433e+01	1.151059e+03
1.190000e-06	3.449586e-06	1.779569e-08	2.468153e+01	1.169162e+03
1.200000e-06	3.527662e-06	1.805516e-08	2.524016e+01	1.186370e+03
1.210000e-06	3.604554e-06	1.830241e-08	2.579032e+01	1.202737e+03
1.220000e-06	3.680137e-06	1.853887e-08	2.633111e+01	1.218306e+03
1.230000e-06	3.754191e-06	1.876310e-08	2.686096e+01	1.233115e+03
1.240000e-06	3.826621e-06	1.897461e-08	2.737919e+01	1.247200e+03
1.250000e-06	3.897613e-06	1.917565e-08	2.788714e+01	1.260597e+03
1.260000e-06	3.967271e-06	1.936800e-08	2.838554e+01	1.273344e+03
1.270000e-06	4.035554e-06	1.955208e-08	2.887409e+01	1.285478e+03
1.280000e-06	4.102413e-06	1.972820e-08	2.935247e+01	1.297039e+03
1.290000e-06	4.167696e-06	1.989676e-08	2.981956e+01	1.308062e+03
1.300000e-06	4.231384e-06	2.005834e-08	3.027524e+01	1.318576e+03
1.310000e-06	4.293631e-06	2.021122e-08	3.072062e+01	1.328602e+03
1.320000e-06	4.354535e-06	2.035578e-08	3.115638e+01	1.338152e+03
1.330000e-06	4.414016e-06	2.049344e-08	3.158196e+01	1.347230e+03
1.340000e-06	4.471846e-06	2.062416e-08	3.199573e+01	1.355834e+03
1.350000e-06	4.527863e-06	2.074815e-08	3.239653e+01	1.363966e+03
1.360000e-06	4.582183e-06	2.086457e-08	3.278519e+01	1.371631e+03
1.370000e-06	4.634814e-06	2.097383e-08	3.316176e+01	1.378843e+03
1.380000e-06	4.685488e-06	2.107620e-08	3.352432e+01	1.385625e+03
1.390000e-06	4.734129e-06	2.117232e-08	3.387235e+01	1.392011e+03
1.400000e-06	4.780970e-06	2.126176e-08	3.420749e+01	1.398042e+03
1.410000e-06	4.826252e-06	2.134605e-08	3.453148e+01	1.403757e+03
1.420000e-06	4.870000e-06	2.142807e-08	3.484449e+01	1.409194e+03
1.430000e-06	4.911976e-06	2.150714e-08	3.514483e+01	1.414380e+03
1.440000e-06	4.952118e-06	2.158238e-08	3.543204e+01	1.419330e+03
1.450000e-06	4.990599e-06	2.165436e-08	3.570737e+01	1.424046e+03
1.460000e-06	5.027479e-06	2.172311e-08	3.597124e+01	1.428519e+03
1.470000e-06	5.062702e-06	2.178729e-08	3.622326e+01	1.432733e+03
1.480000e-06	5.096019e-06	2.184674e-08	3.646164e+01	1.436668e+03
1.490000e-06	5.127420e-06	2.190036e-08	3.668631e+01	1.440310e+03
1.500000e-06	5.157139e-06	2.194843e-08	3.689895e+01	1.443650e+03
1.510000e-06	5.185202e-06	2.199184e-08	3.709974e+01	1.446687e+03
1.520000e-06	5.211386e-06	2.203182e-08	3.728708e+01	1.449432e+03
1.530000e-06	5.235498e-06	2.206984e-08	3.745961e+01	1.451901e+03
1.540000e-06	5.257727e-06	2.210515e-08	3.761865e+01	1.454115e+03
1.550000e-06	5.278270e-06	2.213506e-08	3.776563e+01	1.456094e+03
1.560000e-06	5.297005e-06	2.215874e-08	3.789968e+01	1.457856e+03
1.570000e-06	5.313714e-06	2.218010e-08	3.801924e+01	1.459412e+03
1.580000e-06	5.328403e-06	2.220165e-08	3.812433e+01	1.460768e+03
1.590000e-06	5.341131e-06	2.222068e-08	3.821540e+01	1.461926e+03
1.600000e-06	5.351753e-06	2.223546e-08	3.829140e+01	1.462884e+03
1.610000e-06	5.360217e-06	2.224643e-08	3.835196e+01	1.463641e+03
1.620000e-06	5.366736e-06	2.225433e-08	3.839860e+01	1.464197e+03
1.630000e-06	5.371484e-06	2.226074e-08	3.843257e+01	1.464555e+03
1.640000e-06	5.374396e-06	2.226504e-08	3.845341e+01	1.464722e+03
1.650000e-06	5.375317e-06	2.226758e-08	3.846000e+01	1.464704e+03
1.660000e-06	5.374336e-06	2.226375e-08	3.845298e+01	1.464508e+03
1.670000e-06	5.371696e-06	2.225397e-08	3.843409e+01	1.464139e+03
1.680000e-06	5.367464e-06	2.224747e-08	3.840381e+01	1.463597e+03
1.690000e-06	5.361349e-06	2.223871e-08	3.836006e+01	1.462876e+03
1.700000e-06	5.353339e-06	2.222536e-08	3.830275e+01	1.461968e+03
1.710000e-06	5.343750e-06	2.221039e-08	3.823414e+01	1.460865e+03
1.720000e-06	5.332543e-06	2.220034e-08	3.815395e+01	1.459557e+03
1.730000e-06	5.319448e-06	2.218259e-08	3.806026e+01	1.458042e+03
1.740000e-06	5.304307e-06	2.207983e-08	3.795193e+01	1.456323e+03
1.750000e-06	5.286979e-06	2.201472e-08	3.782795e+01	1.454412e+03
1.760000e-06	5.267092e-06	2.203969e-08	3.768566e+01	1.452327e+03
1.770000e-06	5.244660e-06	2.204493e-08	3.752516e+01	1.450091e+03
1.780000e-06	5.220549e-06	2.211530e-08	3.735264e+01	1.447727e+03
1.790000e-06	5.195635e-06	2.200468e-08	3.717439e+01	1.445253e+03
1.800000e-06	5.169681e-06	2.181688e-08	3.698869e+01	1.442682e+03
1.810000e-06	5.141733e-06	2.192888e-08	3.678873e+01	1.440015e+03
1.820000e-06	5.111749e-06	2.184745e-08	3.657419e+01	1.437240e+03
1.830000e-06	5.080116e-06	2.178293e-08	3.634786e+01	1.434336e+03
1.840000e-06	5.046583e-06	2.197385e-08	3.610793e+01	1.431275e+03
1.850000e-06	5.011322e-06	2.178934e-08	3.585564e+01	1.428025e+03
1.860000e-06	4.974455e-06	2.166093e-08	3.559186e+01	1.424556e+03
1.870000e-06	4.935619e-06	2.174711e-08	3.531399e+01	1.420841e+03
1.880000e-06	4.895055e-06	2.159514e-08	3.502376e+01	1.416862e+03
1.890000e-06	4.852825e-06	2.157802e-08	3.472161e+01	1.412609e+03
1.900000e-06	4.808852e-06	2.150840e-08	3.440698e+01	1.408081e+03
1.910000e-06	4.763142e-06	2.139752e-08	3.407993e+01	1.403281e+03
1.920000e-06	4.715429e-06	2.147373e-08	3.373855e+01	1.398216e+03
1.930000e-06	4.666025e-06	2.126751e-08	3.338507e+01	1.392890e+03
1.940000e-06	4.614984e-06	2.114093e-08	3.301987e+01	1.387309e+03
1.950000e-06	4.561847e-06	2.112942e-08	3.263968e+01	1.381471e+03
1.960000e-06	4.506754e-06	2.100786e-08	3.224549e+01	1.375373e+03
1.970000e-06	4.449986e-06	2.094947e-08	3.183932e+01	1.369009e+03
1.980000e-06	4.391621e-06	2.078459e-08	3.142172e+01	1.362374e+03
1.990000e-06	4.331839e-06	2.073050e-08	3.099399e+01	1.355462e+03
2.000000e-06	4.270595e-06	2.066035e-08	3.055579e+01	1.348274e+03
2.010000e-06	4.207628e-06	2.045384e-08	3.010527e+01	1.340809e+03
2.020000e-06	4.142990e-06	2.036752e-08	2.964279e+01	1.333071e+03
2.030000e-06	4.076910e-06	2.024806e-08	2.916999e+01	1.325061e+03
2.040000e-06	4.009493e-06	2.016280e-08	2.868763e+01	1.316778e+03
2.050000e-06	3.940677e-06	2.000898e-08	2.819525e+01	1.308216e+03
2.060000e-06	3.870290e-06	1.982872e-08	2.769164e+01	1.299364e+03
2.070000e-06	3.798450e-06	1.974169e-08	2.717763e+01	1.290201e+03
2.080000e-06	3.725346e-06	1.957384e-08	2.665458e+01	1.280705e+03
2.090000e-06	3.650891e-06	1.943278e-08	2.612186e+01	1.270850e+03
2.100000e-06	3.575059e-06	1.927750e-08	2.557929e+01	1.260609e+03
2.110000e-06	3.497741e-06	1.912898e-08	2.502608e+01	1.249962e+03
2.120000e-06	3.418930e-06	1.896872e-08	2.446219e+01	1.238889e+03
2.130000e-06	3.338916e-06	1.875539e-08	2.388970e+01	1.227381e+03
2.140000e-06	3.257797e-06	1.858122e-08	2.330930e+01	1.215429e+03
2.150000e-06	3.175562e-06	1.839114e-08	2.272091e+01	1.203030e+03
2.160000e-06	3.092261e-06	1.820981e-08	2.212490e+01	1.190176e+03
2.170000e-06	3.007976e-06	1.800430e-08	2.152184e+01	1.176858e+03
2.180000e-06	2.922474e-06	1.778980e-08	2.091008e+01	1.163059e+03
2.190000e-06	2.835640e-06	1.758242e-08	2.028880e+01	1.148754e+03
2.200000e-06	2.747780e-06	1.735514e-08	1.966016e+01	1.133912e+03
2.210000e-06	2.659026e-06	1.712076e-08	1.902514e+01	1.118494e+03
2.220000e-06	2.569365e-06	1.686837e-08	1.838362e+01	1.102459e+03
2.230000e-06	2.478802e-06	1.662271e-08	1.773565e+01	1.085763e+03
2.240000e-06	2.387463e-06	1.636118e-08	1.708212e+01	1.068364e+03
2.250000e-06	2.295422e-06	1.608280e-08	1.642358e+01	1.050221e+03
2.260000e-06	2.202589e-06	1.578915e-08	1.575936e+01	1.031294e+03
2.270000e-06	2.108772e-06	1.548649e-08	1.508811e+01	1.011545e+03
2.280000e-06	2.013912e-06	1.517849e-08	1.440939e+01	9.909319e+02
2.290000e-06	1.918249e-06	1.485350e-08	1.372493e+01	9.694095e+02
2.300000e-06	1.822011e-06	1.451488e-08	1.303635e+01	9.469258e+02
2.310000e-06	1.725254e-06	1.415822e-08	1.234407e+01	9.234206e+02
2.320000e-06	1.627963e-06	1.378375e-08	1.164796e+01	8.988254e+02
2.330000e-06	1.530105e-06	1.338681e-08	1.094779e+01	8.730637e+02
2.340000e-06	1.431664e-06	1.297387e-08	1.024345e+01	8.460528e+02
2.350000e-06	1.332753e-06	1.254810e-08	9.535751e+00	8.177061e+02
2.360000e-06	1.233516e-06	1.210270e-08	8.825715e+00	7.879364e+02
2.370000e-06	1.134038e-06	1.162811e-08	8.113956e+00	7.566606e+02
2.380000e-06	1.034329e-06	1.112466e-08	7.400549e+00	7.238047e+02
2.390000e-06	9.343426e-07	1.059714e-08	6.685153e+00	6.893110e+02
2.400000e-06	8.340469e-07	1.004597e-08	5.967544e+00	6.531452e+02
2.410000e-06	7.334165e-07	9.470409e-09	5.247541e+00	6.153052e+02
2.420000e-06	6.324639e-07	8.867862e-09	4.525233e+00	5.758286e+02
2.430000e-06	5.312288e-07	8.243231e-09	3.800903e+00	5.347981e+02
2.440000e-06	4.297378e-07	7.597505e-09	3.074742e+00	4.923443e+02
2.450000e-06	3.280125e-07	6.929925e-09	2.346905e+00	4.486420e+02
2.460000e-06	2.260901e-07	6.242436e-09	1.617658e+00	4.039011e+02
2.470000e-06	1.240050e-07	5.544593e-09	8.872466e-01	3.583504e+02
2.480000e-06	2.183399e-08	4.841223e-09	1.562206e-01	3.122169e+02
2.490000e-06	-8.032582e-08	4.129356e-09	-5.747253e-01	2.657012e+02
2.500000e-06	-1.823652e-07	3.413025e-09	-1.304810e+00	2.189542e+02
2.510000e-06	-2.842756e-07	2.695779e-09	-2.033971e+00	1.720578e+02
2.520000e-06	-3.861031e-07	1.975151e-09	-2.762539e+00	1.250142e+02
2.530000e-06	-4.877826e-07	1.249005e-09	-3.490049e+00	7.774681e+01
2.540000e-06	-5.892656e-07	5.204886e-10	-4.216152e+00	3.011299e+01
2.550000e-06	-6.904994e-07	-2.121646e-10	-4.940472e+00	-1.807024e+01
2.560000e-06	-7.913937e-07	-9.560795e-10	-5.662364e+00	-6.699223e+01
2.570000e-06	-8.919135e-07	-1.717208e-09	-6.381576e+00	-1.168101e+02
2.580000e-06	-9.920729e-07	-2.494444e-09	-7.098209e+00	-1.676120e+02
2.590000e-06	-1.091860e-06	-3.284256e-09	-7.812181e+00	-2.193870e+02
2.600000e-06	-1.191304e-06	-4.085797e-09	-8.523695e+00	-2.720082e+02
2.610000e-06	-1.290406e-06	-4.895765e-09	-9.232761e+00	-3.252304e+02
2.620000e-06	-1.389094e-06	-5.711058e-09	-9.938863e+00	-3.787041e+02
2.630000e-06	-1.487268e-06	-6.526757e-09	-1.064129e+01	-4.320030e+02
2.640000e-06	-1.584851e-06	-7.335495e-09	-1.133950e+01	-4.846617e+02
2.650000e-06	-1.681910e-06	-8.128353e-09	-1.203394e+01	-5.362166e+02
2.660000e-06	-1.778493e-06	-8.895028e-09	-1.272499e+01	-5.862455e+02
2.670000e-06	-1.874530e-06	-9.630963e-09	-1.341213e+01	-6.343988e+02
2.680000e-06	-1.969938e-06	-1.033418e-08	-1.409476e+01	-6.804206e+02
2.690000e-06	-2.064658e-06	-1.100212e-08	-1.477248e+01	-7.241553e+02
2.700000e-06	-2.158544e-06	-1.163712e-08	-1.544422e+01	-7.655431e+02
2.710000e-06	-2.251414e-06	-1.224071e-08	-1.610870e+01	-8.046051e+02
2.720000e-06	-2.343304e-06	-1.281149e-08	-1.676617e+01	-8.414219e+02
2.730000e-06	-2.434409e-06	-1.334763e-08	-1.741802e+01	-8.761118e+02
2.740000e-06	-2.524685e-06	-1.384862e-08	-1.806394e+01	-9.088093e+02
2.750000e-06	-2.614014e-06	-1.431899e-08	-1.870308e+01	-9.396502e+02
2.760000e-06	-2.702494e-06	-1.476319e-08	-1.933615e+01	-9.687615e+02
2.770000e-06	-2.790191e-06	-1.518229e-08	-1.996361e+01	-9.962573e+02
2.780000e-06	-2.876994e-06	-1.557896e-08	-2.058468e+01	-1.022240e+03
2.790000e-06	-2.962677e-06	-1.595551e-08	-2.119773e+01	-1.046804e+03
2.800000e-06	-3.047146e-06	-1.631207e-08	-2.180211e+01	-1.070036e+03
2.810000e-06	-3.130552e-06	-1.664888e-08	-2.239887e+01	-1.092024e+03
2.820000e-06	-3.212931e-06	-1.696803e-08	-2.298828e+01	-1.112852e+03
2.830000e-06	-3.294252e-06	-1.727207e-08	-2.357013e+01	-1.132600e+03
2.840000e-06	-3.374487e-06	-1.756103e-08	-2.414421e+01	-1.151345e+03
2.850000e-06	-3.453466e-06	-1.783423e-08	-2.470929e+01	-1.169155e+03
2.860000e-06	-3.531020e-06	-1.809202e-08	-2.526419e+01	-1.186088e+03
2.870000e-06	-3.607083e-06	-1.833710e-08	-2.580841e+01	-1.202194e+03
2.880000e-06	-3.681754e-06	-1.857244e-08	-2.634268e+01	-1.217516e+03
2.890000e-06	-3.755076e-06	-1.879993e-08	-2.686730e+01	-1.232089e+03
2.900000e-06	-3.827071e-06	-1.901722e-08	-2.738241e+01	-1.245950e+03
2.910000e-06	-3.897717e-06	-1.922145e-08	-2.788788e+01	-1.259135e+03
2.920000e-06	-3.966821e-06	-1.941410e-08	-2.838232e+01	-1.271681e+03
2.930000e-06	-4.034417e-06	-1.959610e-08	-2.886596e+01	-1.283627e+03
2.940000e-06	-4.100620e-06	-1.976883e-08	-2.933963e+01	-1.295013e+03
