# Temperatura_=_71.59
# Concentracion g/m^3_=_26700.0
# C_Vs_to_Am_M_A/Vsm_=_65563218390.804596
# pendiente_HvsI_1/m_=_3716.3
# ordenada_HvsI_A/m_=_1297.0
# frecuencia_Hz_=_302556.3889546539

Tiempo_(s)	Campo_(V.s)	Magnetizacion_(V.s)	Campo_(kA/m)	Magnetizacion_(A/m)
0.000000e+00	-8.026659e-06	-2.788396e-08	-5.684261e+01	-1.822344e+03
1.000000e-08	-8.022976e-06	-2.787977e-08	-5.681652e+01	-1.821871e+03
2.000000e-08	-8.016689e-06	-2.786932e-08	-5.677200e+01	-1.821306e+03
3.000000e-08	-8.007747e-06	-2.785996e-08	-5.670868e+01	-1.820685e+03
4.000000e-08	-7.995945e-06	-2.784880e-08	-5.662510e+01	-1.820016e+03
5.000000e-08	-7.981126e-06	-2.783555e-08	-5.652016e+01	-1.819279e+03
6.000000e-08	-7.963488e-06	-2.781903e-08	-5.639525e+01	-1.818430e+03
7.000000e-08	-7.943528e-06	-2.779536e-08	-5.625390e+01	-1.817415e+03
8.000000e-08	-7.921228e-06	-2.780357e-08	-5.609597e+01	-1.816189e+03
9.000000e-08	-7.895898e-06	-2.783592e-08	-5.591659e+01	-1.814729e+03
1.000000e-07	-7.867293e-06	-2.776418e-08	-5.571402e+01	-1.813052e+03
1.100000e-07	-7.835733e-06	-2.769746e-08	-5.549052e+01	-1.811211e+03
1.200000e-07	-7.801344e-06	-2.768454e-08	-5.524699e+01	-1.809291e+03
1.300000e-07	-7.764333e-06	-2.766168e-08	-5.498489e+01	-1.807389e+03
1.400000e-07	-7.725139e-06	-2.759956e-08	-5.470732e+01	-1.805589e+03
1.500000e-07	-7.683640e-06	-2.755517e-08	-5.441344e+01	-1.803945e+03
1.600000e-07	-7.639535e-06	-2.759942e-08	-5.410110e+01	-1.802463e+03
1.700000e-07	-7.592760e-06	-2.745912e-08	-5.376986e+01	-1.801093e+03
1.800000e-07	-7.543131e-06	-2.741483e-08	-5.341840e+01	-1.799741e+03
1.900000e-07	-7.490490e-06	-2.743471e-08	-5.304561e+01	-1.798279e+03
2.000000e-07	-7.434955e-06	-2.737193e-08	-5.265232e+01	-1.796577e+03
2.100000e-07	-7.376698e-06	-2.739497e-08	-5.223976e+01	-1.794522e+03
2.200000e-07	-7.315809e-06	-2.732390e-08	-5.180856e+01	-1.792037e+03
2.300000e-07	-7.252368e-06	-2.727688e-08	-5.135929e+01	-1.789097e+03
2.400000e-07	-7.186184e-06	-2.720710e-08	-5.089059e+01	-1.785725e+03
2.500000e-07	-7.117219e-06	-2.712136e-08	-5.040220e+01	-1.781984e+03
2.600000e-07	-7.045530e-06	-2.707008e-08	-4.989452e+01	-1.777958e+03
2.700000e-07	-6.970986e-06	-2.699139e-08	-4.936662e+01	-1.773735e+03
2.800000e-07	-6.893672e-06	-2.694815e-08	-4.881910e+01	-1.769388e+03
2.900000e-07	-6.813549e-06	-2.687113e-08	-4.825169e+01	-1.764963e+03
3.000000e-07	-6.730776e-06	-2.679360e-08	-4.766552e+01	-1.760475e+03
3.100000e-07	-6.645800e-06	-2.672097e-08	-4.706374e+01	-1.755914e+03
3.200000e-07	-6.558573e-06	-2.665172e-08	-4.644602e+01	-1.751248e+03
3.300000e-07	-6.468852e-06	-2.659893e-08	-4.581064e+01	-1.746438e+03
3.400000e-07	-6.376761e-06	-2.649882e-08	-4.515848e+01	-1.741446e+03
3.500000e-07	-6.282468e-06	-2.643561e-08	-4.449072e+01	-1.736242e+03
3.600000e-07	-6.185902e-06	-2.635970e-08	-4.380687e+01	-1.730808e+03
3.700000e-07	-6.087060e-06	-2.626673e-08	-4.310690e+01	-1.725139e+03
3.800000e-07	-5.986041e-06	-2.617590e-08	-4.239151e+01	-1.719236e+03
3.900000e-07	-5.882887e-06	-2.608895e-08	-4.166100e+01	-1.713104e+03
4.000000e-07	-5.777617e-06	-2.599873e-08	-4.091550e+01	-1.706752e+03
4.100000e-07	-5.670316e-06	-2.588200e-08	-4.015563e+01	-1.700184e+03
4.200000e-07	-5.561068e-06	-2.578126e-08	-3.938196e+01	-1.693405e+03
4.300000e-07	-5.449834e-06	-2.566631e-08	-3.859423e+01	-1.686418e+03
4.400000e-07	-5.336430e-06	-2.555296e-08	-3.779114e+01	-1.679225e+03
4.500000e-07	-5.220906e-06	-2.543787e-08	-3.697303e+01	-1.671826e+03
4.600000e-07	-5.103524e-06	-2.533376e-08	-3.614176e+01	-1.664215e+03
4.700000e-07	-4.984307e-06	-2.522451e-08	-3.529750e+01	-1.656383e+03
4.800000e-07	-4.863202e-06	-2.510321e-08	-3.443987e+01	-1.648314e+03
4.900000e-07	-4.740276e-06	-2.497945e-08	-3.356934e+01	-1.639986e+03
5.000000e-07	-4.615651e-06	-2.484425e-08	-3.268678e+01	-1.631373e+03
5.100000e-07	-4.489426e-06	-2.470346e-08	-3.179289e+01	-1.622449e+03
5.200000e-07	-4.361565e-06	-2.455463e-08	-3.088741e+01	-1.613195e+03
5.300000e-07	-4.232053e-06	-2.440857e-08	-2.997025e+01	-1.603602e+03
5.400000e-07	-4.100954e-06	-2.425506e-08	-2.904183e+01	-1.593669e+03
5.500000e-07	-3.968332e-06	-2.409642e-08	-2.810264e+01	-1.583409e+03
5.600000e-07	-3.834271e-06	-2.393021e-08	-2.715326e+01	-1.572835e+03
5.700000e-07	-3.698712e-06	-2.376393e-08	-2.619327e+01	-1.561960e+03
5.800000e-07	-3.561699e-06	-2.360020e-08	-2.522298e+01	-1.550786e+03
5.900000e-07	-3.423288e-06	-2.343107e-08	-2.424279e+01	-1.539298e+03
6.000000e-07	-3.283460e-06	-2.325559e-08	-2.325257e+01	-1.527466e+03
6.100000e-07	-3.142208e-06	-2.306632e-08	-2.225226e+01	-1.515245e+03
6.200000e-07	-2.999613e-06	-2.286911e-08	-2.124244e+01	-1.502585e+03
6.300000e-07	-2.855803e-06	-2.266078e-08	-2.022402e+01	-1.489440e+03
6.400000e-07	-2.710923e-06	-2.244677e-08	-1.919802e+01	-1.475776e+03
6.500000e-07	-2.565117e-06	-2.222929e-08	-1.816545e+01	-1.461580e+03
6.600000e-07	-2.418413e-06	-2.200497e-08	-1.712654e+01	-1.446854e+03
6.700000e-07	-2.270944e-06	-2.177297e-08	-1.608221e+01	-1.431616e+03
6.800000e-07	-2.122778e-06	-2.153064e-08	-1.503294e+01	-1.415881e+03
6.900000e-07	-1.973949e-06	-2.128234e-08	-1.397897e+01	-1.399657e+03
7.000000e-07	-1.824559e-06	-2.102701e-08	-1.292103e+01	-1.382928e+03
7.100000e-07	-1.674626e-06	-2.076492e-08	-1.185925e+01	-1.365655e+03
7.200000e-07	-1.524120e-06	-2.049499e-08	-1.079340e+01	-1.347774e+03
7.300000e-07	-1.372992e-06	-2.021545e-08	-9.723152e+00	-1.329208e+03
7.400000e-07	-1.221289e-06	-1.991835e-08	-8.648838e+00	-1.309875e+03
7.500000e-07	-1.069169e-06	-1.960701e-08	-7.571564e+00	-1.289708e+03
7.600000e-07	-9.167069e-07	-1.928454e-08	-6.491868e+00	-1.268653e+03
7.700000e-07	-7.639523e-07	-1.894845e-08	-5.410102e+00	-1.246679e+03
7.800000e-07	-6.109502e-07	-1.860145e-08	-4.326582e+00	-1.223761e+03
7.900000e-07	-4.577736e-07	-1.823998e-08	-3.241828e+00	-1.199874e+03
8.000000e-07	-3.044685e-07	-1.786150e-08	-2.156163e+00	-1.174966e+03
8.100000e-07	-1.509836e-07	-1.746210e-08	-1.069224e+00	-1.148951e+03
8.200000e-07	2.617444e-09	-1.704337e-08	1.853602e-02	-1.121698e+03
8.300000e-07	1.562620e-07	-1.660457e-08	1.106605e+00	-1.093030e+03
8.400000e-07	3.098967e-07	-1.614247e-08	2.194604e+00	-1.062740e+03
8.500000e-07	4.634311e-07	-1.565510e-08	3.281893e+00	-1.030605e+03
8.600000e-07	6.167872e-07	-1.513682e-08	4.367919e+00	-9.963986e+02
8.700000e-07	7.699122e-07	-1.458413e-08	5.452308e+00	-9.598981e+02
8.800000e-07	9.228346e-07	-1.399053e-08	6.535263e+00	-9.208750e+02
8.900000e-07	1.075498e-06	-1.335365e-08	7.616380e+00	-8.790707e+02
9.000000e-07	1.227837e-06	-1.266766e-08	8.695207e+00	-8.341607e+02
9.100000e-07	1.379775e-06	-1.192646e-08	9.771190e+00	-7.857164e+02
9.200000e-07	1.531181e-06	-1.112118e-08	1.084340e+01	-7.331784e+02
9.300000e-07	1.681981e-06	-1.024207e-08	1.191133e+01	-6.758535e+02
9.400000e-07	1.832135e-06	-9.280012e-09	1.297468e+01	-6.129468e+02
9.500000e-07	1.981610e-06	-8.221050e-09	1.403322e+01	-5.436327e+02
9.600000e-07	2.130378e-06	-7.054102e-09	1.508675e+01	-4.671613e+02
9.700000e-07	2.278429e-06	-5.768602e-09	1.613521e+01	-3.829856e+02
9.800000e-07	2.425650e-06	-4.361807e-09	1.717779e+01	-2.908907e+02
9.900000e-07	2.571938e-06	-2.838345e-09	1.821376e+01	-1.911013e+02
1.000000e-06	2.717273e-06	-1.208820e-09	1.924298e+01	-8.434420e+01
1.010000e-06	2.861648e-06	5.097329e-10	2.026541e+01	2.814867e+01
1.020000e-06	3.004893e-06	2.291764e-09	2.127983e+01	1.447037e+02
1.030000e-06	3.146947e-06	4.105179e-09	2.228582e+01	2.633287e+02
1.040000e-06	3.287786e-06	5.914087e-09	2.328320e+01	3.818799e+02
1.050000e-06	3.427225e-06	7.684064e-09	2.427067e+01	4.982467e+02
1.060000e-06	3.565289e-06	9.385170e-09	2.524840e+01	6.105269e+02
1.070000e-06	3.702019e-06	1.099897e-08	2.621669e+01	7.171674e+02
1.080000e-06	3.837350e-06	1.251162e-08	2.717506e+01	8.170505e+02
1.090000e-06	3.971292e-06	1.391250e-08	2.812360e+01	9.095192e+02
1.100000e-06	4.103874e-06	1.519663e-08	2.906252e+01	9.943442e+02
1.110000e-06	4.234982e-06	1.636634e-08	2.999098e+01	1.071647e+03
1.120000e-06	4.364587e-06	1.742741e-08	3.090881e+01	1.141795e+03
1.130000e-06	4.492679e-06	1.838954e-08	3.181593e+01	1.205297e+03
1.140000e-06	4.619197e-06	1.926099e-08	3.271189e+01	1.262713e+03
1.150000e-06	4.744176e-06	2.004708e-08	3.359696e+01	1.314585e+03
1.160000e-06	4.867527e-06	2.075237e-08	3.447050e+01	1.361405e+03
1.170000e-06	4.989107e-06	2.138473e-08	3.533149e+01	1.403611e+03
1.180000e-06	5.108892e-06	2.195365e-08	3.617978e+01	1.441599e+03
1.190000e-06	5.226886e-06	2.246718e-08	3.701538e+01	1.475744e+03
1.200000e-06	5.342906e-06	2.293079e-08	3.783700e+01	1.506417e+03
1.210000e-06	5.456775e-06	2.334844e-08	3.864339e+01	1.533993e+03
1.220000e-06	5.568512e-06	2.372658e-08	3.943468e+01	1.558850e+03
1.230000e-06	5.678247e-06	2.406924e-08	4.021179e+01	1.581347e+03
1.240000e-06	5.786029e-06	2.437897e-08	4.097508e+01	1.601814e+03
1.250000e-06	5.891707e-06	2.465955e-08	4.172346e+01	1.620529e+03
1.260000e-06	5.995196e-06	2.491674e-08	4.245634e+01	1.637711e+03
1.270000e-06	6.096551e-06	2.515338e-08	4.317411e+01	1.653521e+03
1.280000e-06	6.195687e-06	2.537217e-08	4.387617e+01	1.668074e+03
1.290000e-06	6.292458e-06	2.557071e-08	4.456147e+01	1.681457e+03
1.300000e-06	6.386907e-06	2.575363e-08	4.523033e+01	1.693745e+03
1.310000e-06	6.479074e-06	2.592440e-08	4.588303e+01	1.705016e+03
1.320000e-06	6.568925e-06	2.608411e-08	4.651933e+01	1.715361e+03
1.330000e-06	6.656408e-06	2.623209e-08	4.713886e+01	1.724876e+03
1.340000e-06	6.741561e-06	2.636814e-08	4.774189e+01	1.733662e+03
1.350000e-06	6.824352e-06	2.649343e-08	4.832820e+01	1.741809e+03
1.360000e-06	6.904661e-06	2.660793e-08	4.889693e+01	1.749387e+03
1.370000e-06	6.982457e-06	2.671369e-08	4.944785e+01	1.756444e+03
1.380000e-06	7.057622e-06	2.681074e-08	4.998015e+01	1.763009e+03
1.390000e-06	7.130104e-06	2.690045e-08	5.049345e+01	1.769096e+03
1.400000e-06	7.200033e-06	2.698356e-08	5.098867e+01	1.774718e+03
1.410000e-06	7.267438e-06	2.706048e-08	5.146601e+01	1.779897e+03
1.420000e-06	7.332202e-06	2.713186e-08	5.192466e+01	1.784668e+03
1.430000e-06	7.394387e-06	2.719938e-08	5.236503e+01	1.789081e+03
1.440000e-06	7.454067e-06	2.726434e-08	5.278767e+01	1.793192e+03
1.450000e-06	7.511117e-06	2.732521e-08	5.319168e+01	1.797054e+03
1.460000e-06	7.565438e-06	2.738216e-08	5.357637e+01	1.800705e+03
1.470000e-06	7.616775e-06	2.743556e-08	5.393992e+01	1.804161e+03
1.480000e-06	7.665024e-06	2.748423e-08	5.428161e+01	1.807413e+03
1.490000e-06	7.710489e-06	2.752781e-08	5.460358e+01	1.810433e+03
1.500000e-06	7.753283e-06	2.756506e-08	5.490663e+01	1.813186e+03
1.510000e-06	7.793254e-06	2.759833e-08	5.518970e+01	1.815640e+03
1.520000e-06	7.830454e-06	2.763106e-08	5.545314e+01	1.817784e+03
1.530000e-06	7.864899e-06	2.766151e-08	5.569707e+01	1.819627e+03
1.540000e-06	7.896506e-06	2.768731e-08	5.592090e+01	1.821202e+03
1.550000e-06	7.925406e-06	2.770946e-08	5.612556e+01	1.822561e+03
1.560000e-06	7.951500e-06	2.772859e-08	5.631035e+01	1.823755e+03
1.570000e-06	7.974648e-06	2.774471e-08	5.647428e+01	1.824827e+03
1.580000e-06	7.995017e-06	2.775865e-08	5.661853e+01	1.825798e+03
1.590000e-06	8.012553e-06	2.777107e-08	5.674271e+01	1.826663e+03
1.600000e-06	8.027074e-06	2.778234e-08	5.684554e+01	1.827396e+03
1.610000e-06	8.038467e-06	2.778999e-08	5.692623e+01	1.827958e+03
1.620000e-06	8.046723e-06	2.779310e-08	5.698469e+01	1.828313e+03
1.630000e-06	8.052125e-06	2.779446e-08	5.702295e+01	1.828442e+03
1.640000e-06	8.054744e-06	2.779620e-08	5.704150e+01	1.828346e+03
1.650000e-06	8.054480e-06	2.779558e-08	5.703963e+01	1.828053e+03
1.660000e-06	8.051488e-06	2.778388e-08	5.701844e+01	1.827608e+03
1.670000e-06	8.045810e-06	2.777896e-08	5.697823e+01	1.827061e+03
1.680000e-06	8.037420e-06	2.777322e-08	5.691882e+01	1.826451e+03
1.690000e-06	8.026344e-06	2.776249e-08	5.684037e+01	1.825794e+03
1.700000e-06	8.012383e-06	2.775157e-08	5.674151e+01	1.825076e+03
1.710000e-06	7.995731e-06	2.774453e-08	5.662358e+01	1.824259e+03
1.720000e-06	7.976782e-06	2.774015e-08	5.648939e+01	1.823289e+03
1.730000e-06	7.955418e-06	2.765755e-08	5.633809e+01	1.822118e+03
1.740000e-06	7.931002e-06	2.761035e-08	5.616519e+01	1.820716e+03
1.750000e-06	7.902937e-06	2.765224e-08	5.596644e+01	1.819088e+03
1.760000e-06	7.871307e-06	2.763172e-08	5.574245e+01	1.817280e+03
1.770000e-06	7.836890e-06	2.758164e-08	5.549872e+01	1.815370e+03
1.780000e-06	7.800173e-06	2.759551e-08	5.523870e+01	1.813453e+03
1.790000e-06	7.761264e-06	2.759880e-08	5.496315e+01	1.811619e+03
1.800000e-06	7.720388e-06	2.746873e-08	5.467368e+01	1.809933e+03
1.810000e-06	7.677175e-06	2.754911e-08	5.436766e+01	1.808412e+03
1.820000e-06	7.631192e-06	2.754512e-08	5.404202e+01	1.807020e+03
1.830000e-06	7.582554e-06	2.749444e-08	5.369758e+01	1.805673e+03
1.840000e-06	7.530913e-06	2.758197e-08	5.333187e+01	1.804250e+03
1.850000e-06	7.476174e-06	2.744919e-08	5.294422e+01	1.802619e+03
1.860000e-06	7.418692e-06	2.749726e-08	5.253715e+01	1.800660e+03
1.870000e-06	7.358559e-06	2.743825e-08	5.211131e+01	1.798285e+03
1.880000e-06	7.295802e-06	2.737352e-08	5.166688e+01	1.795458e+03
1.890000e-06	7.230202e-06	2.741568e-08	5.120232e+01	1.792188e+03
1.900000e-06	7.161759e-06	2.729834e-08	5.071762e+01	1.788531e+03
1.910000e-06	7.090520e-06	2.729786e-08	5.021313e+01	1.784566e+03
1.920000e-06	7.016539e-06	2.717754e-08	4.968921e+01	1.780384e+03
1.930000e-06	6.939804e-06	2.713218e-08	4.914580e+01	1.776061e+03
1.940000e-06	6.860292e-06	2.708853e-08	4.858271e+01	1.771651e+03
1.950000e-06	6.778278e-06	2.699798e-08	4.800192e+01	1.767179e+03
1.960000e-06	6.693722e-06	2.697269e-08	4.740311e+01	1.762637e+03
1.970000e-06	6.606615e-06	2.683967e-08	4.678624e+01	1.758000e+03
1.980000e-06	6.517195e-06	2.681342e-08	4.615300e+01	1.753228e+03
1.990000e-06	6.425536e-06	2.670687e-08	4.550389e+01	1.748283e+03
2.000000e-06	6.331588e-06	2.663337e-08	4.483858e+01	1.743133e+03
2.010000e-06	6.235337e-06	2.655780e-08	4.415696e+01	1.737757e+03
2.020000e-06	6.136961e-06	2.646563e-08	4.346029e+01	1.732146e+03
2.030000e-06	6.036372e-06	2.637911e-08	4.274794e+01	1.726299e+03
2.040000e-06	5.933517e-06	2.625549e-08	4.201955e+01	1.720223e+03
2.050000e-06	5.828580e-06	2.618492e-08	4.127641e+01	1.713924e+03
2.060000e-06	5.721717e-06	2.607435e-08	4.051964e+01	1.707408e+03
2.070000e-06	5.612905e-06	2.599613e-08	3.974906e+01	1.700681e+03
2.080000e-06	5.502103e-06	2.588696e-08	3.896439e+01	1.693744e+03
2.090000e-06	5.389273e-06	2.579182e-08	3.816536e+01	1.686602e+03
2.100000e-06	5.274318e-06	2.567031e-08	3.735128e+01	1.679253e+03
2.110000e-06	5.157298e-06	2.554774e-08	3.652258e+01	1.671695e+03
2.120000e-06	5.038253e-06	2.542175e-08	3.567953e+01	1.663918e+03
2.130000e-06	4.917335e-06	2.529180e-08	3.482323e+01	1.655909e+03
2.140000e-06	4.794687e-06	2.516839e-08	3.395467e+01	1.647647e+03
2.150000e-06	4.670335e-06	2.503533e-08	3.307404e+01	1.639106e+03
2.160000e-06	4.544221e-06	2.491224e-08	3.218093e+01	1.630261e+03
2.170000e-06	4.416399e-06	2.477176e-08	3.127573e+01	1.621090e+03
2.180000e-06	4.287029e-06	2.463718e-08	3.035957e+01	1.611581e+03
2.190000e-06	4.156149e-06	2.448334e-08	2.943272e+01	1.601731e+03
2.200000e-06	4.023719e-06	2.433552e-08	2.849488e+01	1.591550e+03
2.210000e-06	3.889746e-06	2.417568e-08	2.754612e+01	1.581052e+03
2.220000e-06	3.754319e-06	2.401198e-08	2.658707e+01	1.570251e+03
2.230000e-06	3.617503e-06	2.383477e-08	2.561817e+01	1.559151e+03
2.240000e-06	3.479381e-06	2.365609e-08	2.464002e+01	1.547743e+03
2.250000e-06	3.339901e-06	2.347516e-08	2.365227e+01	1.536000e+03
2.260000e-06	3.199077e-06	2.329131e-08	2.265499e+01	1.523879e+03
2.270000e-06	3.056940e-06	2.310768e-08	2.164842e+01	1.511332e+03
2.280000e-06	2.913573e-06	2.291469e-08	2.063313e+01	1.498311e+03
2.290000e-06	2.769112e-06	2.271178e-08	1.961010e+01	1.484778e+03
2.300000e-06	2.623698e-06	2.249315e-08	1.858031e+01	1.470714e+03
2.310000e-06	2.477483e-06	2.227170e-08	1.754486e+01	1.456118e+03
2.320000e-06	2.330353e-06	2.204539e-08	1.650292e+01	1.441005e+03
2.330000e-06	2.182341e-06	2.181311e-08	1.545474e+01	1.425392e+03
2.340000e-06	2.033660e-06	2.157061e-08	1.440183e+01	1.409289e+03
2.350000e-06	1.884389e-06	2.131800e-08	1.334473e+01	1.392688e+03
2.360000e-06	1.734470e-06	2.105273e-08	1.228305e+01	1.375555e+03
2.370000e-06	1.583998e-06	2.077570e-08	1.121744e+01	1.357832e+03
2.380000e-06	1.433006e-06	2.049096e-08	1.014816e+01	1.339443e+03
2.390000e-06	1.281477e-06	2.019951e-08	9.075068e+00	1.320309e+03
2.400000e-06	1.129513e-06	1.989733e-08	7.998902e+00	1.300355e+03
2.410000e-06	9.771747e-07	1.958184e-08	6.920085e+00	1.279524e+03
2.420000e-06	8.245066e-07	1.925241e-08	5.838930e+00	1.257781e+03
2.430000e-06	6.715070e-07	1.890860e-08	4.755429e+00	1.235100e+03
2.440000e-06	5.182476e-07	1.854764e-08	3.670088e+00	1.211457e+03
2.450000e-06	3.648781e-07	1.817202e-08	2.583967e+00	1.186810e+03
2.460000e-06	2.114274e-07	1.778222e-08	1.497271e+00	1.161082e+03
2.470000e-06	5.783023e-08	1.737246e-08	4.095379e-01	1.134151e+03
2.480000e-06	-9.582277e-08	1.693906e-08	-6.785907e-01	1.105854e+03
2.490000e-06	-2.494290e-07	1.647882e-08	-1.766388e+00	1.075990e+03
2.500000e-06	-4.029467e-07	1.599065e-08	-2.853558e+00	1.044336e+03
2.510000e-06	-5.563707e-07	1.547347e-08	-3.940065e+00	1.010667e+03
2.520000e-06	-7.096701e-07	1.492540e-08	-5.025690e+00	9.747599e+02
2.530000e-06	-8.627489e-07	1.434250e-08	-6.109752e+00	9.363889e+02
2.540000e-06	-1.015533e-06	1.371846e-08	-7.191726e+00	8.953059e+02
2.550000e-06	-1.167973e-06	1.304919e-08	-8.271269e+00	8.512067e+02
2.560000e-06	-1.319955e-06	1.232620e-08	-9.347561e+00	8.036918e+02
2.570000e-06	-1.471384e-06	1.153976e-08	-1.041994e+01	7.522361e+02
2.580000e-06	-1.622277e-06	1.068228e-08	-1.148852e+01	6.961783e+02
2.590000e-06	-1.772599e-06	9.742864e-09	-1.255306e+01	6.347436e+02
2.600000e-06	-1.922254e-06	8.710750e-09	-1.361288e+01	5.671056e+02
2.610000e-06	-2.071229e-06	7.575009e-09	-1.466788e+01	4.924839e+02
2.620000e-06	-2.219454e-06	6.326534e-09	-1.571756e+01	4.102682e+02
2.630000e-06	-2.366758e-06	4.959244e-09	-1.676073e+01	3.201496e+02
2.640000e-06	-2.513123e-06	3.471281e-09	-1.779725e+01	2.222347e+02
2.650000e-06	-2.658609e-06	1.872035e-09	-1.882755e+01	1.171220e+02
2.660000e-06	-2.803189e-06	1.784503e-10	-1.985142e+01	5.920594e+00
2.670000e-06	-2.946655e-06	-1.589548e-09	-2.086741e+01	-1.097969e+02
2.680000e-06	-3.088899e-06	-3.400973e-09	-2.187474e+01	-2.281038e+02
2.690000e-06	-3.229910e-06	-5.219741e-09	-2.287334e+01	-3.468770e+02
2.700000e-06	-3.369571e-06	-7.010855e-09	-2.386238e+01	-4.639802e+02
2.710000e-06	-3.507909e-06	-8.745296e-09	-2.484206e+01	-5.774444e+02
2.720000e-06	-3.645029e-06	-1.040062e-08	-2.581310e+01	-6.856187e+02
2.730000e-06	-3.780822e-06	-1.195712e-08	-2.677475e+01	-7.872718e+02
2.740000e-06	-3.915165e-06	-1.340420e-08	-2.772613e+01	-8.816324e+02
2.750000e-06	-4.048071e-06	-1.473721e-08	-2.866733e+01	-9.683701e+02
2.760000e-06	-4.179528e-06	-1.595517e-08	-2.959827e+01	-1.047528e+03
2.770000e-06	-4.309553e-06	-1.706141e-08	-3.051908e+01	-1.119421e+03
2.780000e-06	-4.438174e-06	-1.806395e-08	-3.142994e+01	-1.184535e+03
2.790000e-06	-4.565254e-06	-1.897120e-08	-3.232988e+01	-1.243421e+03
2.800000e-06	-4.690715e-06	-1.979106e-08	-3.321836e+01	-1.296632e+03
2.810000e-06	-4.814568e-06	-2.053025e-08	-3.409546e+01	-1.344673e+03
2.820000e-06	-4.936755e-06	-2.119743e-08	-3.496075e+01	-1.387995e+03
2.830000e-06	-5.057140e-06	-2.179821e-08	-3.581329e+01	-1.427004e+03
2.840000e-06	-5.175559e-06	-2.233525e-08	-3.665189e+01	-1.462076e+03
2.850000e-06	-5.291892e-06	-2.281469e-08	-3.747573e+01	-1.493582e+03
2.860000e-06	-5.406056e-06	-2.324683e-08	-3.828421e+01	-1.521899e+03
2.870000e-06	-5.518071e-06	-2.364100e-08	-3.907747e+01	-1.547401e+03
2.880000e-06	-5.627998e-06	-2.400037e-08	-3.985594e+01	-1.570457e+03
2.890000e-06	-5.735950e-06	-2.432691e-08	-4.062043e+01	-1.591405e+03
2.900000e-06	-5.841971e-06	-2.462433e-08	-4.137124e+01	-1.610536e+03
2.910000e-06	-5.945871e-06	-2.489516e-08	-4.210704e+01	-1.628085e+03
2.920000e-06	-6.047504e-06	-2.514333e-08	-4.282678e+01	-1.644226e+03
2.930000e-06	-6.146913e-06	-2.537175e-08	-4.353076e+01	-1.659086e+03
2.940000e-06	-6.244173e-06	-2.557973e-08	-4.421953e+01	-1.672756e+03
