# Temperatura_=_71.56
# Concentracion g/m^3_=_26700.0
# C_Vs_to_Am_M_A/Vsm_=_65563218390.804596
# pendiente_HvsI_1/m_=_3716.3
# ordenada_HvsI_A/m_=_1297.0
# frecuencia_Hz_=_302528.6669452305

Tiempo_(s)	Campo_(V.s)	Magnetizacion_(V.s)	Campo_(kA/m)	Magnetizacion_(A/m)
0.000000e+00	-8.121465e-06	-2.832193e-08	-5.685067e+01	-1.852529e+03
1.000000e-08	-8.117244e-06	-2.831420e-08	-5.682112e+01	-1.852082e+03
2.000000e-08	-8.110415e-06	-2.830277e-08	-5.677332e+01	-1.851507e+03
3.000000e-08	-8.100823e-06	-2.829313e-08	-5.670617e+01	-1.850825e+03
4.000000e-08	-8.088277e-06	-2.828170e-08	-5.661835e+01	-1.850046e+03
5.000000e-08	-8.072698e-06	-2.826328e-08	-5.650930e+01	-1.849167e+03
6.000000e-08	-8.054402e-06	-2.823989e-08	-5.638123e+01	-1.848178e+03
7.000000e-08	-8.033821e-06	-2.821331e-08	-5.623716e+01	-1.847062e+03
8.000000e-08	-8.010601e-06	-2.825314e-08	-5.607462e+01	-1.845808e+03
9.000000e-08	-7.984163e-06	-2.825545e-08	-5.588955e+01	-1.844417e+03
1.000000e-07	-7.954507e-06	-2.817814e-08	-5.568196e+01	-1.842899e+03
1.100000e-07	-7.921924e-06	-2.814283e-08	-5.545387e+01	-1.841280e+03
1.200000e-07	-7.886537e-06	-2.812156e-08	-5.520616e+01	-1.839586e+03
1.300000e-07	-7.848630e-06	-2.805371e-08	-5.494081e+01	-1.837844e+03
1.400000e-07	-7.808538e-06	-2.796044e-08	-5.466016e+01	-1.836065e+03
1.500000e-07	-7.766105e-06	-2.801450e-08	-5.436314e+01	-1.834243e+03
1.600000e-07	-7.720984e-06	-2.802516e-08	-5.404728e+01	-1.832352e+03
1.700000e-07	-7.673036e-06	-2.788732e-08	-5.371165e+01	-1.830348e+03
1.800000e-07	-7.622091e-06	-2.792861e-08	-5.335503e+01	-1.828179e+03
1.900000e-07	-7.568152e-06	-2.785966e-08	-5.297745e+01	-1.825797e+03
2.000000e-07	-7.511419e-06	-2.777382e-08	-5.258032e+01	-1.823165e+03
2.100000e-07	-7.451951e-06	-2.777053e-08	-5.216404e+01	-1.820267e+03
2.200000e-07	-7.389851e-06	-2.770974e-08	-5.172934e+01	-1.817106e+03
2.300000e-07	-7.325038e-06	-2.770346e-08	-5.127564e+01	-1.813706e+03
2.400000e-07	-7.257383e-06	-2.758578e-08	-5.080205e+01	-1.810100e+03
2.500000e-07	-7.186960e-06	-2.753706e-08	-5.030909e+01	-1.806320e+03
2.600000e-07	-7.113683e-06	-2.749678e-08	-4.979614e+01	-1.802391e+03
2.700000e-07	-7.037549e-06	-2.743161e-08	-4.926320e+01	-1.798325e+03
2.800000e-07	-6.958643e-06	-2.735441e-08	-4.871086e+01	-1.794117e+03
2.900000e-07	-6.876980e-06	-2.728032e-08	-4.813921e+01	-1.789754e+03
3.000000e-07	-6.792881e-06	-2.723752e-08	-4.755051e+01	-1.785217e+03
3.100000e-07	-6.706476e-06	-2.712222e-08	-4.694568e+01	-1.780489e+03
3.200000e-07	-6.617633e-06	-2.706388e-08	-4.632377e+01	-1.775565e+03
3.300000e-07	-6.526385e-06	-2.700979e-08	-4.568503e+01	-1.770446e+03
3.400000e-07	-6.432867e-06	-2.692026e-08	-4.503040e+01	-1.765144e+03
3.500000e-07	-6.337001e-06	-2.682727e-08	-4.435933e+01	-1.759673e+03
3.600000e-07	-6.238688e-06	-2.674163e-08	-4.367113e+01	-1.754045e+03
3.700000e-07	-6.138134e-06	-2.666209e-08	-4.296725e+01	-1.748260e+03
3.800000e-07	-6.035445e-06	-2.656813e-08	-4.224842e+01	-1.742308e+03
3.900000e-07	-5.930521e-06	-2.648271e-08	-4.151395e+01	-1.736166e+03
4.000000e-07	-5.823461e-06	-2.638055e-08	-4.076452e+01	-1.729808e+03
4.100000e-07	-5.714489e-06	-2.627331e-08	-4.000172e+01	-1.723207e+03
4.200000e-07	-5.603564e-06	-2.616105e-08	-3.922524e+01	-1.716346e+03
4.300000e-07	-5.490461e-06	-2.605515e-08	-3.843351e+01	-1.709221e+03
4.400000e-07	-5.375114e-06	-2.594673e-08	-3.762607e+01	-1.701840e+03
4.500000e-07	-5.257750e-06	-2.583162e-08	-3.680452e+01	-1.694220e+03
4.600000e-07	-5.138552e-06	-2.570863e-08	-3.597013e+01	-1.686380e+03
4.700000e-07	-5.017496e-06	-2.558190e-08	-3.512273e+01	-1.678334e+03
4.800000e-07	-4.894586e-06	-2.545226e-08	-3.426235e+01	-1.670080e+03
4.900000e-07	-4.769967e-06	-2.532235e-08	-3.339001e+01	-1.661602e+03
5.000000e-07	-4.643717e-06	-2.519643e-08	-3.250625e+01	-1.652869e+03
5.100000e-07	-4.515746e-06	-2.505768e-08	-3.161045e+01	-1.643842e+03
5.200000e-07	-4.385987e-06	-2.491099e-08	-3.070213e+01	-1.634483e+03
5.300000e-07	-4.254584e-06	-2.475652e-08	-2.978230e+01	-1.624763e+03
5.400000e-07	-4.121657e-06	-2.460500e-08	-2.885181e+01	-1.614670e+03
5.500000e-07	-3.987233e-06	-2.444591e-08	-2.791083e+01	-1.604206e+03
5.600000e-07	-3.851283e-06	-2.427953e-08	-2.695918e+01	-1.593385e+03
5.700000e-07	-3.713787e-06	-2.410316e-08	-2.599670e+01	-1.582225e+03
5.800000e-07	-3.574790e-06	-2.392360e-08	-2.502371e+01	-1.570737e+03
5.900000e-07	-3.434283e-06	-2.374116e-08	-2.404016e+01	-1.558920e+03
6.000000e-07	-3.292305e-06	-2.355307e-08	-2.304630e+01	-1.546753e+03
6.100000e-07	-3.148978e-06	-2.336168e-08	-2.204301e+01	-1.534196e+03
6.200000e-07	-3.004404e-06	-2.316245e-08	-2.103098e+01	-1.521204e+03
6.300000e-07	-2.858746e-06	-2.295602e-08	-2.001137e+01	-1.507729e+03
6.400000e-07	-2.712103e-06	-2.273599e-08	-1.898486e+01	-1.493733e+03
6.500000e-07	-2.564547e-06	-2.251092e-08	-1.795196e+01	-1.479197e+03
6.600000e-07	-2.416179e-06	-2.227946e-08	-1.691337e+01	-1.464116e+03
6.700000e-07	-2.267052e-06	-2.204208e-08	-1.586948e+01	-1.448501e+03
6.800000e-07	-2.117204e-06	-2.179737e-08	-1.482054e+01	-1.432362e+03
6.900000e-07	-1.966643e-06	-2.154401e-08	-1.376660e+01	-1.415704e+03
7.000000e-07	-1.815407e-06	-2.128350e-08	-1.270794e+01	-1.398510e+03
7.100000e-07	-1.663522e-06	-2.101115e-08	-1.164474e+01	-1.380741e+03
7.200000e-07	-1.510987e-06	-2.072717e-08	-1.057699e+01	-1.362336e+03
7.300000e-07	-1.357855e-06	-2.043183e-08	-9.505057e+00	-1.343221e+03
7.400000e-07	-1.204248e-06	-2.012626e-08	-8.429796e+00	-1.323320e+03
7.500000e-07	-1.050277e-06	-1.980675e-08	-7.351990e+00	-1.302566e+03
7.600000e-07	-8.959463e-07	-1.947570e-08	-6.271670e+00	-1.280908e+03
7.700000e-07	-7.412849e-07	-1.913206e-08	-5.189032e+00	-1.258312e+03
7.800000e-07	-5.863268e-07	-1.877545e-08	-4.104317e+00	-1.234752e+03
7.900000e-07	-4.311022e-07	-1.840340e-08	-3.017737e+00	-1.210193e+03
8.000000e-07	-2.757004e-07	-1.801229e-08	-1.929917e+00	-1.184579e+03
8.100000e-07	-1.201924e-07	-1.760268e-08	-8.413532e-01	-1.157815e+03
8.200000e-07	3.535884e-08	-1.717094e-08	2.475137e-01	-1.129766e+03
8.300000e-07	1.909324e-07	-1.671572e-08	1.336536e+00	-1.100256e+03
8.400000e-07	3.464734e-07	-1.623501e-08	2.425332e+00	-1.069080e+03
8.500000e-07	5.019177e-07	-1.572954e-08	3.513449e+00	-1.036020e+03
8.600000e-07	6.572198e-07	-1.519509e-08	4.600572e+00	-1.000856e+03
8.700000e-07	8.123488e-07	-1.462971e-08	5.686483e+00	-9.633663e+02
8.800000e-07	9.672526e-07	-1.402630e-08	6.770818e+00	-9.233192e+02
8.900000e-07	1.121795e-06	-1.337770e-08	7.852624e+00	-8.804448e+02
9.000000e-07	1.275950e-06	-1.267724e-08	8.931716e+00	-8.344005e+02
9.100000e-07	1.429695e-06	-1.191524e-08	1.000794e+01	-7.847364e+02
9.200000e-07	1.582872e-06	-1.108628e-08	1.108018e+01	-7.308726e+02
9.300000e-07	1.735406e-06	-1.018144e-08	1.214793e+01	-6.721039e+02
9.400000e-07	1.887240e-06	-9.193052e-09	1.321077e+01	-6.076373e+02
9.500000e-07	2.038253e-06	-8.107191e-09	1.426788e+01	-5.366685e+02
9.600000e-07	2.188482e-06	-6.913038e-09	1.531949e+01	-4.584892e+02
9.700000e-07	2.337969e-06	-5.602585e-09	1.636590e+01	-3.726119e+02
9.800000e-07	2.486565e-06	-4.172679e-09	1.740608e+01	-2.788930e+02
9.900000e-07	2.634250e-06	-2.628637e-09	1.843988e+01	-1.776301e+02
1.000000e-06	2.781012e-06	-9.787223e-10	1.946723e+01	-6.961342e+01
1.010000e-06	2.926805e-06	7.566119e-10	2.048778e+01	4.388104e+01
1.020000e-06	3.071479e-06	2.552027e-09	2.150051e+01	1.611627e+02
1.030000e-06	3.214876e-06	4.374695e-09	2.250429e+01	2.802526e+02
1.040000e-06	3.357019e-06	6.190402e-09	2.349931e+01	3.990482e+02
1.050000e-06	3.497879e-06	7.963138e-09	2.448533e+01	5.155009e+02
1.060000e-06	3.637428e-06	9.663537e-09	2.546218e+01	6.277820e+02
1.070000e-06	3.775592e-06	1.127467e-08	2.642933e+01	7.344112e+02
1.080000e-06	3.912210e-06	1.278312e-08	2.738567e+01	8.343325e+02
1.090000e-06	4.047345e-06	1.418278e-08	2.833163e+01	9.269318e+02
1.100000e-06	4.181080e-06	1.547072e-08	2.926777e+01	1.012001e+03
1.110000e-06	4.313352e-06	1.664982e-08	3.019368e+01	1.089660e+03
1.120000e-06	4.444179e-06	1.772131e-08	3.110948e+01	1.160260e+03
1.130000e-06	4.573400e-06	1.869306e-08	3.201404e+01	1.224284e+03
1.140000e-06	4.700940e-06	1.957115e-08	3.290682e+01	1.282260e+03
1.150000e-06	4.826933e-06	2.036262e-08	3.378878e+01	1.334706e+03
1.160000e-06	4.951311e-06	2.107533e-08	3.465943e+01	1.382094e+03
1.170000e-06	5.073994e-06	2.171576e-08	3.551822e+01	1.424856e+03
1.180000e-06	5.194813e-06	2.229141e-08	3.636396e+01	1.463384e+03
1.190000e-06	5.313627e-06	2.281040e-08	3.719566e+01	1.498057e+03
1.200000e-06	5.430494e-06	2.328031e-08	3.801374e+01	1.529252e+03
1.210000e-06	5.545338e-06	2.370490e-08	3.881765e+01	1.557346e+03
1.220000e-06	5.657991e-06	2.409135e-08	3.960623e+01	1.582717e+03
1.230000e-06	5.768468e-06	2.444393e-08	4.037957e+01	1.605721e+03
1.240000e-06	5.876975e-06	2.476401e-08	4.113913e+01	1.626680e+03
1.250000e-06	5.983454e-06	2.505278e-08	4.188449e+01	1.645865e+03
1.260000e-06	6.087649e-06	2.531520e-08	4.261385e+01	1.663490e+03
1.270000e-06	6.189574e-06	2.555551e-08	4.332734e+01	1.679710e+03
1.280000e-06	6.289275e-06	2.577729e-08	4.402525e+01	1.694639e+03
1.290000e-06	6.386590e-06	2.598203e-08	4.470645e+01	1.708364e+03
1.300000e-06	6.481572e-06	2.617142e-08	4.537133e+01	1.720962e+03
1.310000e-06	6.574306e-06	2.634746e-08	4.602048e+01	1.732514e+03
1.320000e-06	6.664692e-06	2.651074e-08	4.665318e+01	1.743111e+03
1.330000e-06	6.752647e-06	2.666214e-08	4.726888e+01	1.752857e+03
1.340000e-06	6.838184e-06	2.680229e-08	4.786764e+01	1.761852e+03
1.350000e-06	6.921371e-06	2.693187e-08	4.844995e+01	1.770191e+03
1.360000e-06	7.002058e-06	2.705112e-08	4.901477e+01	1.777951e+03
1.370000e-06	7.080159e-06	2.715930e-08	4.956147e+01	1.785184e+03
1.380000e-06	7.155625e-06	2.725781e-08	5.008974e+01	1.791924e+03
1.390000e-06	7.228397e-06	2.734889e-08	5.059915e+01	1.798188e+03
1.400000e-06	7.298608e-06	2.743480e-08	5.109063e+01	1.803989e+03
1.410000e-06	7.366257e-06	2.751543e-08	5.156418e+01	1.809345e+03
1.420000e-06	7.431212e-06	2.759204e-08	5.201886e+01	1.814284e+03
1.430000e-06	7.493547e-06	2.766456e-08	5.245521e+01	1.818846e+03
1.440000e-06	7.553356e-06	2.773162e-08	5.287388e+01	1.823078e+03
1.450000e-06	7.610522e-06	2.779336e-08	5.327404e+01	1.827028e+03
1.460000e-06	7.664930e-06	2.785019e-08	5.365490e+01	1.830734e+03
1.470000e-06	7.716281e-06	2.790306e-08	5.401436e+01	1.834217e+03
1.480000e-06	7.764501e-06	2.795105e-08	5.435190e+01	1.837479e+03
1.490000e-06	7.809975e-06	2.799577e-08	5.467023e+01	1.840508e+03
1.500000e-06	7.852744e-06	2.803810e-08	5.496961e+01	1.843280e+03
1.510000e-06	7.892603e-06	2.807768e-08	5.524862e+01	1.845773e+03
1.520000e-06	7.929667e-06	2.811388e-08	5.550807e+01	1.847977e+03
1.530000e-06	7.963971e-06	2.814466e-08	5.574820e+01	1.849895e+03
1.540000e-06	7.995361e-06	2.817019e-08	5.596794e+01	1.851549e+03
1.550000e-06	8.023967e-06	2.819377e-08	5.616818e+01	1.852973e+03
1.560000e-06	8.049700e-06	2.821417e-08	5.634831e+01	1.854204e+03
1.570000e-06	8.072445e-06	2.823058e-08	5.650753e+01	1.855277e+03
1.580000e-06	8.092369e-06	2.824432e-08	5.664700e+01	1.856212e+03
1.590000e-06	8.109387e-06	2.825427e-08	5.676613e+01	1.857016e+03
1.600000e-06	8.123386e-06	2.826298e-08	5.686412e+01	1.857678e+03
1.610000e-06	8.134221e-06	2.827214e-08	5.693996e+01	1.858179e+03
1.620000e-06	8.141943e-06	2.827967e-08	5.699401e+01	1.858500e+03
1.630000e-06	8.146778e-06	2.828370e-08	5.702786e+01	1.858627e+03
1.640000e-06	8.148726e-06	2.828579e-08	5.704150e+01	1.858559e+03
1.650000e-06	8.147865e-06	2.828127e-08	5.703547e+01	1.858308e+03
1.660000e-06	8.144389e-06	2.827108e-08	5.701114e+01	1.857896e+03
1.670000e-06	8.138143e-06	2.826436e-08	5.696742e+01	1.857349e+03
1.680000e-06	8.129117e-06	2.825358e-08	5.690423e+01	1.856692e+03
1.690000e-06	8.117351e-06	2.824067e-08	5.682187e+01	1.855936e+03
1.700000e-06	8.102658e-06	2.823376e-08	5.671902e+01	1.855082e+03
1.710000e-06	8.085336e-06	2.823329e-08	5.659777e+01	1.854120e+03
1.720000e-06	8.065722e-06	2.821816e-08	5.646046e+01	1.853036e+03
1.730000e-06	8.043515e-06	2.811758e-08	5.630502e+01	1.851817e+03
1.740000e-06	8.018040e-06	2.812124e-08	5.612669e+01	1.850458e+03
1.750000e-06	7.988825e-06	2.814441e-08	5.592219e+01	1.848970e+03
1.760000e-06	7.956185e-06	2.809514e-08	5.569370e+01	1.847372e+03
1.770000e-06	7.920954e-06	2.807794e-08	5.544708e+01	1.845693e+03
1.780000e-06	7.883422e-06	2.815021e-08	5.518435e+01	1.843960e+03
1.790000e-06	7.843722e-06	2.808169e-08	5.490645e+01	1.842189e+03
1.800000e-06	7.801924e-06	2.798720e-08	5.461386e+01	1.840379e+03
1.810000e-06	7.757519e-06	2.806834e-08	5.430303e+01	1.838508e+03
1.820000e-06	7.710425e-06	2.792974e-08	5.397337e+01	1.836535e+03
1.830000e-06	7.660562e-06	2.797425e-08	5.362433e+01	1.834412e+03
1.840000e-06	7.607490e-06	2.795645e-08	5.325282e+01	1.832086e+03
1.850000e-06	7.551497e-06	2.788289e-08	5.286086e+01	1.829518e+03
1.860000e-06	7.492861e-06	2.792629e-08	5.245041e+01	1.826685e+03
1.870000e-06	7.431494e-06	2.773874e-08	5.202084e+01	1.823588e+03
1.880000e-06	7.367294e-06	2.777552e-08	5.157143e+01	1.820244e+03
1.890000e-06	7.300265e-06	2.772763e-08	5.110223e+01	1.816685e+03
1.900000e-06	7.230457e-06	2.764138e-08	5.061357e+01	1.812944e+03
1.910000e-06	7.157774e-06	2.763423e-08	5.010479e+01	1.809050e+03
1.920000e-06	7.082300e-06	2.752075e-08	4.957646e+01	1.805017e+03
1.930000e-06	7.004016e-06	2.750667e-08	4.902847e+01	1.800845e+03
1.940000e-06	6.923078e-06	2.737870e-08	4.846190e+01	1.796521e+03
1.950000e-06	6.839661e-06	2.736298e-08	4.787798e+01	1.792028e+03
1.960000e-06	6.753595e-06	2.729857e-08	4.727551e+01	1.787348e+03
1.970000e-06	6.665001e-06	2.717532e-08	4.665535e+01	1.782472e+03
1.980000e-06	6.574060e-06	2.712716e-08	4.601876e+01	1.777400e+03
1.990000e-06	6.480814e-06	2.702031e-08	4.536603e+01	1.772141e+03
2.000000e-06	6.385242e-06	2.697808e-08	4.469702e+01	1.766711e+03
2.010000e-06	6.287461e-06	2.687287e-08	4.401255e+01	1.761120e+03
2.020000e-06	6.187509e-06	2.680203e-08	4.331288e+01	1.755374e+03
2.030000e-06	6.085233e-06	2.669266e-08	4.259694e+01	1.749464e+03
2.040000e-06	5.980722e-06	2.659053e-08	4.186536e+01	1.743371e+03
2.050000e-06	5.874197e-06	2.650114e-08	4.111968e+01	1.737069e+03
2.060000e-06	5.765715e-06	2.640520e-08	4.036030e+01	1.730529e+03
2.070000e-06	5.655114e-06	2.631377e-08	3.958609e+01	1.723734e+03
2.080000e-06	5.542398e-06	2.618894e-08	3.879707e+01	1.716673e+03
2.090000e-06	5.427606e-06	2.608717e-08	3.799352e+01	1.709354e+03
2.100000e-06	5.310721e-06	2.596848e-08	3.717532e+01	1.701790e+03
2.110000e-06	5.191766e-06	2.586445e-08	3.634262e+01	1.694003e+03
2.120000e-06	5.070911e-06	2.574396e-08	3.549663e+01	1.686007e+03
2.130000e-06	4.948296e-06	2.562923e-08	3.463832e+01	1.677805e+03
2.140000e-06	4.823921e-06	2.548879e-08	3.376769e+01	1.669384e+03
2.150000e-06	4.697765e-06	2.534840e-08	3.288460e+01	1.660717e+03
2.160000e-06	4.569841e-06	2.520751e-08	3.198912e+01	1.651767e+03
2.170000e-06	4.440309e-06	2.507032e-08	3.108239e+01	1.642493e+03
2.180000e-06	4.309207e-06	2.493003e-08	3.016467e+01	1.632864e+03
2.190000e-06	4.176566e-06	2.477866e-08	2.923617e+01	1.622864e+03
2.200000e-06	4.042324e-06	2.462628e-08	2.829647e+01	1.612490e+03
2.210000e-06	3.906479e-06	2.446239e-08	2.734555e+01	1.601755e+03
2.220000e-06	3.769191e-06	2.429949e-08	2.638453e+01	1.590677e+03
2.230000e-06	3.630470e-06	2.412815e-08	2.541347e+01	1.579271e+03
2.240000e-06	3.490285e-06	2.395774e-08	2.443217e+01	1.567536e+03
2.250000e-06	3.348680e-06	2.377400e-08	2.344093e+01	1.555458e+03
2.260000e-06	3.205717e-06	2.358152e-08	2.244018e+01	1.543002e+03
2.270000e-06	3.061524e-06	2.337922e-08	2.143083e+01	1.530123e+03
2.280000e-06	2.916282e-06	2.317530e-08	2.041412e+01	1.516771e+03
2.290000e-06	2.770077e-06	2.296703e-08	1.939068e+01	1.502907e+03
2.300000e-06	2.622885e-06	2.275303e-08	1.836033e+01	1.488506e+03
2.310000e-06	2.474740e-06	2.253075e-08	1.732331e+01	1.473560e+03
2.320000e-06	2.325765e-06	2.230000e-08	1.628047e+01	1.458076e+03
2.330000e-06	2.175986e-06	2.206055e-08	1.523201e+01	1.442066e+03
2.340000e-06	2.025388e-06	2.180756e-08	1.417782e+01	1.425538e+03
2.350000e-06	1.874068e-06	2.154452e-08	1.311857e+01	1.408479e+03
2.360000e-06	1.722164e-06	2.127266e-08	1.205524e+01	1.390858e+03
2.370000e-06	1.569738e-06	2.099048e-08	1.098825e+01	1.372617e+03
2.380000e-06	1.416827e-06	2.070007e-08	9.917862e+00	1.353686e+03
2.390000e-06	1.263523e-06	2.040260e-08	8.844724e+00	1.333987e+03
2.400000e-06	1.109845e-06	2.009410e-08	7.768974e+00	1.313451e+03
2.410000e-06	9.558106e-07	1.977053e-08	6.690723e+00	1.292022e+03
2.420000e-06	8.014659e-07	1.943185e-08	5.610302e+00	1.269662e+03
2.430000e-06	6.468121e-07	1.907911e-08	4.527717e+00	1.246345e+03
2.440000e-06	4.919010e-07	1.870903e-08	3.443332e+00	1.222039e+03
2.450000e-06	3.368297e-07	1.832325e-08	2.357825e+00	1.196694e+03
2.460000e-06	1.815765e-07	1.791976e-08	1.271045e+00	1.170228e+03
2.470000e-06	2.617931e-08	1.749591e-08	1.832565e-01	1.142514e+03
2.480000e-06	-1.292200e-07	1.704883e-08	-9.045464e-01	1.113386e+03
2.490000e-06	-2.845407e-07	1.657763e-08	-1.991800e+00	1.082646e+03
2.500000e-06	-4.397045e-07	1.608176e-08	-3.077954e+00	1.050077e+03
2.510000e-06	-5.946885e-07	1.555677e-08	-4.162850e+00	1.015459e+03
2.520000e-06	-7.495249e-07	1.499754e-08	-5.246713e+00	9.785703e+02
2.530000e-06	-9.041674e-07	1.439816e-08	-6.329218e+00	9.391848e+02
2.540000e-06	-1.058539e-06	1.375523e-08	-7.409824e+00	8.970448e+02
2.550000e-06	-1.212577e-06	1.306465e-08	-8.488101e+00	8.518295e+02
2.560000e-06	-1.366122e-06	1.232045e-08	-9.562922e+00	8.031184e+02
2.570000e-06	-1.519188e-06	1.151472e-08	-1.063439e+01	7.503651e+02
2.580000e-06	-1.671795e-06	1.063753e-08	-1.170265e+01	6.928935e+02
2.590000e-06	-1.823804e-06	9.676677e-09	-1.276672e+01	6.299270e+02
2.600000e-06	-1.975074e-06	8.621009e-09	-1.382562e+01	5.606549e+02
2.610000e-06	-2.125573e-06	7.462803e-09	-1.487912e+01	4.843337e+02
2.620000e-06	-2.275320e-06	6.192913e-09	-1.592736e+01	4.004087e+02
2.630000e-06	-2.424145e-06	4.804663e-09	-1.696914e+01	3.086399e+02
2.640000e-06	-2.571945e-06	3.296150e-09	-1.800375e+01	2.092074e+02
2.650000e-06	-2.718829e-06	1.674560e-09	-1.903195e+01	1.027768e+02
2.660000e-06	-2.864772e-06	-4.241498e-11	-2.005355e+01	-9.493289e+00
2.670000e-06	-3.009638e-06	-1.828028e-09	-2.106762e+01	-1.260060e+02
2.680000e-06	-3.153301e-06	-3.648740e-09	-2.207327e+01	-2.448403e+02
2.690000e-06	-3.295760e-06	-5.470902e-09	-2.307049e+01	-3.639076e+02
2.700000e-06	-3.436951e-06	-7.262232e-09	-2.405883e+01	-4.811296e+02
2.710000e-06	-3.576691e-06	-8.995407e-09	-2.503702e+01	-5.946088e+02
2.720000e-06	-3.715040e-06	-1.064926e-08	-2.600547e+01	-7.027683e+02
2.730000e-06	-3.852034e-06	-1.220703e-08	-2.696443e+01	-8.044422e+02
2.740000e-06	-3.987647e-06	-1.365620e-08	-2.791374e+01	-8.989073e+02
2.750000e-06	-4.121908e-06	-1.499218e-08	-2.885357e+01	-9.858598e+02
2.760000e-06	-4.254714e-06	-1.621584e-08	-2.978322e+01	-1.065347e+03
2.770000e-06	-4.385961e-06	-1.733071e-08	-3.070195e+01	-1.137671e+03
2.780000e-06	-4.515679e-06	-1.834224e-08	-3.160998e+01	-1.203291e+03
2.790000e-06	-4.643880e-06	-1.925777e-08	-3.250740e+01	-1.262731e+03
2.800000e-06	-4.770499e-06	-2.008579e-08	-3.339373e+01	-1.316513e+03
2.810000e-06	-4.895350e-06	-2.083246e-08	-3.426770e+01	-1.365125e+03
2.820000e-06	-5.018408e-06	-2.150537e-08	-3.512911e+01	-1.409007e+03
2.830000e-06	-5.139796e-06	-2.211232e-08	-3.597884e+01	-1.448558e+03
2.840000e-06	-5.259387e-06	-2.265865e-08	-3.681598e+01	-1.484161e+03
2.850000e-06	-5.376851e-06	-2.315098e-08	-3.763823e+01	-1.516191e+03
2.860000e-06	-5.492055e-06	-2.359753e-08	-3.844467e+01	-1.545026e+03
2.870000e-06	-5.605095e-06	-2.400282e-08	-3.923595e+01	-1.571044e+03
2.880000e-06	-5.715942e-06	-2.436961e-08	-4.001189e+01	-1.594609e+03
2.890000e-06	-5.824675e-06	-2.470146e-08	-4.077302e+01	-1.616053e+03
2.900000e-06	-5.931423e-06	-2.500266e-08	-4.152026e+01	-1.635660e+03
2.910000e-06	-6.036117e-06	-2.527772e-08	-4.225313e+01	-1.653659e+03
2.920000e-06	-6.138550e-06	-2.553022e-08	-4.297017e+01	-1.670219e+03
2.930000e-06	-6.238597e-06	-2.576407e-08	-4.367050e+01	-1.685464e+03
2.940000e-06	-6.336410e-06	-2.598089e-08	-4.435519e+01	-1.699483e+03
