# Temperatura_=_99.51
# Concentracion g/m^3_=_26700.0
# C_Vs_to_Am_M_A/Vsm_=_65563218390.804596
# pendiente_HvsI_1/m_=_3716.3
# ordenada_HvsI_A/m_=_1297.0
# frecuencia_Hz_=_302533.0028874033

Tiempo_(s)	Campo_(V.s)	Magnetizacion_(V.s)	Campo_(kA/m)	Magnetizacion_(A/m)
0.000000e+00	-8.055802e-06	-2.068324e-08	-5.684650e+01	-1.353217e+03
1.000000e-08	-8.051602e-06	-2.067742e-08	-5.681686e+01	-1.352786e+03
2.000000e-08	-8.044816e-06	-2.066523e-08	-5.676898e+01	-1.352306e+03
3.000000e-08	-8.035281e-06	-2.065691e-08	-5.670169e+01	-1.351774e+03
4.000000e-08	-8.022865e-06	-2.064449e-08	-5.661408e+01	-1.351168e+03
5.000000e-08	-8.007547e-06	-2.062530e-08	-5.650598e+01	-1.350450e+03
6.000000e-08	-7.989494e-06	-2.060146e-08	-5.637859e+01	-1.349583e+03
7.000000e-08	-7.969095e-06	-2.056907e-08	-5.623464e+01	-1.348547e+03
8.000000e-08	-7.946192e-06	-2.061433e-08	-5.607303e+01	-1.347344e+03
9.000000e-08	-7.920150e-06	-2.065468e-08	-5.588926e+01	-1.346006e+03
1.000000e-07	-7.890787e-06	-2.057984e-08	-5.568206e+01	-1.344586e+03
1.100000e-07	-7.858457e-06	-2.053349e-08	-5.545391e+01	-1.343142e+03
1.200000e-07	-7.823354e-06	-2.051630e-08	-5.520621e+01	-1.341723e+03
1.300000e-07	-7.785691e-06	-2.044297e-08	-5.494044e+01	-1.340346e+03
1.400000e-07	-7.745822e-06	-2.032744e-08	-5.465910e+01	-1.338994e+03
1.500000e-07	-7.703702e-06	-2.039006e-08	-5.436187e+01	-1.337610e+03
1.600000e-07	-7.658938e-06	-2.048093e-08	-5.404599e+01	-1.336113e+03
1.700000e-07	-7.611443e-06	-2.031313e-08	-5.371084e+01	-1.334416e+03
1.800000e-07	-7.561118e-06	-2.036875e-08	-5.335572e+01	-1.332447e+03
1.900000e-07	-7.507759e-06	-2.031697e-08	-5.297918e+01	-1.330168e+03
2.000000e-07	-7.451520e-06	-2.016152e-08	-5.258233e+01	-1.327584e+03
2.100000e-07	-7.392525e-06	-2.016113e-08	-5.216602e+01	-1.324742e+03
2.200000e-07	-7.330895e-06	-2.009917e-08	-5.173113e+01	-1.321714e+03
2.300000e-07	-7.266662e-06	-2.013954e-08	-5.127786e+01	-1.318581e+03
2.400000e-07	-7.199669e-06	-2.005976e-08	-5.080512e+01	-1.315409e+03
2.500000e-07	-7.129916e-06	-2.000355e-08	-5.031290e+01	-1.312228e+03
2.600000e-07	-7.057337e-06	-1.996458e-08	-4.980074e+01	-1.309031e+03
2.700000e-07	-6.981967e-06	-1.990452e-08	-4.926889e+01	-1.305772e+03
2.800000e-07	-6.903824e-06	-1.984703e-08	-4.871746e+01	-1.302386e+03
2.900000e-07	-6.822852e-06	-1.978242e-08	-4.814608e+01	-1.298805e+03
3.000000e-07	-6.739394e-06	-1.977303e-08	-4.755715e+01	-1.294980e+03
3.100000e-07	-6.653713e-06	-1.967977e-08	-4.695253e+01	-1.290897e+03
3.200000e-07	-6.565677e-06	-1.960250e-08	-4.633130e+01	-1.286576e+03
3.300000e-07	-6.475201e-06	-1.954696e-08	-4.569284e+01	-1.282068e+03
3.400000e-07	-6.382402e-06	-1.946220e-08	-4.503800e+01	-1.277437e+03
3.500000e-07	-6.287333e-06	-1.939855e-08	-4.436714e+01	-1.272739e+03
3.600000e-07	-6.189926e-06	-1.933187e-08	-4.367978e+01	-1.268007e+03
3.700000e-07	-6.090201e-06	-1.925879e-08	-4.297606e+01	-1.263238e+03
3.800000e-07	-5.988336e-06	-1.917661e-08	-4.225724e+01	-1.258398e+03
3.900000e-07	-5.884362e-06	-1.910614e-08	-4.152354e+01	-1.253429e+03
4.000000e-07	-5.778256e-06	-1.902570e-08	-4.077479e+01	-1.248267e+03
4.100000e-07	-5.670123e-06	-1.893535e-08	-4.001174e+01	-1.242866e+03
4.200000e-07	-5.560052e-06	-1.885432e-08	-3.923501e+01	-1.237204e+03
4.300000e-07	-5.447927e-06	-1.877211e-08	-3.844379e+01	-1.231297e+03
4.400000e-07	-5.333637e-06	-1.868222e-08	-3.763729e+01	-1.225184e+03
4.500000e-07	-5.217369e-06	-1.858154e-08	-3.681684e+01	-1.218922e+03
4.600000e-07	-5.099240e-06	-1.847938e-08	-3.598325e+01	-1.212560e+03
4.700000e-07	-4.979202e-06	-1.837985e-08	-3.513619e+01	-1.206123e+03
4.800000e-07	-4.857295e-06	-1.827766e-08	-3.427595e+01	-1.199607e+03
4.900000e-07	-4.733591e-06	-1.817431e-08	-3.340301e+01	-1.192973e+03
5.000000e-07	-4.608152e-06	-1.807249e-08	-3.251784e+01	-1.186159e+03
5.100000e-07	-4.481023e-06	-1.796575e-08	-3.162075e+01	-1.179100e+03
5.200000e-07	-4.352269e-06	-1.785035e-08	-3.071218e+01	-1.171745e+03
5.300000e-07	-4.221952e-06	-1.772956e-08	-2.979259e+01	-1.164071e+03
5.400000e-07	-4.090080e-06	-1.761519e-08	-2.886202e+01	-1.156090e+03
5.500000e-07	-3.956690e-06	-1.749717e-08	-2.792074e+01	-1.147844e+03
5.600000e-07	-3.821806e-06	-1.737054e-08	-2.696892e+01	-1.139388e+03
5.700000e-07	-3.685490e-06	-1.723032e-08	-2.600700e+01	-1.130773e+03
5.800000e-07	-3.547756e-06	-1.708693e-08	-2.503506e+01	-1.122025e+03
5.900000e-07	-3.408631e-06	-1.694395e-08	-2.405331e+01	-1.113136e+03
6.000000e-07	-3.268058e-06	-1.680061e-08	-2.306135e+01	-1.104061e+03
6.100000e-07	-3.126025e-06	-1.665653e-08	-2.205908e+01	-1.094730e+03
6.200000e-07	-2.982704e-06	-1.651224e-08	-2.104772e+01	-1.085068e+03
6.300000e-07	-2.838286e-06	-1.636299e-08	-2.002862e+01	-1.075012e+03
6.400000e-07	-2.692866e-06	-1.619964e-08	-1.900246e+01	-1.064530e+03
6.500000e-07	-2.546413e-06	-1.603113e-08	-1.796900e+01	-1.053627e+03
6.600000e-07	-2.399070e-06	-1.586005e-08	-1.692926e+01	-1.042339e+03
6.700000e-07	-2.251032e-06	-1.568878e-08	-1.588461e+01	-1.030715e+03
6.800000e-07	-2.102304e-06	-1.551105e-08	-1.483510e+01	-1.018800e+03
6.900000e-07	-1.952865e-06	-1.532543e-08	-1.378057e+01	-1.006611e+03
7.000000e-07	-1.802772e-06	-1.513325e-08	-1.272142e+01	-9.941267e+02
7.100000e-07	-1.652044e-06	-1.493366e-08	-1.165780e+01	-9.812877e+02
7.200000e-07	-1.500701e-06	-1.472637e-08	-1.058983e+01	-9.680080e+02
7.300000e-07	-1.348851e-06	-1.451266e-08	-9.518288e+00	-9.541973e+02
7.400000e-07	-1.196596e-06	-1.429371e-08	-8.443890e+00	-9.397834e+02
7.500000e-07	-1.043963e-06	-1.406540e-08	-7.366817e+00	-9.247292e+02
7.600000e-07	-8.909969e-07	-1.382966e-08	-6.287401e+00	-9.090365e+02
7.700000e-07	-7.376692e-07	-1.358409e-08	-5.205429e+00	-8.927357e+02
7.800000e-07	-5.839863e-07	-1.332953e-08	-4.120953e+00	-8.758619e+02
7.900000e-07	-4.301291e-07	-1.306440e-08	-3.035245e+00	-8.584260e+02
8.000000e-07	-2.761806e-07	-1.278618e-08	-1.948894e+00	-8.403879e+02
8.100000e-07	-1.221208e-07	-1.249545e-08	-8.617564e-01	-8.216430e+02
8.200000e-07	3.206099e-08	-1.219235e-08	2.262413e-01	-8.020245e+02
8.300000e-07	1.863158e-07	-1.187396e-08	1.314755e+00	-7.813242e+02
8.400000e-07	3.405496e-07	-1.153415e-08	2.403119e+00	-7.593229e+02
8.500000e-07	4.947402e-07	-1.117492e-08	3.491179e+00	-7.358218e+02
8.600000e-07	6.487810e-07	-1.079363e-08	4.578182e+00	-7.106595e+02
8.700000e-07	8.025040e-07	-1.038918e-08	5.662943e+00	-6.837065e+02
8.800000e-07	9.559033e-07	-9.953987e-09	6.745419e+00	-6.548324e+02
8.900000e-07	1.108987e-06	-9.485105e-09	7.825670e+00	-6.238490e+02
9.000000e-07	1.261743e-06	-8.977308e-09	8.903602e+00	-5.904445e+02
9.100000e-07	1.414107e-06	-8.419063e-09	9.978776e+00	-5.541261e+02
9.200000e-07	1.566011e-06	-7.801868e-09	1.105070e+01	-5.141940e+02
9.300000e-07	1.717320e-06	-7.115116e-09	1.211842e+01	-4.697629e+02
9.400000e-07	1.867885e-06	-6.347965e-09	1.318090e+01	-4.198404e+02
9.500000e-07	2.017753e-06	-5.484845e-09	1.423846e+01	-3.634574e+02
9.600000e-07	2.166875e-06	-4.516435e-09	1.529075e+01	-2.998324e+02
9.700000e-07	2.315163e-06	-3.433312e-09	1.633716e+01	-2.285433e+02
9.800000e-07	2.462614e-06	-2.231548e-09	1.737766e+01	-1.496711e+02
9.900000e-07	2.609232e-06	-9.191109e-10	1.841228e+01	-6.388577e+01
1.000000e-06	2.754873e-06	4.843107e-10	1.944001e+01	2.754715e+01
1.010000e-06	2.899437e-06	1.946428e-09	2.046014e+01	1.228489e+02
1.020000e-06	3.042926e-06	3.434328e-09	2.147268e+01	2.198868e+02
1.030000e-06	3.185239e-06	4.909215e-09	2.247693e+01	3.163879e+02
1.040000e-06	3.326256e-06	6.335618e-09	2.347202e+01	4.101694e+02
1.050000e-06	3.465906e-06	7.683729e-09	2.445748e+01	4.993501e+02
1.060000e-06	3.604209e-06	8.934389e-09	2.543343e+01	5.825069e+02
1.070000e-06	3.741152e-06	1.007948e-08	2.639978e+01	6.587562e+02
1.080000e-06	3.876685e-06	1.111711e-08	2.735618e+01	7.277520e+02
1.090000e-06	4.010814e-06	1.205375e-08	2.830267e+01	7.896125e+02
1.100000e-06	4.143564e-06	1.289499e-08	2.923944e+01	8.447950e+02
1.110000e-06	4.274861e-06	1.364648e-08	3.016594e+01	8.939512e+02
1.120000e-06	4.404664e-06	1.431333e-08	3.108191e+01	9.377904e+02
1.130000e-06	4.532946e-06	1.490636e-08	3.198715e+01	9.769760e+02
1.140000e-06	4.659603e-06	1.543433e-08	3.288091e+01	1.012066e+03
1.150000e-06	4.784695e-06	1.590589e-08	3.376364e+01	1.043499e+03
1.160000e-06	4.908190e-06	1.632659e-08	3.463509e+01	1.071620e+03
1.170000e-06	5.029933e-06	1.670103e-08	3.549418e+01	1.096719e+03
1.180000e-06	5.149853e-06	1.703432e-08	3.634041e+01	1.119072e+03
1.190000e-06	5.267878e-06	1.733378e-08	3.717326e+01	1.138978e+03
1.200000e-06	5.383898e-06	1.760470e-08	3.799197e+01	1.156756e+03
1.210000e-06	5.497768e-06	1.785046e-08	3.879550e+01	1.172744e+03
1.220000e-06	5.609524e-06	1.807386e-08	3.958412e+01	1.187258e+03
1.230000e-06	5.719340e-06	1.827771e-08	4.035904e+01	1.200571e+03
1.240000e-06	5.827171e-06	1.846506e-08	4.111996e+01	1.212884e+03
1.250000e-06	5.932826e-06	1.863579e-08	4.186552e+01	1.224319e+03
1.260000e-06	6.036253e-06	1.879303e-08	4.259537e+01	1.234927e+03
1.270000e-06	6.137521e-06	1.893705e-08	4.330997e+01	1.244718e+03
1.280000e-06	6.236565e-06	1.906960e-08	4.400889e+01	1.253685e+03
1.290000e-06	6.333238e-06	1.919346e-08	4.469107e+01	1.261842e+03
1.300000e-06	6.427538e-06	1.930818e-08	4.535651e+01	1.269237e+03
1.310000e-06	6.519550e-06	1.941309e-08	4.600580e+01	1.275961e+03
1.320000e-06	6.609243e-06	1.950933e-08	4.663872e+01	1.282135e+03
1.330000e-06	6.696539e-06	1.959874e-08	4.725474e+01	1.287887e+03
1.340000e-06	6.781530e-06	1.968240e-08	4.785448e+01	1.293332e+03
1.350000e-06	6.864168e-06	1.976153e-08	4.843763e+01	1.298547e+03
1.360000e-06	6.944335e-06	1.983619e-08	4.900333e+01	1.303564e+03
1.370000e-06	7.021940e-06	1.990599e-08	4.955096e+01	1.308372e+03
1.380000e-06	7.096832e-06	1.997060e-08	5.007944e+01	1.312931e+03
1.390000e-06	7.169033e-06	2.003121e-08	5.058893e+01	1.317197e+03
1.400000e-06	7.238710e-06	2.008966e-08	5.108061e+01	1.321136e+03
1.410000e-06	7.305834e-06	2.014532e-08	5.155429e+01	1.324743e+03
1.420000e-06	7.370314e-06	2.019953e-08	5.200929e+01	1.328045e+03
1.430000e-06	7.432264e-06	2.025122e-08	5.244645e+01	1.331091e+03
1.440000e-06	7.491693e-06	2.029930e-08	5.286581e+01	1.333941e+03
1.450000e-06	7.548413e-06	2.034237e-08	5.326606e+01	1.336647e+03
1.460000e-06	7.602358e-06	2.038093e-08	5.364673e+01	1.339237e+03
1.470000e-06	7.653258e-06	2.041658e-08	5.400591e+01	1.341711e+03
1.480000e-06	7.701081e-06	2.044764e-08	5.434338e+01	1.344044e+03
1.490000e-06	7.746237e-06	2.047624e-08	5.466203e+01	1.346195e+03
1.500000e-06	7.788678e-06	2.050508e-08	5.496151e+01	1.348122e+03
1.510000e-06	7.828263e-06	2.053333e-08	5.524085e+01	1.349803e+03
1.520000e-06	7.865147e-06	2.055943e-08	5.550113e+01	1.351236e+03
1.530000e-06	7.899228e-06	2.058181e-08	5.574162e+01	1.352449e+03
1.540000e-06	7.930432e-06	2.060096e-08	5.596181e+01	1.353485e+03
1.550000e-06	7.958967e-06	2.061749e-08	5.616317e+01	1.354396e+03
1.560000e-06	7.984627e-06	2.063110e-08	5.634425e+01	1.355221e+03
1.570000e-06	8.007307e-06	2.064290e-08	5.650429e+01	1.355981e+03
1.580000e-06	8.027191e-06	2.065334e-08	5.664460e+01	1.356671e+03
1.590000e-06	8.044154e-06	2.066106e-08	5.676430e+01	1.357265e+03
1.600000e-06	8.058115e-06	2.066768e-08	5.686282e+01	1.357727e+03
1.610000e-06	8.068922e-06	2.067432e-08	5.693908e+01	1.358023e+03
1.620000e-06	8.076584e-06	2.067904e-08	5.699315e+01	1.358135e+03
1.630000e-06	8.081421e-06	2.068199e-08	5.702728e+01	1.358067e+03
1.640000e-06	8.083436e-06	2.068451e-08	5.704150e+01	1.357845e+03
1.650000e-06	8.082662e-06	2.068122e-08	5.703604e+01	1.357506e+03
1.660000e-06	8.079206e-06	2.066824e-08	5.701165e+01	1.357089e+03
1.670000e-06	8.072955e-06	2.066139e-08	5.696754e+01	1.356619e+03
1.680000e-06	8.064030e-06	2.065243e-08	5.690456e+01	1.356101e+03
1.690000e-06	8.052392e-06	2.064169e-08	5.682244e+01	1.355516e+03
1.700000e-06	8.037856e-06	2.063829e-08	5.671986e+01	1.354828e+03
1.710000e-06	8.020762e-06	2.064570e-08	5.659924e+01	1.354000e+03
1.720000e-06	8.001372e-06	2.064496e-08	5.646241e+01	1.353006e+03
1.730000e-06	7.979371e-06	2.052402e-08	5.630716e+01	1.351841e+03
1.740000e-06	7.954154e-06	2.049794e-08	5.612921e+01	1.350532e+03
1.750000e-06	7.925211e-06	2.053863e-08	5.592498e+01	1.349125e+03
1.760000e-06	7.892825e-06	2.049741e-08	5.569644e+01	1.347681e+03
1.770000e-06	7.857916e-06	2.047979e-08	5.545010e+01	1.346252e+03
1.780000e-06	7.820710e-06	2.058967e-08	5.518755e+01	1.344863e+03
1.790000e-06	7.781313e-06	2.054342e-08	5.490954e+01	1.343508e+03
1.800000e-06	7.739933e-06	2.037339e-08	5.461754e+01	1.342137e+03
1.810000e-06	7.695951e-06	2.048490e-08	5.430717e+01	1.340676e+03
1.820000e-06	7.649211e-06	2.034415e-08	5.397735e+01	1.339035e+03
1.830000e-06	7.599769e-06	2.036464e-08	5.362846e+01	1.337138e+03
1.840000e-06	7.547220e-06	2.043696e-08	5.325764e+01	1.334937e+03
1.850000e-06	7.491740e-06	2.033459e-08	5.286614e+01	1.332425e+03
1.860000e-06	7.433570e-06	2.041694e-08	5.245567e+01	1.329640e+03
1.870000e-06	7.372737e-06	2.019907e-08	5.202639e+01	1.326650e+03
1.880000e-06	7.309179e-06	2.017150e-08	5.157789e+01	1.323535e+03
1.890000e-06	7.242829e-06	2.015414e-08	5.110968e+01	1.320367e+03
1.900000e-06	7.173690e-06	2.006029e-08	5.062179e+01	1.317186e+03
1.910000e-06	7.101644e-06	2.011577e-08	5.011340e+01	1.313995e+03
1.920000e-06	7.026817e-06	2.000354e-08	4.958537e+01	1.310756e+03
1.930000e-06	6.949265e-06	1.999990e-08	4.903812e+01	1.307407e+03
1.940000e-06	6.869031e-06	1.986483e-08	4.847194e+01	1.303879e+03
1.950000e-06	6.786289e-06	1.980984e-08	4.788806e+01	1.300118e+03
1.960000e-06	6.700971e-06	1.979729e-08	4.728601e+01	1.296097e+03
1.970000e-06	6.613121e-06	1.968632e-08	4.666609e+01	1.291830e+03
1.980000e-06	6.522957e-06	1.967394e-08	4.602984e+01	1.287362e+03
1.990000e-06	6.430536e-06	1.956128e-08	4.537766e+01	1.282754e+03
2.000000e-06	6.335794e-06	1.951922e-08	4.470911e+01	1.278068e+03
2.010000e-06	6.238837e-06	1.942658e-08	4.402492e+01	1.273342e+03
2.020000e-06	6.139660e-06	1.936810e-08	4.332507e+01	1.268584e+03
2.030000e-06	6.038233e-06	1.929840e-08	4.260934e+01	1.263765e+03
2.040000e-06	5.934675e-06	1.921434e-08	4.187857e+01	1.258833e+03
2.050000e-06	5.829085e-06	1.914839e-08	4.113347e+01	1.253724e+03
2.060000e-06	5.721490e-06	1.904642e-08	4.037422e+01	1.248384e+03
2.070000e-06	5.611808e-06	1.896638e-08	3.960024e+01	1.242787e+03
2.080000e-06	5.500118e-06	1.885451e-08	3.881208e+01	1.236936e+03
2.090000e-06	5.386336e-06	1.878012e-08	3.800917e+01	1.230869e+03
2.100000e-06	5.270468e-06	1.868878e-08	3.719154e+01	1.224638e+03
2.110000e-06	5.152659e-06	1.861036e-08	3.636021e+01	1.218296e+03
2.120000e-06	5.032894e-06	1.851408e-08	3.551508e+01	1.211876e+03
2.130000e-06	4.911253e-06	1.842034e-08	3.465671e+01	1.205381e+03
2.140000e-06	4.787851e-06	1.830823e-08	3.378591e+01	1.198780e+03
2.150000e-06	4.662745e-06	1.819235e-08	3.290308e+01	1.192016e+03
2.160000e-06	4.535910e-06	1.808542e-08	3.200806e+01	1.185023e+03
2.170000e-06	4.407410e-06	1.797621e-08	3.110129e+01	1.177744e+03
2.180000e-06	4.277352e-06	1.786441e-08	3.018353e+01	1.170149e+03
2.190000e-06	4.145772e-06	1.773715e-08	2.925502e+01	1.162241e+03
2.200000e-06	4.012627e-06	1.761710e-08	2.831547e+01	1.154055e+03
2.210000e-06	3.877994e-06	1.749021e-08	2.736542e+01	1.145645e+03
2.220000e-06	3.741835e-06	1.737117e-08	2.640460e+01	1.137065e+03
2.230000e-06	3.604186e-06	1.724488e-08	2.543327e+01	1.128348e+03
2.240000e-06	3.465149e-06	1.711780e-08	2.445214e+01	1.119496e+03
2.250000e-06	3.324808e-06	1.697712e-08	2.346181e+01	1.110472e+03
2.260000e-06	3.183177e-06	1.682712e-08	2.246238e+01	1.101211e+03
2.270000e-06	3.040236e-06	1.667196e-08	2.145370e+01	1.091638e+03
2.280000e-06	2.896147e-06	1.651964e-08	2.043692e+01	1.081683e+03
2.290000e-06	2.751033e-06	1.636903e-08	1.941292e+01	1.071308e+03
2.300000e-06	2.604984e-06	1.621207e-08	1.838231e+01	1.060507e+03
2.310000e-06	2.457998e-06	1.604621e-08	1.734509e+01	1.049309e+03
2.320000e-06	2.310206e-06	1.586952e-08	1.630218e+01	1.037763e+03
2.330000e-06	2.161718e-06	1.568799e-08	1.525436e+01	1.025916e+03
2.340000e-06	2.012475e-06	1.550013e-08	1.420122e+01	1.013795e+03
2.350000e-06	1.862463e-06	1.530907e-08	1.314264e+01	1.001388e+03
2.360000e-06	1.711852e-06	1.511356e-08	1.207984e+01	9.886438e+02
2.370000e-06	1.560825e-06	1.490943e-08	1.101411e+01	9.754818e+02
2.380000e-06	1.409371e-06	1.469684e-08	9.945354e+00	9.618105e+02
2.390000e-06	1.257356e-06	1.447809e-08	8.872645e+00	9.475513e+02
2.400000e-06	1.104771e-06	1.425410e-08	7.795914e+00	9.326573e+02
2.410000e-06	9.517700e-07	1.402348e-08	6.716252e+00	9.171210e+02
2.420000e-06	7.984711e-07	1.378397e-08	5.634484e+00	9.009674e+02
2.430000e-06	6.449247e-07	1.353335e-08	4.550970e+00	8.842332e+02
2.440000e-06	4.912068e-07	1.326837e-08	3.466245e+00	8.669381e+02
2.450000e-06	3.373217e-07	1.299139e-08	2.380342e+00	8.490566e+02
2.460000e-06	1.833027e-07	1.270329e-08	1.293492e+00	8.305007e+02
2.470000e-06	2.922891e-08	1.240394e-08	2.062565e-01	8.111178e+02
2.480000e-06	-1.248544e-07	1.209016e-08	-8.810464e-01	7.907074e+02
2.490000e-06	-2.789306e-07	1.175865e-08	-1.968299e+00	7.690501e+02
2.500000e-06	-4.329476e-07	1.140955e-08	-3.055134e+00	7.459395e+02
2.510000e-06	-5.868255e-07	1.103828e-08	-4.140987e+00	7.212043e+02
2.520000e-06	-7.405313e-07	1.064143e-08	-5.225627e+00	6.947092e+02
2.530000e-06	-8.940130e-07	1.021446e-08	-6.308684e+00	6.663285e+02
2.540000e-06	-1.047228e-06	9.752903e-09	-7.389862e+00	6.358945e+02
2.550000e-06	-1.200095e-06	9.251351e-09	-8.468581e+00	6.031325e+02
2.560000e-06	-1.352547e-06	8.702259e-09	-9.544370e+00	5.675989e+02
2.570000e-06	-1.504471e-06	8.098569e-09	-1.061644e+01	5.286457e+02
2.580000e-06	-1.655777e-06	7.432991e-09	-1.168414e+01	4.854288e+02
2.590000e-06	-1.806480e-06	6.692919e-09	-1.274759e+01	4.369724e+02
2.600000e-06	-1.956532e-06	5.863701e-09	-1.380644e+01	3.822869e+02
2.610000e-06	-2.105828e-06	4.935106e-09	-1.485997e+01	3.205277e+02
2.620000e-06	-2.254339e-06	3.895253e-09	-1.590795e+01	2.511676e+02
2.630000e-06	-2.401992e-06	2.735237e-09	-1.694988e+01	1.741509e+02
2.640000e-06	-2.548718e-06	1.457417e-09	-1.798526e+01	8.999659e+01
2.650000e-06	-2.694525e-06	7.797651e-11	-1.901416e+01	-1.744998e-01
2.660000e-06	-2.839362e-06	-1.376417e-09	-2.003622e+01	-9.469964e+01
2.670000e-06	-2.983085e-06	-2.867999e-09	-2.105041e+01	-1.915163e+02
2.680000e-06	-3.125555e-06	-4.356771e-09	-2.205577e+01	-2.883648e+02
2.690000e-06	-3.266750e-06	-5.806135e-09	-2.305212e+01	-3.830187e+02
2.700000e-06	-3.406723e-06	-7.187758e-09	-2.403985e+01	-4.735041e+02
2.710000e-06	-3.545415e-06	-8.479966e-09	-2.501854e+01	-5.582726e+02
2.720000e-06	-3.682756e-06	-9.668296e-09	-2.598770e+01	-6.363026e+02
2.730000e-06	-3.818733e-06	-1.074899e-08	-2.694724e+01	-7.071181e+02
2.740000e-06	-3.953306e-06	-1.172541e-08	-2.789686e+01	-7.707315e+02
2.750000e-06	-4.086465e-06	-1.260488e-08	-2.883651e+01	-8.275287e+02
2.760000e-06	-4.218180e-06	-1.339279e-08	-2.976597e+01	-8.781263e+02
2.770000e-06	-4.348454e-06	-1.409589e-08	-3.068526e+01	-9.232306e+02
2.780000e-06	-4.477279e-06	-1.472071e-08	-3.159433e+01	-9.635238e+02
2.790000e-06	-4.604541e-06	-1.527409e-08	-3.249236e+01	-9.995930e+02
2.800000e-06	-4.730169e-06	-1.576590e-08	-3.337887e+01	-1.031906e+03
2.810000e-06	-4.854185e-06	-1.620388e-08	-3.425400e+01	-1.060828e+03
2.820000e-06	-4.976489e-06	-1.659452e-08	-3.511705e+01	-1.086658e+03
2.830000e-06	-5.096979e-06	-1.694390e-08	-3.596730e+01	-1.109672e+03
2.840000e-06	-5.215564e-06	-1.725902e-08	-3.680410e+01	-1.130161e+03
2.850000e-06	-5.332082e-06	-1.754490e-08	-3.762632e+01	-1.148441e+03
2.860000e-06	-5.446430e-06	-1.780449e-08	-3.843323e+01	-1.164847e+03
2.870000e-06	-5.558564e-06	-1.803984e-08	-3.922451e+01	-1.179703e+03
2.880000e-06	-5.668557e-06	-1.825281e-08	-4.000069e+01	-1.193295e+03
2.890000e-06	-5.776542e-06	-1.844585e-08	-4.076269e+01	-1.205845e+03
2.900000e-06	-5.882557e-06	-1.862170e-08	-4.151080e+01	-1.217493e+03
2.910000e-06	-5.986411e-06	-1.878270e-08	-4.224365e+01	-1.228307e+03
2.920000e-06	-6.087947e-06	-1.893119e-08	-4.296015e+01	-1.238304e+03
2.930000e-06	-6.187227e-06	-1.906956e-08	-4.366073e+01	-1.247479e+03
2.940000e-06	-6.284311e-06	-1.919712e-08	-4.434581e+01	-1.255836e+03
