# Temperatura_=_91.09
# Concentracion g/m^3_=_26700.0
# C_Vs_to_Am_M_A/Vsm_=_65563218390.804596
# pendiente_HvsI_1/m_=_3716.3
# ordenada_HvsI_A/m_=_1297.0
# frecuencia_Hz_=_302528.02028139017

Tiempo_(s)	Campo_(V.s)	Magnetizacion_(V.s)	Campo_(kA/m)	Magnetizacion_(A/m)
0.000000e+00	-8.042946e-06	-2.872597e-08	-5.684899e+01	-1.880137e+03
1.000000e-08	-8.038848e-06	-2.871974e-08	-5.682002e+01	-1.879475e+03
2.000000e-08	-8.032193e-06	-2.871020e-08	-5.677299e+01	-1.878771e+03
3.000000e-08	-8.022847e-06	-2.870022e-08	-5.670693e+01	-1.878044e+03
4.000000e-08	-8.010637e-06	-2.868664e-08	-5.662063e+01	-1.877264e+03
5.000000e-08	-7.995453e-06	-2.866668e-08	-5.651330e+01	-1.876372e+03
6.000000e-08	-7.977487e-06	-2.864122e-08	-5.638632e+01	-1.875292e+03
7.000000e-08	-7.957201e-06	-2.860724e-08	-5.624293e+01	-1.873961e+03
8.000000e-08	-7.934414e-06	-2.862323e-08	-5.608187e+01	-1.872347e+03
9.000000e-08	-7.908460e-06	-2.862873e-08	-5.589842e+01	-1.870470e+03
1.000000e-07	-7.879224e-06	-2.856820e-08	-5.569177e+01	-1.868389e+03
1.100000e-07	-7.847072e-06	-2.852349e-08	-5.546452e+01	-1.866196e+03
1.200000e-07	-7.812161e-06	-2.849226e-08	-5.521776e+01	-1.863983e+03
1.300000e-07	-7.774680e-06	-2.842879e-08	-5.495284e+01	-1.861817e+03
1.400000e-07	-7.734978e-06	-2.834233e-08	-5.467221e+01	-1.859721e+03
1.500000e-07	-7.693060e-06	-2.836200e-08	-5.437593e+01	-1.857661e+03
1.600000e-07	-7.648535e-06	-2.836241e-08	-5.406122e+01	-1.855555e+03
1.700000e-07	-7.601203e-06	-2.823010e-08	-5.372667e+01	-1.853292e+03
1.800000e-07	-7.550928e-06	-2.824071e-08	-5.337132e+01	-1.850765e+03
1.900000e-07	-7.497630e-06	-2.818034e-08	-5.299460e+01	-1.847890e+03
2.000000e-07	-7.441488e-06	-2.808116e-08	-5.259778e+01	-1.844634e+03
2.100000e-07	-7.382617e-06	-2.806192e-08	-5.218167e+01	-1.841015e+03
2.200000e-07	-7.321131e-06	-2.799518e-08	-5.174707e+01	-1.837094e+03
2.300000e-07	-7.257020e-06	-2.796856e-08	-5.129392e+01	-1.832952e+03
2.400000e-07	-7.190128e-06	-2.787108e-08	-5.082112e+01	-1.828669e+03
2.500000e-07	-7.120500e-06	-2.780852e-08	-5.032897e+01	-1.824293e+03
2.600000e-07	-7.048031e-06	-2.774305e-08	-4.981675e+01	-1.819831e+03
2.700000e-07	-6.972750e-06	-2.767183e-08	-4.928465e+01	-1.815253e+03
2.800000e-07	-6.894759e-06	-2.759651e-08	-4.873340e+01	-1.810497e+03
2.900000e-07	-6.814033e-06	-2.750355e-08	-4.816281e+01	-1.805497e+03
3.000000e-07	-6.730799e-06	-2.744511e-08	-4.757450e+01	-1.800207e+03
3.100000e-07	-6.645275e-06	-2.734575e-08	-4.697000e+01	-1.794611e+03
3.200000e-07	-6.557458e-06	-2.726134e-08	-4.634930e+01	-1.788734e+03
3.300000e-07	-6.467212e-06	-2.717478e-08	-4.571142e+01	-1.782633e+03
3.400000e-07	-6.374619e-06	-2.707973e-08	-4.505696e+01	-1.776376e+03
3.500000e-07	-6.279783e-06	-2.698621e-08	-4.438664e+01	-1.770021e+03
3.600000e-07	-6.182576e-06	-2.688214e-08	-4.369956e+01	-1.763598e+03
3.700000e-07	-6.083066e-06	-2.678026e-08	-4.299621e+01	-1.757094e+03
3.800000e-07	-5.981427e-06	-2.667734e-08	-4.227780e+01	-1.750457e+03
3.900000e-07	-5.877667e-06	-2.657885e-08	-4.154441e+01	-1.743616e+03
4.000000e-07	-5.771810e-06	-2.646450e-08	-4.079619e+01	-1.736496e+03
4.100000e-07	-5.663966e-06	-2.634885e-08	-4.003393e+01	-1.729046e+03
4.200000e-07	-5.554202e-06	-2.623510e-08	-3.925810e+01	-1.721252e+03
4.300000e-07	-5.442340e-06	-2.611580e-08	-3.846744e+01	-1.713144e+03
4.400000e-07	-5.328312e-06	-2.598677e-08	-3.766147e+01	-1.704782e+03
4.500000e-07	-5.212274e-06	-2.585736e-08	-3.684129e+01	-1.696237e+03
4.600000e-07	-5.094298e-06	-2.572710e-08	-3.600742e+01	-1.687569e+03
4.700000e-07	-4.974435e-06	-2.559157e-08	-3.516020e+01	-1.678799e+03
4.800000e-07	-4.852740e-06	-2.545357e-08	-3.430004e+01	-1.669907e+03
4.900000e-07	-4.729320e-06	-2.531394e-08	-3.342768e+01	-1.660830e+03
5.000000e-07	-4.604209e-06	-2.516939e-08	-3.254338e+01	-1.651479e+03
5.100000e-07	-4.477381e-06	-2.501506e-08	-3.164694e+01	-1.641770e+03
5.200000e-07	-4.348901e-06	-2.485708e-08	-3.073881e+01	-1.631642e+03
5.300000e-07	-4.218810e-06	-2.469683e-08	-2.981931e+01	-1.621081e+03
5.400000e-07	-4.087138e-06	-2.453651e-08	-2.888863e+01	-1.610119e+03
5.500000e-07	-3.953994e-06	-2.436585e-08	-2.794754e+01	-1.598826e+03
5.600000e-07	-3.819416e-06	-2.419069e-08	-2.699632e+01	-1.587283e+03
5.700000e-07	-3.683343e-06	-2.400902e-08	-2.603453e+01	-1.575552e+03
5.800000e-07	-3.545771e-06	-2.382331e-08	-2.506214e+01	-1.563656e+03
5.900000e-07	-3.406766e-06	-2.363274e-08	-2.407963e+01	-1.551564e+03
6.000000e-07	-3.266379e-06	-2.343673e-08	-2.308736e+01	-1.539194e+03
6.100000e-07	-3.124621e-06	-2.323801e-08	-2.208539e+01	-1.526437e+03
6.200000e-07	-2.981552e-06	-2.303423e-08	-2.107415e+01	-1.513186e+03
6.300000e-07	-2.837328e-06	-2.282435e-08	-2.005474e+01	-1.499366e+03
6.400000e-07	-2.692077e-06	-2.260597e-08	-1.902809e+01	-1.484956e+03
6.500000e-07	-2.545800e-06	-2.238296e-08	-1.799418e+01	-1.469992e+03
6.600000e-07	-2.398671e-06	-2.215030e-08	-1.695424e+01	-1.454556e+03
6.700000e-07	-2.250853e-06	-2.191109e-08	-1.590944e+01	-1.438739e+03
6.800000e-07	-2.102308e-06	-2.166509e-08	-1.485949e+01	-1.422612e+03
6.900000e-07	-1.953086e-06	-2.141137e-08	-1.380477e+01	-1.406192e+03
7.000000e-07	-1.803218e-06	-2.115044e-08	-1.274547e+01	-1.389425e+03
7.100000e-07	-1.652718e-06	-2.088247e-08	-1.168171e+01	-1.372192e+03
7.200000e-07	-1.501667e-06	-2.060735e-08	-1.061405e+01	-1.354339e+03
7.300000e-07	-1.350142e-06	-2.032054e-08	-9.543048e+00	-1.335711e+03
7.400000e-07	-1.198209e-06	-2.002366e-08	-8.469156e+00	-1.316192e+03
7.500000e-07	-1.045922e-06	-1.971365e-08	-7.392765e+00	-1.295737e+03
7.600000e-07	-8.932743e-07	-1.939219e-08	-6.313823e+00	-1.274370e+03
7.700000e-07	-7.402346e-07	-1.905672e-08	-5.232112e+00	-1.252168e+03
7.800000e-07	-5.868892e-07	-1.870786e-08	-4.148238e+00	-1.229216e+03
7.900000e-07	-4.333497e-07	-1.834727e-08	-3.062993e+00	-1.205554e+03
8.000000e-07	-2.796293e-07	-1.797036e-08	-1.976470e+00	-1.181136e+03
8.100000e-07	-1.257222e-07	-1.757857e-08	-8.886271e-01	-1.155802e+03
8.200000e-07	2.831371e-08	-1.716811e-08	2.001264e-01	-1.129290e+03
8.300000e-07	1.824028e-07	-1.673600e-08	1.289256e+00	-1.101267e+03
8.400000e-07	3.364912e-07	-1.627740e-08	2.378380e+00	-1.071392e+03
8.500000e-07	4.904991e-07	-1.579024e-08	3.466936e+00	-1.039367e+03
8.600000e-07	6.442895e-07	-1.527256e-08	4.553955e+00	-1.004974e+03
8.700000e-07	7.977815e-07	-1.471944e-08	5.638864e+00	-9.680696e+02
8.800000e-07	9.509297e-07	-1.412464e-08	6.721343e+00	-9.285326e+02
8.900000e-07	1.103710e-06	-1.348201e-08	7.801218e+00	-8.861688e+02
9.000000e-07	1.256135e-06	-1.278373e-08	8.878587e+00	-8.405990e+02
9.100000e-07	1.408153e-06	-1.201961e-08	9.953081e+00	-7.911567e+02
9.200000e-07	1.559670e-06	-1.117647e-08	1.102403e+01	-7.368337e+02
9.300000e-07	1.710622e-06	-1.023790e-08	1.209098e+01	-6.763025e+02
9.400000e-07	1.860957e-06	-9.187055e-09	1.315358e+01	-6.080309e+02
9.500000e-07	2.010610e-06	-8.000650e-09	1.421135e+01	-5.304823e+02
9.600000e-07	2.159524e-06	-6.659643e-09	1.526391e+01	-4.423757e+02
9.700000e-07	2.307631e-06	-5.149796e-09	1.631075e+01	-3.429594e+02
9.800000e-07	2.454939e-06	-3.466353e-09	1.735195e+01	-2.322464e+02
9.900000e-07	2.601406e-06	-1.617273e-09	1.838721e+01	-1.111589e+02
1.000000e-06	2.746888e-06	3.740719e-10	1.941550e+01	1.845369e+01
1.010000e-06	2.891313e-06	2.461615e-09	2.043632e+01	1.539357e+02
1.020000e-06	3.034629e-06	4.585965e-09	2.144930e+01	2.920730e+02
1.030000e-06	3.176762e-06	6.685429e-09	2.245393e+01	4.294266e+02
1.040000e-06	3.317649e-06	8.707701e-09	2.344974e+01	5.626973e+02
1.050000e-06	3.457206e-06	1.061183e-08	2.443616e+01	6.890583e+02
1.060000e-06	3.595383e-06	1.237191e-08	2.541281e+01	8.064031e+02
1.070000e-06	3.732214e-06	1.397933e-08	2.637996e+01	9.134714e+02
1.080000e-06	3.867639e-06	1.543194e-08	2.733717e+01	1.009842e+03
1.090000e-06	4.001630e-06	1.673520e-08	2.828424e+01	1.095811e+03
1.100000e-06	4.134223e-06	1.789740e-08	2.922143e+01	1.172185e+03
1.110000e-06	4.265341e-06	1.893150e-08	3.014820e+01	1.240046e+03
1.120000e-06	4.394922e-06	1.985243e-08	3.106410e+01	1.300530e+03
1.130000e-06	4.522948e-06	2.067482e-08	3.196901e+01	1.354660e+03
1.140000e-06	4.649407e-06	2.140867e-08	3.286284e+01	1.403256e+03
1.150000e-06	4.774328e-06	2.206214e-08	3.374581e+01	1.446919e+03
1.160000e-06	4.897607e-06	2.264480e-08	3.461717e+01	1.486079e+03
1.170000e-06	5.019084e-06	2.316312e-08	3.547579e+01	1.521073e+03
1.180000e-06	5.138714e-06	2.362469e-08	3.632136e+01	1.552225e+03
1.190000e-06	5.256467e-06	2.403925e-08	3.715366e+01	1.579906e+03
1.200000e-06	5.372267e-06	2.441435e-08	3.797215e+01	1.604548e+03
1.210000e-06	5.485997e-06	2.475533e-08	3.877601e+01	1.626632e+03
1.220000e-06	5.597648e-06	2.506592e-08	3.956518e+01	1.646637e+03
1.230000e-06	5.707316e-06	2.534885e-08	4.034034e+01	1.664986e+03
1.240000e-06	5.815001e-06	2.560688e-08	4.110147e+01	1.682004e+03
1.250000e-06	5.920575e-06	2.584238e-08	4.184769e+01	1.697888e+03
1.260000e-06	6.023954e-06	2.606088e-08	4.257839e+01	1.712724e+03
1.270000e-06	6.125105e-06	2.626246e-08	4.329335e+01	1.726516e+03
1.280000e-06	6.223997e-06	2.644824e-08	4.399233e+01	1.739235e+03
1.290000e-06	6.320520e-06	2.662103e-08	4.467457e+01	1.750869e+03
1.300000e-06	6.414689e-06	2.678125e-08	4.534018e+01	1.761459e+03
1.310000e-06	6.506598e-06	2.693128e-08	4.598981e+01	1.771105e+03
1.320000e-06	6.596147e-06	2.707298e-08	4.662275e+01	1.779958e+03
1.330000e-06	6.683315e-06	2.720728e-08	4.723887e+01	1.788189e+03
1.340000e-06	6.768186e-06	2.733278e-08	4.783876e+01	1.795951e+03
1.350000e-06	6.850690e-06	2.744810e-08	4.842191e+01	1.803350e+03
1.360000e-06	6.930650e-06	2.755406e-08	4.898709e+01	1.810427e+03
1.370000e-06	7.008086e-06	2.765098e-08	4.953442e+01	1.817166e+03
1.380000e-06	7.082922e-06	2.773985e-08	5.006337e+01	1.823509e+03
1.390000e-06	7.155037e-06	2.782289e-08	5.057309e+01	1.829395e+03
1.400000e-06	7.224642e-06	2.790233e-08	5.106507e+01	1.834786e+03
1.410000e-06	7.291779e-06	2.797833e-08	5.153961e+01	1.839690e+03
1.420000e-06	7.356243e-06	2.805081e-08	5.199525e+01	1.844163e+03
1.430000e-06	7.418167e-06	2.811889e-08	5.243294e+01	1.848299e+03
1.440000e-06	7.477635e-06	2.818419e-08	5.285327e+01	1.852203e+03
1.450000e-06	7.534401e-06	2.824625e-08	5.325450e+01	1.855961e+03
1.460000e-06	7.588373e-06	2.830385e-08	5.363598e+01	1.859618e+03
1.470000e-06	7.639309e-06	2.835610e-08	5.399601e+01	1.863166e+03
1.480000e-06	7.687154e-06	2.840251e-08	5.433419e+01	1.866549e+03
1.490000e-06	7.732268e-06	2.844494e-08	5.465306e+01	1.869687e+03
1.500000e-06	7.774667e-06	2.848475e-08	5.495275e+01	1.872498e+03
1.510000e-06	7.814222e-06	2.852319e-08	5.523233e+01	1.874931e+03
1.520000e-06	7.851099e-06	2.855910e-08	5.549298e+01	1.876977e+03
1.530000e-06	7.885239e-06	2.859111e-08	5.573429e+01	1.878678e+03
1.540000e-06	7.916508e-06	2.861829e-08	5.595531e+01	1.880112e+03
1.550000e-06	7.945026e-06	2.864076e-08	5.615688e+01	1.881369e+03
1.560000e-06	7.970652e-06	2.865902e-08	5.633800e+01	1.882527e+03
1.570000e-06	7.993325e-06	2.867488e-08	5.649826e+01	1.883628e+03
1.580000e-06	8.013272e-06	2.868937e-08	5.663925e+01	1.884668e+03
1.590000e-06	8.030376e-06	2.870140e-08	5.676014e+01	1.885600e+03
1.600000e-06	8.044439e-06	2.871131e-08	5.685954e+01	1.886356e+03
1.610000e-06	8.055345e-06	2.871928e-08	5.693663e+01	1.886865e+03
1.620000e-06	8.063132e-06	2.872391e-08	5.699167e+01	1.887082e+03
1.630000e-06	8.068092e-06	2.872563e-08	5.702673e+01	1.887002e+03
1.640000e-06	8.070182e-06	2.872658e-08	5.704150e+01	1.886663e+03
1.650000e-06	8.069414e-06	2.872318e-08	5.703607e+01	1.886131e+03
1.660000e-06	8.066041e-06	2.871328e-08	5.701223e+01	1.885486e+03
1.670000e-06	8.059973e-06	2.870467e-08	5.696934e+01	1.884788e+03
1.680000e-06	8.051202e-06	2.869300e-08	5.690735e+01	1.884065e+03
1.690000e-06	8.039711e-06	2.867806e-08	5.682612e+01	1.883301e+03
1.700000e-06	8.025326e-06	2.866622e-08	5.672445e+01	1.882442e+03
1.710000e-06	8.008320e-06	2.865906e-08	5.660425e+01	1.881415e+03
1.720000e-06	7.989009e-06	2.864515e-08	5.646775e+01	1.880148e+03
1.730000e-06	7.967150e-06	2.855428e-08	5.631325e+01	1.878604e+03
1.740000e-06	7.942055e-06	2.852424e-08	5.613587e+01	1.876787e+03
1.750000e-06	7.913271e-06	2.853060e-08	5.593243e+01	1.874747e+03
1.760000e-06	7.881075e-06	2.849557e-08	5.570485e+01	1.872571e+03
1.770000e-06	7.846309e-06	2.847459e-08	5.545912e+01	1.870353e+03
1.780000e-06	7.809270e-06	2.851291e-08	5.519733e+01	1.868170e+03
1.790000e-06	7.770019e-06	2.845660e-08	5.491990e+01	1.866056e+03
1.800000e-06	7.728705e-06	2.836008e-08	5.462788e+01	1.863991e+03
1.810000e-06	7.684848e-06	2.841549e-08	5.431789e+01	1.861904e+03
1.820000e-06	7.638269e-06	2.831831e-08	5.398866e+01	1.859689e+03
1.830000e-06	7.589008e-06	2.832905e-08	5.364047e+01	1.857235e+03
1.840000e-06	7.536713e-06	2.832727e-08	5.327085e+01	1.854451e+03
1.850000e-06	7.481441e-06	2.823582e-08	5.288017e+01	1.851289e+03
1.860000e-06	7.423486e-06	2.825049e-08	5.247053e+01	1.847754e+03
1.870000e-06	7.362908e-06	2.811418e-08	5.204236e+01	1.843899e+03
1.880000e-06	7.299544e-06	2.809236e-08	5.159449e+01	1.839803e+03
1.890000e-06	7.233328e-06	2.803523e-08	5.112646e+01	1.835547e+03
1.900000e-06	7.164360e-06	2.794292e-08	5.063898e+01	1.831190e+03
1.910000e-06	7.092561e-06	2.791397e-08	5.013150e+01	1.826750e+03
1.920000e-06	7.017959e-06	2.779575e-08	4.960420e+01	1.822204e+03
1.930000e-06	6.940577e-06	2.776216e-08	4.905725e+01	1.817496e+03
1.940000e-06	6.860553e-06	2.765085e-08	4.849163e+01	1.812562e+03
1.950000e-06	6.778014e-06	2.758295e-08	4.790822e+01	1.807345e+03
1.960000e-06	6.692894e-06	2.751736e-08	4.730658e+01	1.801822e+03
1.970000e-06	6.605289e-06	2.740327e-08	4.668737e+01	1.796010e+03
1.980000e-06	6.515338e-06	2.733179e-08	4.605158e+01	1.789956e+03
1.990000e-06	6.423132e-06	2.721282e-08	4.539986e+01	1.783730e+03
2.000000e-06	6.328660e-06	2.714302e-08	4.473211e+01	1.777394e+03
2.010000e-06	6.231982e-06	2.703554e-08	4.404877e+01	1.770986e+03
2.020000e-06	6.133052e-06	2.694445e-08	4.334951e+01	1.764503e+03
2.030000e-06	6.031774e-06	2.683471e-08	4.263367e+01	1.757904e+03
2.040000e-06	5.928343e-06	2.672494e-08	4.190260e+01	1.751120e+03
2.050000e-06	5.822922e-06	2.661747e-08	4.115746e+01	1.744074e+03
2.060000e-06	5.715560e-06	2.649409e-08	4.039861e+01	1.736707e+03
2.070000e-06	5.606186e-06	2.638445e-08	3.962553e+01	1.728997e+03
2.080000e-06	5.494724e-06	2.625662e-08	3.883770e+01	1.720960e+03
2.090000e-06	5.381139e-06	2.614066e-08	3.803486e+01	1.712653e+03
2.100000e-06	5.265532e-06	2.600952e-08	3.721773e+01	1.704146e+03
2.110000e-06	5.147932e-06	2.588883e-08	3.638651e+01	1.695502e+03
2.120000e-06	5.028341e-06	2.575367e-08	3.554122e+01	1.686757e+03
2.130000e-06	4.906925e-06	2.561996e-08	3.468303e+01	1.677898e+03
2.140000e-06	4.783779e-06	2.547319e-08	3.381261e+01	1.668873e+03
2.150000e-06	4.658910e-06	2.532801e-08	3.293002e+01	1.659597e+03
2.160000e-06	4.532295e-06	2.517946e-08	3.203508e+01	1.649983e+03
2.170000e-06	4.404038e-06	2.502549e-08	3.112854e+01	1.639961e+03
2.180000e-06	4.274196e-06	2.486853e-08	3.021079e+01	1.629505e+03
2.190000e-06	4.142774e-06	2.470543e-08	2.928187e+01	1.618636e+03
2.200000e-06	4.009780e-06	2.454297e-08	2.834185e+01	1.607417e+03
2.210000e-06	3.875281e-06	2.437130e-08	2.739118e+01	1.595927e+03
2.220000e-06	3.739299e-06	2.420156e-08	2.643004e+01	1.584237e+03
2.230000e-06	3.601911e-06	2.402331e-08	2.545895e+01	1.572381e+03
2.240000e-06	3.463194e-06	2.384091e-08	2.447848e+01	1.560342e+03
2.250000e-06	3.323132e-06	2.364833e-08	2.348849e+01	1.548049e+03
2.260000e-06	3.181756e-06	2.345038e-08	2.248923e+01	1.535398e+03
2.270000e-06	3.039104e-06	2.324488e-08	2.148093e+01	1.522278e+03
2.280000e-06	2.895271e-06	2.303576e-08	2.046429e+01	1.508602e+03
2.290000e-06	2.750402e-06	2.282256e-08	1.944034e+01	1.494337e+03
2.300000e-06	2.604625e-06	2.260282e-08	1.840996e+01	1.479503e+03
2.310000e-06	2.457934e-06	2.237543e-08	1.737312e+01	1.464174e+03
2.320000e-06	2.310408e-06	2.214078e-08	1.633038e+01	1.448443e+03
2.330000e-06	2.162179e-06	2.190025e-08	1.528267e+01	1.432388e+03
2.340000e-06	2.013237e-06	2.165118e-08	1.422992e+01	1.416041e+03
2.350000e-06	1.863557e-06	2.139120e-08	1.317196e+01	1.399368e+03
2.360000e-06	1.713239e-06	2.112152e-08	1.210948e+01	1.382263e+03
2.370000e-06	1.562445e-06	2.084398e-08	1.104364e+01	1.364579e+03
2.380000e-06	1.411230e-06	2.055887e-08	9.974831e+00	1.346155e+03
2.390000e-06	1.259485e-06	2.026643e-08	8.902268e+00	1.326865e+03
2.400000e-06	1.107198e-06	1.996613e-08	7.825872e+00	1.306642e+03
2.410000e-06	9.544821e-07	1.965497e-08	6.746451e+00	1.285496e+03
2.420000e-06	8.014270e-07	1.932942e-08	5.664630e+00	1.263492e+03
2.430000e-06	6.480964e-07	1.898769e-08	4.580862e+00	1.240719e+03
2.440000e-06	4.945327e-07	1.862902e-08	3.495446e+00	1.217233e+03
2.450000e-06	3.408182e-07	1.825515e-08	2.408965e+00	1.193013e+03
2.460000e-06	1.870061e-07	1.786550e-08	1.321793e+00	1.167927e+03
2.470000e-06	3.307773e-08	1.745929e-08	2.337994e-01	1.141737e+03
2.480000e-06	-1.209211e-07	1.703286e-08	-8.546924e-01	1.114122e+03
2.490000e-06	-2.748704e-07	1.658172e-08	-1.942834e+00	1.084739e+03
2.500000e-06	-4.287160e-07	1.610327e-08	-3.030242e+00	1.053273e+03
2.510000e-06	-5.824481e-07	1.559490e-08	-4.116848e+00	1.019486e+03
2.520000e-06	-7.359949e-07	1.505270e-08	-5.202145e+00	9.832190e+02
2.530000e-06	-8.893001e-07	1.447031e-08	-6.285733e+00	9.443518e+02
2.540000e-06	-1.042297e-06	1.384175e-08	-7.367141e+00	9.027192e+02
2.550000e-06	-1.194900e-06	1.315966e-08	-8.445769e+00	8.579990e+02
2.560000e-06	-1.347014e-06	1.241494e-08	-9.520941e+00	8.096038e+02
2.570000e-06	-1.498616e-06	1.159528e-08	-1.059249e+01	7.566123e+02
2.580000e-06	-1.649721e-06	1.068779e-08	-1.166053e+01	6.977698e+02
2.590000e-06	-1.800289e-06	9.676508e-09	-1.272477e+01	6.315795e+02
2.600000e-06	-1.950178e-06	8.539202e-09	-1.378421e+01	5.564832e+02
2.610000e-06	-2.099235e-06	7.257395e-09	-1.483777e+01	4.711099e+02
2.620000e-06	-2.247482e-06	5.811723e-09	-1.588561e+01	3.745511e+02
2.630000e-06	-2.394949e-06	4.190780e-09	-1.692793e+01	2.666109e+02
2.640000e-06	-2.541527e-06	2.395001e-09	-1.796397e+01	1.479770e+02
2.650000e-06	-2.687122e-06	4.415997e-10	-1.899306e+01	2.027300e+01
2.660000e-06	-2.831706e-06	-1.627273e-09	-2.001501e+01	-1.140282e+02
2.670000e-06	-2.975226e-06	-3.754153e-09	-2.102944e+01	-2.518234e+02
2.680000e-06	-3.117623e-06	-5.878360e-09	-2.203592e+01	-3.896957e+02
2.690000e-06	-3.258742e-06	-7.942217e-09	-2.303337e+01	-5.242774e+02
2.700000e-06	-3.398468e-06	-9.899992e-09	-2.402098e+01	-6.525964e+02
2.710000e-06	-3.536853e-06	-1.172166e-08	-2.499912e+01	-7.723493e+02
2.720000e-06	-3.673941e-06	-1.339047e-08	-2.596808e+01	-8.820594e+02
2.730000e-06	-3.809710e-06	-1.490408e-08	-2.692772e+01	-9.811037e+02
2.740000e-06	-3.944113e-06	-1.626696e-08	-2.787770e+01	-1.069615e+03
2.750000e-06	-4.077073e-06	-1.748730e-08	-2.881749e+01	-1.148295e+03
2.760000e-06	-4.208576e-06	-1.857532e-08	-2.974697e+01	-1.218178e+03
2.770000e-06	-4.338646e-06	-1.954397e-08	-3.066633e+01	-1.280406e+03
2.780000e-06	-4.467262e-06	-2.040501e-08	-3.157541e+01	-1.336041e+03
2.790000e-06	-4.594381e-06	-2.117094e-08	-3.247391e+01	-1.385957e+03
2.800000e-06	-4.719874e-06	-2.185597e-08	-3.336092e+01	-1.430810e+03
2.810000e-06	-4.843641e-06	-2.246904e-08	-3.423572e+01	-1.471063e+03
2.820000e-06	-4.965704e-06	-2.301524e-08	-3.509849e+01	-1.507071e+03
2.830000e-06	-5.086019e-06	-2.350074e-08	-3.594890e+01	-1.539154e+03
2.840000e-06	-5.204405e-06	-2.393701e-08	-3.678567e+01	-1.567666e+03
2.850000e-06	-5.320690e-06	-2.433467e-08	-3.760760e+01	-1.593025e+03
2.860000e-06	-5.434778e-06	-2.469445e-08	-3.841399e+01	-1.615705e+03
2.870000e-06	-5.546639e-06	-2.501805e-08	-3.920464e+01	-1.636188e+03
2.880000e-06	-5.656387e-06	-2.531087e-08	-3.998036e+01	-1.654919e+03
2.890000e-06	-5.764204e-06	-2.557747e-08	-4.074243e+01	-1.672248e+03
2.900000e-06	-5.870050e-06	-2.582204e-08	-4.149057e+01	-1.688405e+03
2.910000e-06	-5.973737e-06	-2.604941e-08	-4.222345e+01	-1.703502e+03
2.920000e-06	-6.075168e-06	-2.626092e-08	-4.294038e+01	-1.717559e+03
2.930000e-06	-6.174378e-06	-2.645570e-08	-4.364161e+01	-1.730551e+03
2.940000e-06	-6.271448e-06	-2.663587e-08	-4.432773e+01	-1.742457e+03
