# Temperatura_=_55.7
# Concentracion g/m^3_=_41000.0
# C_Vs_to_Am_M_A/Vsm_=_65563218390.804596
# pendiente_HvsI_1/m_=_3716.3
# ordenada_HvsI_A/m_=_1297.0
# frecuencia_Hz_=_302475.2797502166

Tiempo_(s)	Campo_(V.s)	Magnetizacion_(V.s)	Campo_(kA/m)	Magnetizacion_(A/m)
0.000000e+00	-8.033946e-06	-2.430581e-08	-5.688426e+01	-1.593012e+03
1.000000e-08	-8.031805e-06	-2.430957e-08	-5.686911e+01	-1.592873e+03
2.000000e-08	-8.026939e-06	-2.430638e-08	-5.683465e+01	-1.592223e+03
3.000000e-08	-8.019486e-06	-2.429399e-08	-5.678188e+01	-1.591156e+03
4.000000e-08	-8.009225e-06	-2.428474e-08	-5.670923e+01	-1.589863e+03
5.000000e-08	-7.996025e-06	-2.427221e-08	-5.661576e+01	-1.588573e+03
6.000000e-08	-7.979921e-06	-2.425588e-08	-5.650174e+01	-1.587482e+03
7.000000e-08	-7.961242e-06	-2.424056e-08	-5.636949e+01	-1.586698e+03
8.000000e-08	-7.940234e-06	-2.422907e-08	-5.622074e+01	-1.586211e+03
9.000000e-08	-7.916448e-06	-2.428546e-08	-5.605232e+01	-1.585901e+03
1.000000e-07	-7.889416e-06	-2.429614e-08	-5.586092e+01	-1.585585e+03
1.100000e-07	-7.859229e-06	-2.421356e-08	-5.564718e+01	-1.585070e+03
1.200000e-07	-7.826157e-06	-2.417336e-08	-5.541302e+01	-1.584224e+03
1.300000e-07	-7.790402e-06	-2.415435e-08	-5.515985e+01	-1.583006e+03
1.400000e-07	-7.752305e-06	-2.407463e-08	-5.489010e+01	-1.581480e+03
1.500000e-07	-7.712096e-06	-2.399880e-08	-5.460541e+01	-1.579782e+03
1.600000e-07	-7.669479e-06	-2.412560e-08	-5.430366e+01	-1.578072e+03
1.700000e-07	-7.624107e-06	-2.410196e-08	-5.398241e+01	-1.576472e+03
1.800000e-07	-7.576009e-06	-2.396594e-08	-5.364184e+01	-1.575019e+03
1.900000e-07	-7.524906e-06	-2.404499e-08	-5.328001e+01	-1.573649e+03
2.000000e-07	-7.470788e-06	-2.394016e-08	-5.289683e+01	-1.572211e+03
2.100000e-07	-7.414006e-06	-2.385293e-08	-5.249478e+01	-1.570517e+03
2.200000e-07	-7.354488e-06	-2.387341e-08	-5.207337e+01	-1.568399e+03
2.300000e-07	-7.292307e-06	-2.384409e-08	-5.163310e+01	-1.565773e+03
2.400000e-07	-7.227459e-06	-2.381859e-08	-5.117394e+01	-1.562665e+03
2.500000e-07	-7.159819e-06	-2.372424e-08	-5.069502e+01	-1.559211e+03
2.600000e-07	-7.089433e-06	-2.371868e-08	-5.019665e+01	-1.555618e+03
2.700000e-07	-7.016235e-06	-2.366912e-08	-4.967837e+01	-1.552100e+03
2.800000e-07	-6.940203e-06	-2.360473e-08	-4.914003e+01	-1.548811e+03
2.900000e-07	-6.861398e-06	-2.356448e-08	-4.858205e+01	-1.545793e+03
3.000000e-07	-6.779952e-06	-2.352005e-08	-4.800537e+01	-1.542960e+03
3.100000e-07	-6.696148e-06	-2.348002e-08	-4.741200e+01	-1.540121e+03
3.200000e-07	-6.610090e-06	-2.337646e-08	-4.680267e+01	-1.537034e+03
3.300000e-07	-6.521618e-06	-2.333868e-08	-4.617624e+01	-1.533482e+03
3.400000e-07	-6.430707e-06	-2.327474e-08	-4.553255e+01	-1.529342e+03
3.500000e-07	-6.337495e-06	-2.319720e-08	-4.487256e+01	-1.524621e+03
3.600000e-07	-6.242026e-06	-2.314225e-08	-4.419659e+01	-1.519460e+03
3.700000e-07	-6.144248e-06	-2.308068e-08	-4.350428e+01	-1.514089e+03
3.800000e-07	-6.044259e-06	-2.300482e-08	-4.279631e+01	-1.508752e+03
3.900000e-07	-5.942158e-06	-2.291744e-08	-4.207338e+01	-1.503634e+03
4.000000e-07	-5.837918e-06	-2.284895e-08	-4.133532e+01	-1.498796e+03
4.100000e-07	-5.731596e-06	-2.275244e-08	-4.058250e+01	-1.494152e+03
4.200000e-07	-5.623327e-06	-2.266748e-08	-3.981590e+01	-1.489491e+03
4.300000e-07	-5.513102e-06	-2.258999e-08	-3.903545e+01	-1.484537e+03
4.400000e-07	-5.400794e-06	-2.250863e-08	-3.824026e+01	-1.479036e+03
4.500000e-07	-5.286405e-06	-2.240228e-08	-3.743033e+01	-1.472833e+03
4.600000e-07	-5.170016e-06	-2.229906e-08	-3.660624e+01	-1.465922e+03
4.700000e-07	-5.051672e-06	-2.219904e-08	-3.576830e+01	-1.458446e+03
4.800000e-07	-4.931476e-06	-2.209092e-08	-3.491726e+01	-1.450656e+03
4.900000e-07	-4.809564e-06	-2.198303e-08	-3.405406e+01	-1.442829e+03
5.000000e-07	-4.685882e-06	-2.187390e-08	-3.317833e+01	-1.435171e+03
5.100000e-07	-4.560461e-06	-2.176007e-08	-3.229029e+01	-1.427752e+03
5.200000e-07	-4.433365e-06	-2.162328e-08	-3.139039e+01	-1.420468e+03
5.300000e-07	-4.304598e-06	-2.148801e-08	-3.047866e+01	-1.413070e+03
5.400000e-07	-4.174276e-06	-2.135207e-08	-2.955591e+01	-1.405229e+03
5.500000e-07	-4.042419e-06	-2.121847e-08	-2.862230e+01	-1.396640e+03
5.600000e-07	-3.909043e-06	-2.107543e-08	-2.767793e+01	-1.387111e+03
5.700000e-07	-3.774187e-06	-2.092518e-08	-2.672309e+01	-1.376628e+03
5.800000e-07	-3.637896e-06	-2.076263e-08	-2.575808e+01	-1.365362e+03
5.900000e-07	-3.500188e-06	-2.059237e-08	-2.478304e+01	-1.353608e+03
6.000000e-07	-3.360983e-06	-2.042308e-08	-2.379740e+01	-1.341691e+03
6.100000e-07	-3.220347e-06	-2.024695e-08	-2.280163e+01	-1.329854e+03
6.200000e-07	-3.078409e-06	-2.006228e-08	-2.179664e+01	-1.318158e+03
6.300000e-07	-2.935276e-06	-1.986301e-08	-2.078319e+01	-1.306450e+03
6.400000e-07	-2.791028e-06	-1.965653e-08	-1.976184e+01	-1.294384e+03
6.500000e-07	-2.645735e-06	-1.943683e-08	-1.873309e+01	-1.281514e+03
6.600000e-07	-2.499560e-06	-1.921178e-08	-1.769811e+01	-1.267425e+03
6.700000e-07	-2.352576e-06	-1.898036e-08	-1.665739e+01	-1.251852e+03
6.800000e-07	-2.204790e-06	-1.873747e-08	-1.561099e+01	-1.234768e+03
6.900000e-07	-2.056270e-06	-1.847831e-08	-1.455940e+01	-1.216391e+03
7.000000e-07	-1.907147e-06	-1.820046e-08	-1.350354e+01	-1.197105e+03
7.100000e-07	-1.757413e-06	-1.790934e-08	-1.244334e+01	-1.177326e+03
7.200000e-07	-1.607055e-06	-1.760261e-08	-1.137874e+01	-1.157334e+03
7.300000e-07	-1.456205e-06	-1.728106e-08	-1.031065e+01	-1.137139e+03
7.400000e-07	-1.304941e-06	-1.694032e-08	-9.239623e+00	-1.116412e+03
7.500000e-07	-1.153201e-06	-1.657978e-08	-8.165224e+00	-1.094528e+03
7.600000e-07	-1.000928e-06	-1.619297e-08	-7.087058e+00	-1.070692e+03
7.700000e-07	-8.482111e-07	-1.577755e-08	-6.005749e+00	-1.044147e+03
7.800000e-07	-6.951866e-07	-1.533048e-08	-4.922261e+00	-1.014362e+03
7.900000e-07	-5.419391e-07	-1.484922e-08	-3.837194e+00	-9.811758e+02
8.000000e-07	-3.885418e-07	-1.433043e-08	-2.751066e+00	-9.448001e+02
8.100000e-07	-2.350073e-07	-1.376575e-08	-1.663966e+00	-9.056830e+02
8.200000e-07	-8.132966e-08	-1.314949e-08	-5.758537e-01	-8.642369e+02
8.300000e-07	7.237457e-08	-1.247002e-08	5.124473e-01	-8.204949e+02
8.400000e-07	2.259940e-07	-1.171735e-08	1.600148e+00	-7.737881e+02
8.500000e-07	3.795549e-07	-1.087800e-08	2.687434e+00	-7.225457e+02
8.600000e-07	5.330889e-07	-9.939793e-09	3.774530e+00	-6.643035e+02
8.700000e-07	6.865011e-07	-8.879457e-09	4.860763e+00	-5.959614e+02
8.800000e-07	8.397010e-07	-7.658036e-09	5.945494e+00	-5.142736e+02
8.900000e-07	9.926702e-07	-6.226751e-09	7.028590e+00	-4.164946e+02
9.000000e-07	1.145276e-06	-4.524601e-09	8.109113e+00	-3.010536e+02
9.100000e-07	1.297397e-06	-2.496806e-09	9.186208e+00	-1.681118e+02
9.200000e-07	1.449062e-06	-1.875909e-10	1.026007e+01	-1.986795e+01
9.300000e-07	1.600232e-06	2.247330e-09	1.133043e+01	1.394765e+02
9.400000e-07	1.750836e-06	4.699304e-09	1.239677e+01	3.041128e+02
9.500000e-07	1.900806e-06	7.148696e-09	1.345864e+01	4.673254e+02
9.600000e-07	2.050107e-06	9.562369e-09	1.451576e+01	6.223730e+02
9.700000e-07	2.198643e-06	1.177736e-08	1.556747e+01	7.633880e+02
9.800000e-07	2.346274e-06	1.361841e-08	1.661276e+01	8.861243e+02
9.900000e-07	2.492952e-06	1.507296e-08	1.765132e+01	9.884160e+02
1.000000e-06	2.638703e-06	1.621727e-08	1.868331e+01	1.070273e+03
1.010000e-06	2.783516e-06	1.712576e-08	1.970865e+01	1.133614e+03
1.020000e-06	2.927258e-06	1.785702e-08	2.072642e+01	1.181712e+03
1.030000e-06	3.069879e-06	1.845781e-08	2.173624e+01	1.218478e+03
1.040000e-06	3.211305e-06	1.895744e-08	2.273761e+01	1.247751e+03
1.050000e-06	3.351441e-06	1.937972e-08	2.372984e+01	1.272709e+03
1.060000e-06	3.490273e-06	1.974514e-08	2.471284e+01	1.295527e+03
1.070000e-06	3.627815e-06	2.006876e-08	2.568670e+01	1.317295e+03
1.080000e-06	3.764011e-06	2.035948e-08	2.665104e+01	1.338188e+03
1.090000e-06	3.898738e-06	2.062101e-08	2.760497e+01	1.357792e+03
1.100000e-06	4.032070e-06	2.085769e-08	2.854903e+01	1.375500e+03
1.110000e-06	4.163998e-06	2.107382e-08	2.948314e+01	1.390849e+03
1.120000e-06	4.294392e-06	2.127024e-08	3.040639e+01	1.403737e+03
1.130000e-06	4.423313e-06	2.144837e-08	3.131922e+01	1.414478e+03
1.140000e-06	4.550688e-06	2.161486e-08	3.222110e+01	1.423712e+03
1.150000e-06	4.676448e-06	2.177371e-08	3.311153e+01	1.432207e+03
1.160000e-06	4.800645e-06	2.192583e-08	3.399091e+01	1.440645e+03
1.170000e-06	4.923189e-06	2.206836e-08	3.485859e+01	1.449443e+03
1.180000e-06	5.044021e-06	2.220026e-08	3.571414e+01	1.458671e+03
1.190000e-06	5.163056e-06	2.232537e-08	3.655696e+01	1.468075e+03
1.200000e-06	5.280156e-06	2.244243e-08	3.738608e+01	1.477204e+03
1.210000e-06	5.395177e-06	2.255201e-08	3.820049e+01	1.485570e+03
1.220000e-06	5.508061e-06	2.265480e-08	3.899976e+01	1.492820e+03
1.230000e-06	5.618911e-06	2.274927e-08	3.978463e+01	1.498841e+03
1.240000e-06	5.727853e-06	2.283715e-08	4.055600e+01	1.503794e+03
1.250000e-06	5.834764e-06	2.292049e-08	4.131298e+01	1.508054e+03
1.260000e-06	5.939445e-06	2.300263e-08	4.205417e+01	1.512090e+03
1.270000e-06	6.041923e-06	2.308297e-08	4.277977e+01	1.516324e+03
1.280000e-06	6.142209e-06	2.315997e-08	4.348984e+01	1.521013e+03
1.290000e-06	6.240146e-06	2.323308e-08	4.418329e+01	1.526188e+03
1.300000e-06	6.335684e-06	2.330142e-08	4.485974e+01	1.531657e+03
1.310000e-06	6.429021e-06	2.336429e-08	4.552061e+01	1.537090e+03
1.320000e-06	6.520167e-06	2.342414e-08	4.616597e+01	1.542126e+03
1.330000e-06	6.608939e-06	2.348453e-08	4.679452e+01	1.546491e+03
1.340000e-06	6.695291e-06	2.354478e-08	4.740594e+01	1.550082e+03
1.350000e-06	6.779346e-06	2.360190e-08	4.800108e+01	1.552988e+03
1.360000e-06	6.861015e-06	2.365576e-08	4.857934e+01	1.555456e+03
1.370000e-06	6.940122e-06	2.370726e-08	4.913945e+01	1.557809e+03
1.380000e-06	7.016686e-06	2.375546e-08	4.968156e+01	1.560338e+03
1.390000e-06	7.090639e-06	2.380019e-08	5.020519e+01	1.563214e+03
1.400000e-06	7.161980e-06	2.384283e-08	5.071032e+01	1.566441e+03
1.410000e-06	7.230834e-06	2.388261e-08	5.119784e+01	1.569862e+03
1.420000e-06	7.297103e-06	2.391888e-08	5.166706e+01	1.573213e+03
1.430000e-06	7.360712e-06	2.395526e-08	5.211744e+01	1.576213e+03
1.440000e-06	7.421814e-06	2.399184e-08	5.255007e+01	1.578651e+03
1.450000e-06	7.480389e-06	2.402581e-08	5.296481e+01	1.580457e+03
1.460000e-06	7.536272e-06	2.405646e-08	5.336049e+01	1.581715e+03
1.470000e-06	7.589375e-06	2.408445e-08	5.373648e+01	1.582639e+03
1.480000e-06	7.639391e-06	2.411057e-08	5.409062e+01	1.583499e+03
1.490000e-06	7.686355e-06	2.413344e-08	5.442315e+01	1.584542e+03
1.500000e-06	7.730672e-06	2.415388e-08	5.473694e+01	1.585907e+03
1.510000e-06	7.772260e-06	2.417269e-08	5.503140e+01	1.587595e+03
1.520000e-06	7.810979e-06	2.419076e-08	5.530555e+01	1.589464e+03
1.530000e-06	7.847032e-06	2.420792e-08	5.556082e+01	1.591281e+03
1.540000e-06	7.880335e-06	2.422375e-08	5.579662e+01	1.592800e+03
1.550000e-06	7.910785e-06	2.423789e-08	5.601222e+01	1.593835e+03
1.560000e-06	7.938492e-06	2.425021e-08	5.620840e+01	1.594322e+03
1.570000e-06	7.963274e-06	2.426083e-08	5.638387e+01	1.594338e+03
1.580000e-06	7.985102e-06	2.427005e-08	5.653842e+01	1.594074e+03
1.590000e-06	8.004222e-06	2.427831e-08	5.667380e+01	1.593777e+03
1.600000e-06	8.020440e-06	2.428420e-08	5.678863e+01	1.593669e+03
1.610000e-06	8.033633e-06	2.428903e-08	5.688205e+01	1.593885e+03
1.620000e-06	8.043705e-06	2.429426e-08	5.695336e+01	1.594424e+03
1.630000e-06	8.050663e-06	2.429802e-08	5.700263e+01	1.595161e+03
1.640000e-06	8.054846e-06	2.429990e-08	5.703225e+01	1.595878e+03
1.650000e-06	8.056153e-06	2.430190e-08	5.704150e+01	1.596341e+03
1.660000e-06	8.054601e-06	2.429981e-08	5.703051e+01	1.596366e+03
1.670000e-06	8.050418e-06	2.429004e-08	5.700089e+01	1.595876e+03
1.680000e-06	8.043525e-06	2.428508e-08	5.695209e+01	1.594927e+03
1.690000e-06	8.033975e-06	2.427701e-08	5.688447e+01	1.593682e+03
1.700000e-06	8.021688e-06	2.426610e-08	5.679747e+01	1.592367e+03
1.710000e-06	8.006569e-06	2.426090e-08	5.669042e+01	1.591196e+03
1.720000e-06	7.988945e-06	2.426086e-08	5.656563e+01	1.590310e+03
1.730000e-06	7.969060e-06	2.424269e-08	5.642484e+01	1.589736e+03
1.740000e-06	7.946509e-06	2.412370e-08	5.626517e+01	1.589388e+03
1.750000e-06	7.920435e-06	2.411883e-08	5.608055e+01	1.589096e+03
1.760000e-06	7.890537e-06	2.417296e-08	5.586886e+01	1.588664e+03
1.770000e-06	7.857516e-06	2.414375e-08	5.563505e+01	1.587935e+03
1.780000e-06	7.822180e-06	2.414773e-08	5.538486e+01	1.586835e+03
1.790000e-06	7.784635e-06	2.425471e-08	5.511902e+01	1.585396e+03
1.800000e-06	7.744994e-06	2.418445e-08	5.483834e+01	1.583736e+03
1.810000e-06	7.703137e-06	2.408147e-08	5.454198e+01	1.582014e+03
1.820000e-06	7.658578e-06	2.419120e-08	5.422648e+01	1.580371e+03
1.830000e-06	7.611344e-06	2.405494e-08	5.389203e+01	1.578874e+03
1.840000e-06	7.561265e-06	2.410105e-08	5.353745e+01	1.577491e+03
1.850000e-06	7.508184e-06	2.412473e-08	5.316161e+01	1.576095e+03
1.860000e-06	7.452286e-06	2.402200e-08	5.276583e+01	1.574504e+03
1.870000e-06	7.393658e-06	2.404291e-08	5.235071e+01	1.572537e+03
1.880000e-06	7.332470e-06	2.387651e-08	5.191747e+01	1.570078e+03
1.890000e-06	7.268416e-06	2.392822e-08	5.146394e+01	1.567116e+03
1.900000e-06	7.201492e-06	2.386762e-08	5.099008e+01	1.563753e+03
1.910000e-06	7.131848e-06	2.379615e-08	5.049697e+01	1.560181e+03
1.920000e-06	7.059371e-06	2.384666e-08	4.998379e+01	1.556618e+03
1.930000e-06	6.984221e-06	2.372231e-08	4.945170e+01	1.553245e+03
1.940000e-06	6.906276e-06	2.370727e-08	4.889981e+01	1.550144e+03
1.950000e-06	6.825659e-06	2.359969e-08	4.832900e+01	1.547270e+03
1.960000e-06	6.742545e-06	2.358300e-08	4.774052e+01	1.544458e+03
1.970000e-06	6.656940e-06	2.353719e-08	4.713439e+01	1.541478e+03
1.980000e-06	6.568927e-06	2.344950e-08	4.651121e+01	1.538095e+03
1.990000e-06	6.478551e-06	2.344067e-08	4.587130e+01	1.534150e+03
2.000000e-06	6.385926e-06	2.333691e-08	4.521548e+01	1.529607e+03
2.010000e-06	6.291000e-06	2.328610e-08	4.454335e+01	1.524567e+03
2.020000e-06	6.193843e-06	2.318685e-08	4.385544e+01	1.519236e+03
2.030000e-06	6.094479e-06	2.313891e-08	4.315189e+01	1.513864e+03
2.040000e-06	5.992924e-06	2.306373e-08	4.243283e+01	1.508663e+03
2.050000e-06	5.889152e-06	2.299145e-08	4.169807e+01	1.503738e+03
2.060000e-06	5.783246e-06	2.292613e-08	4.094820e+01	1.499050e+03
2.070000e-06	5.675419e-06	2.282552e-08	4.018474e+01	1.494424e+03
2.080000e-06	5.565665e-06	2.274208e-08	3.940763e+01	1.489595e+03
2.090000e-06	5.453894e-06	2.264202e-08	3.861623e+01	1.484294e+03
2.100000e-06	5.340037e-06	2.256435e-08	3.781007e+01	1.478325e+03
2.110000e-06	5.224199e-06	2.246320e-08	3.698988e+01	1.471633e+03
2.120000e-06	5.106362e-06	2.237775e-08	3.615554e+01	1.464316e+03
2.130000e-06	4.986532e-06	2.226977e-08	3.530708e+01	1.456597e+03
2.140000e-06	4.864853e-06	2.215853e-08	3.444554e+01	1.448754e+03
2.150000e-06	4.741434e-06	2.203966e-08	3.357167e+01	1.441027e+03
2.160000e-06	4.616276e-06	2.193141e-08	3.268549e+01	1.433535e+03
2.170000e-06	4.489435e-06	2.181854e-08	3.178740e+01	1.426230e+03
2.180000e-06	4.360940e-06	2.169264e-08	3.087759e+01	1.418903e+03
2.190000e-06	4.230821e-06	2.156220e-08	2.995628e+01	1.411242e+03
2.200000e-06	4.099217e-06	2.142274e-08	2.902446e+01	1.402921e+03
2.210000e-06	3.966141e-06	2.128218e-08	2.808222e+01	1.393705e+03
2.220000e-06	3.831613e-06	2.113323e-08	2.712970e+01	1.383520e+03
2.230000e-06	3.695595e-06	2.099140e-08	2.616662e+01	1.372478e+03
2.240000e-06	3.558117e-06	2.083530e-08	2.519321e+01	1.360845e+03
2.250000e-06	3.419282e-06	2.066966e-08	2.421019e+01	1.348949e+03
2.260000e-06	3.279186e-06	2.049121e-08	2.321824e+01	1.337070e+03
2.270000e-06	3.137793e-06	2.030822e-08	2.221711e+01	1.325336e+03
2.280000e-06	2.995101e-06	2.011758e-08	2.120678e+01	1.313662e+03
2.290000e-06	2.851304e-06	1.992266e-08	2.018862e+01	1.301758e+03
2.300000e-06	2.706485e-06	1.971832e-08	1.916324e+01	1.289196e+03
2.310000e-06	2.560724e-06	1.949938e-08	1.813118e+01	1.275538e+03
2.320000e-06	2.414045e-06	1.926833e-08	1.709262e+01	1.260457e+03
2.330000e-06	2.266542e-06	1.902477e-08	1.604823e+01	1.243848e+03
2.340000e-06	2.118297e-06	1.877115e-08	1.499858e+01	1.225851e+03
2.350000e-06	1.969295e-06	1.850709e-08	1.394357e+01	1.206810e+03
2.360000e-06	1.819664e-06	1.823283e-08	1.288411e+01	1.187150e+03
2.370000e-06	1.669470e-06	1.793987e-08	1.182066e+01	1.167211e+03
2.380000e-06	1.518760e-06	1.762230e-08	1.075356e+01	1.147101e+03
2.390000e-06	1.367614e-06	1.728304e-08	9.683374e+00	1.126602e+03
2.400000e-06	1.215964e-06	1.692745e-08	8.609618e+00	1.105172e+03
2.410000e-06	1.063825e-06	1.655265e-08	7.532399e+00	1.082053e+03
2.420000e-06	9.112490e-07	1.615399e-08	6.452088e+00	1.056451e+03
2.430000e-06	7.583440e-07	1.572691e-08	5.369446e+00	1.027745e+03
2.440000e-06	6.052297e-07	1.526405e-08	4.285322e+00	9.956465e+02
2.450000e-06	4.519407e-07	1.475789e-08	3.199961e+00	9.602546e+02
2.460000e-06	2.984888e-07	1.420683e-08	2.113446e+00	9.219660e+02
2.470000e-06	1.449126e-07	1.360916e-08	1.026052e+00	8.812402e+02
2.480000e-06	-8.727859e-09	1.295481e-08	-6.179751e-02	8.382704e+02
2.490000e-06	-1.623910e-07	1.223390e-08	-1.149808e+00	7.926431e+02
2.500000e-06	-3.160059e-07	1.143406e-08	-2.237476e+00	7.430877e+02
2.510000e-06	-4.695171e-07	1.054104e-08	-3.324411e+00	6.874116e+02
2.520000e-06	-6.229345e-07	9.530264e-09	-4.410680e+00	6.226755e+02
2.530000e-06	-7.761936e-07	8.370335e-09	-5.495830e+00	5.456153e+02
2.540000e-06	-9.292213e-07	7.023603e-09	-6.579341e+00	4.532498e+02
2.550000e-06	-1.081960e-06	5.435246e-09	-7.660809e+00	3.435612e+02
2.560000e-06	-1.234286e-06	3.538616e-09	-8.739345e+00	2.161060e+02
2.570000e-06	-1.386106e-06	1.308482e-09	-9.814310e+00	7.241461e+01
2.580000e-06	-1.537344e-06	-1.140996e-09	-1.088515e+01	-8.392909e+01
2.590000e-06	-1.687971e-06	-3.653294e-09	-1.195166e+01	-2.475694e+02
2.600000e-06	-1.838007e-06	-6.168691e-09	-1.301399e+01	-4.119916e+02
2.610000e-06	-1.987425e-06	-8.668712e-09	-1.407194e+01	-5.703621e+02
2.620000e-06	-2.136007e-06	-1.102899e-08	-1.512397e+01	-7.164403e+02
2.630000e-06	-2.283693e-06	-1.304795e-08	-1.616966e+01	-8.453929e+02
2.640000e-06	-2.430587e-06	-1.465828e-08	-1.720974e+01	-9.543567e+02
2.650000e-06	-2.576620e-06	-1.592670e-08	-1.824373e+01	-1.042655e+03
2.660000e-06	-2.721801e-06	-1.692858e-08	-1.927168e+01	-1.111642e+03
2.670000e-06	-2.865989e-06	-1.772844e-08	-2.029260e+01	-1.164227e+03
2.680000e-06	-3.008970e-06	-1.837957e-08	-2.130498e+01	-1.204200e+03
2.690000e-06	-3.150694e-06	-1.891815e-08	-2.230845e+01	-1.235493e+03
2.700000e-06	-3.291072e-06	-1.937024e-08	-2.330240e+01	-1.261548e+03
2.710000e-06	-3.430141e-06	-1.975868e-08	-2.428708e+01	-1.284884e+03
2.720000e-06	-3.568013e-06	-2.009786e-08	-2.526328e+01	-1.306931e+03
2.730000e-06	-3.704615e-06	-2.039731e-08	-2.623048e+01	-1.328129e+03
2.740000e-06	-3.839795e-06	-2.066462e-08	-2.718763e+01	-1.348211e+03
2.750000e-06	-3.973577e-06	-2.090709e-08	-2.813487e+01	-1.366592e+03
2.760000e-06	-4.105958e-06	-2.113120e-08	-2.907219e+01	-1.382729e+03
2.770000e-06	-4.236847e-06	-2.133714e-08	-2.999895e+01	-1.396392e+03
2.780000e-06	-4.366376e-06	-2.152546e-08	-3.091608e+01	-1.407766e+03
2.790000e-06	-4.494500e-06	-2.169791e-08	-3.182326e+01	-1.417401e+03
2.800000e-06	-4.620991e-06	-2.185582e-08	-3.271887e+01	-1.426050e+03
2.810000e-06	-4.745821e-06	-2.200158e-08	-3.360273e+01	-1.434446e+03
2.820000e-06	-4.868977e-06	-2.213961e-08	-3.447473e+01	-1.443102e+03
2.830000e-06	-4.990487e-06	-2.227210e-08	-3.533509e+01	-1.452205e+03
2.840000e-06	-5.110138e-06	-2.239827e-08	-3.618227e+01	-1.461595e+03
2.850000e-06	-5.227700e-06	-2.251507e-08	-3.701467e+01	-1.470867e+03
2.860000e-06	-5.343170e-06	-2.262650e-08	-3.783225e+01	-1.479525e+03
2.870000e-06	-5.456471e-06	-2.273111e-08	-3.863448e+01	-1.487158e+03
2.880000e-06	-5.567554e-06	-2.282739e-08	-3.942101e+01	-1.493569e+03
2.890000e-06	-5.676602e-06	-2.291739e-08	-4.019312e+01	-1.498833e+03
2.900000e-06	-5.783807e-06	-2.300122e-08	-4.095218e+01	-1.503265e+03
2.910000e-06	-5.889053e-06	-2.308188e-08	-4.169737e+01	-1.507321e+03
2.920000e-06	-5.992020e-06	-2.315758e-08	-4.242643e+01	-1.511453e+03
2.930000e-06	-6.092611e-06	-2.322944e-08	-4.313867e+01	-1.515981e+03
2.940000e-06	-6.191062e-06	-2.329842e-08	-4.383575e+01	-1.521010e+03
