# Temperatura_=_56.99
# Concentracion g/m^3_=_41000.0
# C_Vs_to_Am_M_A/Vsm_=_65563218390.804596
# pendiente_HvsI_1/m_=_3716.3
# ordenada_HvsI_A/m_=_1297.0
# frecuencia_Hz_=_302474.87264347397

Tiempo_(s)	Campo_(V.s)	Magnetizacion_(V.s)	Campo_(kA/m)	Magnetizacion_(A/m)
0.000000e+00	-8.038107e-06	-2.236091e-08	-5.687871e+01	-1.466613e+03
1.000000e-08	-8.035164e-06	-2.236433e-08	-5.685788e+01	-1.466032e+03
2.000000e-08	-8.029608e-06	-2.235599e-08	-5.681857e+01	-1.464938e+03
3.000000e-08	-8.021496e-06	-2.234844e-08	-5.676117e+01	-1.463563e+03
4.000000e-08	-8.010487e-06	-2.234157e-08	-5.668326e+01	-1.462199e+03
5.000000e-08	-7.996436e-06	-2.232986e-08	-5.658384e+01	-1.461104e+03
6.000000e-08	-7.979513e-06	-2.231154e-08	-5.646409e+01	-1.460423e+03
7.000000e-08	-7.960189e-06	-2.228870e-08	-5.632735e+01	-1.460147e+03
8.000000e-08	-7.938572e-06	-2.230847e-08	-5.617439e+01	-1.460120e+03
9.000000e-08	-7.913981e-06	-2.238437e-08	-5.600038e+01	-1.460088e+03
1.000000e-07	-7.886041e-06	-2.232995e-08	-5.580267e+01	-1.459787e+03
1.100000e-07	-7.855069e-06	-2.224978e-08	-5.558351e+01	-1.459026e+03
1.200000e-07	-7.821280e-06	-2.224099e-08	-5.534442e+01	-1.457746e+03
1.300000e-07	-7.784877e-06	-2.220289e-08	-5.508682e+01	-1.456036e+03
1.400000e-07	-7.746220e-06	-2.209686e-08	-5.481328e+01	-1.454103e+03
1.500000e-07	-7.705366e-06	-2.210558e-08	-5.452419e+01	-1.452201e+03
1.600000e-07	-7.661935e-06	-2.225927e-08	-5.421687e+01	-1.450545e+03
1.700000e-07	-7.615723e-06	-2.207501e-08	-5.388986e+01	-1.449235e+03
1.800000e-07	-7.566755e-06	-2.207537e-08	-5.354336e+01	-1.448223e+03
1.900000e-07	-7.514763e-06	-2.210805e-08	-5.317546e+01	-1.447321e+03
2.000000e-07	-7.459849e-06	-2.196788e-08	-5.278688e+01	-1.446257e+03
2.100000e-07	-7.402229e-06	-2.197983e-08	-5.237915e+01	-1.444762e+03
2.200000e-07	-7.341907e-06	-2.193560e-08	-5.195231e+01	-1.442655e+03
2.300000e-07	-7.278949e-06	-2.195836e-08	-5.150681e+01	-1.439902e+03
2.400000e-07	-7.213215e-06	-2.188197e-08	-5.104166e+01	-1.436630e+03
2.500000e-07	-7.144763e-06	-2.181574e-08	-5.055729e+01	-1.433090e+03
2.600000e-07	-7.073603e-06	-2.181595e-08	-5.005375e+01	-1.429579e+03
2.700000e-07	-6.999586e-06	-2.176284e-08	-4.953000e+01	-1.426350e+03
2.800000e-07	-6.922810e-06	-2.171159e-08	-4.898672e+01	-1.423525e+03
2.900000e-07	-6.843235e-06	-2.165468e-08	-4.842363e+01	-1.421062e+03
3.000000e-07	-6.761017e-06	-2.163426e-08	-4.784185e+01	-1.418757e+03
3.100000e-07	-6.676566e-06	-2.156235e-08	-4.724426e+01	-1.416313e+03
3.200000e-07	-6.589864e-06	-2.148761e-08	-4.663075e+01	-1.413428e+03
3.300000e-07	-6.500720e-06	-2.146610e-08	-4.599996e+01	-1.409892e+03
3.400000e-07	-6.409139e-06	-2.138575e-08	-4.535192e+01	-1.405652e+03
3.500000e-07	-6.315306e-06	-2.133003e-08	-4.468794e+01	-1.400834e+03
3.600000e-07	-6.219189e-06	-2.127553e-08	-4.400780e+01	-1.395702e+03
3.700000e-07	-6.120706e-06	-2.120855e-08	-4.331093e+01	-1.390579e+03
3.800000e-07	-6.020070e-06	-2.113281e-08	-4.259881e+01	-1.385741e+03
3.900000e-07	-5.917331e-06	-2.105987e-08	-4.187181e+01	-1.381328e+03
4.000000e-07	-5.812451e-06	-2.099538e-08	-4.112967e+01	-1.377293e+03
4.100000e-07	-5.705502e-06	-2.090568e-08	-4.037288e+01	-1.373415e+03
4.200000e-07	-5.596603e-06	-2.083782e-08	-3.960231e+01	-1.369359e+03
4.300000e-07	-5.485738e-06	-2.076478e-08	-3.881781e+01	-1.364783e+03
4.400000e-07	-5.372717e-06	-2.068334e-08	-3.801806e+01	-1.359438e+03
4.500000e-07	-5.257596e-06	-2.058255e-08	-3.720344e+01	-1.353257e+03
4.600000e-07	-5.140580e-06	-2.048898e-08	-3.637543e+01	-1.346369e+03
4.700000e-07	-5.021680e-06	-2.039927e-08	-3.553407e+01	-1.339068e+03
4.800000e-07	-4.900928e-06	-2.029750e-08	-3.467962e+01	-1.331713e+03
4.900000e-07	-4.778424e-06	-2.020017e-08	-3.381276e+01	-1.324619e+03
5.000000e-07	-4.654149e-06	-2.009965e-08	-3.293338e+01	-1.317942e+03
5.100000e-07	-4.528133e-06	-1.999309e-08	-3.204167e+01	-1.311626e+03
5.200000e-07	-4.400477e-06	-1.986761e-08	-3.113836e+01	-1.305408e+03
5.300000e-07	-4.271271e-06	-1.974498e-08	-3.022408e+01	-1.298889e+03
5.400000e-07	-4.140457e-06	-1.962221e-08	-2.929842e+01	-1.291657e+03
5.500000e-07	-4.008058e-06	-1.949410e-08	-2.836155e+01	-1.283412e+03
5.600000e-07	-3.874181e-06	-1.936003e-08	-2.741421e+01	-1.274065e+03
5.700000e-07	-3.738800e-06	-1.921695e-08	-2.645625e+01	-1.263768e+03
5.800000e-07	-3.601976e-06	-1.907017e-08	-2.548806e+01	-1.252871e+03
5.900000e-07	-3.463811e-06	-1.891564e-08	-2.451038e+01	-1.241809e+03
6.000000e-07	-3.324212e-06	-1.876188e-08	-2.352257e+01	-1.230959e+03
6.100000e-07	-3.183138e-06	-1.859885e-08	-2.252431e+01	-1.220505e+03
6.200000e-07	-3.040813e-06	-1.842534e-08	-2.151719e+01	-1.210358e+03
6.300000e-07	-2.897323e-06	-1.824029e-08	-2.050184e+01	-1.200161e+03
6.400000e-07	-2.752715e-06	-1.804540e-08	-1.947858e+01	-1.189384e+03
6.500000e-07	-2.607119e-06	-1.784350e-08	-1.844832e+01	-1.177469e+03
6.600000e-07	-2.460608e-06	-1.763493e-08	-1.741159e+01	-1.164007e+03
6.700000e-07	-2.313287e-06	-1.742199e-08	-1.636913e+01	-1.148861e+03
6.800000e-07	-2.165224e-06	-1.719697e-08	-1.532141e+01	-1.132221e+03
6.900000e-07	-2.016441e-06	-1.695874e-08	-1.426860e+01	-1.114544e+03
7.000000e-07	-1.867068e-06	-1.670160e-08	-1.321162e+01	-1.096403e+03
7.100000e-07	-1.717128e-06	-1.643112e-08	-1.215062e+01	-1.078282e+03
7.200000e-07	-1.566519e-06	-1.614355e-08	-1.108490e+01	-1.060386e+03
7.300000e-07	-1.415309e-06	-1.584247e-08	-1.001492e+01	-1.042510e+03
7.400000e-07	-1.263600e-06	-1.552637e-08	-8.941400e+00	-1.024040e+03
7.500000e-07	-1.111521e-06	-1.518679e-08	-7.865273e+00	-1.004077e+03
7.600000e-07	-9.591255e-07	-1.482520e-08	-6.786899e+00	-9.816646e+02
7.700000e-07	-8.064207e-07	-1.443544e-08	-5.706339e+00	-9.560477e+02
7.800000e-07	-6.533613e-07	-1.401877e-08	-4.623271e+00	-9.268924e+02
7.900000e-07	-5.000025e-07	-1.356779e-08	-3.538084e+00	-8.943718e+02
8.000000e-07	-3.464931e-07	-1.307925e-08	-2.451831e+00	-8.590779e+02
8.100000e-07	-1.928624e-07	-1.254438e-08	-1.364720e+00	-8.217554e+02
8.200000e-07	-3.912990e-08	-1.195666e-08	-2.768884e-01	-7.829106e+02
8.300000e-07	1.146593e-07	-1.130560e-08	8.113445e-01	-7.423937e+02
8.400000e-07	2.684190e-07	-1.057846e-08	1.899368e+00	-6.990776e+02
8.500000e-07	4.221079e-07	-9.764677e-09	2.986891e+00	-6.507436e+02
8.600000e-07	5.756790e-07	-8.844697e-09	4.073580e+00	-5.942479e+02
8.700000e-07	7.291020e-07	-7.795480e-09	5.159222e+00	-5.259768e+02
8.800000e-07	8.823037e-07	-6.574610e-09	6.243298e+00	-4.425236e+02
8.900000e-07	1.035151e-06	-5.129480e-09	7.324864e+00	-3.414599e+02
9.000000e-07	1.187635e-06	-3.395751e-09	8.403859e+00	-2.220348e+02
9.100000e-07	1.339745e-06	-1.331647e-09	9.480215e+00	-8.563850e+01
9.200000e-07	1.491407e-06	9.944973e-10	1.055339e+01	6.409397e+01
9.300000e-07	1.642504e-06	3.431326e-09	1.162257e+01	2.215882e+02
9.400000e-07	1.792969e-06	5.880250e-09	1.268729e+01	3.800086e+02
9.500000e-07	1.942815e-06	8.275111e-09	1.374762e+01	5.321886e+02
9.600000e-07	2.091983e-06	1.044223e-08	1.480315e+01	6.716367e+02
9.700000e-07	2.240311e-06	1.222866e-08	1.585274e+01	7.934229e+02
9.800000e-07	2.387767e-06	1.363881e-08	1.689615e+01	8.947755e+02
9.900000e-07	2.534355e-06	1.474730e-08	1.793343e+01	9.752839e+02
1.000000e-06	2.679988e-06	1.562366e-08	1.896395e+01	1.036686e+03
1.010000e-06	2.824624e-06	1.632534e-08	1.998741e+01	1.082307e+03
1.020000e-06	2.968178e-06	1.689663e-08	2.100322e+01	1.116292e+03
1.030000e-06	3.110587e-06	1.737114e-08	2.201093e+01	1.142792e+03
1.040000e-06	3.251806e-06	1.777272e-08	2.301021e+01	1.165288e+03
1.050000e-06	3.391739e-06	1.811491e-08	2.400040e+01	1.186157e+03
1.060000e-06	3.530364e-06	1.841412e-08	2.498132e+01	1.206556e+03
1.070000e-06	3.667648e-06	1.868001e-08	2.595276e+01	1.226578e+03
1.080000e-06	3.803506e-06	1.892082e-08	2.691411e+01	1.245628e+03
1.090000e-06	3.937928e-06	1.913809e-08	2.786530e+01	1.262872e+03
1.100000e-06	4.070964e-06	1.933865e-08	2.880668e+01	1.277646e+03
1.110000e-06	4.202628e-06	1.952392e-08	2.973835e+01	1.289728e+03
1.120000e-06	4.332813e-06	1.969323e-08	3.065956e+01	1.299414e+03
1.130000e-06	4.461402e-06	1.985016e-08	3.156947e+01	1.307423e+03
1.140000e-06	4.588365e-06	1.999888e-08	3.246788e+01	1.314664e+03
1.150000e-06	4.713742e-06	2.013977e-08	3.335507e+01	1.321972e+03
1.160000e-06	4.837559e-06	2.026854e-08	3.423121e+01	1.329883e+03
1.170000e-06	4.959716e-06	2.038843e-08	3.509561e+01	1.338512e+03
1.180000e-06	5.080076e-06	2.050183e-08	3.594729e+01	1.347576e+03
1.190000e-06	5.198618e-06	2.060910e-08	3.678611e+01	1.356524e+03
1.200000e-06	5.315232e-06	2.071055e-08	3.761129e+01	1.364742e+03
1.210000e-06	5.429757e-06	2.080784e-08	3.842168e+01	1.371759e+03
1.220000e-06	5.542141e-06	2.090070e-08	3.921692e+01	1.377393e+03
1.230000e-06	5.652499e-06	2.098580e-08	3.999783e+01	1.381797e+03
1.240000e-06	5.760931e-06	2.106461e-08	4.076511e+01	1.385401e+03
1.250000e-06	5.867286e-06	2.114021e-08	4.151769e+01	1.388772e+03
1.260000e-06	5.971418e-06	2.121309e-08	4.225455e+01	1.392440e+03
1.270000e-06	6.073339e-06	2.128331e-08	4.297575e+01	1.396739e+03
1.280000e-06	6.173054e-06	2.135134e-08	4.368134e+01	1.401728e+03
1.290000e-06	6.270433e-06	2.141721e-08	4.437041e+01	1.407185e+03
1.300000e-06	6.365474e-06	2.147926e-08	4.504294e+01	1.412701e+03
1.310000e-06	6.458299e-06	2.153712e-08	4.569978e+01	1.417813e+03
1.320000e-06	6.548851e-06	2.159234e-08	4.634054e+01	1.422155e+03
1.330000e-06	6.637018e-06	2.164714e-08	4.696442e+01	1.425566e+03
1.340000e-06	6.722800e-06	2.170116e-08	4.757142e+01	1.428134e+03
1.350000e-06	6.806259e-06	2.175324e-08	4.816199e+01	1.430156e+03
1.360000e-06	6.887287e-06	2.180194e-08	4.873536e+01	1.432036e+03
1.370000e-06	6.965775e-06	2.184764e-08	4.929075e+01	1.434160e+03
1.380000e-06	7.041722e-06	2.188935e-08	4.982816e+01	1.436771e+03
1.390000e-06	7.115013e-06	2.192984e-08	5.034677e+01	1.439902e+03
1.400000e-06	7.185696e-06	2.197044e-08	5.084694e+01	1.443373e+03
1.410000e-06	7.253884e-06	2.200738e-08	5.132945e+01	1.446859e+03
1.420000e-06	7.319434e-06	2.204047e-08	5.179328e+01	1.449993e+03
1.430000e-06	7.382340e-06	2.207170e-08	5.223842e+01	1.452485e+03
1.440000e-06	7.442818e-06	2.210293e-08	5.266636e+01	1.454214e+03
1.450000e-06	7.500741e-06	2.213240e-08	5.307623e+01	1.455262e+03
1.460000e-06	7.556007e-06	2.215975e-08	5.346730e+01	1.455883e+03
1.470000e-06	7.608393e-06	2.218579e-08	5.383800e+01	1.456422e+03
1.480000e-06	7.657557e-06	2.220956e-08	5.418589e+01	1.457203e+03
1.490000e-06	7.703780e-06	2.222929e-08	5.451297e+01	1.458433e+03
1.500000e-06	7.747388e-06	2.224689e-08	5.482154e+01	1.460137e+03
1.510000e-06	7.788220e-06	2.226444e-08	5.511048e+01	1.462157e+03
1.520000e-06	7.826230e-06	2.228157e-08	5.537944e+01	1.464203e+03
1.530000e-06	7.861588e-06	2.229737e-08	5.562963e+01	1.465950e+03
1.540000e-06	7.894120e-06	2.231148e-08	5.585984e+01	1.467137e+03
1.550000e-06	7.923805e-06	2.232422e-08	5.606989e+01	1.467654e+03
1.560000e-06	7.950751e-06	2.233501e-08	5.626056e+01	1.467569e+03
1.570000e-06	7.974716e-06	2.234389e-08	5.643015e+01	1.467108e+03
1.580000e-06	7.995808e-06	2.235172e-08	5.657939e+01	1.466582e+03
1.590000e-06	8.014141e-06	2.235808e-08	5.670912e+01	1.466290e+03
1.600000e-06	8.029509e-06	2.236209e-08	5.681787e+01	1.466426e+03
1.610000e-06	8.041862e-06	2.236586e-08	5.690528e+01	1.467020e+03
1.620000e-06	8.051064e-06	2.237037e-08	5.697039e+01	1.467933e+03
1.630000e-06	8.057242e-06	2.237427e-08	5.701411e+01	1.468902e+03
1.640000e-06	8.060622e-06	2.237639e-08	5.703803e+01	1.469624e+03
1.650000e-06	8.061113e-06	2.237869e-08	5.704150e+01	1.469850e+03
1.660000e-06	8.058861e-06	2.236872e-08	5.702557e+01	1.469464e+03
1.670000e-06	8.054050e-06	2.236353e-08	5.699153e+01	1.468514e+03
1.680000e-06	8.046549e-06	2.235859e-08	5.693845e+01	1.467198e+03
1.690000e-06	8.036323e-06	2.234871e-08	5.686608e+01	1.465799e+03
1.700000e-06	8.023241e-06	2.234050e-08	5.677351e+01	1.464595e+03
1.710000e-06	8.007332e-06	2.234170e-08	5.666094e+01	1.463774e+03
1.720000e-06	7.989011e-06	2.234967e-08	5.653130e+01	1.463379e+03
1.730000e-06	7.968443e-06	2.226683e-08	5.638576e+01	1.463296e+03
1.740000e-06	7.945015e-06	2.217604e-08	5.621998e+01	1.463295e+03
1.750000e-06	7.917912e-06	2.223800e-08	5.602819e+01	1.463107e+03
1.760000e-06	7.887108e-06	2.225146e-08	5.581022e+01	1.462507e+03
1.770000e-06	7.853359e-06	2.220541e-08	5.557141e+01	1.461391e+03
1.780000e-06	7.817350e-06	2.228631e-08	5.531660e+01	1.459800e+03
1.790000e-06	7.779168e-06	2.234098e-08	5.504642e+01	1.457912e+03
1.800000e-06	7.738938e-06	2.214955e-08	5.476175e+01	1.455973e+03
1.810000e-06	7.696322e-06	2.221948e-08	5.446019e+01	1.454220e+03
1.820000e-06	7.650955e-06	2.220456e-08	5.413917e+01	1.452797e+03
1.830000e-06	7.602977e-06	2.211065e-08	5.379967e+01	1.451704e+03
1.840000e-06	7.552069e-06	2.223303e-08	5.343944e+01	1.450793e+03
1.850000e-06	7.498172e-06	2.209028e-08	5.305806e+01	1.449812e+03
1.860000e-06	7.441454e-06	2.214975e-08	5.265671e+01	1.448481e+03
1.870000e-06	7.382021e-06	2.205134e-08	5.223616e+01	1.446582e+03
1.880000e-06	7.319907e-06	2.195792e-08	5.179663e+01	1.444030e+03
1.890000e-06	7.254936e-06	2.204941e-08	5.133689e+01	1.440902e+03
1.900000e-06	7.187248e-06	2.190314e-08	5.085792e+01	1.437416e+03
1.910000e-06	7.116777e-06	2.194232e-08	5.035925e+01	1.433864e+03
1.920000e-06	7.043500e-06	2.187274e-08	4.984074e+01	1.430523e+03
1.930000e-06	6.967517e-06	2.181514e-08	4.930307e+01	1.427565e+03
1.940000e-06	6.888716e-06	2.177351e-08	4.874547e+01	1.425000e+03
1.950000e-06	6.807324e-06	2.168149e-08	4.816952e+01	1.422674e+03
1.960000e-06	6.723444e-06	2.171869e-08	4.757598e+01	1.420309e+03
1.970000e-06	6.637035e-06	2.160005e-08	4.696454e+01	1.417595e+03
1.980000e-06	6.548178e-06	2.158869e-08	4.633577e+01	1.414282e+03
1.990000e-06	6.457059e-06	2.151565e-08	4.569100e+01	1.410263e+03
2.000000e-06	6.363761e-06	2.145015e-08	4.503081e+01	1.405607e+03
2.010000e-06	6.268108e-06	2.138905e-08	4.435396e+01	1.400542e+03
2.020000e-06	6.170225e-06	2.130875e-08	4.366133e+01	1.395382e+03
2.030000e-06	6.070148e-06	2.127402e-08	4.295317e+01	1.390429e+03
2.040000e-06	5.967883e-06	2.118123e-08	4.222953e+01	1.385874e+03
2.050000e-06	5.863479e-06	2.113741e-08	4.149075e+01	1.381734e+03
2.060000e-06	5.757072e-06	2.104885e-08	4.073780e+01	1.377838e+03
2.070000e-06	5.648690e-06	2.097922e-08	3.997088e+01	1.373879e+03
2.080000e-06	5.538314e-06	2.088424e-08	3.918984e+01	1.369503e+03
2.090000e-06	5.425933e-06	2.080857e-08	3.839462e+01	1.364423e+03
2.100000e-06	5.311440e-06	2.072445e-08	3.758445e+01	1.358505e+03
2.110000e-06	5.194935e-06	2.063740e-08	3.676005e+01	1.351819e+03
2.120000e-06	5.076454e-06	2.055152e-08	3.592166e+01	1.344612e+03
2.130000e-06	4.956028e-06	2.044976e-08	3.506951e+01	1.337236e+03
2.140000e-06	4.833784e-06	2.034800e-08	3.420449e+01	1.330031e+03
2.150000e-06	4.709857e-06	2.023854e-08	3.332757e+01	1.323215e+03
2.160000e-06	4.584191e-06	2.014741e-08	3.243834e+01	1.316803e+03
2.170000e-06	4.456859e-06	2.003612e-08	3.153733e+01	1.310592e+03
2.180000e-06	4.327925e-06	1.992379e-08	3.062497e+01	1.304217e+03
2.190000e-06	4.197462e-06	1.979609e-08	2.970180e+01	1.297254e+03
2.200000e-06	4.065427e-06	1.967277e-08	2.876750e+01	1.289356e+03
2.210000e-06	3.931780e-06	1.953791e-08	2.782180e+01	1.280358e+03
2.220000e-06	3.796687e-06	1.940682e-08	2.686586e+01	1.270335e+03
2.230000e-06	3.660102e-06	1.927224e-08	2.589937e+01	1.259584e+03
2.240000e-06	3.522102e-06	1.912593e-08	2.492286e+01	1.248529e+03
2.250000e-06	3.382801e-06	1.896946e-08	2.393715e+01	1.237579e+03
2.260000e-06	3.242187e-06	1.880675e-08	2.294215e+01	1.226994e+03
2.270000e-06	3.100273e-06	1.864247e-08	2.193794e+01	1.216774e+03
2.280000e-06	2.957182e-06	1.846878e-08	2.092541e+01	1.206646e+03
2.290000e-06	2.812991e-06	1.828911e-08	1.990510e+01	1.196118e+03
2.300000e-06	2.667763e-06	1.809369e-08	1.887744e+01	1.184624e+03
2.310000e-06	2.521724e-06	1.788819e-08	1.784405e+01	1.171689e+03
2.320000e-06	2.374804e-06	1.767234e-08	1.680442e+01	1.157078e+03
2.330000e-06	2.226930e-06	1.744934e-08	1.575805e+01	1.140879e+03
2.340000e-06	2.078319e-06	1.721733e-08	1.470646e+01	1.123475e+03
2.350000e-06	1.929087e-06	1.697501e-08	1.365048e+01	1.105421e+03
2.360000e-06	1.779225e-06	1.671815e-08	1.259003e+01	1.087255e+03
2.370000e-06	1.628774e-06	1.644015e-08	1.152542e+01	1.069288e+03
2.380000e-06	1.477849e-06	1.614282e-08	1.045746e+01	1.051453e+03
2.390000e-06	1.326520e-06	1.582993e-08	9.386633e+00	1.033262e+03
2.400000e-06	1.174754e-06	1.549933e-08	8.312715e+00	1.013887e+03
2.410000e-06	1.022475e-06	1.514728e-08	7.235170e+00	9.923583e+02
2.420000e-06	8.697442e-07	1.476915e-08	6.154425e+00	9.678310e+02
2.430000e-06	7.166984e-07	1.436295e-08	5.071453e+00	9.398183e+02
2.440000e-06	5.634039e-07	1.392487e-08	3.986721e+00	9.083310e+02
2.450000e-06	4.099386e-07	1.344866e-08	2.900780e+00	8.738475e+02
2.460000e-06	2.563584e-07	1.292943e-08	1.814026e+00	8.371016e+02
2.470000e-06	1.026632e-07	1.235991e-08	7.264583e-01	7.987228e+02
2.480000e-06	-5.106687e-08	1.173219e-08	-3.613560e-01	7.588145e+02
2.490000e-06	-2.047949e-07	1.103720e-08	-1.449156e+00	7.165882e+02
2.500000e-06	-3.585246e-07	1.026268e-08	-2.536968e+00	6.701719e+02
2.510000e-06	-5.121820e-07	9.391513e-09	-3.624268e+00	6.166830e+02
2.520000e-06	-6.656930e-07	8.395278e-09	-4.710532e+00	5.525935e+02
2.530000e-06	-8.190339e-07	7.240604e-09	-5.795592e+00	4.743474e+02
2.540000e-06	-9.720750e-07	5.884610e-09	-6.878531e+00	3.791187e+02
2.550000e-06	-1.124704e-06	4.270192e-09	-7.958555e+00	2.655524e+02
2.560000e-06	-1.276910e-06	2.334949e-09	-9.035584e+00	1.343201e+02
2.570000e-06	-1.428625e-06	7.425275e-11	-1.010914e+01	-1.165119e+01
2.580000e-06	-1.579833e-06	-2.385047e-09	-1.117911e+01	-1.673527e+02
2.590000e-06	-1.730438e-06	-4.897593e-09	-1.224481e+01	-3.262616e+02
2.600000e-06	-1.880406e-06	-7.386106e-09	-1.330600e+01	-4.812077e+02
2.610000e-06	-2.029716e-06	-9.698573e-09	-1.436254e+01	-6.253763e+02
2.620000e-06	-2.178228e-06	-1.165627e-08	-1.541343e+01	-7.532537e+02
2.630000e-06	-2.325864e-06	-1.322085e-08	-1.645812e+01	-8.613321e+02
2.640000e-06	-2.472603e-06	-1.444989e-08	-1.749647e+01	-9.484458e+02
2.650000e-06	-2.618491e-06	-1.541748e-08	-1.852879e+01	-1.015689e+03
2.660000e-06	-2.763459e-06	-1.618664e-08	-1.955460e+01	-1.065953e+03
2.670000e-06	-2.907337e-06	-1.680817e-08	-2.057270e+01	-1.103210e+03
2.680000e-06	-3.050041e-06	-1.731902e-08	-2.158250e+01	-1.131693e+03
2.690000e-06	-3.191556e-06	-1.774671e-08	-2.258387e+01	-1.155158e+03
2.700000e-06	-3.331783e-06	-1.811236e-08	-2.357614e+01	-1.176367e+03
2.710000e-06	-3.470666e-06	-1.842973e-08	-2.455889e+01	-1.196862e+03
2.720000e-06	-3.608271e-06	-1.870798e-08	-2.553260e+01	-1.217046e+03
2.730000e-06	-3.744545e-06	-1.895552e-08	-2.649689e+01	-1.236497e+03
2.740000e-06	-3.879457e-06	-1.918122e-08	-2.745155e+01	-1.254409e+03
2.750000e-06	-4.013000e-06	-1.938891e-08	-2.839652e+01	-1.270027e+03
2.760000e-06	-4.145059e-06	-1.957949e-08	-2.933099e+01	-1.282966e+03
2.770000e-06	-4.275668e-06	-1.975318e-08	-3.025519e+01	-1.293360e+03
2.780000e-06	-4.404868e-06	-1.991268e-08	-3.116943e+01	-1.301813e+03
2.790000e-06	-4.532548e-06	-2.005943e-08	-3.207291e+01	-1.309201e+03
2.800000e-06	-4.658606e-06	-2.019633e-08	-3.296491e+01	-1.316412e+03
2.810000e-06	-4.782997e-06	-2.032679e-08	-3.384512e+01	-1.324095e+03
2.820000e-06	-4.905743e-06	-2.045036e-08	-3.471369e+01	-1.332507e+03
2.830000e-06	-5.026777e-06	-2.056614e-08	-3.557014e+01	-1.341482e+03
2.840000e-06	-5.145957e-06	-2.067422e-08	-3.641348e+01	-1.350536e+03
2.850000e-06	-5.263105e-06	-2.077411e-08	-3.724242e+01	-1.359051e+03
2.860000e-06	-5.378119e-06	-2.086763e-08	-3.805628e+01	-1.366490e+03
2.870000e-06	-5.490994e-06	-2.095523e-08	-3.885500e+01	-1.372568e+03
2.880000e-06	-5.601713e-06	-2.103903e-08	-3.963846e+01	-1.377331e+03
2.890000e-06	-5.710362e-06	-2.111936e-08	-4.040728e+01	-1.381134e+03
2.900000e-06	-5.817029e-06	-2.119440e-08	-4.116207e+01	-1.384517e+03
2.910000e-06	-5.921586e-06	-2.126625e-08	-4.190192e+01	-1.388041e+03
2.920000e-06	-6.023933e-06	-2.133550e-08	-4.262615e+01	-1.392117e+03
2.930000e-06	-6.124079e-06	-2.140242e-08	-4.333479e+01	-1.396896e+03
2.940000e-06	-6.222068e-06	-2.146717e-08	-4.402818e+01	-1.402241e+03
