# Temperatura_=_86.1
# Concentracion g/m^3_=_41000.0
# C_Vs_to_Am_M_A/Vsm_=_65563218390.804596
# pendiente_HvsI_1/m_=_3716.3
# ordenada_HvsI_A/m_=_1297.0
# frecuencia_Hz_=_302481.2282984354

Tiempo_(s)	Campo_(V.s)	Magnetizacion_(V.s)	Campo_(kA/m)	Magnetizacion_(A/m)
0.000000e+00	-8.053903e-06	-2.553728e-08	-5.688005e+01	-1.673819e+03
1.000000e-08	-8.051801e-06	-2.553110e-08	-5.686521e+01	-1.673515e+03
2.000000e-08	-8.046977e-06	-2.552568e-08	-5.683113e+01	-1.672784e+03
3.000000e-08	-8.039587e-06	-2.551482e-08	-5.677894e+01	-1.671723e+03
4.000000e-08	-8.029439e-06	-2.550468e-08	-5.670728e+01	-1.670490e+03
5.000000e-08	-8.016389e-06	-2.549458e-08	-5.661511e+01	-1.669255e+03
6.000000e-08	-8.000415e-06	-2.548268e-08	-5.650230e+01	-1.668148e+03
7.000000e-08	-7.981772e-06	-2.547094e-08	-5.637063e+01	-1.667223e+03
8.000000e-08	-7.960800e-06	-2.546211e-08	-5.622252e+01	-1.666443e+03
9.000000e-08	-7.937091e-06	-2.546198e-08	-5.605507e+01	-1.665699e+03
1.000000e-07	-7.910123e-06	-2.547793e-08	-5.586462e+01	-1.664848e+03
1.100000e-07	-7.880040e-06	-2.542958e-08	-5.565216e+01	-1.663764e+03
1.200000e-07	-7.847132e-06	-2.537022e-08	-5.541974e+01	-1.662378e+03
1.300000e-07	-7.811453e-06	-2.533623e-08	-5.516777e+01	-1.660698e+03
1.400000e-07	-7.773292e-06	-2.528467e-08	-5.489826e+01	-1.658809e+03
1.500000e-07	-7.733020e-06	-2.523284e-08	-5.461384e+01	-1.656833e+03
1.600000e-07	-7.690343e-06	-2.521416e-08	-5.431244e+01	-1.654889e+03
1.700000e-07	-7.644907e-06	-2.526411e-08	-5.399155e+01	-1.653048e+03
1.800000e-07	-7.596788e-06	-2.515318e-08	-5.365171e+01	-1.651298e+03
1.900000e-07	-7.545678e-06	-2.512972e-08	-5.329075e+01	-1.649545e+03
2.000000e-07	-7.491529e-06	-2.511538e-08	-5.290833e+01	-1.647636e+03
2.100000e-07	-7.434679e-06	-2.498647e-08	-5.250683e+01	-1.645404e+03
2.200000e-07	-7.375093e-06	-2.500528e-08	-5.208601e+01	-1.642721e+03
2.300000e-07	-7.312852e-06	-2.498957e-08	-5.164643e+01	-1.639535e+03
2.400000e-07	-7.247964e-06	-2.492022e-08	-5.118817e+01	-1.635895e+03
2.500000e-07	-7.180262e-06	-2.483190e-08	-5.071003e+01	-1.631930e+03
2.600000e-07	-7.109785e-06	-2.480927e-08	-5.021229e+01	-1.627819e+03
2.700000e-07	-7.036522e-06	-2.477069e-08	-4.969488e+01	-1.623730e+03
2.800000e-07	-6.960464e-06	-2.466419e-08	-4.915772e+01	-1.619770e+03
2.900000e-07	-6.881638e-06	-2.461982e-08	-4.860102e+01	-1.615952e+03
3.000000e-07	-6.800113e-06	-2.456852e-08	-4.802526e+01	-1.612187e+03
3.100000e-07	-6.716141e-06	-2.448341e-08	-4.743221e+01	-1.608317e+03
3.200000e-07	-6.629901e-06	-2.439486e-08	-4.682315e+01	-1.604157e+03
3.300000e-07	-6.541311e-06	-2.433601e-08	-4.619749e+01	-1.599561e+03
3.400000e-07	-6.450288e-06	-2.428794e-08	-4.555465e+01	-1.594463e+03
3.500000e-07	-6.357005e-06	-2.418726e-08	-4.489584e+01	-1.588902e+03
3.600000e-07	-6.261439e-06	-2.410830e-08	-4.422092e+01	-1.583008e+03
3.700000e-07	-6.163529e-06	-2.403414e-08	-4.352943e+01	-1.576962e+03
3.800000e-07	-6.063368e-06	-2.394479e-08	-4.282206e+01	-1.570936e+03
3.900000e-07	-5.961007e-06	-2.385169e-08	-4.209914e+01	-1.565037e+03
4.000000e-07	-5.856507e-06	-2.375993e-08	-4.136111e+01	-1.559266e+03
4.100000e-07	-5.749943e-06	-2.366317e-08	-4.060851e+01	-1.553516e+03
4.200000e-07	-5.641427e-06	-2.354737e-08	-3.984213e+01	-1.547599e+03
4.300000e-07	-5.530955e-06	-2.345344e-08	-3.906193e+01	-1.541306e+03
4.400000e-07	-5.418375e-06	-2.335018e-08	-3.826685e+01	-1.534469e+03
4.500000e-07	-5.303686e-06	-2.323230e-08	-3.745686e+01	-1.527014e+03
4.600000e-07	-5.186991e-06	-2.311230e-08	-3.663271e+01	-1.518990e+03
4.700000e-07	-5.068417e-06	-2.299783e-08	-3.579530e+01	-1.510549e+03
4.800000e-07	-4.947983e-06	-2.287547e-08	-3.494474e+01	-1.501901e+03
4.900000e-07	-4.825720e-06	-2.274640e-08	-3.408127e+01	-1.493241e+03
5.000000e-07	-4.701718e-06	-2.262484e-08	-3.320551e+01	-1.484687e+03
5.100000e-07	-4.576031e-06	-2.249110e-08	-3.231785e+01	-1.476228e+03
5.200000e-07	-4.448632e-06	-2.234290e-08	-3.141811e+01	-1.467726e+03
5.300000e-07	-4.319578e-06	-2.218530e-08	-3.050668e+01	-1.458943e+03
5.400000e-07	-4.189028e-06	-2.203092e-08	-2.958468e+01	-1.449617e+03
5.500000e-07	-4.056907e-06	-2.187529e-08	-2.865159e+01	-1.439536e+03
5.600000e-07	-3.923281e-06	-2.171293e-08	-2.770786e+01	-1.428606e+03
5.700000e-07	-3.788121e-06	-2.154391e-08	-2.675330e+01	-1.416879e+03
5.800000e-07	-3.651430e-06	-2.136463e-08	-2.578793e+01	-1.404541e+03
5.900000e-07	-3.513419e-06	-2.117959e-08	-2.481325e+01	-1.391844e+03
6.000000e-07	-3.374027e-06	-2.098729e-08	-2.382880e+01	-1.379023e+03
6.100000e-07	-3.233108e-06	-2.079031e-08	-2.283357e+01	-1.366212e+03
6.200000e-07	-3.090794e-06	-2.058474e-08	-2.182849e+01	-1.353378e+03
6.300000e-07	-2.947276e-06	-2.036922e-08	-2.081490e+01	-1.340320e+03
6.400000e-07	-2.802689e-06	-2.014517e-08	-1.979377e+01	-1.326711e+03
6.500000e-07	-2.657118e-06	-1.991087e-08	-1.876569e+01	-1.312186e+03
6.600000e-07	-2.510604e-06	-1.966649e-08	-1.773094e+01	-1.296448e+03
6.700000e-07	-2.363249e-06	-1.941243e-08	-1.669026e+01	-1.279355e+03
6.800000e-07	-2.215068e-06	-1.914552e-08	-1.564374e+01	-1.260960e+03
6.900000e-07	-2.066195e-06	-1.886220e-08	-1.459234e+01	-1.241487e+03
7.000000e-07	-1.916755e-06	-1.856450e-08	-1.353693e+01	-1.221242e+03
7.100000e-07	-1.766721e-06	-1.825090e-08	-1.247732e+01	-1.200494e+03
7.200000e-07	-1.616118e-06	-1.792028e-08	-1.141370e+01	-1.179346e+03
7.300000e-07	-1.464832e-06	-1.757139e-08	-1.034526e+01	-1.157654e+03
7.400000e-07	-1.312847e-06	-1.720650e-08	-9.271881e+00	-1.135007e+03
7.500000e-07	-1.160370e-06	-1.682029e-08	-8.195020e+00	-1.110803e+03
7.600000e-07	-1.007629e-06	-1.640573e-08	-7.116298e+00	-1.084381e+03
7.700000e-07	-8.547193e-07	-1.596057e-08	-6.036387e+00	-1.055182e+03
7.800000e-07	-7.015157e-07	-1.548026e-08	-4.954399e+00	-1.022885e+03
7.900000e-07	-5.480329e-07	-1.496178e-08	-3.870439e+00	-9.874535e+02
8.000000e-07	-3.944213e-07	-1.440052e-08	-2.785569e+00	-9.490781e+02
8.100000e-07	-2.406434e-07	-1.379241e-08	-1.699525e+00	-9.079880e+02
8.200000e-07	-8.668161e-08	-1.312408e-08	-6.121820e-01	-8.641847e+02
8.300000e-07	6.737080e-08	-1.238276e-08	4.758009e-01	-8.171564e+02
8.400000e-07	2.213925e-07	-1.155684e-08	1.563567e+00	-7.656601e+02
8.500000e-07	3.753927e-07	-1.063231e-08	2.651181e+00	-7.076551e+02
8.600000e-07	5.293151e-07	-9.587716e-09	3.738246e+00	-6.404413e+02
8.700000e-07	6.830013e-07	-8.390752e-09	4.823642e+00	-5.610158e+02
8.800000e-07	8.364381e-07	-6.996829e-09	5.907278e+00	-4.666020e+02
8.900000e-07	9.896370e-07	-5.340986e-09	6.989233e+00	-3.552617e+02
9.000000e-07	1.142580e-06	-3.362799e-09	8.069381e+00	-2.264648e+02
9.100000e-07	1.295225e-06	-1.086906e-09	9.147423e+00	-8.148977e+01
9.200000e-07	1.447489e-06	1.336975e-09	1.022278e+01	7.645075e+01
9.300000e-07	1.599184e-06	3.788201e-09	1.129411e+01	2.424094e+02
9.400000e-07	1.750287e-06	6.240815e-09	1.236126e+01	4.102168e+02
9.500000e-07	1.900788e-06	8.689553e-09	1.342417e+01	5.732283e+02
9.600000e-07	2.050493e-06	1.108299e-08	1.448144e+01	7.251718e+02
9.700000e-07	2.199344e-06	1.323779e-08	1.553269e+01	8.609457e+02
9.800000e-07	2.347312e-06	1.498684e-08	1.657771e+01	9.772186e+02
9.900000e-07	2.494389e-06	1.634044e-08	1.761642e+01	1.072728e+03
1.000000e-06	2.640537e-06	1.739177e-08	1.864858e+01	1.148235e+03
1.010000e-06	2.785719e-06	1.821964e-08	1.967392e+01	1.206163e+03
1.020000e-06	2.929952e-06	1.888698e-08	2.069255e+01	1.250011e+03
1.030000e-06	3.073045e-06	1.943798e-08	2.170313e+01	1.283665e+03
1.040000e-06	3.214889e-06	1.990093e-08	2.270490e+01	1.310757e+03
1.050000e-06	3.355501e-06	2.029774e-08	2.369796e+01	1.334178e+03
1.060000e-06	3.494786e-06	2.064287e-08	2.468165e+01	1.355820e+03
1.070000e-06	3.632763e-06	2.095070e-08	2.565610e+01	1.376573e+03
1.080000e-06	3.769399e-06	2.122872e-08	2.662108e+01	1.396521e+03
1.090000e-06	3.904550e-06	2.148040e-08	2.757557e+01	1.415267e+03
1.100000e-06	4.038217e-06	2.171065e-08	2.851959e+01	1.432284e+03
1.110000e-06	4.170477e-06	2.192412e-08	2.945366e+01	1.447210e+03
1.120000e-06	4.301279e-06	2.212197e-08	3.037744e+01	1.460013e+03
1.130000e-06	4.430637e-06	2.230649e-08	3.129102e+01	1.471018e+03
1.140000e-06	4.558482e-06	2.248160e-08	3.219392e+01	1.480802e+03
1.150000e-06	4.684673e-06	2.264725e-08	3.308513e+01	1.490025e+03
1.160000e-06	4.809269e-06	2.280224e-08	3.396508e+01	1.499240e+03
1.170000e-06	4.932185e-06	2.295025e-08	3.483317e+01	1.508755e+03
1.180000e-06	5.053344e-06	2.309241e-08	3.568884e+01	1.518580e+03
1.190000e-06	5.172651e-06	2.322909e-08	3.653144e+01	1.528467e+03
1.200000e-06	5.290025e-06	2.335924e-08	3.736038e+01	1.538018e+03
1.210000e-06	5.405388e-06	2.348225e-08	3.817512e+01	1.546833e+03
1.220000e-06	5.518622e-06	2.359870e-08	3.897483e+01	1.554644e+03
1.230000e-06	5.629766e-06	2.370717e-08	3.975978e+01	1.561391e+03
1.240000e-06	5.738965e-06	2.380837e-08	4.053099e+01	1.567236e+03
1.250000e-06	5.846191e-06	2.390540e-08	4.128826e+01	1.572503e+03
1.260000e-06	5.951261e-06	2.399926e-08	4.203031e+01	1.577571e+03
1.270000e-06	6.054081e-06	2.408846e-08	4.275647e+01	1.582766e+03
1.280000e-06	6.154664e-06	2.417349e-08	4.346683e+01	1.588264e+03
1.290000e-06	6.252972e-06	2.425442e-08	4.416112e+01	1.594057e+03
1.300000e-06	6.348898e-06	2.433172e-08	4.483859e+01	1.599971e+03
1.310000e-06	6.442508e-06	2.440531e-08	4.549970e+01	1.605736e+03
1.320000e-06	6.533827e-06	2.447655e-08	4.614463e+01	1.611083e+03
1.330000e-06	6.622833e-06	2.454768e-08	4.677323e+01	1.615827e+03
1.340000e-06	6.709512e-06	2.461757e-08	4.738540e+01	1.619930e+03
1.350000e-06	6.793850e-06	2.468381e-08	4.798102e+01	1.623501e+03
1.360000e-06	6.875819e-06	2.474604e-08	4.855993e+01	1.626763e+03
1.370000e-06	6.955276e-06	2.480523e-08	4.912109e+01	1.629973e+03
1.380000e-06	7.032185e-06	2.486149e-08	4.966425e+01	1.633342e+03
1.390000e-06	7.106494e-06	2.491547e-08	5.018905e+01	1.636973e+03
1.400000e-06	7.178112e-06	2.496838e-08	5.069485e+01	1.640828e+03
1.410000e-06	7.247187e-06	2.501916e-08	5.118269e+01	1.644748e+03
1.420000e-06	7.313686e-06	2.506723e-08	5.165233e+01	1.648505e+03
1.430000e-06	7.377540e-06	2.511352e-08	5.210329e+01	1.651878e+03
1.440000e-06	7.438883e-06	2.515826e-08	5.253652e+01	1.654720e+03
1.450000e-06	7.497677e-06	2.520074e-08	5.295175e+01	1.657006e+03
1.460000e-06	7.553812e-06	2.523987e-08	5.334819e+01	1.658830e+03
1.470000e-06	7.607167e-06	2.527489e-08	5.372502e+01	1.660381e+03
1.480000e-06	7.657454e-06	2.530630e-08	5.408016e+01	1.661876e+03
1.490000e-06	7.704692e-06	2.533495e-08	5.441377e+01	1.663494e+03
1.500000e-06	7.749192e-06	2.536228e-08	5.472806e+01	1.665322e+03
1.510000e-06	7.790947e-06	2.538813e-08	5.502295e+01	1.667328e+03
1.520000e-06	7.829869e-06	2.541225e-08	5.529783e+01	1.669378e+03
1.530000e-06	7.866114e-06	2.543408e-08	5.555380e+01	1.671281e+03
1.540000e-06	7.899569e-06	2.545425e-08	5.579008e+01	1.672851e+03
1.550000e-06	7.930149e-06	2.547257e-08	5.600605e+01	1.673966e+03
1.560000e-06	7.958019e-06	2.548752e-08	5.620288e+01	1.674606e+03
1.570000e-06	7.982990e-06	2.550005e-08	5.637923e+01	1.674861e+03
1.580000e-06	8.005008e-06	2.551135e-08	5.653474e+01	1.674899e+03
1.590000e-06	8.024263e-06	2.552152e-08	5.667072e+01	1.674917e+03
1.600000e-06	8.040591e-06	2.552948e-08	5.678603e+01	1.675074e+03
1.610000e-06	8.053844e-06	2.553601e-08	5.687963e+01	1.675450e+03
1.620000e-06	8.064002e-06	2.554243e-08	5.695137e+01	1.676018e+03
1.630000e-06	8.071105e-06	2.554764e-08	5.700154e+01	1.676655e+03
1.640000e-06	8.075371e-06	2.555038e-08	5.703167e+01	1.677184e+03
1.650000e-06	8.076763e-06	2.555031e-08	5.704150e+01	1.677428e+03
1.660000e-06	8.075322e-06	2.554939e-08	5.703132e+01	1.677266e+03
1.670000e-06	8.071290e-06	2.554066e-08	5.700285e+01	1.676666e+03
1.680000e-06	8.064566e-06	2.553251e-08	5.695536e+01	1.675696e+03
1.690000e-06	8.055079e-06	2.552210e-08	5.688836e+01	1.674499e+03
1.700000e-06	8.042843e-06	2.550851e-08	5.680194e+01	1.673248e+03
1.710000e-06	8.027829e-06	2.549609e-08	5.669591e+01	1.672090e+03
1.720000e-06	8.010300e-06	2.548237e-08	5.657211e+01	1.671107e+03
1.730000e-06	7.990427e-06	2.545858e-08	5.643176e+01	1.670289e+03
1.740000e-06	7.967860e-06	2.539447e-08	5.627238e+01	1.669549e+03
1.750000e-06	7.941895e-06	2.534970e-08	5.608900e+01	1.668748e+03
1.760000e-06	7.912166e-06	2.537422e-08	5.587904e+01	1.667750e+03
1.770000e-06	7.879170e-06	2.536478e-08	5.564601e+01	1.666464e+03
1.780000e-06	7.843724e-06	2.534399e-08	5.539567e+01	1.664873e+03
1.790000e-06	7.806086e-06	2.537028e-08	5.512986e+01	1.663038e+03
1.800000e-06	7.766394e-06	2.540025e-08	5.484954e+01	1.661076e+03
1.810000e-06	7.724468e-06	2.528787e-08	5.455344e+01	1.659111e+03
1.820000e-06	7.679814e-06	2.531105e-08	5.423808e+01	1.657234e+03
1.830000e-06	7.632515e-06	2.531167e-08	5.390403e+01	1.655462e+03
1.840000e-06	7.582393e-06	2.522905e-08	5.355005e+01	1.653724e+03
1.850000e-06	7.529229e-06	2.530102e-08	5.317459e+01	1.651884e+03
1.860000e-06	7.473213e-06	2.519378e-08	5.277897e+01	1.649774e+03
1.870000e-06	7.414470e-06	2.513312e-08	5.236411e+01	1.647245e+03
1.880000e-06	7.353126e-06	2.506000e-08	5.193087e+01	1.644221e+03
1.890000e-06	7.288998e-06	2.502529e-08	5.147797e+01	1.640716e+03
1.900000e-06	7.221997e-06	2.502742e-08	5.100478e+01	1.636837e+03
1.910000e-06	7.152193e-06	2.491848e-08	5.051180e+01	1.632754e+03
1.920000e-06	7.079552e-06	2.493839e-08	4.999877e+01	1.628642e+03
1.930000e-06	7.004222e-06	2.483203e-08	4.946677e+01	1.624635e+03
1.940000e-06	6.926174e-06	2.474729e-08	4.891555e+01	1.620776e+03
1.950000e-06	6.845455e-06	2.471297e-08	4.834548e+01	1.617009e+03
1.960000e-06	6.762215e-06	2.463773e-08	4.775761e+01	1.613193e+03
1.970000e-06	6.676458e-06	2.459126e-08	4.715196e+01	1.609145e+03
1.980000e-06	6.588232e-06	2.447140e-08	4.652887e+01	1.604701e+03
1.990000e-06	6.497619e-06	2.443346e-08	4.588892e+01	1.599765e+03
2.000000e-06	6.404751e-06	2.434282e-08	4.523305e+01	1.594343e+03
2.010000e-06	6.309598e-06	2.425970e-08	4.456104e+01	1.588537e+03
2.020000e-06	6.212185e-06	2.417905e-08	4.387306e+01	1.582520e+03
2.030000e-06	6.112567e-06	2.409291e-08	4.316952e+01	1.576472e+03
2.040000e-06	6.010775e-06	2.401294e-08	4.245062e+01	1.570527e+03
2.050000e-06	5.906802e-06	2.390521e-08	4.171632e+01	1.564722e+03
2.060000e-06	5.800823e-06	2.383408e-08	4.096785e+01	1.558982e+03
2.070000e-06	5.692886e-06	2.372127e-08	4.020555e+01	1.553142e+03
2.080000e-06	5.582930e-06	2.361864e-08	3.942900e+01	1.546992e+03
2.090000e-06	5.470967e-06	2.350692e-08	3.863827e+01	1.540343e+03
2.100000e-06	5.356861e-06	2.340960e-08	3.783240e+01	1.533088e+03
2.110000e-06	5.240657e-06	2.329819e-08	3.701172e+01	1.525235e+03
2.120000e-06	5.122488e-06	2.318574e-08	3.617716e+01	1.516907e+03
2.130000e-06	5.002448e-06	2.306672e-08	3.532939e+01	1.508301e+03
2.140000e-06	4.880608e-06	2.293270e-08	3.446891e+01	1.499628e+03
2.150000e-06	4.756938e-06	2.280095e-08	3.359549e+01	1.491034e+03
2.160000e-06	4.631457e-06	2.266725e-08	3.270930e+01	1.482554e+03
2.170000e-06	4.504310e-06	2.253819e-08	3.181133e+01	1.474088e+03
2.180000e-06	4.375575e-06	2.239402e-08	3.090215e+01	1.465425e+03
2.190000e-06	4.245335e-06	2.225088e-08	2.998234e+01	1.456301e+03
2.200000e-06	4.113507e-06	2.209680e-08	2.905132e+01	1.446480e+03
2.210000e-06	3.980083e-06	2.194034e-08	2.810902e+01	1.435824e+03
2.220000e-06	3.845220e-06	2.177301e-08	2.715656e+01	1.424339e+03
2.230000e-06	3.708824e-06	2.160703e-08	2.619327e+01	1.412171e+03
2.240000e-06	3.570957e-06	2.143123e-08	2.521960e+01	1.399561e+03
2.250000e-06	3.431707e-06	2.124361e-08	2.423616e+01	1.386759e+03
2.260000e-06	3.291096e-06	2.104842e-08	2.324310e+01	1.373940e+03
2.270000e-06	3.149288e-06	2.084543e-08	2.224160e+01	1.361128e+03
2.280000e-06	3.006351e-06	2.063771e-08	2.123211e+01	1.348173e+03
2.290000e-06	2.862224e-06	2.042334e-08	2.021423e+01	1.334781e+03
2.300000e-06	2.716993e-06	2.020136e-08	1.918855e+01	1.320588e+03
2.310000e-06	2.570922e-06	1.996276e-08	1.815693e+01	1.305265e+03
2.320000e-06	2.424035e-06	1.971158e-08	1.711956e+01	1.288611e+03
2.330000e-06	2.276172e-06	1.944885e-08	1.607529e+01	1.270618e+03
2.340000e-06	2.127412e-06	1.917680e-08	1.502468e+01	1.251459e+03
2.350000e-06	1.978009e-06	1.889238e-08	1.396953e+01	1.231429e+03
2.360000e-06	1.828003e-06	1.859419e-08	1.291012e+01	1.210821e+03
2.370000e-06	1.677411e-06	1.827726e-08	1.184658e+01	1.189805e+03
2.380000e-06	1.526328e-06	1.793565e-08	1.077957e+01	1.168320e+03
2.390000e-06	1.374825e-06	1.757317e-08	9.709593e+00	1.146039e+03
2.400000e-06	1.222867e-06	1.719376e-08	8.636404e+00	1.122408e+03
2.410000e-06	1.070410e-06	1.679169e-08	7.559686e+00	1.096768e+03
2.420000e-06	9.175142e-07	1.636022e-08	6.479871e+00	1.068511e+03
2.430000e-06	7.643065e-07	1.589718e-08	5.397854e+00	1.037227e+03
2.440000e-06	6.108917e-07	1.539706e-08	4.314374e+00	1.002791e+03
2.450000e-06	4.572863e-07	1.485308e-08	3.229548e+00	9.653339e+02
2.460000e-06	3.035087e-07	1.426008e-08	2.143506e+00	9.250994e+02
2.470000e-06	1.496274e-07	1.361214e-08	1.056731e+00	8.821941e+02
2.480000e-06	-4.321930e-09	1.289986e-08	-3.052329e-02	8.362999e+02
2.490000e-06	-1.582753e-07	1.211081e-08	-1.117807e+00	7.864249e+02
2.500000e-06	-3.121983e-07	1.123010e-08	-2.204875e+00	7.307801e+02
2.510000e-06	-4.660663e-07	1.023796e-08	-3.291556e+00	6.668487e+02
2.520000e-06	-6.198174e-07	9.103175e-09	-4.377411e+00	5.916743e+02
2.530000e-06	-7.734118e-07	7.784857e-09	-5.462160e+00	5.023424e+02
2.540000e-06	-9.267751e-07	6.233447e-09	-6.545275e+00	3.965784e+02
2.550000e-06	-1.079794e-06	4.383750e-09	-7.625956e+00	2.733457e+02
2.560000e-06	-1.232398e-06	2.196625e-09	-8.703710e+00	1.333125e+02
2.570000e-06	-1.384559e-06	-2.315787e-10	-9.778341e+00	-2.092420e+01
2.580000e-06	-1.536181e-06	-2.737443e-09	-1.084916e+01	-1.849329e+02
2.590000e-06	-1.687239e-06	-5.251668e-09	-1.191599e+01	-3.528645e+02
2.600000e-06	-1.837662e-06	-7.766303e-09	-1.297834e+01	-5.181365e+02
2.610000e-06	-1.987315e-06	-1.025337e-08	-1.403525e+01	-6.742645e+02
2.620000e-06	-2.136279e-06	-1.256619e-08	-1.508730e+01	-8.156932e+02
2.630000e-06	-2.284570e-06	-1.450119e-08	-1.613459e+01	-9.384735e+02
2.640000e-06	-2.431929e-06	-1.601028e-08	-1.717530e+01	-1.040666e+03
2.650000e-06	-2.578326e-06	-1.717850e-08	-1.820922e+01	-1.122408e+03
2.660000e-06	-2.723860e-06	-1.809232e-08	-1.923704e+01	-1.185643e+03
2.670000e-06	-2.868384e-06	-1.881976e-08	-2.025773e+01	-1.233597e+03
2.680000e-06	-3.011765e-06	-1.941295e-08	-2.127035e+01	-1.270108e+03
2.690000e-06	-3.153869e-06	-1.990596e-08	-2.227395e+01	-1.298951e+03
2.700000e-06	-3.294687e-06	-2.032361e-08	-2.326847e+01	-1.323295e+03
2.710000e-06	-3.434256e-06	-2.068640e-08	-2.425416e+01	-1.345365e+03
2.720000e-06	-3.572570e-06	-2.100616e-08	-2.523099e+01	-1.366362e+03
2.730000e-06	-3.709580e-06	-2.129068e-08	-2.619862e+01	-1.386596e+03
2.740000e-06	-3.845166e-06	-2.154827e-08	-2.715618e+01	-1.405786e+03
2.750000e-06	-3.979327e-06	-2.178577e-08	-2.810368e+01	-1.423411e+03
2.760000e-06	-4.112109e-06	-2.200787e-08	-2.904145e+01	-1.439030e+03
2.770000e-06	-4.243427e-06	-2.221490e-08	-2.996886e+01	-1.452496e+03
2.780000e-06	-4.373258e-06	-2.240594e-08	-3.088579e+01	-1.464025e+03
2.790000e-06	-4.501616e-06	-2.258169e-08	-3.179230e+01	-1.474129e+03
2.800000e-06	-4.628397e-06	-2.274456e-08	-3.268768e+01	-1.483464e+03
2.810000e-06	-4.753595e-06	-2.289673e-08	-3.357189e+01	-1.492634e+03
2.820000e-06	-4.877126e-06	-2.304225e-08	-3.444431e+01	-1.502036e+03
2.830000e-06	-4.998898e-06	-2.318273e-08	-3.530432e+01	-1.511778e+03
2.840000e-06	-5.118882e-06	-2.331755e-08	-3.615170e+01	-1.521684e+03
2.850000e-06	-5.236869e-06	-2.344379e-08	-3.698497e+01	-1.531389e+03
2.860000e-06	-5.352691e-06	-2.356196e-08	-3.780296e+01	-1.540479e+03
2.870000e-06	-5.466376e-06	-2.367497e-08	-3.860585e+01	-1.548630e+03
2.880000e-06	-5.577920e-06	-2.378402e-08	-3.939362e+01	-1.555711e+03
2.890000e-06	-5.687379e-06	-2.388832e-08	-4.016666e+01	-1.561817e+03
2.900000e-06	-5.794850e-06	-2.398554e-08	-4.092567e+01	-1.567228e+03
2.910000e-06	-5.900328e-06	-2.407711e-08	-4.167060e+01	-1.572319e+03
2.920000e-06	-6.003634e-06	-2.416362e-08	-4.240019e+01	-1.577446e+03
2.930000e-06	-6.104644e-06	-2.424566e-08	-4.311357e+01	-1.582838e+03
2.940000e-06	-6.203410e-06	-2.432442e-08	-4.381109e+01	-1.588548e+03
