# Temperatura_=_93.96
# Concentracion g/m^3_=_41000.0
# C_Vs_to_Am_M_A/Vsm_=_65563218390.804596
# pendiente_HvsI_1/m_=_3716.3
# ordenada_HvsI_A/m_=_1297.0
# frecuencia_Hz_=_302487.8478204823

Tiempo_(s)	Campo_(V.s)	Magnetizacion_(V.s)	Campo_(kA/m)	Magnetizacion_(A/m)
0.000000e+00	-8.036803e-06	-2.428770e-08	-5.685689e+01	-1.591222e+03
1.000000e-08	-8.032130e-06	-2.428187e-08	-5.682384e+01	-1.590151e+03
2.000000e-08	-8.024927e-06	-2.426813e-08	-5.677288e+01	-1.588765e+03
3.000000e-08	-8.014952e-06	-2.425520e-08	-5.670231e+01	-1.587316e+03
4.000000e-08	-8.002064e-06	-2.424101e-08	-5.661113e+01	-1.586029e+03
5.000000e-08	-7.986211e-06	-2.422335e-08	-5.649898e+01	-1.585035e+03
6.000000e-08	-7.967655e-06	-2.420374e-08	-5.636770e+01	-1.584330e+03
7.000000e-08	-7.946792e-06	-2.418222e-08	-5.622011e+01	-1.583780e+03
8.000000e-08	-7.923313e-06	-2.420699e-08	-5.605401e+01	-1.583172e+03
9.000000e-08	-7.896633e-06	-2.423574e-08	-5.586525e+01	-1.582279e+03
1.000000e-07	-7.866750e-06	-2.416697e-08	-5.565385e+01	-1.580943e+03
1.100000e-07	-7.833996e-06	-2.410351e-08	-5.542212e+01	-1.579122e+03
1.200000e-07	-7.798471e-06	-2.407327e-08	-5.517080e+01	-1.576905e+03
1.300000e-07	-7.760492e-06	-2.401454e-08	-5.490211e+01	-1.574483e+03
1.400000e-07	-7.720378e-06	-2.394001e-08	-5.461833e+01	-1.572083e+03
1.500000e-07	-7.677917e-06	-2.396628e-08	-5.431793e+01	-1.569894e+03
1.600000e-07	-7.632733e-06	-2.400973e-08	-5.399828e+01	-1.567994e+03
1.700000e-07	-7.584903e-06	-2.386137e-08	-5.365990e+01	-1.566326e+03
1.800000e-07	-7.534035e-06	-2.386759e-08	-5.330003e+01	-1.564703e+03
1.900000e-07	-7.479979e-06	-2.380941e-08	-5.291761e+01	-1.562864e+03
2.000000e-07	-7.423234e-06	-2.369085e-08	-5.251616e+01	-1.560553e+03
2.100000e-07	-7.363805e-06	-2.370990e-08	-5.209572e+01	-1.557594e+03
2.200000e-07	-7.301762e-06	-2.364645e-08	-5.165680e+01	-1.553952e+03
2.300000e-07	-7.237120e-06	-2.361858e-08	-5.119948e+01	-1.549744e+03
2.400000e-07	-7.169729e-06	-2.354064e-08	-5.072272e+01	-1.545201e+03
2.500000e-07	-7.099569e-06	-2.349106e-08	-5.022637e+01	-1.540602e+03
2.600000e-07	-7.026583e-06	-2.342699e-08	-4.971002e+01	-1.536185e+03
2.700000e-07	-6.950825e-06	-2.335783e-08	-4.917407e+01	-1.532075e+03
2.800000e-07	-6.872331e-06	-2.331660e-08	-4.861876e+01	-1.528241e+03
2.900000e-07	-6.791072e-06	-2.323416e-08	-4.804389e+01	-1.524508e+03
3.000000e-07	-6.707360e-06	-2.317138e-08	-4.745166e+01	-1.520611e+03
3.100000e-07	-6.621363e-06	-2.307203e-08	-4.684327e+01	-1.516277e+03
3.200000e-07	-6.533028e-06	-2.298838e-08	-4.621834e+01	-1.511314e+03
3.300000e-07	-6.442309e-06	-2.291872e-08	-4.557654e+01	-1.505671e+03
3.400000e-07	-6.349301e-06	-2.283080e-08	-4.491855e+01	-1.499459e+03
3.500000e-07	-6.254075e-06	-2.275849e-08	-4.424487e+01	-1.492914e+03
3.600000e-07	-6.156468e-06	-2.267155e-08	-4.355434e+01	-1.486324e+03
3.700000e-07	-6.056564e-06	-2.257381e-08	-4.284757e+01	-1.479939e+03
3.800000e-07	-5.954545e-06	-2.246880e-08	-4.212582e+01	-1.473883e+03
3.900000e-07	-5.850374e-06	-2.237379e-08	-4.138886e+01	-1.468117e+03
4.000000e-07	-5.744069e-06	-2.227491e-08	-4.063680e+01	-1.462441e+03
4.100000e-07	-5.635799e-06	-2.217259e-08	-3.987083e+01	-1.456555e+03
4.200000e-07	-5.525592e-06	-2.207509e-08	-3.909116e+01	-1.450152e+03
4.300000e-07	-5.413386e-06	-2.196191e-08	-3.829736e+01	-1.443012e+03
4.400000e-07	-5.299093e-06	-2.183909e-08	-3.748878e+01	-1.435076e+03
4.500000e-07	-5.182753e-06	-2.171442e-08	-3.666573e+01	-1.426467e+03
4.600000e-07	-5.064498e-06	-2.159273e-08	-3.582913e+01	-1.417450e+03
4.700000e-07	-4.944420e-06	-2.146858e-08	-3.497962e+01	-1.408352e+03
4.800000e-07	-4.822549e-06	-2.134068e-08	-3.411744e+01	-1.399454e+03
4.900000e-07	-4.698872e-06	-2.120953e-08	-3.324248e+01	-1.390895e+03
5.000000e-07	-4.573491e-06	-2.106974e-08	-3.235546e+01	-1.382618e+03
5.100000e-07	-4.446485e-06	-2.092242e-08	-3.145695e+01	-1.374380e+03
5.200000e-07	-4.317879e-06	-2.076996e-08	-3.054712e+01	-1.365820e+03
5.300000e-07	-4.187680e-06	-2.061485e-08	-2.962602e+01	-1.356563e+03
5.400000e-07	-4.055854e-06	-2.045990e-08	-2.869341e+01	-1.346345e+03
5.500000e-07	-3.922507e-06	-2.029644e-08	-2.775004e+01	-1.335092e+03
5.600000e-07	-3.787695e-06	-2.012359e-08	-2.679630e+01	-1.322949e+03
5.700000e-07	-3.651398e-06	-1.994068e-08	-2.583206e+01	-1.310242e+03
5.800000e-07	-3.513718e-06	-1.975587e-08	-2.485803e+01	-1.297368e+03
5.900000e-07	-3.374557e-06	-1.956848e-08	-2.387353e+01	-1.284667e+03
6.000000e-07	-3.233892e-06	-1.937756e-08	-2.287838e+01	-1.272297e+03
6.100000e-07	-3.091896e-06	-1.917739e-08	-2.187382e+01	-1.260168e+03
6.200000e-07	-2.948751e-06	-1.896541e-08	-2.086114e+01	-1.247947e+03
6.300000e-07	-2.804540e-06	-1.874508e-08	-1.984090e+01	-1.235143e+03
6.400000e-07	-2.659209e-06	-1.851492e-08	-1.881275e+01	-1.221249e+03
6.500000e-07	-2.512947e-06	-1.828153e-08	-1.777801e+01	-1.205892e+03
6.600000e-07	-2.365883e-06	-1.803920e-08	-1.673760e+01	-1.188959e+03
6.700000e-07	-2.218029e-06	-1.778523e-08	-1.569159e+01	-1.170627e+03
6.800000e-07	-2.069487e-06	-1.751420e-08	-1.464072e+01	-1.151314e+03
6.900000e-07	-1.920304e-06	-1.722803e-08	-1.358532e+01	-1.131535e+03
7.000000e-07	-1.770497e-06	-1.692810e-08	-1.252550e+01	-1.111715e+03
7.100000e-07	-1.620059e-06	-1.661454e-08	-1.146121e+01	-1.092013e+03
7.200000e-07	-1.469082e-06	-1.628525e-08	-1.039312e+01	-1.072213e+03
7.300000e-07	-1.317737e-06	-1.593681e-08	-9.322417e+00	-1.051728e+03
7.400000e-07	-1.165930e-06	-1.556936e-08	-8.248449e+00	-1.029716e+03
7.500000e-07	-1.013600e-06	-1.517806e-08	-7.170779e+00	-1.005299e+03
7.600000e-07	-8.608462e-07	-1.476092e-08	-6.090114e+00	-9.777915e+02
7.700000e-07	-7.078156e-07	-1.431149e-08	-5.007489e+00	-9.468981e+02
7.800000e-07	-5.545867e-07	-1.383108e-08	-3.923460e+00	-9.127744e+02
7.900000e-07	-4.011705e-07	-1.331296e-08	-2.838107e+00	-8.759297e+02
8.000000e-07	-2.476354e-07	-1.274736e-08	-1.751913e+00	-8.369643e+02
8.100000e-07	-9.397886e-08	-1.212307e-08	-6.648597e-01	-7.961970e+02
8.200000e-07	5.978950e-08	-1.142901e-08	4.229848e-01	-7.532790e+02
8.300000e-07	2.135730e-07	-1.065754e-08	1.510936e+00	-7.069080e+02
8.400000e-07	3.673051e-07	-9.793368e-09	2.598524e+00	-6.547489e+02
8.500000e-07	5.209829e-07	-8.818211e-09	3.685728e+00	-5.936249e+02
8.600000e-07	6.744995e-07	-7.698939e-09	4.771791e+00	-5.199823e+02
8.700000e-07	8.277832e-07	-6.389291e-09	5.856207e+00	-4.305608e+02
8.800000e-07	9.808375e-07	-4.826984e-09	6.939000e+00	-3.231440e+02
8.900000e-07	1.133558e-06	-2.943904e-09	8.019432e+00	-1.972274e+02
9.000000e-07	1.285860e-06	-7.284252e-10	9.096905e+00	-5.444879e+01
9.100000e-07	1.437758e-06	1.680163e-09	1.017151e+01	1.013372e+02
9.200000e-07	1.589122e-06	4.128319e-09	1.124235e+01	2.643851e+02
9.300000e-07	1.739874e-06	6.577712e-09	1.230885e+01	4.277448e+02
9.400000e-07	1.890097e-06	9.006105e-09	1.337162e+01	5.841901e+02
9.500000e-07	2.039619e-06	1.126687e-08	1.442942e+01	7.272144e+02
9.600000e-07	2.188264e-06	1.314644e-08	1.548102e+01	8.519042e+02
9.700000e-07	2.336076e-06	1.460229e-08	1.652672e+01	9.555247e+02
9.800000e-07	2.483016e-06	1.572330e-08	1.756626e+01	1.037716e+03
9.900000e-07	2.628977e-06	1.659898e-08	1.859887e+01	1.100277e+03
1.000000e-06	2.773916e-06	1.729387e-08	1.962426e+01	1.146612e+03
1.010000e-06	2.917864e-06	1.785806e-08	2.064262e+01	1.180959e+03
1.020000e-06	3.060766e-06	1.832833e-08	2.165359e+01	1.207584e+03
1.030000e-06	3.202493e-06	1.872781e-08	2.265625e+01	1.230096e+03
1.040000e-06	3.342942e-06	1.907756e-08	2.364987e+01	1.251005e+03
1.050000e-06	3.482101e-06	1.938642e-08	2.463436e+01	1.271588e+03
1.060000e-06	3.619904e-06	1.966711e-08	2.560925e+01	1.292034e+03
1.070000e-06	3.756231e-06	1.992416e-08	2.657370e+01	1.311801e+03
1.080000e-06	3.891107e-06	2.015884e-08	2.752790e+01	1.330060e+03
1.090000e-06	4.024632e-06	2.037522e-08	2.847252e+01	1.346108e+03
1.100000e-06	4.156769e-06	2.057812e-08	2.940734e+01	1.359649e+03
1.110000e-06	4.287434e-06	2.076812e-08	3.033174e+01	1.370895e+03
1.120000e-06	4.416619e-06	2.094441e-08	3.124566e+01	1.380482e+03
1.130000e-06	4.544264e-06	2.111202e-08	3.214870e+01	1.389264e+03
1.140000e-06	4.670370e-06	2.127315e-08	3.304084e+01	1.398058e+03
1.150000e-06	4.794872e-06	2.142682e-08	3.392164e+01	1.407413e+03
1.160000e-06	4.917651e-06	2.157305e-08	3.479025e+01	1.417490e+03
1.170000e-06	5.038691e-06	2.171469e-08	3.564655e+01	1.428061e+03
1.180000e-06	5.157904e-06	2.185211e-08	3.648993e+01	1.438622e+03
1.190000e-06	5.275157e-06	2.198271e-08	3.731944e+01	1.448580e+03
1.200000e-06	5.390385e-06	2.210653e-08	3.813464e+01	1.457453e+03
1.210000e-06	5.503549e-06	2.222556e-08	3.893522e+01	1.465012e+03
1.220000e-06	5.614673e-06	2.233779e-08	3.972138e+01	1.471342e+03
1.230000e-06	5.723834e-06	2.244279e-08	4.049364e+01	1.476796e+03
1.240000e-06	5.830922e-06	2.254337e-08	4.125125e+01	1.481877e+03
1.250000e-06	5.935804e-06	2.264092e-08	4.199324e+01	1.487073e+03
1.260000e-06	6.038514e-06	2.273401e-08	4.271987e+01	1.492719e+03
1.270000e-06	6.139060e-06	2.282277e-08	4.343119e+01	1.498903e+03
1.280000e-06	6.237314e-06	2.290778e-08	4.412629e+01	1.505462e+03
1.290000e-06	6.333196e-06	2.299028e-08	4.480461e+01	1.512054e+03
1.300000e-06	6.426812e-06	2.306784e-08	4.546690e+01	1.518275e+03
1.310000e-06	6.518194e-06	2.314102e-08	4.611339e+01	1.523798e+03
1.320000e-06	6.607161e-06	2.321306e-08	4.674280e+01	1.528474e+03
1.330000e-06	6.693754e-06	2.328474e-08	4.735540e+01	1.532372e+03
1.340000e-06	6.778070e-06	2.335452e-08	4.795190e+01	1.535752e+03
1.350000e-06	6.859991e-06	2.342103e-08	4.853146e+01	1.538977e+03
1.360000e-06	6.939393e-06	2.348433e-08	4.909319e+01	1.542393e+03
1.370000e-06	7.016242e-06	2.354527e-08	4.963687e+01	1.546225e+03
1.380000e-06	7.090411e-06	2.360476e-08	5.016158e+01	1.550508e+03
1.390000e-06	7.161913e-06	2.366275e-08	5.066743e+01	1.555082e+03
1.400000e-06	7.230976e-06	2.371726e-08	5.115602e+01	1.559649e+03
1.410000e-06	7.297513e-06	2.376752e-08	5.162674e+01	1.563871e+03
1.420000e-06	7.361390e-06	2.381644e-08	5.207864e+01	1.567473e+03
1.430000e-06	7.422796e-06	2.386407e-08	5.251306e+01	1.570332e+03
1.440000e-06	7.481672e-06	2.390937e-08	5.292958e+01	1.572506e+03
1.450000e-06	7.537799e-06	2.395235e-08	5.332666e+01	1.574214e+03
1.460000e-06	7.591139e-06	2.399228e-08	5.370402e+01	1.575763e+03
1.470000e-06	7.641452e-06	2.402971e-08	5.405996e+01	1.577447e+03
1.480000e-06	7.688727e-06	2.406401e-08	5.439441e+01	1.579458e+03
1.490000e-06	7.733322e-06	2.409518e-08	5.470990e+01	1.581829e+03
1.500000e-06	7.775192e-06	2.412344e-08	5.500611e+01	1.584425e+03
1.510000e-06	7.814176e-06	2.414925e-08	5.528191e+01	1.586991e+03
1.520000e-06	7.850498e-06	2.417408e-08	5.553887e+01	1.589237e+03
1.530000e-06	7.884028e-06	2.419720e-08	5.577608e+01	1.590926e+03
1.540000e-06	7.914686e-06	2.421752e-08	5.599297e+01	1.591955e+03
1.550000e-06	7.942687e-06	2.423393e-08	5.619107e+01	1.592379e+03
1.560000e-06	7.967784e-06	2.424709e-08	5.636862e+01	1.592395e+03
1.570000e-06	7.989926e-06	2.425916e-08	5.652526e+01	1.592282e+03
1.580000e-06	8.009327e-06	2.426985e-08	5.666251e+01	1.592310e+03
1.590000e-06	8.025857e-06	2.427796e-08	5.677946e+01	1.592655e+03
1.600000e-06	8.039329e-06	2.428419e-08	5.687476e+01	1.593354e+03
1.610000e-06	8.049638e-06	2.428889e-08	5.694769e+01	1.594288e+03
1.620000e-06	8.056890e-06	2.429235e-08	5.699900e+01	1.595229e+03
1.630000e-06	8.061343e-06	2.429499e-08	5.703051e+01	1.595910e+03
1.640000e-06	8.062897e-06	2.429682e-08	5.704150e+01	1.596107e+03
1.650000e-06	8.061611e-06	2.429593e-08	5.703240e+01	1.595716e+03
1.660000e-06	8.057736e-06	2.428488e-08	5.700499e+01	1.594774e+03
1.670000e-06	8.051099e-06	2.427693e-08	5.695803e+01	1.593452e+03
1.680000e-06	8.041759e-06	2.426646e-08	5.689196e+01	1.591993e+03
1.690000e-06	8.029748e-06	2.425175e-08	5.680698e+01	1.590639e+03
1.700000e-06	8.014873e-06	2.423944e-08	5.670175e+01	1.589554e+03
1.710000e-06	7.997404e-06	2.423271e-08	5.657816e+01	1.588773e+03
1.720000e-06	7.977664e-06	2.422029e-08	5.643851e+01	1.588197e+03
1.730000e-06	7.955244e-06	2.411855e-08	5.627990e+01	1.587627e+03
1.740000e-06	7.929351e-06	2.407473e-08	5.609672e+01	1.586834e+03
1.750000e-06	7.899704e-06	2.411555e-08	5.588698e+01	1.585633e+03
1.760000e-06	7.866881e-06	2.409922e-08	5.565477e+01	1.583945e+03
1.770000e-06	7.831696e-06	2.407723e-08	5.540585e+01	1.581823e+03
1.780000e-06	7.794242e-06	2.412888e-08	5.514088e+01	1.579435e+03
1.790000e-06	7.754681e-06	2.410373e-08	5.486101e+01	1.577005e+03
1.800000e-06	7.713006e-06	2.395809e-08	5.456617e+01	1.574740e+03
1.810000e-06	7.668670e-06	2.402937e-08	5.425252e+01	1.572755e+03
1.820000e-06	7.621642e-06	2.396545e-08	5.391981e+01	1.571033e+03
1.830000e-06	7.571706e-06	2.394941e-08	5.356653e+01	1.569421e+03
1.840000e-06	7.518661e-06	2.401576e-08	5.319126e+01	1.567670e+03
1.850000e-06	7.462812e-06	2.387596e-08	5.279616e+01	1.565514e+03
1.860000e-06	7.404314e-06	2.389360e-08	5.238231e+01	1.562748e+03
1.870000e-06	7.343264e-06	2.376251e-08	5.195041e+01	1.559295e+03
1.880000e-06	7.279384e-06	2.371372e-08	5.149849e+01	1.555227e+03
1.890000e-06	7.212598e-06	2.369659e-08	5.102601e+01	1.550750e+03
1.900000e-06	7.143069e-06	2.360723e-08	5.053412e+01	1.546137e+03
1.910000e-06	7.070676e-06	2.362695e-08	5.002197e+01	1.541648e+03
1.920000e-06	6.995537e-06	2.347722e-08	4.949039e+01	1.537444e+03
1.930000e-06	6.917608e-06	2.343651e-08	4.893908e+01	1.533541e+03
1.940000e-06	6.837020e-06	2.334566e-08	4.836895e+01	1.529802e+03
1.950000e-06	6.754004e-06	2.327384e-08	4.778165e+01	1.525980e+03
1.960000e-06	6.668522e-06	2.325341e-08	4.717690e+01	1.521793e+03
1.970000e-06	6.580629e-06	2.313663e-08	4.655510e+01	1.517020e+03
1.980000e-06	6.490391e-06	2.309318e-08	4.591670e+01	1.511566e+03
1.990000e-06	6.397860e-06	2.296321e-08	4.526208e+01	1.505495e+03
2.000000e-06	6.302952e-06	2.289315e-08	4.459065e+01	1.499014e+03
2.010000e-06	6.205817e-06	2.280104e-08	4.390346e+01	1.492407e+03
2.020000e-06	6.106543e-06	2.272991e-08	4.320114e+01	1.485941e+03
2.030000e-06	6.005020e-06	2.265043e-08	4.248292e+01	1.479786e+03
2.040000e-06	5.901301e-06	2.253823e-08	4.174915e+01	1.473950e+03
2.050000e-06	5.795538e-06	2.244364e-08	4.100091e+01	1.468274e+03
2.060000e-06	5.687865e-06	2.231533e-08	4.023918e+01	1.462479e+03
2.070000e-06	5.578210e-06	2.222071e-08	3.946341e+01	1.456250e+03
2.080000e-06	5.466503e-06	2.210078e-08	3.867314e+01	1.449332e+03
2.090000e-06	5.352693e-06	2.200340e-08	3.786798e+01	1.441617e+03
2.100000e-06	5.236854e-06	2.188595e-08	3.704847e+01	1.433177e+03
2.110000e-06	5.119043e-06	2.177592e-08	3.621501e+01	1.424242e+03
2.120000e-06	4.999308e-06	2.164473e-08	3.536794e+01	1.415133e+03
2.130000e-06	4.877734e-06	2.151368e-08	3.450785e+01	1.406154e+03
2.140000e-06	4.754358e-06	2.138310e-08	3.363502e+01	1.397493e+03
2.150000e-06	4.629281e-06	2.124974e-08	3.275015e+01	1.389151e+03
2.160000e-06	4.502483e-06	2.111835e-08	3.185311e+01	1.380934e+03
2.170000e-06	4.374032e-06	2.096774e-08	3.094438e+01	1.372503e+03
2.180000e-06	4.244020e-06	2.081570e-08	3.002460e+01	1.363478e+03
2.190000e-06	4.112424e-06	2.065289e-08	2.909362e+01	1.353550e+03
2.200000e-06	3.979295e-06	2.049889e-08	2.815179e+01	1.342585e+03
2.210000e-06	3.844684e-06	2.033918e-08	2.719947e+01	1.330668e+03
2.220000e-06	3.708553e-06	2.018106e-08	2.623640e+01	1.318081e+03
2.230000e-06	3.571028e-06	2.000438e-08	2.526347e+01	1.305213e+03
2.240000e-06	3.432204e-06	1.981614e-08	2.428136e+01	1.292434e+03
2.250000e-06	3.292074e-06	1.961932e-08	2.328999e+01	1.279965e+03
2.260000e-06	3.150676e-06	1.942193e-08	2.228967e+01	1.267790e+03
2.270000e-06	3.007989e-06	1.922115e-08	2.128021e+01	1.255640e+03
2.280000e-06	2.864094e-06	1.901197e-08	2.026222e+01	1.243054e+03
2.290000e-06	2.719178e-06	1.879205e-08	1.923701e+01	1.229516e+03
2.300000e-06	2.573361e-06	1.855543e-08	1.820542e+01	1.214600e+03
2.310000e-06	2.426696e-06	1.830975e-08	1.716782e+01	1.198110e+03
2.320000e-06	2.279190e-06	1.805723e-08	1.612428e+01	1.180142e+03
2.330000e-06	2.130890e-06	1.779861e-08	1.507513e+01	1.161055e+03
2.340000e-06	1.981862e-06	1.752874e-08	1.402081e+01	1.141356e+03
2.350000e-06	1.832190e-06	1.724496e-08	1.296195e+01	1.121516e+03
2.360000e-06	1.681959e-06	1.694158e-08	1.189913e+01	1.101783e+03
2.370000e-06	1.531162e-06	1.661643e-08	1.083231e+01	1.082055e+03
2.380000e-06	1.379836e-06	1.627267e-08	9.761743e+00	1.061841e+03
2.390000e-06	1.228032e-06	1.591549e-08	8.687795e+00	1.040357e+03
2.400000e-06	1.075823e-06	1.554124e-08	7.610980e+00	1.016707e+03
2.410000e-06	9.232642e-07	1.514057e-08	6.531693e+00	9.901307e+02
2.420000e-06	7.704352e-07	1.470777e-08	5.450495e+00	9.602065e+02
2.430000e-06	6.173185e-07	1.423822e-08	4.367261e+00	9.269637e+02
2.440000e-06	4.639254e-07	1.372841e-08	3.282071e+00	8.908311e+02
2.450000e-06	3.103228e-07	1.317498e-08	2.195399e+00	8.524174e+02
2.460000e-06	1.565567e-07	1.257323e-08	1.107571e+00	8.121628e+02
2.470000e-06	2.730497e-09	1.191171e-08	1.931708e-02	7.699451e+02
2.480000e-06	-1.511009e-07	1.117463e-08	-1.068974e+00	7.247531e+02
2.490000e-06	-3.048681e-07	1.034906e-08	-2.156809e+00	6.745398e+02
2.500000e-06	-4.585584e-07	9.420721e-09	-3.244102e+00	6.163327e+02
2.510000e-06	-6.121429e-07	8.361229e-09	-4.330645e+00	5.466245e+02
2.520000e-06	-7.654965e-07	7.127007e-09	-5.415556e+00	4.619952e+02
2.530000e-06	-9.185600e-07	5.665435e-09	-6.498414e+00	3.598551e+02
2.540000e-06	-1.071326e-06	3.912085e-09	-7.579164e+00	2.391536e+02
2.550000e-06	-1.223714e-06	1.806486e-09	-8.657243e+00	1.008919e+02
2.560000e-06	-1.375609e-06	-5.885261e-10	-9.731837e+00	-5.169319e+01
2.570000e-06	-1.526972e-06	-3.093345e-09	-1.080267e+01	-2.133405e+02
2.580000e-06	-1.677813e-06	-5.609757e-09	-1.186980e+01	-3.773570e+02
2.590000e-06	-1.828007e-06	-8.119083e-09	-1.293236e+01	-5.364932e+02
2.600000e-06	-1.977447e-06	-1.051580e-08	-1.398958e+01	-6.839390e+02
2.610000e-06	-2.126151e-06	-1.258021e-08	-1.504160e+01	-8.142506e+02
2.620000e-06	-2.274090e-06	-1.420450e-08	-1.608820e+01	-9.240327e+02
2.630000e-06	-2.421190e-06	-1.545471e-08	-1.712887e+01	-1.012251e+03
2.640000e-06	-2.567419e-06	-1.642464e-08	-1.816338e+01	-1.080132e+03
2.650000e-06	-2.712715e-06	-1.718795e-08	-1.919128e+01	-1.130694e+03
2.660000e-06	-2.856967e-06	-1.780227e-08	-2.021180e+01	-1.168019e+03
2.670000e-06	-3.000137e-06	-1.830787e-08	-2.122467e+01	-1.196444e+03
2.680000e-06	-3.142109e-06	-1.873369e-08	-2.222906e+01	-1.219824e+03
2.690000e-06	-3.282807e-06	-1.910179e-08	-2.322444e+01	-1.241009e+03
2.700000e-06	-3.422166e-06	-1.942426e-08	-2.421034e+01	-1.261626e+03
2.710000e-06	-3.560221e-06	-1.971189e-08	-2.518702e+01	-1.282144e+03
2.720000e-06	-3.696986e-06	-1.997186e-08	-2.615457e+01	-1.302187e+03
2.730000e-06	-3.832404e-06	-2.021079e-08	-2.711259e+01	-1.320963e+03
2.740000e-06	-3.966462e-06	-2.043513e-08	-2.806100e+01	-1.337696e+03
2.750000e-06	-4.099064e-06	-2.064695e-08	-2.899910e+01	-1.351956e+03
2.760000e-06	-4.230245e-06	-2.084449e-08	-2.992715e+01	-1.363810e+03
2.770000e-06	-4.359991e-06	-2.102714e-08	-3.084505e+01	-1.373790e+03
2.780000e-06	-4.488209e-06	-2.119614e-08	-3.175213e+01	-1.382714e+03
2.790000e-06	-4.614884e-06	-2.135329e-08	-3.264830e+01	-1.391435e+03
2.800000e-06	-4.739986e-06	-2.150083e-08	-3.353334e+01	-1.400597e+03
2.810000e-06	-4.863413e-06	-2.164405e-08	-3.440654e+01	-1.410477e+03
2.820000e-06	-4.985097e-06	-2.178468e-08	-3.526740e+01	-1.420952e+03
2.830000e-06	-5.104936e-06	-2.192116e-08	-3.611521e+01	-1.431577e+03
2.840000e-06	-5.222845e-06	-2.204974e-08	-3.694936e+01	-1.441767e+03
2.850000e-06	-5.338684e-06	-2.217271e-08	-3.776888e+01	-1.450988e+03
2.860000e-06	-5.452315e-06	-2.229057e-08	-3.857277e+01	-1.458930e+03
2.870000e-06	-5.563733e-06	-2.240020e-08	-3.936100e+01	-1.465587e+03
2.880000e-06	-5.673029e-06	-2.250438e-08	-4.013422e+01	-1.471245e+03
2.890000e-06	-5.780403e-06	-2.260297e-08	-4.089384e+01	-1.476381e+03
2.900000e-06	-5.885807e-06	-2.269660e-08	-4.163953e+01	-1.481502e+03
2.910000e-06	-5.988987e-06	-2.278653e-08	-4.236948e+01	-1.487001e+03
2.920000e-06	-6.089898e-06	-2.287208e-08	-4.308339e+01	-1.493039e+03
2.930000e-06	-6.188630e-06	-2.295446e-08	-4.378188e+01	-1.499523e+03
2.940000e-06	-6.285196e-06	-2.303575e-08	-4.446503e+01	-1.506148e+03
