# Temperatura_=_68.79
# Concentracion g/m^3_=_41000.0
# C_Vs_to_Am_M_A/Vsm_=_65563218390.804596
# pendiente_HvsI_1/m_=_3716.3
# ordenada_HvsI_A/m_=_1297.0
# frecuencia_Hz_=_302474.9674650694

Tiempo_(s)	Campo_(V.s)	Magnetizacion_(V.s)	Campo_(kA/m)	Magnetizacion_(A/m)
0.000000e+00	-7.962214e-06	-2.280929e-08	-5.688414e+01	-1.495467e+03
1.000000e-08	-7.960051e-06	-2.280916e-08	-5.686869e+01	-1.495028e+03
2.000000e-08	-7.955213e-06	-2.280588e-08	-5.683412e+01	-1.494051e+03
3.000000e-08	-7.947832e-06	-2.279752e-08	-5.678139e+01	-1.492733e+03
4.000000e-08	-7.937740e-06	-2.279001e-08	-5.670930e+01	-1.491339e+03
5.000000e-08	-7.924762e-06	-2.278018e-08	-5.661658e+01	-1.490121e+03
6.000000e-08	-7.908825e-06	-2.276354e-08	-5.650272e+01	-1.489241e+03
7.000000e-08	-7.890293e-06	-2.274304e-08	-5.637032e+01	-1.488722e+03
8.000000e-08	-7.869497e-06	-2.272414e-08	-5.622175e+01	-1.488448e+03
9.000000e-08	-7.846003e-06	-2.275017e-08	-5.605390e+01	-1.488205e+03
1.000000e-07	-7.819266e-06	-2.277336e-08	-5.586288e+01	-1.487755e+03
1.100000e-07	-7.789353e-06	-2.272040e-08	-5.564918e+01	-1.486912e+03
1.200000e-07	-7.756610e-06	-2.267217e-08	-5.541525e+01	-1.485606e+03
1.300000e-07	-7.721175e-06	-2.264245e-08	-5.516210e+01	-1.483899e+03
1.400000e-07	-7.683372e-06	-2.257724e-08	-5.489202e+01	-1.481967e+03
1.500000e-07	-7.643512e-06	-2.252620e-08	-5.460725e+01	-1.480032e+03
1.600000e-07	-7.601298e-06	-2.257035e-08	-5.430566e+01	-1.478290e+03
1.700000e-07	-7.556345e-06	-2.257466e-08	-5.398450e+01	-1.476838e+03
1.800000e-07	-7.508735e-06	-2.248983e-08	-5.364437e+01	-1.475635e+03
1.900000e-07	-7.458159e-06	-2.249684e-08	-5.328304e+01	-1.474512e+03
2.000000e-07	-7.404471e-06	-2.243308e-08	-5.289948e+01	-1.473217e+03
2.100000e-07	-7.348062e-06	-2.235017e-08	-5.249648e+01	-1.471497e+03
2.200000e-07	-7.289012e-06	-2.235897e-08	-5.207461e+01	-1.469176e+03
2.300000e-07	-7.227320e-06	-2.232618e-08	-5.163387e+01	-1.466217e+03
2.400000e-07	-7.162963e-06	-2.227318e-08	-5.117409e+01	-1.462732e+03
2.500000e-07	-7.095917e-06	-2.219784e-08	-5.069509e+01	-1.458960e+03
2.600000e-07	-7.026204e-06	-2.219108e-08	-5.019704e+01	-1.455185e+03
2.700000e-07	-6.953766e-06	-2.216666e-08	-4.967953e+01	-1.451655e+03
2.800000e-07	-6.878552e-06	-2.208459e-08	-4.914218e+01	-1.448498e+03
2.900000e-07	-6.800558e-06	-2.203769e-08	-4.858496e+01	-1.445684e+03
3.000000e-07	-6.719802e-06	-2.199521e-08	-4.800802e+01	-1.443026e+03
3.100000e-07	-6.636586e-06	-2.192939e-08	-4.741351e+01	-1.440240e+03
3.200000e-07	-6.551210e-06	-2.184031e-08	-4.680356e+01	-1.437029e+03
3.300000e-07	-6.463611e-06	-2.180456e-08	-4.617773e+01	-1.433178e+03
3.400000e-07	-6.373595e-06	-2.175688e-08	-4.553463e+01	-1.428626e+03
3.500000e-07	-6.281231e-06	-2.166634e-08	-4.487476e+01	-1.423480e+03
3.600000e-07	-6.186643e-06	-2.160181e-08	-4.419900e+01	-1.417995e+03
3.700000e-07	-6.089732e-06	-2.153813e-08	-4.350664e+01	-1.412486e+03
3.800000e-07	-5.990552e-06	-2.146199e-08	-4.279807e+01	-1.407235e+03
3.900000e-07	-5.889321e-06	-2.137798e-08	-4.207485e+01	-1.402396e+03
4.000000e-07	-5.786096e-06	-2.130430e-08	-4.133739e+01	-1.397943e+03
4.100000e-07	-5.680783e-06	-2.122011e-08	-4.058500e+01	-1.393675e+03
4.200000e-07	-5.573399e-06	-2.113325e-08	-3.981782e+01	-1.389267e+03
4.300000e-07	-5.464110e-06	-2.105803e-08	-3.903703e+01	-1.384374e+03
4.400000e-07	-5.352938e-06	-2.097228e-08	-3.824279e+01	-1.378734e+03
4.500000e-07	-5.239718e-06	-2.087221e-08	-3.743392e+01	-1.372253e+03
4.600000e-07	-5.124371e-06	-2.076956e-08	-3.660985e+01	-1.365032e+03
4.700000e-07	-5.007023e-06	-2.066987e-08	-3.577148e+01	-1.357344e+03
4.800000e-07	-4.887868e-06	-2.056110e-08	-3.492021e+01	-1.349543e+03
4.900000e-07	-4.767011e-06	-2.045063e-08	-3.405678e+01	-1.341952e+03
5.000000e-07	-4.644339e-06	-2.034537e-08	-3.318037e+01	-1.334758e+03
5.100000e-07	-4.519871e-06	-2.023377e-08	-3.229114e+01	-1.327940e+03
5.200000e-07	-4.393801e-06	-2.010612e-08	-3.139046e+01	-1.321274e+03
5.300000e-07	-4.266249e-06	-1.997575e-08	-3.047920e+01	-1.314386e+03
5.400000e-07	-4.137187e-06	-1.984803e-08	-2.955715e+01	-1.306870e+03
5.500000e-07	-4.006482e-06	-1.971760e-08	-2.862336e+01	-1.298412e+03
5.600000e-07	-3.874199e-06	-1.958088e-08	-2.767829e+01	-1.288888e+03
5.700000e-07	-3.740466e-06	-1.943708e-08	-2.672287e+01	-1.278407e+03
5.800000e-07	-3.605386e-06	-1.928308e-08	-2.575782e+01	-1.267280e+03
5.900000e-07	-3.468998e-06	-1.912216e-08	-2.478343e+01	-1.255917e+03
6.000000e-07	-3.331284e-06	-1.895966e-08	-2.379957e+01	-1.244696e+03
6.100000e-07	-3.192108e-06	-1.879065e-08	-2.280526e+01	-1.233821e+03
6.200000e-07	-3.051524e-06	-1.861150e-08	-2.180089e+01	-1.223246e+03
6.300000e-07	-2.909712e-06	-1.842338e-08	-2.078774e+01	-1.212662e+03
6.400000e-07	-2.766761e-06	-1.822764e-08	-1.976647e+01	-1.201574e+03
6.500000e-07	-2.622701e-06	-1.802328e-08	-1.873726e+01	-1.189444e+03
6.600000e-07	-2.477576e-06	-1.781412e-08	-1.770045e+01	-1.175854e+03
6.700000e-07	-2.331617e-06	-1.759857e-08	-1.665768e+01	-1.160636e+03
6.800000e-07	-2.184966e-06	-1.736970e-08	-1.560997e+01	-1.143933e+03
6.900000e-07	-2.037603e-06	-1.712408e-08	-1.455717e+01	-1.126154e+03
7.000000e-07	-1.889555e-06	-1.686459e-08	-1.349948e+01	-1.107843e+03
7.100000e-07	-1.740978e-06	-1.659240e-08	-1.243801e+01	-1.089482e+03
7.200000e-07	-1.591971e-06	-1.630671e-08	-1.137346e+01	-1.071302e+03
7.300000e-07	-1.442502e-06	-1.600577e-08	-1.030561e+01	-1.053152e+03
7.400000e-07	-1.292536e-06	-1.568673e-08	-9.234214e+00	-1.034479e+03
7.500000e-07	-1.142120e-06	-1.534734e-08	-8.159602e+00	-1.014434e+03
7.600000e-07	-9.913277e-07	-1.498383e-08	-7.082305e+00	-9.920802e+02
7.700000e-07	-8.401974e-07	-1.459482e-08	-6.002590e+00	-9.666482e+02
7.800000e-07	-6.887589e-07	-1.417822e-08	-4.920674e+00	-9.377467e+02
7.900000e-07	-5.370352e-07	-1.372900e-08	-3.836720e+00	-9.054656e+02
8.000000e-07	-3.850568e-07	-1.323921e-08	-2.750947e+00	-8.703082e+02
8.100000e-07	-2.329391e-07	-1.270358e-08	-1.664178e+00	-8.329504e+02
8.200000e-07	-8.073344e-08	-1.211298e-08	-5.767808e-01	-7.938704e+02
8.300000e-07	7.156672e-08	-1.145800e-08	5.112914e-01	-7.529433e+02
8.400000e-07	2.238947e-07	-1.073033e-08	1.599562e+00	-7.091146e+02
8.500000e-07	3.761356e-07	-9.915063e-09	2.687211e+00	-6.602678e+02
8.600000e-07	5.282913e-07	-8.993536e-09	3.774252e+00	-6.033607e+02
8.700000e-07	6.803171e-07	-7.936747e-09	4.860364e+00	-5.348458e+02
8.800000e-07	8.321026e-07	-6.705047e-09	5.944759e+00	-4.513196e+02
8.900000e-07	9.835925e-07	-5.247859e-09	7.027043e+00	-3.502790e+02
9.000000e-07	1.134742e-06	-3.505905e-09	8.106892e+00	-2.308257e+02
9.100000e-07	1.285478e-06	-1.435334e-09	9.183789e+00	-9.415557e+01
9.200000e-07	1.435775e-06	8.987221e-10	1.025756e+01	5.629684e+01
9.300000e-07	1.585580e-06	3.338769e-09	1.132780e+01	2.151161e+02
9.400000e-07	1.734851e-06	5.789923e-09	1.239423e+01	3.755412e+02
9.500000e-07	1.883629e-06	8.208436e-09	1.345714e+01	5.303685e+02
9.600000e-07	2.031812e-06	1.044419e-08	1.451580e+01	6.729536e+02
9.700000e-07	2.179169e-06	1.231552e-08	1.556855e+01	7.981182e+02
9.800000e-07	2.325540e-06	1.379024e-08	1.661427e+01	9.027898e+02
9.900000e-07	2.470973e-06	1.493860e-08	1.765328e+01	9.862587e+02
1.000000e-06	2.615462e-06	1.583727e-08	1.868555e+01	1.050020e+03
1.010000e-06	2.758972e-06	1.654808e-08	1.971082e+01	1.097258e+03
1.020000e-06	2.901464e-06	1.712138e-08	2.072882e+01	1.132094e+03
1.030000e-06	3.042873e-06	1.759567e-08	2.173908e+01	1.158778e+03
1.040000e-06	3.183039e-06	1.799555e-08	2.274047e+01	1.180975e+03
1.050000e-06	3.321797e-06	1.833914e-08	2.373179e+01	1.201297e+03
1.060000e-06	3.459297e-06	1.863622e-08	2.471412e+01	1.221124e+03
1.070000e-06	3.595587e-06	1.889971e-08	2.568781e+01	1.240729e+03
1.080000e-06	3.730472e-06	1.913884e-08	2.665147e+01	1.259618e+03
1.090000e-06	3.863948e-06	1.935767e-08	2.760505e+01	1.276972e+03
1.100000e-06	3.996137e-06	1.955961e-08	2.854945e+01	1.292071e+03
1.110000e-06	4.126904e-06	1.974730e-08	2.948368e+01	1.304590e+03
1.120000e-06	4.256146e-06	1.992118e-08	3.040703e+01	1.314716e+03
1.130000e-06	4.383915e-06	2.008015e-08	3.131984e+01	1.323080e+03
1.140000e-06	4.510187e-06	2.022944e-08	3.222196e+01	1.330552e+03
1.150000e-06	4.635011e-06	2.037263e-08	3.311373e+01	1.337976e+03
1.160000e-06	4.758148e-06	2.050701e-08	3.399346e+01	1.345941e+03
1.170000e-06	4.879494e-06	2.063281e-08	3.486038e+01	1.354637e+03
1.180000e-06	4.999178e-06	2.075194e-08	3.571543e+01	1.363853e+03
1.190000e-06	5.117053e-06	2.086674e-08	3.655757e+01	1.373084e+03
1.200000e-06	5.232960e-06	2.097616e-08	3.738564e+01	1.381724e+03
1.210000e-06	5.346832e-06	2.107759e-08	3.819917e+01	1.389271e+03
1.220000e-06	5.458675e-06	2.117320e-08	3.899821e+01	1.395482e+03
1.230000e-06	5.568558e-06	2.126115e-08	3.978324e+01	1.400440e+03
1.240000e-06	5.676503e-06	2.134334e-08	4.055442e+01	1.404517e+03
1.250000e-06	5.782480e-06	2.142279e-08	4.131155e+01	1.408245e+03
1.260000e-06	5.886317e-06	2.150196e-08	4.205339e+01	1.412156e+03
1.270000e-06	5.987934e-06	2.157923e-08	4.277937e+01	1.416617e+03
1.280000e-06	6.087318e-06	2.165378e-08	4.348939e+01	1.421739e+03
1.290000e-06	6.184380e-06	2.172482e-08	4.418283e+01	1.427360e+03
1.300000e-06	6.279137e-06	2.179158e-08	4.485980e+01	1.433112e+03
1.310000e-06	6.371699e-06	2.185325e-08	4.552109e+01	1.438553e+03
1.320000e-06	6.461992e-06	2.191220e-08	4.616616e+01	1.443309e+03
1.330000e-06	6.549886e-06	2.197158e-08	4.679410e+01	1.447187e+03
1.340000e-06	6.635557e-06	2.203032e-08	4.740616e+01	1.450232e+03
1.350000e-06	6.718958e-06	2.208714e-08	4.800199e+01	1.452699e+03
1.360000e-06	6.799854e-06	2.214154e-08	4.857994e+01	1.454969e+03
1.370000e-06	6.878232e-06	2.219420e-08	4.913989e+01	1.457422e+03
1.380000e-06	6.954071e-06	2.224339e-08	4.968171e+01	1.460319e+03
1.390000e-06	7.027300e-06	2.229011e-08	5.020488e+01	1.463726e+03
1.400000e-06	7.098029e-06	2.233553e-08	5.071018e+01	1.467498e+03
1.410000e-06	7.166278e-06	2.237791e-08	5.119776e+01	1.471333e+03
1.420000e-06	7.231930e-06	2.241554e-08	5.166680e+01	1.474870e+03
1.430000e-06	7.295023e-06	2.245096e-08	5.211756e+01	1.477806e+03
1.440000e-06	7.355637e-06	2.248659e-08	5.255060e+01	1.479986e+03
1.450000e-06	7.413725e-06	2.252143e-08	5.296559e+01	1.481452e+03
1.460000e-06	7.469155e-06	2.255383e-08	5.336160e+01	1.482421e+03
1.470000e-06	7.521699e-06	2.258269e-08	5.373699e+01	1.483220e+03
1.480000e-06	7.571135e-06	2.260932e-08	5.409017e+01	1.484174e+03
1.490000e-06	7.617678e-06	2.263377e-08	5.442268e+01	1.485512e+03
1.500000e-06	7.661587e-06	2.265722e-08	5.473638e+01	1.487296e+03
1.510000e-06	7.702727e-06	2.267856e-08	5.503030e+01	1.489407e+03
1.520000e-06	7.741109e-06	2.269710e-08	5.530451e+01	1.491588e+03
1.530000e-06	7.776832e-06	2.271393e-08	5.555972e+01	1.493527e+03
1.540000e-06	7.809814e-06	2.272862e-08	5.579535e+01	1.494957e+03
1.550000e-06	7.840019e-06	2.274165e-08	5.601115e+01	1.495740e+03
1.560000e-06	7.867503e-06	2.275399e-08	5.620750e+01	1.495909e+03
1.570000e-06	7.892055e-06	2.276564e-08	5.638291e+01	1.495652e+03
1.580000e-06	7.913748e-06	2.277648e-08	5.653789e+01	1.495258e+03
1.590000e-06	7.932816e-06	2.278591e-08	5.667412e+01	1.495021e+03
1.600000e-06	7.948981e-06	2.279227e-08	5.678960e+01	1.495150e+03
1.610000e-06	7.962034e-06	2.279704e-08	5.688285e+01	1.495708e+03
1.620000e-06	7.971958e-06	2.280167e-08	5.695376e+01	1.496592e+03
1.630000e-06	7.978875e-06	2.280483e-08	5.700317e+01	1.497571e+03
1.640000e-06	7.982979e-06	2.280657e-08	5.703249e+01	1.498357e+03
1.650000e-06	7.984240e-06	2.280783e-08	5.704150e+01	1.498698e+03
1.660000e-06	7.982751e-06	2.280637e-08	5.703086e+01	1.498452e+03
1.670000e-06	7.978698e-06	2.279938e-08	5.700191e+01	1.497633e+03
1.680000e-06	7.971943e-06	2.279409e-08	5.695365e+01	1.496397e+03
1.690000e-06	7.962495e-06	2.278655e-08	5.688615e+01	1.494998e+03
1.700000e-06	7.950310e-06	2.277636e-08	5.679909e+01	1.493700e+03
1.710000e-06	7.935346e-06	2.276826e-08	5.669219e+01	1.492702e+03
1.720000e-06	7.917921e-06	2.276478e-08	5.656770e+01	1.492074e+03
1.730000e-06	7.898264e-06	2.274645e-08	5.642726e+01	1.491741e+03
1.740000e-06	7.875916e-06	2.265858e-08	5.626761e+01	1.491515e+03
1.750000e-06	7.850101e-06	2.262749e-08	5.608318e+01	1.491155e+03
1.760000e-06	7.820582e-06	2.266204e-08	5.587228e+01	1.490453e+03
1.770000e-06	7.787933e-06	2.264742e-08	5.563903e+01	1.489295e+03
1.780000e-06	7.752917e-06	2.265306e-08	5.538887e+01	1.487703e+03
1.790000e-06	7.715685e-06	2.270876e-08	5.512288e+01	1.485820e+03
1.800000e-06	7.676381e-06	2.267541e-08	5.484208e+01	1.483862e+03
1.810000e-06	7.634866e-06	2.259218e-08	5.454549e+01	1.482042e+03
1.820000e-06	7.590736e-06	2.262266e-08	5.423021e+01	1.480494e+03
1.830000e-06	7.543987e-06	2.257365e-08	5.389622e+01	1.479224e+03
1.840000e-06	7.494444e-06	2.257862e-08	5.354227e+01	1.478100e+03
1.850000e-06	7.441946e-06	2.259124e-08	5.316721e+01	1.476890e+03
1.860000e-06	7.386537e-06	2.249818e-08	5.277136e+01	1.475331e+03
1.870000e-06	7.328387e-06	2.248527e-08	5.235592e+01	1.473215e+03
1.880000e-06	7.267707e-06	2.239887e-08	5.192240e+01	1.470456e+03
1.890000e-06	7.204219e-06	2.240912e-08	5.146883e+01	1.467119e+03
1.900000e-06	7.137897e-06	2.236834e-08	5.099501e+01	1.463409e+03
1.910000e-06	7.068857e-06	2.227390e-08	5.050177e+01	1.459604e+03
1.920000e-06	6.996989e-06	2.228881e-08	4.998832e+01	1.455975e+03
1.930000e-06	6.922487e-06	2.219177e-08	4.945606e+01	1.452693e+03
1.940000e-06	6.845248e-06	2.215259e-08	4.890425e+01	1.449783e+03
1.950000e-06	6.765248e-06	2.209501e-08	4.833270e+01	1.447103e+03
1.960000e-06	6.682794e-06	2.206660e-08	4.774363e+01	1.444392e+03
1.970000e-06	6.597955e-06	2.201127e-08	4.713752e+01	1.441346e+03
1.980000e-06	6.510632e-06	2.189978e-08	4.651366e+01	1.437717e+03
1.990000e-06	6.420909e-06	2.187545e-08	4.587265e+01	1.433386e+03
2.000000e-06	6.329069e-06	2.179288e-08	4.521652e+01	1.428409e+03
2.010000e-06	6.234967e-06	2.174040e-08	4.454424e+01	1.423000e+03
2.020000e-06	6.138570e-06	2.166075e-08	4.385555e+01	1.417464e+03
2.030000e-06	6.040064e-06	2.160239e-08	4.315180e+01	1.412106e+03
2.040000e-06	5.939470e-06	2.152987e-08	4.243313e+01	1.407128e+03
2.050000e-06	5.836667e-06	2.144293e-08	4.169868e+01	1.402566e+03
2.060000e-06	5.731753e-06	2.137571e-08	4.094914e+01	1.398270e+03
2.070000e-06	5.624941e-06	2.127895e-08	4.018605e+01	1.393946e+03
2.080000e-06	5.516227e-06	2.120005e-08	3.940937e+01	1.389244e+03
2.090000e-06	5.405510e-06	2.110367e-08	3.861838e+01	1.383863e+03
2.100000e-06	5.292731e-06	2.102312e-08	3.781266e+01	1.377651e+03
2.110000e-06	5.178017e-06	2.092524e-08	3.699311e+01	1.370645e+03
2.120000e-06	5.061353e-06	2.083776e-08	3.615963e+01	1.363071e+03
2.130000e-06	4.942673e-06	2.073718e-08	3.531175e+01	1.355267e+03
2.140000e-06	4.822040e-06	2.062727e-08	3.444992e+01	1.347580e+03
2.150000e-06	4.699665e-06	2.051420e-08	3.357564e+01	1.340250e+03
2.160000e-06	4.575656e-06	2.040352e-08	3.268968e+01	1.333326e+03
2.170000e-06	4.450045e-06	2.029145e-08	3.179229e+01	1.326647e+03
2.180000e-06	4.322753e-06	2.016657e-08	3.088288e+01	1.319876e+03
2.190000e-06	4.193816e-06	2.004268e-08	2.996172e+01	1.312603e+03
2.200000e-06	4.063391e-06	1.990927e-08	2.902993e+01	1.304472e+03
2.210000e-06	3.931450e-06	1.977547e-08	2.808731e+01	1.295290e+03
2.220000e-06	3.798101e-06	1.963292e-08	2.713463e+01	1.285091e+03
2.230000e-06	3.663251e-06	1.949657e-08	2.617123e+01	1.274129e+03
2.240000e-06	3.526917e-06	1.934951e-08	2.519722e+01	1.262797e+03
2.250000e-06	3.389302e-06	1.919198e-08	2.421406e+01	1.251498e+03
2.260000e-06	3.250530e-06	1.902496e-08	2.322264e+01	1.240504e+03
2.270000e-06	3.110527e-06	1.885165e-08	2.222242e+01	1.229855e+03
2.280000e-06	2.969223e-06	1.867060e-08	2.121291e+01	1.219321e+03
2.290000e-06	2.826758e-06	1.848445e-08	2.019510e+01	1.208454e+03
2.300000e-06	2.683097e-06	1.828810e-08	1.916874e+01	1.196714e+03
2.310000e-06	2.538423e-06	1.807760e-08	1.813516e+01	1.183626e+03
2.320000e-06	2.393018e-06	1.785879e-08	1.709635e+01	1.168931e+03
2.330000e-06	2.246855e-06	1.763457e-08	1.605212e+01	1.152671e+03
2.340000e-06	2.099945e-06	1.740259e-08	1.500255e+01	1.135182e+03
2.350000e-06	1.952348e-06	1.715451e-08	1.394808e+01	1.116982e+03
2.360000e-06	1.804020e-06	1.689047e-08	1.288839e+01	1.098597e+03
2.370000e-06	1.655080e-06	1.660854e-08	1.182432e+01	1.080356e+03
2.380000e-06	1.505756e-06	1.631053e-08	1.075751e+01	1.062239e+03
2.390000e-06	1.356113e-06	1.599689e-08	9.688424e+00	1.043815e+03
2.400000e-06	1.206067e-06	1.566735e-08	8.616461e+00	1.024314e+03
2.410000e-06	1.055465e-06	1.531650e-08	7.540521e+00	1.002800e+03
2.420000e-06	9.043285e-07	1.494001e-08	6.460760e+00	9.784216e+02
2.430000e-06	7.527728e-07	1.453451e-08	5.378006e+00	9.506491e+02
2.440000e-06	6.008589e-07	1.409604e-08	4.292693e+00	9.194161e+02
2.450000e-06	4.486849e-07	1.361941e-08	3.205523e+00	8.851114e+02
2.460000e-06	2.963445e-07	1.309894e-08	2.117163e+00	8.483911e+02
2.470000e-06	1.438887e-07	1.252808e-08	1.027979e+00	8.098416e+02
2.480000e-06	-8.636021e-09	1.189937e-08	-6.169799e-02	7.695738e+02
2.490000e-06	-1.611457e-07	1.120296e-08	-1.151267e+00	7.268577e+02
2.500000e-06	-3.136159e-07	1.042484e-08	-2.240554e+00	6.799172e+02
2.510000e-06	-4.660156e-07	9.549681e-09	-3.329338e+00	6.259750e+02
2.520000e-06	-6.182897e-07	8.550006e-09	-4.417223e+00	5.615843e+02
2.530000e-06	-7.703387e-07	7.389347e-09	-5.503501e+00	4.832150e+02
2.540000e-06	-9.220127e-07	6.023663e-09	-6.587100e+00	3.879917e+02
2.550000e-06	-1.073249e-06	4.398155e-09	-7.667572e+00	2.744336e+02
2.560000e-06	-1.224047e-06	2.452822e-09	-8.744915e+00	1.430292e+02
2.570000e-06	-1.374309e-06	1.842100e-10	-9.818427e+00	-3.498007e+00
2.580000e-06	-1.524011e-06	-2.278698e-09	-1.088793e+01	-1.603168e+02
2.590000e-06	-1.673266e-06	-4.792086e-09	-1.195425e+01	-3.210100e+02
2.600000e-06	-1.822070e-06	-7.294256e-09	-1.301734e+01	-4.784079e+02
2.610000e-06	-1.970207e-06	-9.666071e-09	-1.407568e+01	-6.255790e+02
2.620000e-06	-2.117528e-06	-1.171385e-08	-1.512818e+01	-7.567882e+02
2.630000e-06	-2.264006e-06	-1.335298e-08	-1.617465e+01	-8.682382e+02
2.640000e-06	-2.409668e-06	-1.463072e-08	-1.721530e+01	-9.584575e+02
2.650000e-06	-2.554584e-06	-1.562679e-08	-1.825061e+01	-1.028274e+03
2.660000e-06	-2.698625e-06	-1.641093e-08	-1.927968e+01	-1.080401e+03
2.670000e-06	-2.841453e-06	-1.703909e-08	-2.030008e+01	-1.118750e+03
2.680000e-06	-2.982957e-06	-1.755033e-08	-2.131103e+01	-1.147615e+03
2.690000e-06	-3.123267e-06	-1.797444e-08	-2.231344e+01	-1.170912e+03
2.700000e-06	-3.262323e-06	-1.833652e-08	-2.330689e+01	-1.191627e+03
2.710000e-06	-3.400190e-06	-1.865204e-08	-2.429185e+01	-1.211535e+03
2.720000e-06	-3.536950e-06	-1.893067e-08	-2.526890e+01	-1.231237e+03
2.730000e-06	-3.672322e-06	-1.917968e-08	-2.623603e+01	-1.250439e+03
2.740000e-06	-3.806254e-06	-1.940662e-08	-2.719288e+01	-1.268377e+03
2.750000e-06	-3.938871e-06	-1.961555e-08	-2.814033e+01	-1.284259e+03
2.760000e-06	-4.070043e-06	-1.980769e-08	-2.907745e+01	-1.297611e+03
2.770000e-06	-4.199806e-06	-1.998392e-08	-3.000451e+01	-1.308455e+03
2.780000e-06	-4.328252e-06	-2.014628e-08	-3.092216e+01	-1.317297e+03
2.790000e-06	-4.455127e-06	-2.029778e-08	-3.182860e+01	-1.324957e+03
2.800000e-06	-4.580446e-06	-2.043864e-08	-3.272390e+01	-1.332316e+03
2.810000e-06	-4.704237e-06	-2.056926e-08	-3.360830e+01	-1.340066e+03
2.820000e-06	-4.826329e-06	-2.069392e-08	-3.448056e+01	-1.348532e+03
2.830000e-06	-4.946644e-06	-2.081408e-08	-3.534012e+01	-1.357625e+03
2.840000e-06	-5.065068e-06	-2.092879e-08	-3.618617e+01	-1.366916e+03
2.850000e-06	-5.181514e-06	-2.103580e-08	-3.701809e+01	-1.375810e+03
2.860000e-06	-5.295784e-06	-2.113787e-08	-3.783447e+01	-1.383749e+03
2.870000e-06	-5.407876e-06	-2.123456e-08	-3.863528e+01	-1.390396e+03
2.880000e-06	-5.517958e-06	-2.132407e-08	-3.942174e+01	-1.395729e+03
2.890000e-06	-5.626092e-06	-2.140887e-08	-4.019428e+01	-1.400035e+03
2.900000e-06	-5.732329e-06	-2.148881e-08	-4.095326e+01	-1.403814e+03
2.910000e-06	-5.836527e-06	-2.156522e-08	-4.169768e+01	-1.407615e+03
2.920000e-06	-5.938510e-06	-2.163954e-08	-4.242627e+01	-1.411873e+03
2.930000e-06	-6.038271e-06	-2.171170e-08	-4.313899e+01	-1.416788e+03
2.940000e-06	-6.135954e-06	-2.178171e-08	-4.383686e+01	-1.422281e+03
