# Temperatura_=_51.16
# Concentracion g/m^3_=_41000.0
# C_Vs_to_Am_M_A/Vsm_=_65563218390.804596
# pendiente_HvsI_1/m_=_3716.3
# ordenada_HvsI_A/m_=_1297.0
# frecuencia_Hz_=_302474.29152435757

Tiempo_(s)	Campo_(V.s)	Magnetizacion_(V.s)	Campo_(kA/m)	Magnetizacion_(A/m)
0.000000e+00	-8.037356e-06	-2.573331e-08	-5.686802e+01	-1.685374e+03
1.000000e-08	-8.032735e-06	-2.573212e-08	-5.683532e+01	-1.685010e+03
2.000000e-08	-8.025571e-06	-2.572045e-08	-5.678463e+01	-1.684226e+03
3.000000e-08	-8.015637e-06	-2.571192e-08	-5.671434e+01	-1.683129e+03
4.000000e-08	-8.002843e-06	-2.570249e-08	-5.662382e+01	-1.681888e+03
5.000000e-08	-7.987111e-06	-2.568609e-08	-5.651251e+01	-1.680685e+03
6.000000e-08	-7.968694e-06	-2.566546e-08	-5.638220e+01	-1.679662e+03
7.000000e-08	-7.948002e-06	-2.564434e-08	-5.623579e+01	-1.678874e+03
8.000000e-08	-7.924620e-06	-2.568676e-08	-5.607036e+01	-1.678284e+03
9.000000e-08	-7.897985e-06	-2.573510e-08	-5.588190e+01	-1.677770e+03
1.000000e-07	-7.868158e-06	-2.564682e-08	-5.567086e+01	-1.677172e+03
1.100000e-07	-7.835474e-06	-2.558078e-08	-5.543961e+01	-1.676345e+03
1.200000e-07	-7.800006e-06	-2.557286e-08	-5.518866e+01	-1.675198e+03
1.300000e-07	-7.762071e-06	-2.550869e-08	-5.492024e+01	-1.673726e+03
1.400000e-07	-7.722087e-06	-2.541404e-08	-5.463734e+01	-1.672005e+03
1.500000e-07	-7.679784e-06	-2.549152e-08	-5.433803e+01	-1.670161e+03
1.600000e-07	-7.634752e-06	-2.555032e-08	-5.401941e+01	-1.668326e+03
1.700000e-07	-7.587022e-06	-2.534775e-08	-5.368169e+01	-1.666587e+03
1.800000e-07	-7.536268e-06	-2.541030e-08	-5.332259e+01	-1.664954e+03
1.900000e-07	-7.482383e-06	-2.536628e-08	-5.294132e+01	-1.663352e+03
2.000000e-07	-7.425817e-06	-2.525511e-08	-5.254109e+01	-1.661641e+03
2.100000e-07	-7.366571e-06	-2.531001e-08	-5.212190e+01	-1.659658e+03
2.200000e-07	-7.304594e-06	-2.524866e-08	-5.168339e+01	-1.657270e+03
2.300000e-07	-7.239960e-06	-2.522577e-08	-5.122607e+01	-1.654417e+03
2.400000e-07	-7.172597e-06	-2.512014e-08	-5.074944e+01	-1.651133e+03
2.500000e-07	-7.102482e-06	-2.510607e-08	-5.025335e+01	-1.647541e+03
2.600000e-07	-7.029582e-06	-2.507880e-08	-4.973755e+01	-1.643813e+03
2.700000e-07	-6.953856e-06	-2.499165e-08	-4.920175e+01	-1.640119e+03
2.800000e-07	-6.875397e-06	-2.494429e-08	-4.864662e+01	-1.636572e+03
2.900000e-07	-6.794268e-06	-2.488114e-08	-4.807259e+01	-1.633197e+03
3.000000e-07	-6.710655e-06	-2.483203e-08	-4.748099e+01	-1.629914e+03
3.100000e-07	-6.624754e-06	-2.473822e-08	-4.687320e+01	-1.626568e+03
3.200000e-07	-6.536536e-06	-2.470945e-08	-4.624902e+01	-1.622971e+03
3.300000e-07	-6.445881e-06	-2.466892e-08	-4.560759e+01	-1.618965e+03
3.400000e-07	-6.352897e-06	-2.456606e-08	-4.494969e+01	-1.614465e+03
3.500000e-07	-6.257714e-06	-2.450698e-08	-4.427622e+01	-1.609489e+03
3.600000e-07	-6.160167e-06	-2.444196e-08	-4.358603e+01	-1.604152e+03
3.700000e-07	-6.060325e-06	-2.436090e-08	-4.287960e+01	-1.598625e+03
3.800000e-07	-5.958406e-06	-2.427322e-08	-4.215848e+01	-1.593081e+03
3.900000e-07	-5.854403e-06	-2.420040e-08	-4.142261e+01	-1.587638e+03
4.000000e-07	-5.748281e-06	-2.410845e-08	-4.067175e+01	-1.582317e+03
4.100000e-07	-5.640094e-06	-2.400804e-08	-3.990627e+01	-1.577031e+03
4.200000e-07	-5.529888e-06	-2.392935e-08	-3.912652e+01	-1.571613e+03
4.300000e-07	-5.417650e-06	-2.383890e-08	-3.833238e+01	-1.565859e+03
4.400000e-07	-5.303356e-06	-2.373039e-08	-3.752370e+01	-1.559597e+03
4.500000e-07	-5.187059e-06	-2.361789e-08	-3.670084e+01	-1.552738e+03
4.600000e-07	-5.068860e-06	-2.351293e-08	-3.586453e+01	-1.545304e+03
4.700000e-07	-4.948827e-06	-2.340144e-08	-3.501524e+01	-1.537419e+03
4.800000e-07	-4.826969e-06	-2.328421e-08	-3.415304e+01	-1.529270e+03
4.900000e-07	-4.703354e-06	-2.317268e-08	-3.327841e+01	-1.521041e+03
5.000000e-07	-4.578050e-06	-2.305317e-08	-3.239182e+01	-1.512847e+03
5.100000e-07	-4.451036e-06	-2.291511e-08	-3.149314e+01	-1.504695e+03
5.200000e-07	-4.322429e-06	-2.277028e-08	-3.058318e+01	-1.496468e+03
5.300000e-07	-4.192316e-06	-2.262726e-08	-2.966257e+01	-1.487954e+03
5.400000e-07	-4.060607e-06	-2.248144e-08	-2.873067e+01	-1.478912e+03
5.500000e-07	-3.927329e-06	-2.232528e-08	-2.778767e+01	-1.469140e+03
5.600000e-07	-3.792577e-06	-2.216406e-08	-2.683423e+01	-1.458538e+03
5.700000e-07	-3.656394e-06	-2.199434e-08	-2.587068e+01	-1.447142e+03
5.800000e-07	-3.518742e-06	-2.182026e-08	-2.489672e+01	-1.435105e+03
5.900000e-07	-3.379679e-06	-2.164140e-08	-2.391280e+01	-1.422651e+03
6.000000e-07	-3.239196e-06	-2.145712e-08	-2.291881e+01	-1.409989e+03
6.100000e-07	-3.097288e-06	-2.126109e-08	-2.191474e+01	-1.397236e+03
6.200000e-07	-2.954166e-06	-2.105275e-08	-2.090209e+01	-1.384360e+03
6.300000e-07	-2.809948e-06	-2.083383e-08	-1.988168e+01	-1.371172e+03
6.400000e-07	-2.664688e-06	-2.060100e-08	-1.885390e+01	-1.357367e+03
6.500000e-07	-2.518435e-06	-2.036276e-08	-1.781909e+01	-1.342602e+03
6.600000e-07	-2.371356e-06	-2.011646e-08	-1.677844e+01	-1.326598e+03
6.700000e-07	-2.223563e-06	-1.985962e-08	-1.573274e+01	-1.309218e+03
6.800000e-07	-2.075057e-06	-1.958579e-08	-1.468199e+01	-1.290508e+03
6.900000e-07	-1.925849e-06	-1.929753e-08	-1.362628e+01	-1.270671e+03
7.000000e-07	-1.776005e-06	-1.899192e-08	-1.256606e+01	-1.249988e+03
7.100000e-07	-1.625622e-06	-1.866868e-08	-1.150203e+01	-1.228701e+03
7.200000e-07	-1.474703e-06	-1.832776e-08	-1.043420e+01	-1.206893e+03
7.300000e-07	-1.323304e-06	-1.796797e-08	-9.362988e+00	-1.184411e+03
7.400000e-07	-1.171417e-06	-1.758860e-08	-8.288316e+00	-1.160847e+03
7.500000e-07	-1.019051e-06	-1.718215e-08	-7.210259e+00	-1.135611e+03
7.600000e-07	-8.663243e-07	-1.675083e-08	-6.129645e+00	-1.108057e+03
7.700000e-07	-7.133178e-07	-1.628681e-08	-5.047054e+00	-1.077638e+03
7.800000e-07	-5.601106e-07	-1.578873e-08	-3.963042e+00	-1.044039e+03
7.900000e-07	-4.067329e-07	-1.525136e-08	-2.877824e+00	-1.007223e+03
8.000000e-07	-2.531509e-07	-1.466955e-08	-1.791160e+00	-9.673756e+02
8.100000e-07	-9.935317e-08	-1.403413e-08	-7.029697e-01	-9.247288e+02
8.200000e-07	5.452811e-08	-1.333532e-08	3.858116e-01	-8.793014e+02
8.300000e-07	2.083809e-07	-1.256471e-08	1.474392e+00	-8.306232e+02
8.400000e-07	3.621561e-07	-1.170999e-08	2.562422e+00	-7.775216e+02
8.500000e-07	5.158285e-07	-1.076253e-08	3.649725e+00	-7.180504e+02
8.600000e-07	6.693914e-07	-9.699990e-09	4.736254e+00	-6.496173e+02
8.700000e-07	8.227291e-07	-8.488853e-09	5.821189e+00	-5.693207e+02
8.800000e-07	9.757729e-07	-7.080569e-09	6.904045e+00	-4.744557e+02
8.900000e-07	1.128495e-06	-5.419127e-09	7.984624e+00	-3.631040e+02
9.000000e-07	1.280807e-06	-3.446754e-09	9.062300e+00	-2.346877e+02
9.100000e-07	1.432658e-06	-1.174743e-09	1.013672e+01	-9.036324e+01
9.200000e-07	1.584024e-06	1.252129e-09	1.120771e+01	6.684384e+01
9.300000e-07	1.734819e-06	3.703708e-09	1.227465e+01	2.322177e+02
9.400000e-07	1.884978e-06	6.153814e-09	1.333709e+01	3.998333e+02
9.500000e-07	2.034444e-06	8.598773e-09	1.439464e+01	5.632650e+02
9.600000e-07	2.183149e-06	1.099278e-08	1.544679e+01	7.164005e+02
9.700000e-07	2.330996e-06	1.316318e-08	1.649288e+01	8.542103e+02
9.800000e-07	2.477924e-06	1.494595e-08	1.753246e+01	9.733349e+02
9.900000e-07	2.623937e-06	1.635545e-08	1.856557e+01	1.072386e+03
1.000000e-06	2.769005e-06	1.747237e-08	1.959199e+01	1.151919e+03
1.010000e-06	2.913023e-06	1.836856e-08	2.061098e+01	1.214106e+03
1.020000e-06	3.055888e-06	1.909989e-08	2.162182e+01	1.262181e+03
1.030000e-06	3.197578e-06	1.970416e-08	2.262435e+01	1.299793e+03
1.040000e-06	3.337978e-06	2.021283e-08	2.361774e+01	1.330392e+03
1.050000e-06	3.477091e-06	2.064526e-08	2.460203e+01	1.356760e+03
1.060000e-06	3.614930e-06	2.102296e-08	2.557730e+01	1.380761e+03
1.070000e-06	3.751371e-06	2.135652e-08	2.654268e+01	1.403321e+03
1.080000e-06	3.886371e-06	2.165367e-08	2.749788e+01	1.424609e+03
1.090000e-06	4.019959e-06	2.192181e-08	2.844307e+01	1.444338e+03
1.100000e-06	4.152089e-06	2.216617e-08	2.937795e+01	1.462091e+03
1.110000e-06	4.282741e-06	2.239001e-08	3.030238e+01	1.477593e+03
1.120000e-06	4.411942e-06	2.259627e-08	3.121653e+01	1.490870e+03
1.130000e-06	4.539602e-06	2.278678e-08	3.211978e+01	1.502270e+03
1.140000e-06	4.665740e-06	2.296272e-08	3.301227e+01	1.512368e+03
1.150000e-06	4.790293e-06	2.312575e-08	3.389354e+01	1.521803e+03
1.160000e-06	4.913123e-06	2.327819e-08	3.476262e+01	1.531103e+03
1.170000e-06	5.034199e-06	2.342293e-08	3.561929e+01	1.540562e+03
1.180000e-06	5.153482e-06	2.356158e-08	3.646327e+01	1.550186e+03
1.190000e-06	5.270855e-06	2.369467e-08	3.729374e+01	1.559743e+03
1.200000e-06	5.386177e-06	2.382178e-08	3.810970e+01	1.568862e+03
1.210000e-06	5.499381e-06	2.394147e-08	3.891066e+01	1.577180e+03
1.220000e-06	5.610504e-06	2.404998e-08	3.969692e+01	1.584463e+03
1.230000e-06	5.719655e-06	2.414941e-08	4.046921e+01	1.590679e+03
1.240000e-06	5.826786e-06	2.424159e-08	4.122721e+01	1.596008e+03
1.250000e-06	5.931816e-06	2.432898e-08	4.197034e+01	1.600778e+03
1.260000e-06	6.034697e-06	2.441243e-08	4.269827e+01	1.605366e+03
1.270000e-06	6.135386e-06	2.449224e-08	4.341070e+01	1.610087e+03
1.280000e-06	6.233770e-06	2.456852e-08	4.410681e+01	1.615107e+03
1.290000e-06	6.329721e-06	2.464234e-08	4.478570e+01	1.620408e+03
1.300000e-06	6.423355e-06	2.471281e-08	4.544821e+01	1.625816e+03
1.310000e-06	6.514799e-06	2.478027e-08	4.609521e+01	1.631061e+03
1.320000e-06	6.603913e-06	2.484700e-08	4.672574e+01	1.635879e+03
1.330000e-06	6.690632e-06	2.491201e-08	4.733932e+01	1.640094e+03
1.340000e-06	6.775042e-06	2.497239e-08	4.793656e+01	1.643671e+03
1.350000e-06	6.857054e-06	2.502837e-08	4.851683e+01	1.646720e+03
1.360000e-06	6.936547e-06	2.508100e-08	4.907928e+01	1.649461e+03
1.370000e-06	7.013466e-06	2.513187e-08	4.962352e+01	1.652146e+03
1.380000e-06	7.087695e-06	2.517963e-08	5.014872e+01	1.654979e+03
1.390000e-06	7.159296e-06	2.522597e-08	5.065533e+01	1.658058e+03
1.400000e-06	7.228464e-06	2.527152e-08	5.114473e+01	1.661344e+03
1.410000e-06	7.295090e-06	2.531427e-08	5.161613e+01	1.664680e+03
1.420000e-06	7.358972e-06	2.535550e-08	5.206813e+01	1.667849e+03
1.430000e-06	7.420341e-06	2.539335e-08	5.250235e+01	1.670639e+03
1.440000e-06	7.479287e-06	2.542881e-08	5.291942e+01	1.672916e+03
1.450000e-06	7.535576e-06	2.546102e-08	5.331769e+01	1.674664e+03
1.460000e-06	7.589033e-06	2.548953e-08	5.369592e+01	1.675984e+03
1.470000e-06	7.639458e-06	2.551644e-08	5.405270e+01	1.677068e+03
1.480000e-06	7.686857e-06	2.554192e-08	5.438807e+01	1.678129e+03
1.490000e-06	7.731529e-06	2.556610e-08	5.470415e+01	1.679340e+03
1.500000e-06	7.773511e-06	2.558851e-08	5.500119e+01	1.680781e+03
1.510000e-06	7.812633e-06	2.560860e-08	5.527800e+01	1.682413e+03
1.520000e-06	7.849027e-06	2.562674e-08	5.553550e+01	1.684102e+03
1.530000e-06	7.882622e-06	2.564387e-08	5.577320e+01	1.685655e+03
1.540000e-06	7.913369e-06	2.565878e-08	5.599075e+01	1.686890e+03
1.550000e-06	7.941417e-06	2.567154e-08	5.618920e+01	1.687694e+03
1.560000e-06	7.966533e-06	2.568198e-08	5.636691e+01	1.688054e+03
1.570000e-06	7.988723e-06	2.569134e-08	5.652391e+01	1.688066e+03
1.580000e-06	8.008180e-06	2.569997e-08	5.666158e+01	1.687905e+03
1.590000e-06	8.024721e-06	2.570649e-08	5.677861e+01	1.687763e+03
1.600000e-06	8.038186e-06	2.571203e-08	5.687388e+01	1.687799e+03
1.610000e-06	8.048522e-06	2.571785e-08	5.694702e+01	1.688081e+03
1.620000e-06	8.055801e-06	2.572276e-08	5.699852e+01	1.688572e+03
1.630000e-06	8.060260e-06	2.572434e-08	5.703007e+01	1.689140e+03
1.640000e-06	8.061875e-06	2.572505e-08	5.704150e+01	1.689599e+03
1.650000e-06	8.060661e-06	2.572481e-08	5.703291e+01	1.689770e+03
1.660000e-06	8.056843e-06	2.571232e-08	5.700589e+01	1.689531e+03
1.670000e-06	8.050324e-06	2.570819e-08	5.695977e+01	1.688861e+03
1.680000e-06	8.041079e-06	2.570245e-08	5.689436e+01	1.687838e+03
1.690000e-06	8.029160e-06	2.569341e-08	5.681002e+01	1.686619e+03
1.700000e-06	8.014390e-06	2.568809e-08	5.670552e+01	1.685388e+03
1.710000e-06	7.997029e-06	2.568870e-08	5.658268e+01	1.684303e+03
1.720000e-06	7.977440e-06	2.568173e-08	5.644408e+01	1.683448e+03
1.730000e-06	7.955205e-06	2.555819e-08	5.628676e+01	1.682811e+03
1.740000e-06	7.929555e-06	2.551558e-08	5.610527e+01	1.682290e+03
1.750000e-06	7.900202e-06	2.559417e-08	5.589759e+01	1.681733e+03
1.760000e-06	7.867576e-06	2.557500e-08	5.566674e+01	1.680984e+03
1.770000e-06	7.832429e-06	2.554814e-08	5.541806e+01	1.679933e+03
1.780000e-06	7.795124e-06	2.565510e-08	5.515411e+01	1.678549e+03
1.790000e-06	7.755695e-06	2.563202e-08	5.487513e+01	1.676887e+03
1.800000e-06	7.714083e-06	2.544386e-08	5.458071e+01	1.675064e+03
1.810000e-06	7.669861e-06	2.557415e-08	5.426781e+01	1.673215e+03
1.820000e-06	7.622914e-06	2.548686e-08	5.393564e+01	1.671444e+03
1.830000e-06	7.573177e-06	2.546965e-08	5.358373e+01	1.669785e+03
1.840000e-06	7.520393e-06	2.555331e-08	5.321026e+01	1.668186e+03
1.850000e-06	7.464708e-06	2.536798e-08	5.281626e+01	1.666523e+03
1.860000e-06	7.406314e-06	2.544274e-08	5.240310e+01	1.664633e+03
1.870000e-06	7.345367e-06	2.530257e-08	5.197187e+01	1.662371e+03
1.880000e-06	7.281579e-06	2.531783e-08	5.152054e+01	1.659651e+03
1.890000e-06	7.214838e-06	2.533351e-08	5.104832e+01	1.656481e+03
1.900000e-06	7.145419e-06	2.517384e-08	5.055715e+01	1.652961e+03
1.910000e-06	7.073185e-06	2.524169e-08	5.004606e+01	1.649254e+03
1.920000e-06	6.998218e-06	2.510836e-08	4.951563e+01	1.645534e+03
1.930000e-06	6.920480e-06	2.510077e-08	4.896560e+01	1.641939e+03
1.940000e-06	6.839999e-06	2.503814e-08	4.839616e+01	1.638518e+03
1.950000e-06	6.757049e-06	2.498370e-08	4.780925e+01	1.635222e+03
1.960000e-06	6.671656e-06	2.495957e-08	4.720506e+01	1.631913e+03
1.970000e-06	6.583795e-06	2.480997e-08	4.658340e+01	1.628406e+03
1.980000e-06	6.493479e-06	2.482599e-08	4.594437e+01	1.624530e+03
1.990000e-06	6.400946e-06	2.472241e-08	4.528966e+01	1.620173e+03
2.000000e-06	6.306161e-06	2.467951e-08	4.461901e+01	1.615326e+03
2.010000e-06	6.209119e-06	2.459265e-08	4.393239e+01	1.610076e+03
2.020000e-06	6.109915e-06	2.451950e-08	4.323048e+01	1.604584e+03
2.030000e-06	6.008552e-06	2.444355e-08	4.251329e+01	1.599030e+03
2.040000e-06	5.905016e-06	2.433925e-08	4.178072e+01	1.593551e+03
2.050000e-06	5.799359e-06	2.428931e-08	4.103315e+01	1.588199e+03
2.060000e-06	5.691766e-06	2.417948e-08	4.027188e+01	1.582918e+03
2.070000e-06	5.582191e-06	2.410638e-08	3.949659e+01	1.577558e+03
2.080000e-06	5.470581e-06	2.399822e-08	3.870689e+01	1.571920e+03
2.090000e-06	5.356845e-06	2.392116e-08	3.790216e+01	1.565816e+03
2.100000e-06	5.241088e-06	2.381056e-08	3.708313e+01	1.559131e+03
2.110000e-06	5.123336e-06	2.371553e-08	3.624998e+01	1.551852e+03
2.120000e-06	5.003566e-06	2.360749e-08	3.540255e+01	1.544079e+03
2.130000e-06	4.881938e-06	2.348689e-08	3.454197e+01	1.535985e+03
2.140000e-06	4.758564e-06	2.336094e-08	3.366904e+01	1.527763e+03
2.150000e-06	4.633515e-06	2.323637e-08	3.278426e+01	1.519553e+03
2.160000e-06	4.506788e-06	2.312210e-08	3.188761e+01	1.511396e+03
2.170000e-06	4.378390e-06	2.298759e-08	3.097913e+01	1.503208e+03
2.180000e-06	4.248399e-06	2.285664e-08	3.005939e+01	1.494801e+03
2.190000e-06	4.116912e-06	2.270750e-08	2.912906e+01	1.485934e+03
2.200000e-06	3.983892e-06	2.256323e-08	2.818788e+01	1.476386e+03
2.210000e-06	3.849346e-06	2.240273e-08	2.723590e+01	1.466024e+03
2.220000e-06	3.713320e-06	2.225002e-08	2.627346e+01	1.454843e+03
2.230000e-06	3.575857e-06	2.208289e-08	2.530084e+01	1.442968e+03
2.240000e-06	3.437031e-06	2.190782e-08	2.431859e+01	1.430609e+03
2.250000e-06	3.296944e-06	2.172151e-08	2.332740e+01	1.417989e+03
2.260000e-06	3.155567e-06	2.152942e-08	2.232710e+01	1.405258e+03
2.270000e-06	3.012888e-06	2.132964e-08	2.131758e+01	1.392430e+03
2.280000e-06	2.869071e-06	2.112221e-08	2.030001e+01	1.379359e+03
2.290000e-06	2.724238e-06	2.090678e-08	1.927524e+01	1.365765e+03
2.300000e-06	2.578466e-06	2.067412e-08	1.824384e+01	1.351308e+03
2.310000e-06	2.431797e-06	2.043331e-08	1.720609e+01	1.335679e+03
2.320000e-06	2.284298e-06	2.018120e-08	1.616246e+01	1.318696e+03
2.330000e-06	2.135998e-06	1.991820e-08	1.511317e+01	1.300351e+03
2.340000e-06	1.986986e-06	1.963771e-08	1.405884e+01	1.280808e+03
2.350000e-06	1.837324e-06	1.934263e-08	1.299992e+01	1.260338e+03
2.360000e-06	1.687041e-06	1.903233e-08	1.193660e+01	1.239206e+03
2.370000e-06	1.536271e-06	1.870169e-08	1.086983e+01	1.217552e+03
2.380000e-06	1.385074e-06	1.835007e-08	9.800040e+00	1.195293e+03
2.390000e-06	1.233427e-06	1.797965e-08	8.727066e+00	1.172092e+03
2.400000e-06	1.081339e-06	1.758577e-08	7.650973e+00	1.147400e+03
2.410000e-06	9.288828e-07	1.716420e-08	6.572276e+00	1.120571e+03
2.420000e-06	7.760751e-07	1.671302e-08	5.491091e+00	1.091015e+03
2.430000e-06	6.230082e-07	1.622864e-08	4.408072e+00	1.058341e+03
2.440000e-06	4.696858e-07	1.570460e-08	3.323244e+00	1.022432e+03
2.450000e-06	3.161028e-07	1.513734e-08	2.236574e+00	9.834250e+02
2.460000e-06	1.623829e-07	1.452122e-08	1.148934e+00	9.415615e+02
2.470000e-06	8.610068e-09	1.384753e-08	6.092022e-02	8.969502e+02
2.480000e-06	-1.451797e-07	1.310803e-08	-1.027214e+00	8.492869e+02
2.490000e-06	-2.988878e-07	1.229183e-08	-2.114769e+00	7.976144e+02
2.500000e-06	-4.525062e-07	1.138716e-08	-3.201691e+00	7.402038e+02
2.510000e-06	-6.060460e-07	1.037193e-08	-4.288056e+00	6.746222e+02
2.520000e-06	-7.593667e-07	9.216737e-09	-5.372871e+00	5.980105e+02
2.530000e-06	-9.124024e-07	7.885290e-09	-6.455669e+00	5.075491e+02
2.540000e-06	-1.065132e-06	6.328719e-09	-7.536305e+00	4.010347e+02
2.550000e-06	-1.217453e-06	4.485342e-09	-8.614046e+00	2.774569e+02
2.560000e-06	-1.369273e-06	2.308250e-09	-9.688239e+00	1.374500e+02
2.570000e-06	-1.520621e-06	-1.194388e-10	-1.075910e+01	-1.649025e+01
2.580000e-06	-1.671481e-06	-2.630775e-09	-1.182650e+01	-1.800943e+02
2.590000e-06	-1.821780e-06	-5.146064e-09	-1.288994e+01	-3.477181e+02
2.600000e-06	-1.971385e-06	-7.659055e-09	-1.394846e+01	-5.129980e+02
2.610000e-06	-2.120182e-06	-1.014429e-08	-1.500127e+01	-6.696489e+02
2.620000e-06	-2.268146e-06	-1.246634e-08	-1.604818e+01	-8.122618e+02
2.630000e-06	-2.415283e-06	-1.443014e-08	-1.708924e+01	-9.369553e+02
2.640000e-06	-2.561577e-06	-1.599056e-08	-1.812434e+01	-1.041766e+03
2.650000e-06	-2.706910e-06	-1.722293e-08	-1.915264e+01	-1.126716e+03
2.660000e-06	-2.851197e-06	-1.820295e-08	-2.017354e+01	-1.193564e+03
2.670000e-06	-2.994396e-06	-1.899487e-08	-2.118674e+01	-1.245304e+03
2.680000e-06	-3.136412e-06	-1.964592e-08	-2.219156e+01	-1.285534e+03
2.690000e-06	-3.277168e-06	-2.019041e-08	-2.318748e+01	-1.317817e+03
2.700000e-06	-3.416599e-06	-2.065064e-08	-2.417402e+01	-1.345162e+03
2.710000e-06	-3.554693e-06	-2.104775e-08	-2.515110e+01	-1.369705e+03
2.720000e-06	-3.691466e-06	-2.139709e-08	-2.611883e+01	-1.392631e+03
2.730000e-06	-3.826853e-06	-2.170656e-08	-2.707676e+01	-1.414299e+03
2.740000e-06	-3.960917e-06	-2.198462e-08	-2.802532e+01	-1.434516e+03
2.750000e-06	-4.093627e-06	-2.223836e-08	-2.896430e+01	-1.452872e+03
2.760000e-06	-4.224844e-06	-2.247156e-08	-2.989272e+01	-1.469029e+03
2.770000e-06	-4.354616e-06	-2.268599e-08	-3.081093e+01	-1.482920e+03
2.780000e-06	-4.482902e-06	-2.288272e-08	-3.171860e+01	-1.494805e+03
2.790000e-06	-4.609648e-06	-2.306336e-08	-3.261539e+01	-1.505209e+03
2.800000e-06	-4.734830e-06	-2.322885e-08	-3.350112e+01	-1.514772e+03
2.810000e-06	-4.858312e-06	-2.338196e-08	-3.437481e+01	-1.524069e+03
2.820000e-06	-4.980029e-06	-2.352773e-08	-3.523601e+01	-1.533468e+03
2.830000e-06	-5.099907e-06	-2.366732e-08	-3.608421e+01	-1.543060e+03
2.840000e-06	-5.217873e-06	-2.379689e-08	-3.691887e+01	-1.552671e+03
2.850000e-06	-5.333708e-06	-2.391786e-08	-3.773845e+01	-1.561955e+03
2.860000e-06	-5.447313e-06	-2.403191e-08	-3.854226e+01	-1.570533e+03
2.870000e-06	-5.558822e-06	-2.413825e-08	-3.933124e+01	-1.578125e+03
2.880000e-06	-5.668263e-06	-2.423889e-08	-4.010558e+01	-1.584636e+03
2.890000e-06	-5.775766e-06	-2.433346e-08	-4.086622e+01	-1.590190e+03
2.900000e-06	-5.881281e-06	-2.442349e-08	-4.161279e+01	-1.595081e+03
2.910000e-06	-5.984561e-06	-2.450797e-08	-4.234354e+01	-1.599685e+03
2.920000e-06	-6.085541e-06	-2.458595e-08	-4.305802e+01	-1.604343e+03
2.930000e-06	-6.184322e-06	-2.465983e-08	-4.375694e+01	-1.609271e+03
2.940000e-06	-6.280934e-06	-2.473198e-08	-4.444052e+01	-1.614504e+03
