# Temperatura_=_75.04
# Concentracion g/m^3_=_41000.0
# C_Vs_to_Am_M_A/Vsm_=_65563218390.804596
# pendiente_HvsI_1/m_=_3716.3
# ordenada_HvsI_A/m_=_1297.0
# frecuencia_Hz_=_302473.89730128093

Tiempo_(s)	Campo_(V.s)	Magnetizacion_(V.s)	Campo_(kA/m)	Magnetizacion_(A/m)
0.000000e+00	-7.957488e-06	-2.301463e-08	-5.688658e+01	-1.509307e+03
1.000000e-08	-7.955434e-06	-2.301703e-08	-5.687190e+01	-1.508923e+03
2.000000e-08	-7.950604e-06	-2.301221e-08	-5.683737e+01	-1.507984e+03
3.000000e-08	-7.943250e-06	-2.300059e-08	-5.678480e+01	-1.506660e+03
4.000000e-08	-7.933223e-06	-2.299362e-08	-5.671312e+01	-1.505205e+03
5.000000e-08	-7.920356e-06	-2.298258e-08	-5.662113e+01	-1.503874e+03
6.000000e-08	-7.904568e-06	-2.296341e-08	-5.650827e+01	-1.502848e+03
7.000000e-08	-7.886177e-06	-2.293852e-08	-5.637680e+01	-1.502183e+03
8.000000e-08	-7.865485e-06	-2.290681e-08	-5.622887e+01	-1.501796e+03
9.000000e-08	-7.842111e-06	-2.297094e-08	-5.606178e+01	-1.501501e+03
1.000000e-07	-7.815499e-06	-2.301493e-08	-5.587153e+01	-1.501072e+03
1.100000e-07	-7.785712e-06	-2.292251e-08	-5.565859e+01	-1.500321e+03
1.200000e-07	-7.753149e-06	-2.286641e-08	-5.542580e+01	-1.499154e+03
1.300000e-07	-7.717874e-06	-2.285438e-08	-5.517362e+01	-1.497603e+03
1.400000e-07	-7.680167e-06	-2.276736e-08	-5.490406e+01	-1.495806e+03
1.500000e-07	-7.640412e-06	-2.265983e-08	-5.461986e+01	-1.493956e+03
1.600000e-07	-7.598384e-06	-2.281031e-08	-5.431942e+01	-1.492230e+03
1.700000e-07	-7.553583e-06	-2.282832e-08	-5.399914e+01	-1.490720e+03
1.800000e-07	-7.506080e-06	-2.264645e-08	-5.365955e+01	-1.489399e+03
1.900000e-07	-7.455662e-06	-2.273905e-08	-5.329912e+01	-1.488114e+03
2.000000e-07	-7.402209e-06	-2.261699e-08	-5.291700e+01	-1.486637e+03
2.100000e-07	-7.346037e-06	-2.250286e-08	-5.251544e+01	-1.484734e+03
2.200000e-07	-7.287127e-06	-2.253965e-08	-5.209430e+01	-1.482241e+03
2.300000e-07	-7.225579e-06	-2.248918e-08	-5.165430e+01	-1.479123e+03
2.400000e-07	-7.161401e-06	-2.249432e-08	-5.119551e+01	-1.475490e+03
2.500000e-07	-7.094490e-06	-2.239778e-08	-5.071717e+01	-1.471572e+03
2.600000e-07	-7.024921e-06	-2.238510e-08	-5.021984e+01	-1.467647e+03
2.700000e-07	-6.952606e-06	-2.232913e-08	-4.970287e+01	-1.463963e+03
2.800000e-07	-6.877511e-06	-2.226151e-08	-4.916603e+01	-1.460649e+03
2.900000e-07	-6.799752e-06	-2.222816e-08	-4.861015e+01	-1.457681e+03
3.000000e-07	-6.719244e-06	-2.217127e-08	-4.803461e+01	-1.454878e+03
3.100000e-07	-6.636188e-06	-2.213822e-08	-4.744086e+01	-1.451959e+03
3.200000e-07	-6.550974e-06	-2.202410e-08	-4.683168e+01	-1.448625e+03
3.300000e-07	-6.463544e-06	-2.197748e-08	-4.620666e+01	-1.444651e+03
3.400000e-07	-6.373683e-06	-2.190354e-08	-4.556426e+01	-1.439963e+03
3.500000e-07	-6.281504e-06	-2.181784e-08	-4.490529e+01	-1.434659e+03
3.600000e-07	-6.187070e-06	-2.177296e-08	-4.423020e+01	-1.428982e+03
3.700000e-07	-6.090339e-06	-2.170623e-08	-4.353869e+01	-1.423250e+03
3.800000e-07	-5.991353e-06	-2.162191e-08	-4.283105e+01	-1.417752e+03
3.900000e-07	-5.890276e-06	-2.152689e-08	-4.210847e+01	-1.412660e+03
4.000000e-07	-5.787170e-06	-2.145860e-08	-4.137139e+01	-1.407966e+03
4.100000e-07	-5.682001e-06	-2.136237e-08	-4.061955e+01	-1.403480e+03
4.200000e-07	-5.574800e-06	-2.127875e-08	-3.985319e+01	-1.398886e+03
4.300000e-07	-5.465611e-06	-2.120297e-08	-3.907263e+01	-1.393833e+03
4.400000e-07	-5.354474e-06	-2.111893e-08	-3.827812e+01	-1.388043e+03
4.500000e-07	-5.241411e-06	-2.100969e-08	-3.746986e+01	-1.381402e+03
4.600000e-07	-5.126299e-06	-2.090140e-08	-3.664695e+01	-1.373991e+03
4.700000e-07	-5.009123e-06	-2.080028e-08	-3.580928e+01	-1.366068e+03
4.800000e-07	-4.890131e-06	-2.069354e-08	-3.495863e+01	-1.357988e+03
4.900000e-07	-4.769444e-06	-2.058597e-08	-3.409585e+01	-1.350085e+03
5.000000e-07	-4.646955e-06	-2.047535e-08	-3.322020e+01	-1.342569e+03
5.100000e-07	-4.522702e-06	-2.036018e-08	-3.233194e+01	-1.335449e+03
5.200000e-07	-4.396872e-06	-2.022384e-08	-3.143241e+01	-1.328521e+03
5.300000e-07	-4.269452e-06	-2.008976e-08	-3.052151e+01	-1.321424e+03
5.400000e-07	-4.140556e-06	-1.995630e-08	-2.960006e+01	-1.313751e+03
5.500000e-07	-4.010105e-06	-1.982870e-08	-2.866749e+01	-1.305167e+03
5.600000e-07	-3.878024e-06	-1.969070e-08	-2.772326e+01	-1.295522e+03
5.700000e-07	-3.744448e-06	-1.954320e-08	-2.676835e+01	-1.284898e+03
5.800000e-07	-3.609467e-06	-1.938131e-08	-2.580340e+01	-1.273587e+03
5.900000e-07	-3.473156e-06	-1.921290e-08	-2.482894e+01	-1.261995e+03
6.000000e-07	-3.335616e-06	-1.904688e-08	-2.384569e+01	-1.250512e+03
6.100000e-07	-3.196628e-06	-1.887737e-08	-2.285209e+01	-1.239374e+03
6.200000e-07	-3.056156e-06	-1.870305e-08	-2.184788e+01	-1.228567e+03
6.300000e-07	-2.914468e-06	-1.851561e-08	-2.083498e+01	-1.217813e+03
6.400000e-07	-2.771720e-06	-1.831948e-08	-1.981451e+01	-1.206632e+03
6.500000e-07	-2.627974e-06	-1.810901e-08	-1.878689e+01	-1.194482e+03
6.600000e-07	-2.483111e-06	-1.789615e-08	-1.775129e+01	-1.180915e+03
6.700000e-07	-2.337277e-06	-1.767712e-08	-1.670875e+01	-1.165724e+03
6.800000e-07	-2.190767e-06	-1.744815e-08	-1.566138e+01	-1.149010e+03
6.900000e-07	-2.043611e-06	-1.720491e-08	-1.460939e+01	-1.131153e+03
7.000000e-07	-1.895749e-06	-1.694523e-08	-1.355235e+01	-1.112688e+03
7.100000e-07	-1.747313e-06	-1.667098e-08	-1.249121e+01	-1.094120e+03
7.200000e-07	-1.598370e-06	-1.638129e-08	-1.142645e+01	-1.075723e+03
7.300000e-07	-1.448877e-06	-1.607847e-08	-1.035775e+01	-1.057402e+03
7.400000e-07	-1.298883e-06	-1.575809e-08	-9.285471e+00	-1.038655e+03
7.500000e-07	-1.148443e-06	-1.542067e-08	-8.210005e+00	-1.018664e+03
7.600000e-07	-9.976460e-07	-1.505708e-08	-7.131984e+00	-9.964917e+02
7.700000e-07	-8.465516e-07	-1.466818e-08	-6.051838e+00	-9.713321e+02
7.800000e-07	-6.952187e-07	-1.425008e-08	-4.969987e+00	-9.427355e+02
7.900000e-07	-5.437239e-07	-1.380101e-08	-3.886980e+00	-9.107279e+02
8.000000e-07	-3.920503e-07	-1.331583e-08	-2.802694e+00	-8.757680e+02
8.100000e-07	-2.402201e-07	-1.278553e-08	-1.717288e+00	-8.385273e+02
8.200000e-07	-8.823044e-08	-1.220210e-08	-6.307428e-01	-7.995333e+02
8.300000e-07	6.392128e-08	-1.155445e-08	4.569612e-01	-7.587605e+02
8.400000e-07	2.160461e-07	-1.083626e-08	1.544473e+00	-7.152867e+02
8.500000e-07	3.680717e-07	-1.002946e-08	2.631275e+00	-6.671277e+02
8.600000e-07	5.200157e-07	-9.120503e-09	3.717494e+00	-6.113352e+02
8.700000e-07	6.717927e-07	-8.082896e-09	4.802519e+00	-5.443805e+02
8.800000e-07	8.233563e-07	-6.875712e-09	5.886019e+00	-4.627801e+02
8.900000e-07	9.746597e-07	-5.447879e-09	6.967659e+00	-3.638483e+02
9.000000e-07	1.125704e-06	-3.738760e-09	8.047444e+00	-2.464215e+02
9.100000e-07	1.276460e-06	-1.697588e-09	9.125169e+00	-1.113880e+02
9.200000e-07	1.426783e-06	6.229696e-10	1.019980e+01	3.811301e+01
9.300000e-07	1.576553e-06	3.061647e-09	1.127048e+01	1.968919e+02
9.400000e-07	1.725792e-06	5.515120e-09	1.233736e+01	3.582976e+02
9.500000e-07	1.874522e-06	7.954074e-09	1.340061e+01	5.150945e+02
9.600000e-07	2.022697e-06	1.025009e-08	1.445988e+01	6.604652e+02
9.700000e-07	2.170066e-06	1.219677e-08	1.551339e+01	7.889467e+02
9.800000e-07	2.316386e-06	1.373256e-08	1.655941e+01	8.971200e+02
9.900000e-07	2.461757e-06	1.492551e-08	1.759864e+01	9.839283e+02
1.000000e-06	2.606179e-06	1.585692e-08	1.863108e+01	1.050578e+03
1.010000e-06	2.749655e-06	1.659140e-08	1.965676e+01	1.100069e+03
1.020000e-06	2.892176e-06	1.718057e-08	2.067562e+01	1.136460e+03
1.030000e-06	3.033564e-06	1.766752e-08	2.168638e+01	1.164061e+03
1.040000e-06	3.173682e-06	1.807565e-08	2.268806e+01	1.186688e+03
1.050000e-06	3.312420e-06	1.842722e-08	2.367987e+01	1.207146e+03
1.060000e-06	3.449822e-06	1.873217e-08	2.466213e+01	1.227016e+03
1.070000e-06	3.585977e-06	1.900212e-08	2.563547e+01	1.246724e+03
1.080000e-06	3.720871e-06	1.924634e-08	2.659981e+01	1.265862e+03
1.090000e-06	3.854417e-06	1.946900e-08	2.755450e+01	1.283625e+03
1.100000e-06	3.986660e-06	1.967414e-08	2.849988e+01	1.299245e+03
1.110000e-06	4.117466e-06	1.986510e-08	2.943499e+01	1.312316e+03
1.120000e-06	4.246677e-06	2.004300e-08	3.035869e+01	1.322939e+03
1.130000e-06	4.374448e-06	2.020654e-08	3.127210e+01	1.331683e+03
1.140000e-06	4.500727e-06	2.036120e-08	3.217485e+01	1.339395e+03
1.150000e-06	4.625531e-06	2.050871e-08	3.306705e+01	1.346942e+03
1.160000e-06	4.748744e-06	2.064615e-08	3.394787e+01	1.354965e+03
1.170000e-06	4.870158e-06	2.077472e-08	3.481585e+01	1.363722e+03
1.180000e-06	4.989893e-06	2.089562e-08	3.567181e+01	1.373062e+03
1.190000e-06	5.107864e-06	2.101121e-08	3.651516e+01	1.382511e+03
1.200000e-06	5.223843e-06	2.112303e-08	3.734427e+01	1.391464e+03
1.210000e-06	5.337710e-06	2.122975e-08	3.815828e+01	1.399383e+03
1.220000e-06	5.449527e-06	2.133097e-08	3.895764e+01	1.405974e+03
1.230000e-06	5.559404e-06	2.142420e-08	3.974313e+01	1.411264e+03
1.240000e-06	5.667386e-06	2.151059e-08	4.051508e+01	1.415582e+03
1.250000e-06	5.773320e-06	2.159190e-08	4.127238e+01	1.419448e+03
1.260000e-06	5.877115e-06	2.167123e-08	4.201439e+01	1.423406e+03
1.270000e-06	5.978849e-06	2.174858e-08	4.274166e+01	1.427865e+03
1.280000e-06	6.078361e-06	2.182470e-08	4.345306e+01	1.432986e+03
1.290000e-06	6.175558e-06	2.189864e-08	4.414790e+01	1.438654e+03
1.300000e-06	6.270413e-06	2.196912e-08	4.482600e+01	1.444531e+03
1.310000e-06	6.363028e-06	2.203472e-08	4.548809e+01	1.450177e+03
1.320000e-06	6.453375e-06	2.209823e-08	4.613396e+01	1.455195e+03
1.330000e-06	6.541377e-06	2.216108e-08	4.676307e+01	1.459353e+03
1.340000e-06	6.627120e-06	2.222260e-08	4.737603e+01	1.462647e+03
1.350000e-06	6.710553e-06	2.228085e-08	4.797248e+01	1.465299e+03
1.360000e-06	6.791533e-06	2.233610e-08	4.855139e+01	1.467669e+03
1.370000e-06	6.870003e-06	2.238903e-08	4.911236e+01	1.470145e+03
1.380000e-06	6.945939e-06	2.243783e-08	4.965521e+01	1.473017e+03
1.390000e-06	7.019267e-06	2.248520e-08	5.017942e+01	1.476391e+03
1.400000e-06	7.090074e-06	2.253194e-08	5.068560e+01	1.480161e+03
1.410000e-06	7.158469e-06	2.257588e-08	5.117455e+01	1.484054e+03
1.420000e-06	7.224221e-06	2.261524e-08	5.164460e+01	1.487718e+03
1.430000e-06	7.287286e-06	2.265345e-08	5.209544e+01	1.490833e+03
1.440000e-06	7.347961e-06	2.269175e-08	5.252919e+01	1.493217e+03
1.450000e-06	7.406140e-06	2.272823e-08	5.294510e+01	1.494872e+03
1.460000e-06	7.461725e-06	2.276196e-08	5.334247e+01	1.495983e+03
1.470000e-06	7.514488e-06	2.279152e-08	5.371966e+01	1.496856e+03
1.480000e-06	7.564074e-06	2.281778e-08	5.407414e+01	1.497819e+03
1.490000e-06	7.610710e-06	2.284240e-08	5.440753e+01	1.499119e+03
1.500000e-06	7.654754e-06	2.286611e-08	5.472239e+01	1.500850e+03
1.510000e-06	7.696080e-06	2.288837e-08	5.501783e+01	1.502929e+03
1.520000e-06	7.734542e-06	2.290844e-08	5.529278e+01	1.505123e+03
1.530000e-06	7.770363e-06	2.292597e-08	5.554886e+01	1.507131e+03
1.540000e-06	7.803431e-06	2.294161e-08	5.578526e+01	1.508678e+03
1.550000e-06	7.833679e-06	2.295531e-08	5.600149e+01	1.509602e+03
1.560000e-06	7.861291e-06	2.296733e-08	5.619889e+01	1.509903e+03
1.570000e-06	7.886029e-06	2.297926e-08	5.637574e+01	1.509740e+03
1.580000e-06	7.907821e-06	2.299081e-08	5.653152e+01	1.509383e+03
1.590000e-06	7.926884e-06	2.300031e-08	5.666780e+01	1.509122e+03
1.600000e-06	7.943085e-06	2.300745e-08	5.678362e+01	1.509181e+03
1.610000e-06	7.956277e-06	2.301242e-08	5.687793e+01	1.509648e+03
1.620000e-06	7.966354e-06	2.301672e-08	5.694997e+01	1.510450e+03
1.630000e-06	7.973391e-06	2.302011e-08	5.700027e+01	1.511381e+03
1.640000e-06	7.977714e-06	2.302194e-08	5.703118e+01	1.512164e+03
1.650000e-06	7.979158e-06	2.302548e-08	5.704150e+01	1.512541e+03
1.660000e-06	7.977759e-06	2.302483e-08	5.703150e+01	1.512351e+03
1.670000e-06	7.973831e-06	2.301211e-08	5.700341e+01	1.511578e+03
1.680000e-06	7.967237e-06	2.300669e-08	5.695628e+01	1.510353e+03
1.690000e-06	7.957961e-06	2.299804e-08	5.688996e+01	1.508910e+03
1.700000e-06	7.945973e-06	2.298642e-08	5.680426e+01	1.507515e+03
1.710000e-06	7.931150e-06	2.298200e-08	5.669830e+01	1.506379e+03
1.720000e-06	7.913774e-06	2.298740e-08	5.657408e+01	1.505601e+03
1.730000e-06	7.894208e-06	2.298482e-08	5.643421e+01	1.505141e+03
1.740000e-06	7.872090e-06	2.283009e-08	5.627609e+01	1.504841e+03
1.750000e-06	7.846555e-06	2.280270e-08	5.609354e+01	1.504479e+03
1.760000e-06	7.817227e-06	2.287868e-08	5.588389e+01	1.503847e+03
1.770000e-06	7.784642e-06	2.284999e-08	5.565094e+01	1.502817e+03
1.780000e-06	7.749688e-06	2.284405e-08	5.540106e+01	1.501379e+03
1.790000e-06	7.712598e-06	2.298127e-08	5.513591e+01	1.499642e+03
1.800000e-06	7.673461e-06	2.290379e-08	5.485613e+01	1.497787e+03
1.810000e-06	7.632127e-06	2.274575e-08	5.456064e+01	1.496006e+03
1.820000e-06	7.588104e-06	2.289416e-08	5.424593e+01	1.494424e+03
1.830000e-06	7.541503e-06	2.273051e-08	5.391279e+01	1.493054e+03
1.840000e-06	7.492166e-06	2.280461e-08	5.356009e+01	1.491780e+03
1.850000e-06	7.439829e-06	2.285727e-08	5.318594e+01	1.490392e+03
1.860000e-06	7.384615e-06	2.270249e-08	5.279122e+01	1.488649e+03
1.870000e-06	7.326630e-06	2.277635e-08	5.237669e+01	1.486357e+03
1.880000e-06	7.266109e-06	2.254901e-08	5.194404e+01	1.483435e+03
1.890000e-06	7.202809e-06	2.258271e-08	5.149152e+01	1.479947e+03
1.900000e-06	7.136636e-06	2.254027e-08	5.101847e+01	1.476091e+03
1.910000e-06	7.067781e-06	2.244815e-08	5.052623e+01	1.472139e+03
1.920000e-06	6.996131e-06	2.253839e-08	5.001403e+01	1.468356e+03
1.930000e-06	6.921806e-06	2.237618e-08	4.948269e+01	1.464918e+03
1.940000e-06	6.844750e-06	2.237051e-08	4.893182e+01	1.461852e+03
1.950000e-06	6.764969e-06	2.223441e-08	4.836149e+01	1.459024e+03
1.960000e-06	6.682672e-06	2.220906e-08	4.777316e+01	1.456176e+03
1.970000e-06	6.597972e-06	2.218841e-08	4.716766e+01	1.453005e+03
1.980000e-06	6.510813e-06	2.208097e-08	4.654458e+01	1.449254e+03
1.990000e-06	6.421269e-06	2.209244e-08	4.590444e+01	1.444793e+03
2.000000e-06	6.329606e-06	2.195442e-08	4.524916e+01	1.439666e+03
2.010000e-06	6.235681e-06	2.190850e-08	4.457771e+01	1.434077e+03
2.020000e-06	6.139472e-06	2.180244e-08	4.388993e+01	1.428327e+03
2.030000e-06	6.041054e-06	2.176012e-08	4.318635e+01	1.422729e+03
2.040000e-06	5.940539e-06	2.169340e-08	4.246779e+01	1.417499e+03
2.050000e-06	5.837893e-06	2.161276e-08	4.173400e+01	1.412689e+03
2.060000e-06	5.733137e-06	2.154449e-08	4.098512e+01	1.408167e+03
2.070000e-06	5.626459e-06	2.142202e-08	4.022250e+01	1.403646e+03
2.080000e-06	5.517912e-06	2.134174e-08	3.944651e+01	1.398777e+03
2.090000e-06	5.407391e-06	2.123403e-08	3.865642e+01	1.393246e+03
2.100000e-06	5.294734e-06	2.116545e-08	3.785106e+01	1.386879e+03
2.110000e-06	5.180077e-06	2.105928e-08	3.703139e+01	1.379695e+03
2.120000e-06	5.063537e-06	2.097265e-08	3.619827e+01	1.371901e+03
2.130000e-06	4.945111e-06	2.085691e-08	3.535167e+01	1.363832e+03
2.140000e-06	4.824758e-06	2.074196e-08	3.449129e+01	1.355841e+03
2.150000e-06	4.702594e-06	2.062205e-08	3.361796e+01	1.348190e+03
2.160000e-06	4.578729e-06	2.051280e-08	3.273247e+01	1.340955e+03
2.170000e-06	4.453235e-06	2.040327e-08	3.183534e+01	1.333999e+03
2.180000e-06	4.326055e-06	2.027221e-08	3.092616e+01	1.327002e+03
2.190000e-06	4.197290e-06	2.014031e-08	3.000564e+01	1.319556e+03
2.200000e-06	4.067015e-06	1.999684e-08	2.907432e+01	1.311292e+03
2.210000e-06	3.935193e-06	1.986319e-08	2.813195e+01	1.301991e+03
2.220000e-06	3.802029e-06	1.972204e-08	2.717999e+01	1.291660e+03
2.230000e-06	3.667455e-06	1.959327e-08	2.621794e+01	1.280528e+03
2.240000e-06	3.531319e-06	1.944319e-08	2.524474e+01	1.268980e+03
2.250000e-06	3.393760e-06	1.927980e-08	2.426135e+01	1.257427e+03
2.260000e-06	3.255025e-06	1.910141e-08	2.326956e+01	1.246166e+03
2.270000e-06	3.115140e-06	1.892219e-08	2.226955e+01	1.235272e+03
2.280000e-06	2.974062e-06	1.874041e-08	2.126101e+01	1.224546e+03
2.290000e-06	2.831808e-06	1.855734e-08	2.024406e+01	1.213562e+03
2.300000e-06	2.688370e-06	1.836447e-08	1.921865e+01	1.201780e+03
2.310000e-06	2.543855e-06	1.815327e-08	1.818554e+01	1.188705e+03
2.320000e-06	2.398551e-06	1.793052e-08	1.714679e+01	1.174040e+03
2.330000e-06	2.252475e-06	1.769771e-08	1.610252e+01	1.157786e+03
2.340000e-06	2.105553e-06	1.745927e-08	1.505220e+01	1.140242e+03
2.350000e-06	1.957967e-06	1.721118e-08	1.399714e+01	1.121913e+03
2.360000e-06	1.809793e-06	1.695297e-08	1.293787e+01	1.103334e+03
2.370000e-06	1.661015e-06	1.667663e-08	1.187428e+01	1.084873e+03
2.380000e-06	1.511736e-06	1.637861e-08	1.080712e+01	1.066564e+03
2.390000e-06	1.362100e-06	1.606172e-08	9.737399e+00	1.048031e+03
2.400000e-06	1.212107e-06	1.572883e-08	8.665122e+00	1.028541e+03
2.410000e-06	1.061683e-06	1.537684e-08	7.589769e+00	1.007170e+03
2.420000e-06	9.107916e-07	1.500429e-08	6.511078e+00	9.830405e+02
2.430000e-06	7.595061e-07	1.460471e-08	5.429566e+00	9.555697e+02
2.440000e-06	6.078730e-07	1.416993e-08	4.345569e+00	9.246267e+02
2.450000e-06	4.559732e-07	1.369407e-08	3.259666e+00	8.905468e+02
2.460000e-06	3.038762e-07	1.317470e-08	2.172353e+00	8.539668e+02
2.470000e-06	1.516216e-07	1.260849e-08	1.083914e+00	8.155048e+02
2.480000e-06	-7.702035e-10	1.198773e-08	-5.506040e-03	7.753561e+02
2.490000e-06	-1.532275e-07	1.130139e-08	-1.095395e+00	7.329153e+02
2.500000e-06	-3.056083e-07	1.053355e-08	-2.184736e+00	6.865429e+02
2.510000e-06	-4.579149e-07	9.669191e-09	-3.273547e+00	6.335720e+02
2.520000e-06	-6.101333e-07	8.683045e-09	-4.361728e+00	5.706020e+02
2.530000e-06	-7.621126e-07	7.540576e-09	-5.448200e+00	4.940562e+02
2.540000e-06	-9.137116e-07	6.201319e-09	-6.531952e+00	4.009086e+02
2.550000e-06	-1.064872e-06	4.609492e-09	-7.612569e+00	2.894362e+02
2.560000e-06	-1.215533e-06	2.699653e-09	-8.689613e+00	1.598278e+02
2.570000e-06	-1.365659e-06	4.553398e-10	-9.762837e+00	1.450139e+01
2.580000e-06	-1.515342e-06	-1.999569e-09	-1.083289e+01	-1.419658e+02
2.590000e-06	-1.664570e-06	-4.510764e-09	-1.189970e+01	-3.033077e+02
2.600000e-06	-1.813210e-06	-7.020889e-09	-1.296229e+01	-4.623696e+02
2.610000e-06	-1.961177e-06	-9.438488e-09	-1.402009e+01	-6.120905e+02
2.620000e-06	-2.108420e-06	-1.155862e-08	-1.507270e+01	-7.464817e+02
2.630000e-06	-2.254915e-06	-1.326389e-08	-1.611996e+01	-8.614130e+02
2.640000e-06	-2.400586e-06	-1.459418e-08	-1.716134e+01	-9.550591e+02
2.650000e-06	-2.545484e-06	-1.562883e-08	-1.819718e+01	-1.027935e+03
2.660000e-06	-2.689451e-06	-1.644035e-08	-1.922638e+01	-1.082532e+03
2.670000e-06	-2.832196e-06	-1.708652e-08	-2.024684e+01	-1.122659e+03
2.680000e-06	-2.973676e-06	-1.761155e-08	-2.125825e+01	-1.152633e+03
2.690000e-06	-3.113920e-06	-1.804758e-08	-2.226082e+01	-1.176496e+03
2.700000e-06	-3.252944e-06	-1.841963e-08	-2.325469e+01	-1.197419e+03
2.710000e-06	-3.390781e-06	-1.874283e-08	-2.424006e+01	-1.217380e+03
2.720000e-06	-3.527516e-06	-1.902796e-08	-2.521755e+01	-1.237152e+03
2.730000e-06	-3.662933e-06	-1.928150e-08	-2.618562e+01	-1.256551e+03
2.740000e-06	-3.796882e-06	-1.951096e-08	-2.714320e+01	-1.274850e+03
2.750000e-06	-3.929476e-06	-1.972347e-08	-2.809109e+01	-1.291225e+03
2.760000e-06	-4.060717e-06	-1.992127e-08	-2.902930e+01	-1.305129e+03
2.770000e-06	-4.190585e-06	-2.010404e-08	-2.995770e+01	-1.316496e+03
2.780000e-06	-4.319081e-06	-2.027240e-08	-3.087630e+01	-1.325760e+03
2.790000e-06	-4.445959e-06	-2.042764e-08	-3.178332e+01	-1.333704e+03
2.800000e-06	-4.571210e-06	-2.057119e-08	-3.267872e+01	-1.341219e+03
2.810000e-06	-4.695004e-06	-2.070552e-08	-3.356370e+01	-1.349040e+03
2.820000e-06	-4.817122e-06	-2.083334e-08	-3.443670e+01	-1.357559e+03
2.830000e-06	-4.937492e-06	-2.095811e-08	-3.529720e+01	-1.366751e+03
2.840000e-06	-5.055970e-06	-2.107912e-08	-3.614418e+01	-1.376228e+03
2.850000e-06	-5.172438e-06	-2.119192e-08	-3.697678e+01	-1.385406e+03
2.860000e-06	-5.286835e-06	-2.129748e-08	-3.779459e+01	-1.393704e+03
2.870000e-06	-5.398998e-06	-2.139489e-08	-3.859642e+01	-1.400735e+03
2.880000e-06	-5.509111e-06	-2.148565e-08	-3.938360e+01	-1.406420e+03
2.890000e-06	-5.617321e-06	-2.157299e-08	-4.015717e+01	-1.410999e+03
2.900000e-06	-5.723623e-06	-2.165695e-08	-4.091711e+01	-1.414948e+03
2.910000e-06	-5.827906e-06	-2.173781e-08	-4.166260e+01	-1.418822e+03
2.920000e-06	-5.929918e-06	-2.181392e-08	-4.239187e+01	-1.423089e+03
2.930000e-06	-6.029733e-06	-2.188583e-08	-4.310543e+01	-1.427997e+03
2.940000e-06	-6.127506e-06	-2.195517e-08	-4.380438e+01	-1.433517e+03
