# Temperatura_=_76.15
# Concentracion g/m^3_=_41000.0
# C_Vs_to_Am_M_A/Vsm_=_65563218390.804596
# pendiente_HvsI_1/m_=_3716.3
# ordenada_HvsI_A/m_=_1297.0
# frecuencia_Hz_=_302497.75350385834

Tiempo_(s)	Campo_(V.s)	Magnetizacion_(V.s)	Campo_(kA/m)	Magnetizacion_(A/m)
0.000000e+00	-7.948517e-06	-2.352269e-08	-5.685825e+01	-1.539807e+03
1.000000e-08	-7.943991e-06	-2.351661e-08	-5.682587e+01	-1.538879e+03
2.000000e-08	-7.936930e-06	-2.350622e-08	-5.677536e+01	-1.537621e+03
3.000000e-08	-7.927141e-06	-2.349556e-08	-5.670534e+01	-1.536278e+03
4.000000e-08	-7.914554e-06	-2.348249e-08	-5.661530e+01	-1.535085e+03
5.000000e-08	-7.899103e-06	-2.346593e-08	-5.650478e+01	-1.534191e+03
6.000000e-08	-7.880953e-06	-2.344703e-08	-5.637494e+01	-1.533614e+03
7.000000e-08	-7.860499e-06	-2.342566e-08	-5.622863e+01	-1.533240e+03
8.000000e-08	-7.837527e-06	-2.343736e-08	-5.606430e+01	-1.532860e+03
9.000000e-08	-7.811447e-06	-2.344023e-08	-5.587775e+01	-1.532243e+03
1.000000e-07	-7.782142e-06	-2.340541e-08	-5.566812e+01	-1.531211e+03
1.100000e-07	-7.749943e-06	-2.337123e-08	-5.543779e+01	-1.529699e+03
1.200000e-07	-7.715017e-06	-2.334416e-08	-5.518795e+01	-1.527775e+03
1.300000e-07	-7.677571e-06	-2.330619e-08	-5.492009e+01	-1.525622e+03
1.400000e-07	-7.637947e-06	-2.323503e-08	-5.463665e+01	-1.523478e+03
1.500000e-07	-7.596118e-06	-2.322707e-08	-5.433743e+01	-1.521554e+03
1.600000e-07	-7.551743e-06	-2.323962e-08	-5.402000e+01	-1.519965e+03
1.700000e-07	-7.504715e-06	-2.316460e-08	-5.368359e+01	-1.518690e+03
1.800000e-07	-7.454875e-06	-2.316546e-08	-5.332708e+01	-1.517567e+03
1.900000e-07	-7.401907e-06	-2.313390e-08	-5.294817e+01	-1.516344e+03
2.000000e-07	-7.346078e-06	-2.307031e-08	-5.254881e+01	-1.514750e+03
2.100000e-07	-7.287651e-06	-2.305183e-08	-5.213087e+01	-1.512578e+03
2.200000e-07	-7.226571e-06	-2.298785e-08	-5.169394e+01	-1.509751e+03
2.300000e-07	-7.162887e-06	-2.295222e-08	-5.123839e+01	-1.506346e+03
2.400000e-07	-7.096499e-06	-2.289813e-08	-5.076350e+01	-1.502569e+03
2.500000e-07	-7.027435e-06	-2.285673e-08	-5.026946e+01	-1.498693e+03
2.600000e-07	-6.955640e-06	-2.280863e-08	-4.975589e+01	-1.494976e+03
2.700000e-07	-6.881042e-06	-2.276132e-08	-4.922227e+01	-1.491577e+03
2.800000e-07	-6.803723e-06	-2.270156e-08	-4.866918e+01	-1.488508e+03
2.900000e-07	-6.723614e-06	-2.262841e-08	-4.809613e+01	-1.485629e+03
3.000000e-07	-6.640953e-06	-2.257945e-08	-4.750483e+01	-1.482693e+03
3.100000e-07	-6.556082e-06	-2.251655e-08	-4.689772e+01	-1.479421e+03
3.200000e-07	-6.468978e-06	-2.246378e-08	-4.627464e+01	-1.475592e+03
3.300000e-07	-6.379519e-06	-2.240201e-08	-4.563471e+01	-1.471115e+03
3.400000e-07	-6.287681e-06	-2.232510e-08	-4.497777e+01	-1.466052e+03
3.500000e-07	-6.193601e-06	-2.224732e-08	-4.430478e+01	-1.460610e+03
3.600000e-07	-6.097271e-06	-2.217247e-08	-4.361570e+01	-1.455063e+03
3.700000e-07	-5.998654e-06	-2.209618e-08	-4.291026e+01	-1.449675e+03
3.800000e-07	-5.897894e-06	-2.202358e-08	-4.218950e+01	-1.444604e+03
3.900000e-07	-5.795099e-06	-2.195165e-08	-4.145417e+01	-1.439854e+03
4.000000e-07	-5.690273e-06	-2.186642e-08	-4.070432e+01	-1.435265e+03
4.100000e-07	-5.583346e-06	-2.177755e-08	-3.993944e+01	-1.430559e+03
4.200000e-07	-5.474454e-06	-2.168587e-08	-3.916050e+01	-1.425426e+03
4.300000e-07	-5.363655e-06	-2.159179e-08	-3.836792e+01	-1.419621e+03
4.400000e-07	-5.250874e-06	-2.149237e-08	-3.756116e+01	-1.413039e+03
4.500000e-07	-5.136108e-06	-2.139329e-08	-3.674020e+01	-1.405757e+03
4.600000e-07	-5.019336e-06	-2.128597e-08	-3.590489e+01	-1.398004e+03
4.700000e-07	-4.900679e-06	-2.117593e-08	-3.505611e+01	-1.390096e+03
4.800000e-07	-4.780202e-06	-2.106316e-08	-3.419430e+01	-1.382328e+03
4.900000e-07	-4.657954e-06	-2.095288e-08	-3.331981e+01	-1.374880e+03
5.000000e-07	-4.533968e-06	-2.083824e-08	-3.243290e+01	-1.367748e+03
5.100000e-07	-4.408352e-06	-2.071193e-08	-3.153433e+01	-1.360736e+03
5.200000e-07	-4.281248e-06	-2.058186e-08	-3.062512e+01	-1.353510e+03
5.300000e-07	-4.152619e-06	-2.044400e-08	-2.970500e+01	-1.345695e+03
5.400000e-07	-4.022449e-06	-2.030321e-08	-2.877385e+01	-1.336991e+03
5.500000e-07	-3.890661e-06	-2.015706e-08	-2.783113e+01	-1.327266e+03
5.600000e-07	-3.757380e-06	-2.001162e-08	-2.687773e+01	-1.316603e+03
5.700000e-07	-3.622753e-06	-1.985813e-08	-2.591470e+01	-1.305275e+03
5.800000e-07	-3.486745e-06	-1.969474e-08	-2.494179e+01	-1.293655e+03
5.900000e-07	-3.349387e-06	-1.952353e-08	-2.395922e+01	-1.282096e+03
6.000000e-07	-3.210683e-06	-1.934687e-08	-2.296703e+01	-1.270803e+03
6.100000e-07	-3.070565e-06	-1.916520e-08	-2.196472e+01	-1.259750e+03
6.200000e-07	-2.929142e-06	-1.897510e-08	-2.095308e+01	-1.248671e+03
6.300000e-07	-2.786557e-06	-1.877752e-08	-1.993312e+01	-1.237117e+03
6.400000e-07	-2.642888e-06	-1.856902e-08	-1.890541e+01	-1.224588e+03
6.500000e-07	-2.498226e-06	-1.834989e-08	-1.787060e+01	-1.210683e+03
6.600000e-07	-2.352599e-06	-1.811797e-08	-1.682888e+01	-1.195220e+03
6.700000e-07	-2.206215e-06	-1.787805e-08	-1.578175e+01	-1.178304e+03
6.800000e-07	-2.059211e-06	-1.762845e-08	-1.473019e+01	-1.160287e+03
6.900000e-07	-1.911531e-06	-1.736626e-08	-1.367378e+01	-1.141655e+03
7.000000e-07	-1.763180e-06	-1.708914e-08	-1.261259e+01	-1.122851e+03
7.100000e-07	-1.614277e-06	-1.679506e-08	-1.154743e+01	-1.104093e+03
7.200000e-07	-1.464942e-06	-1.648636e-08	-1.047919e+01	-1.085252e+03
7.300000e-07	-1.315210e-06	-1.615751e-08	-9.408113e+00	-1.065828e+03
7.400000e-07	-1.165104e-06	-1.580754e-08	-8.334356e+00	-1.045036e+03
7.500000e-07	-1.014605e-06	-1.543482e-08	-7.257788e+00	-1.021996e+03
7.600000e-07	-8.637006e-07	-1.503626e-08	-6.178323e+00	-9.959629e+02
7.700000e-07	-7.124333e-07	-1.460561e-08	-5.096260e+00	-9.665304e+02
7.800000e-07	-5.609436e-07	-1.413902e-08	-4.012607e+00	-9.337252e+02
7.900000e-07	-4.092950e-07	-1.363381e-08	-2.927816e+00	-8.979522e+02
8.000000e-07	-2.574920e-07	-1.308345e-08	-1.841921e+00	-8.597753e+02
8.100000e-07	-1.055835e-07	-1.247795e-08	-7.552724e-01	-8.195750e+02
8.200000e-07	4.645257e-08	-1.180694e-08	3.322899e-01	-7.771689e+02
8.300000e-07	1.985656e-07	-1.105895e-08	1.420402e+00	-7.315027e+02
8.400000e-07	3.506037e-07	-1.021722e-08	2.507979e+00	-6.805200e+02
8.500000e-07	5.025772e-07	-9.263534e-09	3.595093e+00	-6.212844e+02
8.600000e-07	6.544171e-07	-8.170970e-09	4.681252e+00	-5.503725e+02
8.700000e-07	8.059184e-07	-6.898775e-09	5.764989e+00	-4.644881e+02
8.800000e-07	9.571907e-07	-5.393199e-09	6.847087e+00	-3.611861e+02
8.900000e-07	1.108187e-06	-3.592034e-09	7.927212e+00	-2.395555e+02
9.000000e-07	1.258715e-06	-1.461000e-09	9.003985e+00	-1.007052e+02
9.100000e-07	1.408816e-06	9.069739e-10	1.007771e+01	5.207491e+01
9.200000e-07	1.558493e-06	3.353222e-09	1.114839e+01	2.135369e+02
9.300000e-07	1.707694e-06	5.806720e-09	1.221568e+01	3.770665e+02
9.400000e-07	1.856375e-06	8.246399e-09	1.327923e+01	5.355428e+02
9.500000e-07	2.004383e-06	1.055783e-08	1.433799e+01	6.823077e+02
9.600000e-07	2.151633e-06	1.254264e-08	1.539131e+01	8.120619e+02
9.700000e-07	2.298063e-06	1.411870e-08	1.643877e+01	9.215164e+02
9.800000e-07	2.443554e-06	1.534042e-08	1.747951e+01	1.009683e+03
9.900000e-07	2.588085e-06	1.629183e-08	1.851339e+01	1.077768e+03
1.000000e-06	2.731619e-06	1.704006e-08	1.954013e+01	1.128705e+03
1.010000e-06	2.874093e-06	1.763836e-08	2.055930e+01	1.166451e+03
1.020000e-06	3.015500e-06	1.813018e-08	2.157082e+01	1.195204e+03
1.030000e-06	3.155703e-06	1.854539e-08	2.257374e+01	1.218694e+03
1.040000e-06	3.294638e-06	1.890441e-08	2.356758e+01	1.239691e+03
1.050000e-06	3.432242e-06	1.921757e-08	2.455191e+01	1.259792e+03
1.060000e-06	3.568419e-06	1.949519e-08	2.552603e+01	1.279498e+03
1.070000e-06	3.703254e-06	1.974336e-08	2.649054e+01	1.298505e+03
1.080000e-06	3.836838e-06	1.996692e-08	2.744611e+01	1.316119e+03
1.090000e-06	3.969096e-06	2.017248e-08	2.839220e+01	1.331663e+03
1.100000e-06	4.099928e-06	2.036303e-08	2.932808e+01	1.344778e+03
1.110000e-06	4.229254e-06	2.053900e-08	3.025319e+01	1.355570e+03
1.120000e-06	4.357008e-06	2.070113e-08	3.116705e+01	1.364565e+03
1.130000e-06	4.483338e-06	2.085381e-08	3.207073e+01	1.372542e+03
1.140000e-06	4.608265e-06	2.100075e-08	3.296438e+01	1.380295e+03
1.150000e-06	4.731687e-06	2.114138e-08	3.384725e+01	1.388409e+03
1.160000e-06	4.853322e-06	2.127285e-08	3.471734e+01	1.397120e+03
1.170000e-06	4.973086e-06	2.139382e-08	3.557405e+01	1.406291e+03
1.180000e-06	5.091145e-06	2.150648e-08	3.641857e+01	1.415497e+03
1.190000e-06	5.207372e-06	2.161340e-08	3.724998e+01	1.424199e+03
1.200000e-06	5.321555e-06	2.171737e-08	3.806676e+01	1.431924e+03
1.210000e-06	5.433595e-06	2.181467e-08	3.886822e+01	1.438423e+03
1.220000e-06	5.543675e-06	2.190622e-08	3.965566e+01	1.443737e+03
1.230000e-06	5.651938e-06	2.199302e-08	4.043010e+01	1.448179e+03
1.240000e-06	5.758179e-06	2.207570e-08	4.119007e+01	1.452221e+03
1.250000e-06	5.862200e-06	2.215446e-08	4.193417e+01	1.456351e+03
1.260000e-06	5.964078e-06	2.223091e-08	4.266293e+01	1.460925e+03
1.270000e-06	6.063877e-06	2.230565e-08	4.337683e+01	1.466069e+03
1.280000e-06	6.161337e-06	2.237846e-08	4.407399e+01	1.471662e+03
1.290000e-06	6.256388e-06	2.244994e-08	4.475392e+01	1.477388e+03
1.300000e-06	6.349234e-06	2.251684e-08	4.541808e+01	1.482849e+03
1.310000e-06	6.439820e-06	2.257861e-08	4.606606e+01	1.487698e+03
1.320000e-06	6.528063e-06	2.263647e-08	4.669729e+01	1.491745e+03
1.330000e-06	6.613988e-06	2.269252e-08	4.731194e+01	1.495010e+03
1.340000e-06	6.697622e-06	2.274664e-08	4.791020e+01	1.497709e+03
1.350000e-06	6.778794e-06	2.280045e-08	4.849085e+01	1.500178e+03
1.360000e-06	6.857448e-06	2.285439e-08	4.905349e+01	1.502762e+03
1.370000e-06	6.933655e-06	2.290658e-08	4.959862e+01	1.505708e+03
1.380000e-06	7.007180e-06	2.295493e-08	5.012457e+01	1.509086e+03
1.390000e-06	7.078120e-06	2.299922e-08	5.063203e+01	1.512778e+03
1.400000e-06	7.146664e-06	2.304046e-08	5.112234e+01	1.516521e+03
1.410000e-06	7.212637e-06	2.307932e-08	5.159427e+01	1.519990e+03
1.420000e-06	7.276037e-06	2.311538e-08	5.204779e+01	1.522909e+03
1.430000e-06	7.337008e-06	2.314659e-08	5.248394e+01	1.525133e+03
1.440000e-06	7.395428e-06	2.317691e-08	5.290183e+01	1.526695e+03
1.450000e-06	7.451180e-06	2.320941e-08	5.330064e+01	1.527788e+03
1.460000e-06	7.504151e-06	2.324173e-08	5.367956e+01	1.528705e+03
1.470000e-06	7.554037e-06	2.327036e-08	5.403641e+01	1.529745e+03
1.480000e-06	7.600961e-06	2.329617e-08	5.437207e+01	1.531121e+03
1.490000e-06	7.645303e-06	2.331992e-08	5.468927e+01	1.532894e+03
1.500000e-06	7.686936e-06	2.334036e-08	5.498708e+01	1.534960e+03
1.510000e-06	7.725718e-06	2.335856e-08	5.526450e+01	1.537086e+03
1.520000e-06	7.761814e-06	2.337544e-08	5.552271e+01	1.538987e+03
1.530000e-06	7.795167e-06	2.339234e-08	5.576129e+01	1.540416e+03
1.540000e-06	7.825764e-06	2.340770e-08	5.598016e+01	1.541243e+03
1.550000e-06	7.853659e-06	2.342177e-08	5.617970e+01	1.541494e+03
1.560000e-06	7.878640e-06	2.343516e-08	5.635840e+01	1.541342e+03
1.570000e-06	7.900690e-06	2.344564e-08	5.651613e+01	1.541049e+03
1.580000e-06	7.920058e-06	2.345340e-08	5.665468e+01	1.540887e+03
1.590000e-06	7.936555e-06	2.346007e-08	5.677268e+01	1.541048e+03
1.600000e-06	7.950041e-06	2.346743e-08	5.686915e+01	1.541593e+03
1.610000e-06	7.960453e-06	2.347413e-08	5.694363e+01	1.542426e+03
1.620000e-06	7.967807e-06	2.347792e-08	5.699624e+01	1.543336e+03
1.630000e-06	7.972385e-06	2.347971e-08	5.702899e+01	1.544055e+03
1.640000e-06	7.974134e-06	2.348166e-08	5.704150e+01	1.544352e+03
1.650000e-06	7.973080e-06	2.347990e-08	5.703396e+01	1.544095e+03
1.660000e-06	7.969433e-06	2.347516e-08	5.700787e+01	1.543298e+03
1.670000e-06	7.963112e-06	2.347022e-08	5.696266e+01	1.542109e+03
1.680000e-06	7.954099e-06	2.346346e-08	5.689818e+01	1.540762e+03
1.690000e-06	7.942355e-06	2.345335e-08	5.681417e+01	1.539505e+03
1.700000e-06	7.927796e-06	2.344410e-08	5.671003e+01	1.538516e+03
1.710000e-06	7.910730e-06	2.343802e-08	5.658795e+01	1.537854e+03
1.720000e-06	7.891391e-06	2.342568e-08	5.644961e+01	1.537439e+03
1.730000e-06	7.869474e-06	2.336497e-08	5.629283e+01	1.537083e+03
1.740000e-06	7.844387e-06	2.333954e-08	5.611338e+01	1.536555e+03
1.750000e-06	7.815646e-06	2.334305e-08	5.590778e+01	1.535652e+03
1.760000e-06	7.783533e-06	2.332477e-08	5.567807e+01	1.534274e+03
1.770000e-06	7.748874e-06	2.330336e-08	5.543014e+01	1.532452e+03
1.780000e-06	7.711968e-06	2.333626e-08	5.516614e+01	1.530340e+03
1.790000e-06	7.672937e-06	2.331536e-08	5.488694e+01	1.528168e+03
1.800000e-06	7.631894e-06	2.326558e-08	5.459335e+01	1.526162e+03
1.810000e-06	7.588351e-06	2.331888e-08	5.428187e+01	1.524472e+03
1.820000e-06	7.542023e-06	2.324143e-08	5.395047e+01	1.523116e+03
1.830000e-06	7.493004e-06	2.323041e-08	5.359982e+01	1.521972e+03
1.840000e-06	7.441003e-06	2.322102e-08	5.322784e+01	1.520804e+03
1.850000e-06	7.386099e-06	2.315070e-08	5.283509e+01	1.519340e+03
1.860000e-06	7.328571e-06	2.316279e-08	5.242358e+01	1.517346e+03
1.870000e-06	7.268425e-06	2.309610e-08	5.199334e+01	1.514704e+03
1.880000e-06	7.205507e-06	2.308419e-08	5.154327e+01	1.511447e+03
1.890000e-06	7.139794e-06	2.304523e-08	5.107320e+01	1.507748e+03
1.900000e-06	7.071389e-06	2.296768e-08	5.058388e+01	1.503870e+03
1.910000e-06	7.000150e-06	2.292567e-08	5.007429e+01	1.500085e+03
1.920000e-06	6.926205e-06	2.287176e-08	4.954533e+01	1.496585e+03
1.930000e-06	6.849580e-06	2.285479e-08	4.899721e+01	1.493428e+03
1.940000e-06	6.770221e-06	2.278699e-08	4.842953e+01	1.490516e+03
1.950000e-06	6.688368e-06	2.272663e-08	4.784401e+01	1.487623e+03
1.960000e-06	6.604007e-06	2.266641e-08	4.724055e+01	1.484472e+03
1.970000e-06	6.517162e-06	2.258976e-08	4.661932e+01	1.480817e+03
1.980000e-06	6.427965e-06	2.253913e-08	4.598126e+01	1.476524e+03
1.990000e-06	6.336494e-06	2.247881e-08	4.532694e+01	1.471611e+03
2.000000e-06	6.242752e-06	2.242646e-08	4.465638e+01	1.466249e+03
2.010000e-06	6.146779e-06	2.235001e-08	4.396985e+01	1.460702e+03
2.020000e-06	6.048700e-06	2.226429e-08	4.326826e+01	1.455245e+03
2.030000e-06	5.948544e-06	2.217784e-08	4.255181e+01	1.450074e+03
2.040000e-06	5.846228e-06	2.210733e-08	4.181991e+01	1.445241e+03
2.050000e-06	5.741789e-06	2.203294e-08	4.107283e+01	1.440629e+03
2.060000e-06	5.635447e-06	2.194889e-08	4.031213e+01	1.435987e+03
2.070000e-06	5.527184e-06	2.186403e-08	3.953769e+01	1.431004e+03
2.080000e-06	5.416911e-06	2.177328e-08	3.874887e+01	1.425407e+03
2.090000e-06	5.304603e-06	2.167656e-08	3.794550e+01	1.419046e+03
2.100000e-06	5.190335e-06	2.157359e-08	3.712810e+01	1.411945e+03
2.110000e-06	5.074089e-06	2.147800e-08	3.629656e+01	1.404295e+03
2.120000e-06	4.955823e-06	2.137974e-08	3.545056e+01	1.396397e+03
2.130000e-06	4.835642e-06	2.127407e-08	3.459087e+01	1.388562e+03
2.140000e-06	4.713715e-06	2.115810e-08	3.371869e+01	1.381013e+03
2.150000e-06	4.590113e-06	2.104201e-08	3.283453e+01	1.373801e+03
2.160000e-06	4.464803e-06	2.092279e-08	3.193815e+01	1.366783e+03
2.170000e-06	4.337846e-06	2.080090e-08	3.102998e+01	1.359656e+03
2.180000e-06	4.209303e-06	2.067460e-08	3.011047e+01	1.352044e+03
2.190000e-06	4.079285e-06	2.054376e-08	2.918041e+01	1.343615e+03
2.200000e-06	3.947723e-06	2.040303e-08	2.823931e+01	1.334181e+03
2.210000e-06	3.814654e-06	2.025473e-08	2.728742e+01	1.323764e+03
2.220000e-06	3.680206e-06	2.010220e-08	2.632568e+01	1.312588e+03
2.230000e-06	3.544352e-06	1.994673e-08	2.535387e+01	1.301011e+03
2.240000e-06	3.407172e-06	1.978848e-08	2.437258e+01	1.289404e+03
2.250000e-06	3.268744e-06	1.962194e-08	2.338236e+01	1.278025e+03
2.260000e-06	3.129026e-06	1.944428e-08	2.238291e+01	1.266919e+03
2.270000e-06	2.988021e-06	1.925562e-08	2.137426e+01	1.255886e+03
2.280000e-06	2.845838e-06	1.905983e-08	2.035718e+01	1.244517e+03
2.290000e-06	2.702567e-06	1.885847e-08	1.933231e+01	1.232314e+03
2.300000e-06	2.558239e-06	1.864918e-08	1.829989e+01	1.218831e+03
2.310000e-06	2.413039e-06	1.842849e-08	1.726123e+01	1.203814e+03
2.320000e-06	2.267114e-06	1.819673e-08	1.621738e+01	1.187284e+03
2.330000e-06	2.120507e-06	1.795325e-08	1.516866e+01	1.169534e+03
2.340000e-06	1.973233e-06	1.769541e-08	1.411516e+01	1.151026e+03
2.350000e-06	1.825243e-06	1.742323e-08	1.305654e+01	1.132234e+03
2.360000e-06	1.676587e-06	1.713801e-08	1.199316e+01	1.113458e+03
2.370000e-06	1.527344e-06	1.683775e-08	1.092557e+01	1.094675e+03
2.380000e-06	1.377649e-06	1.652104e-08	9.854758e+00	1.075487e+03
2.390000e-06	1.227607e-06	1.618154e-08	8.781464e+00	1.055174e+03
2.400000e-06	1.077140e-06	1.581730e-08	7.705119e+00	1.032861e+03
2.410000e-06	9.262778e-07	1.542786e-08	6.625957e+00	1.007741e+03
2.420000e-06	7.750916e-07	1.501027e-08	5.544475e+00	9.792947e+02
2.430000e-06	6.235809e-07	1.456058e-08	4.460671e+00	9.474241e+02
2.440000e-06	4.718562e-07	1.407051e-08	3.375336e+00	9.124414e+02
2.450000e-06	3.199394e-07	1.353293e-08	2.288628e+00	8.748959e+02
2.460000e-06	1.677986e-07	1.294205e-08	1.200316e+00	8.352594e+02
2.470000e-06	1.552706e-08	1.229083e-08	1.110699e-01	7.935473e+02
2.480000e-06	-1.367498e-07	1.157005e-08	-9.782145e-01	7.489771e+02
2.490000e-06	-2.890168e-07	1.076589e-08	-2.067428e+00	6.997782e+02
2.500000e-06	-4.412091e-07	9.859055e-09	-3.156108e+00	6.432371e+02
2.510000e-06	-5.932809e-07	8.822681e-09	-4.243926e+00	5.760150e+02
2.520000e-06	-7.451144e-07	7.620157e-09	-5.330038e+00	4.947075e+02
2.530000e-06	-8.966142e-07	6.205015e-09	-6.413764e+00	3.965519e+02
2.540000e-06	-1.047768e-06	4.517326e-09	-7.495018e+00	2.801380e+02
2.550000e-06	-1.198528e-06	2.498509e-09	-8.573451e+00	1.459650e+02
2.560000e-06	-1.348870e-06	1.749522e-10	-9.648892e+00	-3.294630e+00
2.570000e-06	-1.498731e-06	-2.303980e-09	-1.072090e+01	-1.629070e+02
2.580000e-06	-1.648065e-06	-4.816537e-09	-1.178913e+01	-3.265697e+02
2.590000e-06	-1.796756e-06	-7.330052e-09	-1.285276e+01	-4.872090e+02
2.600000e-06	-1.944684e-06	-9.760886e-09	-1.391094e+01	-6.379365e+02
2.610000e-06	-2.091809e-06	-1.191036e-08	-1.496337e+01	-7.729847e+02
2.620000e-06	-2.238193e-06	-1.364613e-08	-1.601050e+01	-8.884433e+02
2.630000e-06	-2.383832e-06	-1.499705e-08	-1.705230e+01	-9.826609e+02
2.640000e-06	-2.528673e-06	-1.604699e-08	-1.808839e+01	-1.056249e+03
2.650000e-06	-2.672609e-06	-1.687564e-08	-1.911802e+01	-1.111713e+03
2.660000e-06	-2.815502e-06	-1.753897e-08	-2.014017e+01	-1.152797e+03
2.670000e-06	-2.957199e-06	-1.807727e-08	-2.115378e+01	-1.183708e+03
2.680000e-06	-3.097601e-06	-1.852083e-08	-2.215812e+01	-1.208372e+03
2.690000e-06	-3.236687e-06	-1.889520e-08	-2.315305e+01	-1.229868e+03
2.700000e-06	-3.374524e-06	-1.921842e-08	-2.413904e+01	-1.250131e+03
2.710000e-06	-3.511157e-06	-1.950326e-08	-2.511641e+01	-1.269955e+03
2.720000e-06	-3.646542e-06	-1.976056e-08	-2.608486e+01	-1.289225e+03
2.730000e-06	-3.780632e-06	-1.999640e-08	-2.704406e+01	-1.307315e+03
2.740000e-06	-3.913289e-06	-2.021366e-08	-2.799299e+01	-1.323506e+03
2.750000e-06	-4.044505e-06	-2.041161e-08	-2.893162e+01	-1.337327e+03
2.760000e-06	-4.174382e-06	-2.059108e-08	-2.986067e+01	-1.348747e+03
2.770000e-06	-4.302870e-06	-2.075792e-08	-3.077979e+01	-1.358184e+03
2.780000e-06	-4.429914e-06	-2.091525e-08	-3.168857e+01	-1.366368e+03
2.790000e-06	-4.555386e-06	-2.106319e-08	-3.258611e+01	-1.374114e+03
2.800000e-06	-4.679183e-06	-2.120233e-08	-3.347167e+01	-1.382086e+03
2.810000e-06	-4.801422e-06	-2.133231e-08	-3.434609e+01	-1.390626e+03
2.820000e-06	-4.921988e-06	-2.145298e-08	-3.520853e+01	-1.399700e+03
2.830000e-06	-5.040693e-06	-2.156723e-08	-3.605767e+01	-1.408952e+03
2.840000e-06	-5.157302e-06	-2.167817e-08	-3.689181e+01	-1.417853e+03
2.850000e-06	-5.271760e-06	-2.178557e-08	-3.771057e+01	-1.425896e+03
2.860000e-06	-5.384099e-06	-2.188652e-08	-3.851416e+01	-1.432756e+03
2.870000e-06	-5.494317e-06	-2.197831e-08	-3.930258e+01	-1.438389e+03
2.880000e-06	-5.602610e-06	-2.206361e-08	-4.007724e+01	-1.443037e+03
2.890000e-06	-5.709077e-06	-2.214641e-08	-4.083883e+01	-1.447143e+03
2.900000e-06	-5.813599e-06	-2.222789e-08	-4.158651e+01	-1.451205e+03
2.910000e-06	-5.915874e-06	-2.230526e-08	-4.231811e+01	-1.455629e+03
2.920000e-06	-6.015866e-06	-2.237918e-08	-4.303339e+01	-1.460614e+03
2.930000e-06	-6.113763e-06	-2.245246e-08	-4.373368e+01	-1.466106e+03
2.940000e-06	-6.209538e-06	-2.252376e-08	-4.441878e+01	-1.471834e+03
