# Temperatura_=_66.79
# Concentracion g/m^3_=_41000.0
# C_Vs_to_Am_M_A/Vsm_=_65563218390.804596
# pendiente_HvsI_1/m_=_3716.3
# ordenada_HvsI_A/m_=_1297.0
# frecuencia_Hz_=_302501.5400622436

Tiempo_(s)	Campo_(V.s)	Magnetizacion_(V.s)	Campo_(kA/m)	Magnetizacion_(A/m)
0.000000e+00	-7.960101e-06	-2.316846e-08	-5.687148e+01	-1.518027e+03
1.000000e-08	-7.957850e-06	-2.317278e-08	-5.685540e+01	-1.517502e+03
2.000000e-08	-7.952868e-06	-2.316339e-08	-5.681981e+01	-1.516502e+03
3.000000e-08	-7.945439e-06	-2.314839e-08	-5.676673e+01	-1.515227e+03
4.000000e-08	-7.935303e-06	-2.313476e-08	-5.669431e+01	-1.513929e+03
5.000000e-08	-7.922244e-06	-2.311947e-08	-5.660101e+01	-1.512829e+03
6.000000e-08	-7.906278e-06	-2.310120e-08	-5.648694e+01	-1.512052e+03
7.000000e-08	-7.887717e-06	-2.307945e-08	-5.635433e+01	-1.511585e+03
8.000000e-08	-7.866909e-06	-2.305636e-08	-5.620567e+01	-1.511289e+03
9.000000e-08	-7.843487e-06	-2.311702e-08	-5.603833e+01	-1.510947e+03
1.000000e-07	-7.816867e-06	-2.312468e-08	-5.584814e+01	-1.510330e+03
1.100000e-07	-7.787047e-06	-2.303934e-08	-5.563509e+01	-1.509282e+03
1.200000e-07	-7.754366e-06	-2.300341e-08	-5.540159e+01	-1.507762e+03
1.300000e-07	-7.718967e-06	-2.299157e-08	-5.514868e+01	-1.505864e+03
1.400000e-07	-7.681144e-06	-2.293300e-08	-5.487846e+01	-1.503781e+03
1.500000e-07	-7.641182e-06	-2.283388e-08	-5.459294e+01	-1.501744e+03
1.600000e-07	-7.598932e-06	-2.292330e-08	-5.429108e+01	-1.499941e+03
1.700000e-07	-7.554017e-06	-2.294454e-08	-5.397019e+01	-1.498456e+03
1.800000e-07	-7.506407e-06	-2.278830e-08	-5.363003e+01	-1.497231e+03
1.900000e-07	-7.455913e-06	-2.285494e-08	-5.326928e+01	-1.496083e+03
2.000000e-07	-7.402389e-06	-2.277709e-08	-5.288687e+01	-1.494757e+03
2.100000e-07	-7.346137e-06	-2.268953e-08	-5.248498e+01	-1.493003e+03
2.200000e-07	-7.287219e-06	-2.269154e-08	-5.206403e+01	-1.490655e+03
2.300000e-07	-7.225610e-06	-2.260775e-08	-5.162386e+01	-1.487688e+03
2.400000e-07	-7.161343e-06	-2.263724e-08	-5.116471e+01	-1.484226e+03
2.500000e-07	-7.094368e-06	-2.257222e-08	-5.068619e+01	-1.480507e+03
2.600000e-07	-7.024675e-06	-2.252383e-08	-5.018827e+01	-1.476813e+03
2.700000e-07	-6.952248e-06	-2.245677e-08	-4.967081e+01	-1.473379e+03
2.800000e-07	-6.877079e-06	-2.242319e-08	-4.913376e+01	-1.470322e+03
2.900000e-07	-6.799261e-06	-2.238080e-08	-4.857778e+01	-1.467601e+03
3.000000e-07	-6.718734e-06	-2.230124e-08	-4.800245e+01	-1.465026e+03
3.100000e-07	-6.635631e-06	-2.228658e-08	-4.740871e+01	-1.462314e+03
3.200000e-07	-6.550265e-06	-2.220958e-08	-4.679882e+01	-1.459180e+03
3.300000e-07	-6.462662e-06	-2.214697e-08	-4.617293e+01	-1.455419e+03
3.400000e-07	-6.372712e-06	-2.206660e-08	-4.553028e+01	-1.450974e+03
3.500000e-07	-6.280452e-06	-2.199886e-08	-4.487111e+01	-1.445954e+03
3.600000e-07	-6.185961e-06	-2.194962e-08	-4.419602e+01	-1.440600e+03
3.700000e-07	-6.089161e-06	-2.187570e-08	-4.350442e+01	-1.435213e+03
3.800000e-07	-5.990074e-06	-2.179649e-08	-4.279649e+01	-1.430051e+03
3.900000e-07	-5.888869e-06	-2.171778e-08	-4.207343e+01	-1.425254e+03
4.000000e-07	-5.785559e-06	-2.165024e-08	-4.133532e+01	-1.420790e+03
4.100000e-07	-5.680202e-06	-2.155950e-08	-4.058259e+01	-1.416462e+03
4.200000e-07	-5.572869e-06	-2.147885e-08	-3.981574e+01	-1.411968e+03
4.300000e-07	-5.463542e-06	-2.139553e-08	-3.903465e+01	-1.406993e+03
4.400000e-07	-5.352225e-06	-2.130634e-08	-3.823933e+01	-1.401304e+03
4.500000e-07	-5.238931e-06	-2.120865e-08	-3.742990e+01	-1.394829e+03
4.600000e-07	-5.123667e-06	-2.111224e-08	-3.660639e+01	-1.387679e+03
4.700000e-07	-5.006425e-06	-2.101203e-08	-3.576874e+01	-1.380114e+03
4.800000e-07	-4.887310e-06	-2.090898e-08	-3.491772e+01	-1.372461e+03
4.900000e-07	-4.766441e-06	-2.080535e-08	-3.405416e+01	-1.365006e+03
5.000000e-07	-4.643866e-06	-2.069263e-08	-3.317841e+01	-1.357901e+03
5.100000e-07	-4.519533e-06	-2.057411e-08	-3.229011e+01	-1.351101e+03
5.200000e-07	-4.393534e-06	-2.044655e-08	-3.138991e+01	-1.344375e+03
5.300000e-07	-4.265948e-06	-2.031906e-08	-3.047835e+01	-1.337365e+03
5.400000e-07	-4.136802e-06	-2.018500e-08	-2.955566e+01	-1.329694e+03
5.500000e-07	-4.006200e-06	-2.005397e-08	-2.862257e+01	-1.321085e+03
5.600000e-07	-3.874069e-06	-1.991794e-08	-2.767855e+01	-1.311448e+03
5.700000e-07	-3.740451e-06	-1.977562e-08	-2.672390e+01	-1.300911e+03
5.800000e-07	-3.605342e-06	-1.961853e-08	-2.575861e+01	-1.289782e+03
5.900000e-07	-3.468808e-06	-1.945431e-08	-2.478314e+01	-1.278449e+03
6.000000e-07	-3.331066e-06	-1.928657e-08	-2.379903e+01	-1.267250e+03
6.100000e-07	-3.192040e-06	-1.911563e-08	-2.280574e+01	-1.256354e+03
6.200000e-07	-3.051605e-06	-1.894150e-08	-2.180240e+01	-1.245682e+03
6.300000e-07	-2.909841e-06	-1.875516e-08	-2.078955e+01	-1.234918e+03
6.400000e-07	-2.766941e-06	-1.855858e-08	-1.976860e+01	-1.223582e+03
6.500000e-07	-2.623055e-06	-1.834839e-08	-1.874060e+01	-1.211171e+03
6.600000e-07	-2.478275e-06	-1.813195e-08	-1.770620e+01	-1.197308e+03
6.700000e-07	-2.332523e-06	-1.790708e-08	-1.666487e+01	-1.181865e+03
6.800000e-07	-2.185860e-06	-1.767534e-08	-1.561703e+01	-1.164999e+03
6.900000e-07	-2.038547e-06	-1.743190e-08	-1.456454e+01	-1.147111e+03
7.000000e-07	-1.890612e-06	-1.717306e-08	-1.350761e+01	-1.128702e+03
7.100000e-07	-1.742039e-06	-1.689547e-08	-1.244612e+01	-1.110195e+03
7.200000e-07	-1.592900e-06	-1.659759e-08	-1.138058e+01	-1.091757e+03
7.300000e-07	-1.443279e-06	-1.628752e-08	-1.031161e+01	-1.073189e+03
7.400000e-07	-1.293239e-06	-1.596133e-08	-9.239635e+00	-1.053920e+03
7.500000e-07	-1.142761e-06	-1.561593e-08	-8.164532e+00	-1.033124e+03
7.600000e-07	-9.918112e-07	-1.524675e-08	-7.086063e+00	-1.009920e+03
7.700000e-07	-8.404905e-07	-1.485048e-08	-6.004941e+00	-9.836076e+02
7.800000e-07	-6.889052e-07	-1.441891e-08	-4.921930e+00	-9.538587e+02
7.900000e-07	-5.370773e-07	-1.395081e-08	-3.837186e+00	-9.207885e+02
8.000000e-07	-3.850359e-07	-1.344318e-08	-2.750915e+00	-8.848685e+02
8.100000e-07	-2.328513e-07	-1.288843e-08	-1.663622e+00	-8.466777e+02
8.200000e-07	-8.059255e-08	-1.227978e-08	-5.757990e-01	-8.065424e+02
8.300000e-07	7.172403e-08	-1.160562e-08	5.124372e-01	-7.641574e+02
8.400000e-07	2.240383e-07	-1.085329e-08	1.600657e+00	-7.182996e+02
8.500000e-07	3.763078e-07	-1.000554e-08	2.688557e+00	-6.667391e+02
8.600000e-07	5.285314e-07	-9.045781e-09	3.776128e+00	-6.064116e+02
8.700000e-07	6.806643e-07	-7.943027e-09	4.863052e+00	-5.338604e+02
8.800000e-07	8.326030e-07	-6.654609e-09	5.948589e+00	-4.458822e+02
8.900000e-07	9.842599e-07	-5.126347e-09	7.032112e+00	-3.402591e+02
9.000000e-07	1.135600e-06	-3.295835e-09	8.113370e+00	-2.164171e+02
9.100000e-07	1.286481e-06	-1.136466e-09	9.191349e+00	-7.585976e+01
9.200000e-07	1.436900e-06	1.247171e-09	1.026603e+01	7.774007e+01
9.300000e-07	1.586855e-06	3.695903e-09	1.133739e+01	2.388385e+02
9.400000e-07	1.736273e-06	6.148555e-09	1.240492e+01	4.006737e+02
9.500000e-07	1.885102e-06	8.573458e-09	1.346824e+01	5.561608e+02
9.600000e-07	2.033181e-06	1.082495e-08	1.452620e+01	6.988621e+02
9.700000e-07	2.180413e-06	1.271254e-08	1.557811e+01	8.238472e+02
9.800000e-07	2.326723e-06	1.419807e-08	1.662343e+01	9.282802e+02
9.900000e-07	2.472050e-06	1.535336e-08	1.766173e+01	1.011632e+03
1.000000e-06	2.616533e-06	1.625490e-08	1.869400e+01	1.075496e+03
1.010000e-06	2.760136e-06	1.696595e-08	1.971998e+01	1.123061e+03
1.020000e-06	2.902678e-06	1.753864e-08	2.073838e+01	1.158381e+03
1.030000e-06	3.044072e-06	1.801172e-08	2.174858e+01	1.185593e+03
1.040000e-06	3.184141e-06	1.841127e-08	2.274931e+01	1.208243e+03
1.050000e-06	3.322908e-06	1.875535e-08	2.374074e+01	1.228850e+03
1.060000e-06	3.460464e-06	1.905566e-08	2.472352e+01	1.248754e+03
1.070000e-06	3.596775e-06	1.932111e-08	2.569741e+01	1.268245e+03
1.080000e-06	3.731744e-06	1.956068e-08	2.666170e+01	1.286892e+03
1.090000e-06	3.865376e-06	1.978017e-08	2.761644e+01	1.303966e+03
1.100000e-06	3.997594e-06	1.998294e-08	2.856109e+01	1.318833e+03
1.110000e-06	4.128274e-06	2.016926e-08	2.949474e+01	1.331230e+03
1.120000e-06	4.257529e-06	2.034040e-08	3.041821e+01	1.341364e+03
1.130000e-06	4.385362e-06	2.049754e-08	3.133152e+01	1.349840e+03
1.140000e-06	4.511719e-06	2.064350e-08	3.223428e+01	1.357472e+03
1.150000e-06	4.636556e-06	2.078215e-08	3.312619e+01	1.365032e+03
1.160000e-06	4.759658e-06	2.091662e-08	3.400570e+01	1.373047e+03
1.170000e-06	4.881054e-06	2.104434e-08	3.487302e+01	1.381673e+03
1.180000e-06	5.000808e-06	2.116157e-08	3.572861e+01	1.390698e+03
1.190000e-06	5.118705e-06	2.127194e-08	3.657094e+01	1.399653e+03
1.200000e-06	5.234585e-06	2.137605e-08	3.739884e+01	1.407992e+03
1.210000e-06	5.348502e-06	2.147539e-08	3.821274e+01	1.415273e+03
1.220000e-06	5.460457e-06	2.156800e-08	3.901261e+01	1.421306e+03
1.230000e-06	5.570446e-06	2.165605e-08	3.979843e+01	1.426196e+03
1.240000e-06	5.678388e-06	2.174012e-08	4.056963e+01	1.430307e+03
1.250000e-06	5.784230e-06	2.182043e-08	4.132582e+01	1.434134e+03
1.260000e-06	5.887982e-06	2.189663e-08	4.206708e+01	1.438156e+03
1.270000e-06	5.989566e-06	2.197060e-08	4.279286e+01	1.442692e+03
1.280000e-06	6.088932e-06	2.204330e-08	4.350279e+01	1.447814e+03
1.290000e-06	6.185986e-06	2.211340e-08	4.419620e+01	1.453350e+03
1.300000e-06	6.280740e-06	2.218077e-08	4.487317e+01	1.458948e+03
1.310000e-06	6.373219e-06	2.224399e-08	4.553390e+01	1.464199e+03
1.320000e-06	6.463456e-06	2.230332e-08	4.617860e+01	1.468774e+03
1.330000e-06	6.551366e-06	2.235971e-08	4.680668e+01	1.472515e+03
1.340000e-06	6.636961e-06	2.241482e-08	4.741822e+01	1.475486e+03
1.350000e-06	6.720275e-06	2.246834e-08	4.801346e+01	1.477939e+03
1.360000e-06	6.801156e-06	2.252051e-08	4.859132e+01	1.480228e+03
1.370000e-06	6.879536e-06	2.257037e-08	4.915132e+01	1.482695e+03
1.380000e-06	6.955360e-06	2.261629e-08	4.969304e+01	1.485561e+03
1.390000e-06	7.028565e-06	2.266053e-08	5.021606e+01	1.488865e+03
1.400000e-06	7.099255e-06	2.270327e-08	5.072111e+01	1.492455e+03
1.410000e-06	7.167449e-06	2.274312e-08	5.120833e+01	1.496044e+03
1.420000e-06	7.233022e-06	2.278016e-08	5.167682e+01	1.499305e+03
1.430000e-06	7.296036e-06	2.281390e-08	5.212703e+01	1.501974e+03
1.440000e-06	7.356590e-06	2.284405e-08	5.255966e+01	1.503936e+03
1.450000e-06	7.414601e-06	2.287313e-08	5.297412e+01	1.505254e+03
1.460000e-06	7.469930e-06	2.290139e-08	5.336942e+01	1.506148e+03
1.470000e-06	7.522370e-06	2.292917e-08	5.374409e+01	1.506925e+03
1.480000e-06	7.571770e-06	2.295480e-08	5.409703e+01	1.507877e+03
1.490000e-06	7.618334e-06	2.297736e-08	5.442970e+01	1.509198e+03
1.500000e-06	7.662257e-06	2.299781e-08	5.474352e+01	1.510920e+03
1.510000e-06	7.703397e-06	2.301493e-08	5.503745e+01	1.512914e+03
1.520000e-06	7.741766e-06	2.303180e-08	5.531157e+01	1.514930e+03
1.530000e-06	7.777474e-06	2.304930e-08	5.556669e+01	1.516682e+03
1.540000e-06	7.810402e-06	2.306589e-08	5.580195e+01	1.517938e+03
1.550000e-06	7.840553e-06	2.308098e-08	5.601736e+01	1.518592e+03
1.560000e-06	7.867996e-06	2.309380e-08	5.621343e+01	1.518700e+03
1.570000e-06	7.892499e-06	2.310395e-08	5.638850e+01	1.518453e+03
1.580000e-06	7.914083e-06	2.311167e-08	5.654270e+01	1.518123e+03
1.590000e-06	7.932999e-06	2.311872e-08	5.667785e+01	1.517974e+03
1.600000e-06	7.949043e-06	2.312642e-08	5.679248e+01	1.518177e+03
1.610000e-06	7.962011e-06	2.313379e-08	5.688513e+01	1.518764e+03
1.620000e-06	7.971804e-06	2.313937e-08	5.695510e+01	1.519616e+03
1.630000e-06	7.978608e-06	2.314178e-08	5.700371e+01	1.520503e+03
1.640000e-06	7.982684e-06	2.314233e-08	5.703283e+01	1.521161e+03
1.650000e-06	7.983898e-06	2.314507e-08	5.704150e+01	1.521368e+03
1.660000e-06	7.982366e-06	2.314025e-08	5.703056e+01	1.521019e+03
1.670000e-06	7.978261e-06	2.313414e-08	5.700123e+01	1.520154e+03
1.680000e-06	7.971447e-06	2.313200e-08	5.695254e+01	1.518941e+03
1.690000e-06	7.961991e-06	2.312624e-08	5.688498e+01	1.517624e+03
1.700000e-06	7.949798e-06	2.311827e-08	5.679787e+01	1.516441e+03
1.710000e-06	7.934778e-06	2.311496e-08	5.669056e+01	1.515554e+03
1.720000e-06	7.917260e-06	2.311930e-08	5.656540e+01	1.514996e+03
1.730000e-06	7.897528e-06	2.310156e-08	5.642442e+01	1.514667e+03
1.740000e-06	7.875188e-06	2.298323e-08	5.626481e+01	1.514366e+03
1.750000e-06	7.849484e-06	2.299308e-08	5.608117e+01	1.513859e+03
1.760000e-06	7.820051e-06	2.303193e-08	5.587088e+01	1.512960e+03
1.770000e-06	7.787320e-06	2.299034e-08	5.563704e+01	1.511588e+03
1.780000e-06	7.752167e-06	2.298149e-08	5.538588e+01	1.509794e+03
1.790000e-06	7.714739e-06	2.307476e-08	5.511848e+01	1.507745e+03
1.800000e-06	7.675208e-06	2.297079e-08	5.483605e+01	1.505669e+03
1.810000e-06	7.633628e-06	2.286076e-08	5.453897e+01	1.503776e+03
1.820000e-06	7.589406e-06	2.299571e-08	5.422303e+01	1.502188e+03
1.830000e-06	7.542544e-06	2.284035e-08	5.388822e+01	1.500893e+03
1.840000e-06	7.493022e-06	2.292071e-08	5.353441e+01	1.499746e+03
1.850000e-06	7.440482e-06	2.290881e-08	5.315903e+01	1.498507e+03
1.860000e-06	7.385048e-06	2.280381e-08	5.276298e+01	1.496913e+03
1.870000e-06	7.326931e-06	2.288817e-08	5.234776e+01	1.494767e+03
1.880000e-06	7.266257e-06	2.269346e-08	5.191426e+01	1.491992e+03
1.890000e-06	7.202807e-06	2.270708e-08	5.146095e+01	1.488667e+03
1.900000e-06	7.136494e-06	2.266576e-08	5.098717e+01	1.485000e+03
1.910000e-06	7.067485e-06	2.261274e-08	5.049412e+01	1.481268e+03
1.920000e-06	6.995654e-06	2.262662e-08	4.998092e+01	1.477731e+03
1.930000e-06	6.921135e-06	2.251893e-08	4.944852e+01	1.474549e+03
1.940000e-06	6.843973e-06	2.253719e-08	4.889723e+01	1.471734e+03
1.950000e-06	6.764094e-06	2.240181e-08	4.832653e+01	1.469140e+03
1.960000e-06	6.681642e-06	2.236492e-08	4.773744e+01	1.466505e+03
1.970000e-06	6.596741e-06	2.233476e-08	4.713086e+01	1.463535e+03
1.980000e-06	6.509435e-06	2.226697e-08	4.650710e+01	1.459989e+03
1.990000e-06	6.419772e-06	2.224501e-08	4.586650e+01	1.455760e+03
2.000000e-06	6.327891e-06	2.213359e-08	4.521004e+01	1.450903e+03
2.010000e-06	6.233689e-06	2.209477e-08	4.453701e+01	1.445625e+03
2.020000e-06	6.137244e-06	2.200398e-08	4.384796e+01	1.440216e+03
2.030000e-06	6.038751e-06	2.194899e-08	4.314427e+01	1.434959e+03
2.040000e-06	5.938153e-06	2.187288e-08	4.242554e+01	1.430040e+03
2.050000e-06	5.835394e-06	2.180835e-08	4.169137e+01	1.425483e+03
2.060000e-06	5.730519e-06	2.173160e-08	4.094208e+01	1.421140e+03
2.070000e-06	5.623678e-06	2.163296e-08	4.017875e+01	1.416736e+03
2.080000e-06	5.514857e-06	2.155476e-08	3.940127e+01	1.411946e+03
2.090000e-06	5.404056e-06	2.145611e-08	3.860964e+01	1.406503e+03
2.100000e-06	5.291251e-06	2.137478e-08	3.780371e+01	1.400277e+03
2.110000e-06	5.176420e-06	2.127460e-08	3.698328e+01	1.393322e+03
2.120000e-06	5.059616e-06	2.119072e-08	3.614877e+01	1.385856e+03
2.130000e-06	4.940906e-06	2.108300e-08	3.530064e+01	1.378195e+03
2.140000e-06	4.820295e-06	2.098156e-08	3.443893e+01	1.370652e+03
2.150000e-06	4.697928e-06	2.086862e-08	3.356466e+01	1.363429e+03
2.160000e-06	4.573876e-06	2.075974e-08	3.267837e+01	1.356548e+03
2.170000e-06	4.448116e-06	2.064685e-08	3.177987e+01	1.349833e+03
2.180000e-06	4.320737e-06	2.052665e-08	3.086980e+01	1.342956e+03
2.190000e-06	4.191771e-06	2.040185e-08	2.994839e+01	1.335535e+03
2.200000e-06	4.061334e-06	2.026675e-08	2.901648e+01	1.327248e+03
2.210000e-06	3.929360e-06	2.013241e-08	2.807358e+01	1.317938e+03
2.220000e-06	3.795919e-06	1.999291e-08	2.712020e+01	1.307663e+03
2.230000e-06	3.661096e-06	1.985534e-08	2.615695e+01	1.296683e+03
2.240000e-06	3.524829e-06	1.970338e-08	2.518338e+01	1.285374e+03
2.250000e-06	3.387188e-06	1.954469e-08	2.419999e+01	1.274103e+03
2.260000e-06	3.248239e-06	1.937295e-08	2.320726e+01	1.263105e+03
2.270000e-06	3.108063e-06	1.919773e-08	2.220577e+01	1.252385e+03
2.280000e-06	2.966734e-06	1.901599e-08	2.119603e+01	1.241697e+03
2.290000e-06	2.824299e-06	1.882974e-08	2.017840e+01	1.230602e+03
2.300000e-06	2.680752e-06	1.863489e-08	1.915282e+01	1.218586e+03
2.310000e-06	2.536111e-06	1.842774e-08	1.811942e+01	1.205218e+03
2.320000e-06	2.390611e-06	1.820784e-08	1.707988e+01	1.190279e+03
2.330000e-06	2.244370e-06	1.797633e-08	1.603505e+01	1.173836e+03
2.340000e-06	2.097301e-06	1.773509e-08	1.498431e+01	1.156223e+03
2.350000e-06	1.949507e-06	1.748203e-08	1.392839e+01	1.137928e+03
2.360000e-06	1.801109e-06	1.721692e-08	1.286815e+01	1.119419e+03
2.370000e-06	1.652168e-06	1.693499e-08	1.180402e+01	1.100961e+03
2.380000e-06	1.502713e-06	1.663357e-08	1.073624e+01	1.082480e+03
2.390000e-06	1.352837e-06	1.631285e-08	9.665434e+00	1.063518e+03
2.400000e-06	1.202641e-06	1.597211e-08	8.592349e+00	1.043311e+03
2.410000e-06	1.052071e-06	1.561114e-08	7.516595e+00	1.020970e+03
2.420000e-06	9.011303e-07	1.522750e-08	6.438187e+00	9.957133e+02
2.430000e-06	7.498853e-07	1.481391e-08	5.357606e+00	9.670775e+02
2.440000e-06	5.983156e-07	1.436415e-08	4.274706e+00	9.350367e+02
2.450000e-06	4.464915e-07	1.387171e-08	3.189989e+00	8.999682e+02
2.460000e-06	2.944623e-07	1.333107e-08	2.103806e+00	8.624515e+02
2.470000e-06	1.422204e-07	1.273649e-08	1.016104e+00	8.229369e+02
2.480000e-06	-1.014533e-08	1.208281e-08	-7.248398e-02	7.813602e+02
2.490000e-06	-1.625640e-07	1.135941e-08	-1.161450e+00	7.368142e+02
2.500000e-06	-3.149247e-07	1.055073e-08	-2.250001e+00	6.873872e+02
2.510000e-06	-4.671491e-07	9.636594e-09	-3.337578e+00	6.302472e+02
2.520000e-06	-6.192339e-07	8.589110e-09	-4.424159e+00	5.620009e+02
2.530000e-06	-7.710484e-07	7.370729e-09	-5.508808e+00	4.792852e+02
2.540000e-06	-9.224955e-07	5.933094e-09	-6.590832e+00	3.794865e+02
2.550000e-06	-1.073610e-06	4.218647e-09	-7.670476e+00	2.614417e+02
2.560000e-06	-1.224359e-06	2.170987e-09	-8.747519e+00	1.259583e+02
2.570000e-06	-1.374728e-06	-1.746765e-10	-9.821834e+00	-2.397430e+01
2.580000e-06	-1.524643e-06	-2.661882e-09	-1.089291e+01	-1.833579e+02
2.590000e-06	-1.674026e-06	-5.175465e-09	-1.196019e+01	-3.457332e+02
2.600000e-06	-1.822863e-06	-7.681634e-09	-1.302357e+01	-5.040131e+02
2.610000e-06	-1.971076e-06	-1.006287e-08	-1.408249e+01	-6.514494e+02
2.620000e-06	-2.118493e-06	-1.211678e-08	-1.513571e+01	-7.825471e+02
2.630000e-06	-2.265006e-06	-1.375702e-08	-1.618249e+01	-8.937546e+02
2.640000e-06	-2.410735e-06	-1.503545e-08	-1.722366e+01	-9.838032e+02
2.650000e-06	-2.555692e-06	-1.603229e-08	-1.825931e+01	-1.053646e+03
2.660000e-06	-2.699558e-06	-1.681860e-08	-1.928717e+01	-1.106034e+03
2.670000e-06	-2.842200e-06	-1.744860e-08	-2.030629e+01	-1.144828e+03
2.680000e-06	-2.983692e-06	-1.796146e-08	-2.131719e+01	-1.174220e+03
2.690000e-06	-3.124095e-06	-1.838623e-08	-2.232031e+01	-1.198006e+03
2.700000e-06	-3.263291e-06	-1.874734e-08	-2.331481e+01	-1.219068e+03
2.710000e-06	-3.401254e-06	-1.906113e-08	-2.430049e+01	-1.239121e+03
2.720000e-06	-3.537960e-06	-1.933947e-08	-2.527720e+01	-1.258765e+03
2.730000e-06	-3.673203e-06	-1.958918e-08	-2.624345e+01	-1.277757e+03
2.740000e-06	-3.807090e-06	-1.981666e-08	-2.720002e+01	-1.295417e+03
2.750000e-06	-3.939758e-06	-2.002603e-08	-2.814787e+01	-1.311044e+03
2.760000e-06	-4.071021e-06	-2.021641e-08	-2.908569e+01	-1.324235e+03
2.770000e-06	-4.200835e-06	-2.038968e-08	-3.001315e+01	-1.335047e+03
2.780000e-06	-4.329186e-06	-2.055093e-08	-3.093016e+01	-1.343973e+03
2.790000e-06	-4.455936e-06	-2.070331e-08	-3.183574e+01	-1.351785e+03
2.800000e-06	-4.581274e-06	-2.084674e-08	-3.273122e+01	-1.359296e+03
2.810000e-06	-4.705050e-06	-2.098049e-08	-3.361555e+01	-1.367129e+03
2.820000e-06	-4.826988e-06	-2.110445e-08	-3.448674e+01	-1.375565e+03
2.830000e-06	-4.947177e-06	-2.122193e-08	-3.534545e+01	-1.384504e+03
2.840000e-06	-5.065551e-06	-2.133401e-08	-3.619117e+01	-1.393541e+03
2.850000e-06	-5.182034e-06	-2.143990e-08	-3.702339e+01	-1.402135e+03
2.860000e-06	-5.296422e-06	-2.154014e-08	-3.784065e+01	-1.409791e+03
2.870000e-06	-5.408606e-06	-2.163405e-08	-3.864215e+01	-1.416228e+03
2.880000e-06	-5.518785e-06	-2.172200e-08	-3.942934e+01	-1.421457e+03
2.890000e-06	-5.626999e-06	-2.180465e-08	-4.020248e+01	-1.425767e+03
2.900000e-06	-5.733260e-06	-2.188448e-08	-4.096166e+01	-1.429629e+03
2.910000e-06	-5.837421e-06	-2.196407e-08	-4.170585e+01	-1.433544e+03
2.920000e-06	-5.939352e-06	-2.204003e-08	-4.243410e+01	-1.437894e+03
2.930000e-06	-6.039109e-06	-2.211088e-08	-4.314683e+01	-1.442836e+03
2.940000e-06	-6.136749e-06	-2.217844e-08	-4.384442e+01	-1.448271e+03
