# Temperatura_=_80.76
# Concentracion g/m^3_=_41000.0
# C_Vs_to_Am_M_A/Vsm_=_65563218390.804596
# pendiente_HvsI_1/m_=_3716.3
# ordenada_HvsI_A/m_=_1297.0
# frecuencia_Hz_=_302498.252007179

Tiempo_(s)	Campo_(V.s)	Magnetizacion_(V.s)	Campo_(kA/m)	Magnetizacion_(A/m)
0.000000e+00	-8.002753e-06	-2.360783e-08	-5.685241e+01	-1.545924e+03
1.000000e-08	-7.998025e-06	-2.359901e-08	-5.681882e+01	-1.544926e+03
2.000000e-08	-7.990742e-06	-2.358794e-08	-5.676708e+01	-1.543650e+03
3.000000e-08	-7.980795e-06	-2.357672e-08	-5.669642e+01	-1.542337e+03
4.000000e-08	-7.967925e-06	-2.356411e-08	-5.660499e+01	-1.541202e+03
5.000000e-08	-7.952108e-06	-2.354962e-08	-5.649262e+01	-1.540364e+03
6.000000e-08	-7.933686e-06	-2.353338e-08	-5.636175e+01	-1.539812e+03
7.000000e-08	-7.912947e-06	-2.352261e-08	-5.621442e+01	-1.539407e+03
8.000000e-08	-7.889589e-06	-2.352964e-08	-5.604848e+01	-1.538933e+03
9.000000e-08	-7.863052e-06	-2.350856e-08	-5.585996e+01	-1.538171e+03
1.000000e-07	-7.833353e-06	-2.347909e-08	-5.564898e+01	-1.536967e+03
1.100000e-07	-7.800737e-06	-2.345145e-08	-5.541726e+01	-1.535289e+03
1.200000e-07	-7.765381e-06	-2.341849e-08	-5.516610e+01	-1.533237e+03
1.300000e-07	-7.727593e-06	-2.337673e-08	-5.489764e+01	-1.531011e+03
1.400000e-07	-7.687545e-06	-2.331996e-08	-5.461314e+01	-1.528850e+03
1.500000e-07	-7.645206e-06	-2.331185e-08	-5.431236e+01	-1.526947e+03
1.600000e-07	-7.600324e-06	-2.327859e-08	-5.399351e+01	-1.525388e+03
1.700000e-07	-7.552694e-06	-2.326299e-08	-5.365514e+01	-1.524115e+03
1.800000e-07	-7.502119e-06	-2.324380e-08	-5.329585e+01	-1.522938e+03
1.900000e-07	-7.448544e-06	-2.319617e-08	-5.291525e+01	-1.521592e+03
2.000000e-07	-7.392173e-06	-2.315731e-08	-5.251479e+01	-1.519811e+03
2.100000e-07	-7.333165e-06	-2.308990e-08	-5.209559e+01	-1.517414e+03
2.200000e-07	-7.271548e-06	-2.304539e-08	-5.165786e+01	-1.514358e+03
2.300000e-07	-7.207205e-06	-2.300193e-08	-5.120076e+01	-1.510755e+03
2.400000e-07	-7.140108e-06	-2.296066e-08	-5.072409e+01	-1.506839e+03
2.500000e-07	-7.070338e-06	-2.292287e-08	-5.022844e+01	-1.502892e+03
2.600000e-07	-6.997818e-06	-2.287220e-08	-4.971324e+01	-1.499158e+03
2.700000e-07	-6.922534e-06	-2.282229e-08	-4.917842e+01	-1.495768e+03
2.800000e-07	-6.844478e-06	-2.275184e-08	-4.862390e+01	-1.492696e+03
2.900000e-07	-6.763645e-06	-2.268965e-08	-4.804965e+01	-1.489766e+03
3.000000e-07	-6.680341e-06	-2.263857e-08	-4.745786e+01	-1.486706e+03
3.100000e-07	-6.594752e-06	-2.257782e-08	-4.684982e+01	-1.483230e+03
3.200000e-07	-6.506789e-06	-2.251921e-08	-4.622492e+01	-1.479134e+03
3.300000e-07	-6.416470e-06	-2.244347e-08	-4.558329e+01	-1.474353e+03
3.400000e-07	-6.323873e-06	-2.237044e-08	-4.492547e+01	-1.468987e+03
3.500000e-07	-6.229017e-06	-2.228913e-08	-4.425160e+01	-1.463272e+03
3.600000e-07	-6.131878e-06	-2.221241e-08	-4.356152e+01	-1.457502e+03
3.700000e-07	-6.032460e-06	-2.213682e-08	-4.285524e+01	-1.451941e+03
3.800000e-07	-5.930889e-06	-2.205999e-08	-4.213366e+01	-1.446732e+03
3.900000e-07	-5.827159e-06	-2.198220e-08	-4.139676e+01	-1.441850e+03
4.000000e-07	-5.721377e-06	-2.189022e-08	-4.064527e+01	-1.437107e+03
4.100000e-07	-5.613663e-06	-2.180047e-08	-3.988006e+01	-1.432204e+03
4.200000e-07	-5.503977e-06	-2.170251e-08	-3.910084e+01	-1.426825e+03
4.300000e-07	-5.392184e-06	-2.160820e-08	-3.830665e+01	-1.420733e+03
4.400000e-07	-5.278291e-06	-2.150942e-08	-3.749754e+01	-1.413847e+03
4.500000e-07	-5.162442e-06	-2.140816e-08	-3.667454e+01	-1.406270e+03
4.600000e-07	-5.044724e-06	-2.129820e-08	-3.583826e+01	-1.398255e+03
4.700000e-07	-4.925130e-06	-2.118181e-08	-3.498865e+01	-1.390129e+03
4.800000e-07	-4.803712e-06	-2.106795e-08	-3.412608e+01	-1.382185e+03
4.900000e-07	-4.680603e-06	-2.095420e-08	-3.325151e+01	-1.374582e+03
5.000000e-07	-4.555744e-06	-2.083841e-08	-3.236449e+01	-1.367291e+03
5.100000e-07	-4.429211e-06	-2.070938e-08	-3.146558e+01	-1.360090e+03
5.200000e-07	-4.301052e-06	-2.057358e-08	-3.055513e+01	-1.352628e+03
5.300000e-07	-4.171352e-06	-2.042941e-08	-2.963373e+01	-1.344527e+03
5.400000e-07	-4.040141e-06	-2.028389e-08	-2.870159e+01	-1.335504e+03
5.500000e-07	-3.907389e-06	-2.013896e-08	-2.775851e+01	-1.325455e+03
5.600000e-07	-3.773180e-06	-1.999285e-08	-2.680507e+01	-1.314492e+03
5.700000e-07	-3.637446e-06	-1.983775e-08	-2.584080e+01	-1.302912e+03
5.800000e-07	-3.500288e-06	-1.966874e-08	-2.486642e+01	-1.291095e+03
5.900000e-07	-3.361874e-06	-1.949298e-08	-2.388311e+01	-1.279385e+03
6.000000e-07	-3.222085e-06	-1.931156e-08	-2.289003e+01	-1.267958e+03
6.100000e-07	-3.080760e-06	-1.912511e-08	-2.188605e+01	-1.256755e+03
6.200000e-07	-2.938148e-06	-1.892999e-08	-2.087291e+01	-1.245476e+03
6.300000e-07	-2.794486e-06	-1.872890e-08	-1.985233e+01	-1.233658e+03
6.400000e-07	-2.649787e-06	-1.851750e-08	-1.882437e+01	-1.220804e+03
6.500000e-07	-2.504164e-06	-1.829328e-08	-1.778985e+01	-1.206537e+03
6.600000e-07	-2.357715e-06	-1.805973e-08	-1.674946e+01	-1.190714e+03
6.700000e-07	-2.210456e-06	-1.781861e-08	-1.570332e+01	-1.173479e+03
6.800000e-07	-2.062440e-06	-1.756768e-08	-1.465179e+01	-1.155212e+03
6.900000e-07	-1.913751e-06	-1.730150e-08	-1.359549e+01	-1.136403e+03
7.000000e-07	-1.764480e-06	-1.702079e-08	-1.253505e+01	-1.117470e+03
7.100000e-07	-1.614724e-06	-1.672171e-08	-1.147117e+01	-1.098586e+03
7.200000e-07	-1.464461e-06	-1.640312e-08	-1.040369e+01	-1.079568e+03
7.300000e-07	-1.313689e-06	-1.606432e-08	-9.332583e+00	-1.059865e+03
7.400000e-07	-1.162379e-06	-1.570802e-08	-8.257664e+00	-1.038674e+03
7.500000e-07	-1.010549e-06	-1.533329e-08	-7.179045e+00	-1.015128e+03
7.600000e-07	-8.583095e-07	-1.493237e-08	-6.097522e+00	-9.885310e+02
7.700000e-07	-7.057424e-07	-1.449970e-08	-5.013669e+00	-9.585483e+02
7.800000e-07	-5.529742e-07	-1.402807e-08	-3.928387e+00	-9.252768e+02
7.900000e-07	-4.000473e-07	-1.351466e-08	-2.841978e+00	-8.891641e+02
8.000000e-07	-2.470199e-07	-1.295421e-08	-1.754856e+00	-8.507643e+02
8.100000e-07	-9.390304e-08	-1.233914e-08	-6.670972e-01	-8.103842e+02
8.200000e-07	5.931063e-08	-1.165809e-08	4.213490e-01	-7.677081e+02
8.300000e-07	2.125343e-07	-1.089791e-08	1.509867e+00	-7.215120e+02
8.400000e-07	3.657027e-07	-1.004296e-08	2.597991e+00	-6.695719e+02
8.500000e-07	5.187739e-07	-9.072038e-09	3.685425e+00	-6.088315e+02
8.600000e-07	6.717262e-07	-7.957684e-09	4.772015e+00	-5.358374e+02
8.700000e-07	8.244931e-07	-6.655726e-09	5.857287e+00	-4.473802e+02
8.800000e-07	9.770662e-07	-5.110483e-09	6.941182e+00	-3.412236e+02
8.900000e-07	1.129289e-06	-3.256135e-09	8.022587e+00	-2.167644e+02
9.000000e-07	1.281017e-06	-1.076585e-09	9.100480e+00	-7.547225e+01
9.100000e-07	1.432263e-06	1.312005e-09	1.017495e+01	7.901083e+01
9.200000e-07	1.582940e-06	3.761179e-09	1.124538e+01	2.411586e+02
9.300000e-07	1.733073e-06	6.214179e-09	1.231194e+01	4.042057e+02
9.400000e-07	1.882725e-06	8.640540e-09	1.337508e+01	5.610382e+02
9.500000e-07	2.031747e-06	1.090484e-08	1.443375e+01	7.051650e+02
9.600000e-07	2.179904e-06	1.281899e-08	1.548627e+01	8.315835e+02
9.700000e-07	2.327052e-06	1.432867e-08	1.653163e+01	9.373788e+02
9.800000e-07	2.473373e-06	1.549937e-08	1.757110e+01	1.021948e+03
9.900000e-07	2.618844e-06	1.641274e-08	1.860455e+01	1.086829e+03
1.000000e-06	2.763257e-06	1.713415e-08	1.963047e+01	1.135184e+03
1.010000e-06	2.906638e-06	1.771502e-08	2.064906e+01	1.171071e+03
1.020000e-06	3.048983e-06	1.819346e-08	2.166030e+01	1.198658e+03
1.030000e-06	3.190163e-06	1.859662e-08	2.266326e+01	1.221547e+03
1.040000e-06	3.329971e-06	1.894508e-08	2.365647e+01	1.242321e+03
1.050000e-06	3.468445e-06	1.925062e-08	2.464020e+01	1.262381e+03
1.060000e-06	3.605633e-06	1.952121e-08	2.561480e+01	1.282067e+03
1.070000e-06	3.741419e-06	1.976472e-08	2.657944e+01	1.300974e+03
1.080000e-06	3.875803e-06	1.998649e-08	2.753412e+01	1.318381e+03
1.090000e-06	4.008862e-06	2.019284e-08	2.847938e+01	1.333642e+03
1.100000e-06	4.140499e-06	2.038683e-08	2.941455e+01	1.346469e+03
1.110000e-06	4.270626e-06	2.056544e-08	3.033898e+01	1.357041e+03
1.120000e-06	4.399226e-06	2.073048e-08	3.125257e+01	1.365944e+03
1.130000e-06	4.526259e-06	2.088353e-08	3.215503e+01	1.373978e+03
1.140000e-06	4.651813e-06	2.102804e-08	3.304698e+01	1.381920e+03
1.150000e-06	4.775782e-06	2.116656e-08	3.392766e+01	1.390307e+03
1.160000e-06	4.898048e-06	2.129980e-08	3.479626e+01	1.399312e+03
1.170000e-06	5.018578e-06	2.142573e-08	3.565252e+01	1.408740e+03
1.180000e-06	5.137299e-06	2.154522e-08	3.649592e+01	1.418132e+03
1.190000e-06	5.254059e-06	2.165811e-08	3.732540e+01	1.426940e+03
1.200000e-06	5.368770e-06	2.176435e-08	3.814031e+01	1.434712e+03
1.210000e-06	5.481434e-06	2.186384e-08	3.894069e+01	1.441236e+03
1.220000e-06	5.592077e-06	2.195825e-08	3.972671e+01	1.446596e+03
1.230000e-06	5.700801e-06	2.204860e-08	4.049910e+01	1.451134e+03
1.240000e-06	5.807546e-06	2.213351e-08	4.125742e+01	1.455335e+03
1.250000e-06	5.912149e-06	2.221443e-08	4.200053e+01	1.459674e+03
1.260000e-06	6.014515e-06	2.229191e-08	4.272776e+01	1.464478e+03
1.270000e-06	6.114649e-06	2.236772e-08	4.343912e+01	1.469837e+03
1.280000e-06	6.212457e-06	2.244217e-08	4.413396e+01	1.475597e+03
1.290000e-06	6.307949e-06	2.251423e-08	4.481234e+01	1.481426e+03
1.300000e-06	6.401227e-06	2.258180e-08	4.547500e+01	1.486931e+03
1.310000e-06	6.492266e-06	2.264576e-08	4.612175e+01	1.491784e+03
1.320000e-06	6.580951e-06	2.270780e-08	4.675178e+01	1.495829e+03
1.330000e-06	6.667269e-06	2.276862e-08	4.736499e+01	1.499121e+03
1.340000e-06	6.751248e-06	2.282762e-08	4.796159e+01	1.501898e+03
1.350000e-06	6.832765e-06	2.288438e-08	4.854069e+01	1.504506e+03
1.360000e-06	6.911763e-06	2.293836e-08	4.910190e+01	1.507276e+03
1.370000e-06	6.988211e-06	2.298942e-08	4.964499e+01	1.510431e+03
1.380000e-06	7.062045e-06	2.303767e-08	5.016952e+01	1.514011e+03
1.390000e-06	7.133332e-06	2.308409e-08	5.067595e+01	1.517872e+03
1.400000e-06	7.202108e-06	2.312935e-08	5.116455e+01	1.521733e+03
1.410000e-06	7.268274e-06	2.317123e-08	5.163459e+01	1.525274e+03
1.420000e-06	7.331865e-06	2.321008e-08	5.208635e+01	1.528233e+03
1.430000e-06	7.392990e-06	2.324537e-08	5.252059e+01	1.530490e+03
1.440000e-06	7.451559e-06	2.327863e-08	5.293667e+01	1.532103e+03
1.450000e-06	7.507457e-06	2.331251e-08	5.333378e+01	1.533283e+03
1.460000e-06	7.560527e-06	2.334535e-08	5.371079e+01	1.534327e+03
1.470000e-06	7.610512e-06	2.337567e-08	5.406589e+01	1.535522e+03
1.480000e-06	7.657520e-06	2.340354e-08	5.439984e+01	1.537059e+03
1.490000e-06	7.701881e-06	2.342753e-08	5.471498e+01	1.538975e+03
1.500000e-06	7.743570e-06	2.344831e-08	5.501115e+01	1.541144e+03
1.510000e-06	7.782476e-06	2.346711e-08	5.528754e+01	1.543325e+03
1.520000e-06	7.818664e-06	2.348480e-08	5.554462e+01	1.545236e+03
1.530000e-06	7.852084e-06	2.350206e-08	5.578204e+01	1.546650e+03
1.540000e-06	7.882670e-06	2.351827e-08	5.599933e+01	1.547460e+03
1.550000e-06	7.910427e-06	2.353424e-08	5.619652e+01	1.547715e+03
1.560000e-06	7.935334e-06	2.354916e-08	5.637346e+01	1.547600e+03
1.570000e-06	7.957367e-06	2.355923e-08	5.652999e+01	1.547379e+03
1.580000e-06	7.976571e-06	2.356577e-08	5.666641e+01	1.547308e+03
1.590000e-06	7.992854e-06	2.357200e-08	5.678208e+01	1.547556e+03
1.600000e-06	8.006118e-06	2.357844e-08	5.687631e+01	1.548157e+03
1.610000e-06	8.016343e-06	2.358452e-08	5.694896e+01	1.548996e+03
1.620000e-06	8.023564e-06	2.358872e-08	5.700026e+01	1.549855e+03
1.630000e-06	8.027898e-06	2.359186e-08	5.703104e+01	1.550477e+03
1.640000e-06	8.029370e-06	2.359429e-08	5.704150e+01	1.550652e+03
1.650000e-06	8.028099e-06	2.359037e-08	5.703247e+01	1.550279e+03
1.660000e-06	8.024183e-06	2.358540e-08	5.700465e+01	1.549398e+03
1.670000e-06	8.017570e-06	2.357727e-08	5.695767e+01	1.548176e+03
1.680000e-06	8.008267e-06	2.356804e-08	5.689158e+01	1.546847e+03
1.690000e-06	7.996153e-06	2.355907e-08	5.680552e+01	1.545642e+03
1.700000e-06	7.981187e-06	2.355081e-08	5.669921e+01	1.544713e+03
1.710000e-06	7.963771e-06	2.354135e-08	5.657548e+01	1.544087e+03
1.720000e-06	7.944118e-06	2.350792e-08	5.643586e+01	1.543657e+03
1.730000e-06	7.921825e-06	2.346969e-08	5.627749e+01	1.543225e+03
1.740000e-06	7.896246e-06	2.345699e-08	5.609577e+01	1.542564e+03
1.750000e-06	7.866971e-06	2.344218e-08	5.588780e+01	1.541493e+03
1.760000e-06	7.834407e-06	2.342115e-08	5.565646e+01	1.539945e+03
1.770000e-06	7.799319e-06	2.341017e-08	5.540719e+01	1.537981e+03
1.780000e-06	7.761942e-06	2.341670e-08	5.514166e+01	1.535779e+03
1.790000e-06	7.722487e-06	2.338268e-08	5.486137e+01	1.533575e+03
1.800000e-06	7.680971e-06	2.340476e-08	5.456643e+01	1.531582e+03
1.810000e-06	7.636837e-06	2.339048e-08	5.425290e+01	1.529922e+03
1.820000e-06	7.589983e-06	2.332996e-08	5.392005e+01	1.528579e+03
1.830000e-06	7.540422e-06	2.332415e-08	5.356796e+01	1.527399e+03
1.840000e-06	7.487809e-06	2.326530e-08	5.319419e+01	1.526128e+03
1.850000e-06	7.432282e-06	2.327704e-08	5.279972e+01	1.524493e+03
1.860000e-06	7.374043e-06	2.324429e-08	5.238599e+01	1.522281e+03
1.870000e-06	7.313115e-06	2.319286e-08	5.195315e+01	1.519407e+03
1.880000e-06	7.249487e-06	2.316695e-08	5.150113e+01	1.515939e+03
1.890000e-06	7.183094e-06	2.308596e-08	5.102947e+01	1.512083e+03
1.900000e-06	7.113919e-06	2.305018e-08	5.053804e+01	1.508114e+03
1.910000e-06	7.041961e-06	2.298033e-08	5.002684e+01	1.504298e+03
1.920000e-06	6.967314e-06	2.295574e-08	4.949654e+01	1.500804e+03
1.930000e-06	6.889924e-06	2.292201e-08	4.894675e+01	1.497652e+03
1.940000e-06	6.809832e-06	2.285012e-08	4.837777e+01	1.494705e+03
1.950000e-06	6.727235e-06	2.279447e-08	4.779100e+01	1.491710e+03
1.960000e-06	6.642073e-06	2.270038e-08	4.718600e+01	1.488377e+03
1.970000e-06	6.554414e-06	2.264934e-08	4.656326e+01	1.484470e+03
1.980000e-06	6.464467e-06	2.257756e-08	4.592426e+01	1.479880e+03
1.990000e-06	6.372257e-06	2.253112e-08	4.526919e+01	1.474660e+03
2.000000e-06	6.277742e-06	2.246518e-08	4.459775e+01	1.469014e+03
2.010000e-06	6.180999e-06	2.238137e-08	4.391048e+01	1.463228e+03
2.020000e-06	6.082107e-06	2.229581e-08	4.320794e+01	1.457585e+03
2.030000e-06	5.981021e-06	2.220097e-08	4.248981e+01	1.452268e+03
2.040000e-06	5.877765e-06	2.213520e-08	4.175627e+01	1.447303e+03
2.050000e-06	5.772498e-06	2.205063e-08	4.100844e+01	1.442546e+03
2.060000e-06	5.665263e-06	2.197724e-08	4.024663e+01	1.437721e+03
2.070000e-06	5.555985e-06	2.187982e-08	3.947031e+01	1.432505e+03
2.080000e-06	5.444708e-06	2.178422e-08	3.867979e+01	1.426631e+03
2.090000e-06	5.331426e-06	2.167557e-08	3.787502e+01	1.419968e+03
2.100000e-06	5.216084e-06	2.157327e-08	3.705562e+01	1.412566e+03
2.110000e-06	5.098686e-06	2.147494e-08	3.622161e+01	1.404643e+03
2.120000e-06	4.979338e-06	2.137294e-08	3.537375e+01	1.396513e+03
2.130000e-06	4.858235e-06	2.126557e-08	3.451342e+01	1.388492e+03
2.140000e-06	4.735411e-06	2.114512e-08	3.364086e+01	1.380784e+03
2.150000e-06	4.610786e-06	2.102691e-08	3.275552e+01	1.373417e+03
2.160000e-06	4.484406e-06	2.089977e-08	3.185770e+01	1.366221e+03
2.170000e-06	4.356389e-06	2.077614e-08	3.094825e+01	1.358871e+03
2.180000e-06	4.226898e-06	2.064418e-08	3.002833e+01	1.350986e+03
2.190000e-06	4.095921e-06	2.051108e-08	2.909786e+01	1.342245e+03
2.200000e-06	3.963363e-06	2.036265e-08	2.815615e+01	1.332485e+03
2.210000e-06	3.829296e-06	2.021065e-08	2.720373e+01	1.321758e+03
2.220000e-06	3.693796e-06	2.005575e-08	2.624112e+01	1.310314e+03
2.230000e-06	3.556924e-06	1.989963e-08	2.526877e+01	1.298525e+03
2.240000e-06	3.418670e-06	1.973768e-08	2.428659e+01	1.286755e+03
2.250000e-06	3.279014e-06	1.956523e-08	2.329446e+01	1.275240e+03
2.260000e-06	3.138118e-06	1.938242e-08	2.229353e+01	1.263992e+03
2.270000e-06	2.996062e-06	1.918875e-08	2.128434e+01	1.252776e+03
2.280000e-06	2.852804e-06	1.898889e-08	2.026662e+01	1.241162e+03
2.290000e-06	2.708429e-06	1.878315e-08	1.924097e+01	1.228649e+03
2.300000e-06	2.563178e-06	1.857179e-08	1.820909e+01	1.214810e+03
2.310000e-06	2.417179e-06	1.834950e-08	1.717190e+01	1.199428e+03
2.320000e-06	2.270257e-06	1.811573e-08	1.612815e+01	1.182564e+03
2.330000e-06	2.122383e-06	1.786755e-08	1.507764e+01	1.164543e+03
2.340000e-06	1.973810e-06	1.760466e-08	1.402216e+01	1.145838e+03
2.350000e-06	1.824721e-06	1.732884e-08	1.296301e+01	1.126907e+03
2.360000e-06	1.675080e-06	1.704019e-08	1.189994e+01	1.108009e+03
2.370000e-06	1.524926e-06	1.673563e-08	1.083324e+01	1.089069e+03
2.380000e-06	1.374292e-06	1.641293e-08	9.763119e+00	1.069634e+03
2.390000e-06	1.223191e-06	1.606772e-08	8.689677e+00	1.048957e+03
2.400000e-06	1.071669e-06	1.569784e-08	7.613248e+00	1.026164e+03
2.410000e-06	9.197100e-07	1.530228e-08	6.533718e+00	1.000490e+03
2.420000e-06	7.673660e-07	1.488007e-08	5.451450e+00	9.714815e+02
2.430000e-06	6.147429e-07	1.442652e-08	4.367199e+00	9.391144e+02
2.440000e-06	4.619620e-07	1.393344e-08	3.281827e+00	9.037539e+02
2.450000e-06	3.090478e-07	1.339058e-08	2.195508e+00	8.659564e+02
2.460000e-06	1.559546e-07	1.279157e-08	1.107918e+00	8.261389e+02
2.470000e-06	2.740460e-09	1.213049e-08	1.946852e-02	7.841985e+02
2.480000e-06	-1.504982e-07	1.139796e-08	-1.069155e+00	7.391904e+02
2.490000e-06	-3.037279e-07	1.058016e-08	-2.157715e+00	6.891712e+02
2.500000e-06	-4.569013e-07	9.657237e-09	-3.245876e+00	6.312891e+02
2.510000e-06	-6.099650e-07	8.600001e-09	-4.333256e+00	5.621460e+02
2.520000e-06	-7.628499e-07	7.369583e-09	-5.419367e+00	4.783895e+02
2.530000e-06	-9.154225e-07	5.917255e-09	-6.503259e+00	3.774318e+02
2.540000e-06	-1.067629e-06	4.180223e-09	-7.584547e+00	2.581460e+02
2.550000e-06	-1.219391e-06	2.105046e-09	-8.662681e+00	1.213829e+02
2.560000e-06	-1.370618e-06	-2.552692e-10	-9.737017e+00	-2.982391e+01
2.570000e-06	-1.521270e-06	-2.743731e-09	-1.080726e+01	-1.904348e+02
2.580000e-06	-1.671360e-06	-5.257609e-09	-1.187352e+01	-3.539555e+02
2.590000e-06	-1.820951e-06	-7.765233e-09	-1.293623e+01	-5.132728e+02
2.600000e-06	-1.969978e-06	-1.016037e-08	-1.399493e+01	-6.616211e+02
2.610000e-06	-2.118224e-06	-1.224317e-08	-1.504809e+01	-7.934972e+02
2.620000e-06	-2.265564e-06	-1.390879e-08	-1.609481e+01	-9.053493e+02
2.630000e-06	-2.412043e-06	-1.520093e-08	-1.713541e+01	-9.959147e+02
2.640000e-06	-2.557744e-06	-1.620568e-08	-1.817048e+01	-1.066159e+03
2.650000e-06	-2.702570e-06	-1.699993e-08	-1.919934e+01	-1.118847e+03
2.660000e-06	-2.846272e-06	-1.763636e-08	-2.022022e+01	-1.157863e+03
2.670000e-06	-2.988762e-06	-1.815459e-08	-2.123248e+01	-1.187420e+03
2.680000e-06	-3.130077e-06	-1.858524e-08	-2.223640e+01	-1.211340e+03
2.690000e-06	-3.270169e-06	-1.895079e-08	-2.323163e+01	-1.232525e+03
2.700000e-06	-3.408936e-06	-1.926769e-08	-2.421745e+01	-1.252714e+03
2.710000e-06	-3.546496e-06	-1.954907e-08	-2.519468e+01	-1.272525e+03
2.720000e-06	-3.682771e-06	-1.980299e-08	-2.616279e+01	-1.291724e+03
2.730000e-06	-3.817556e-06	-2.003475e-08	-2.712033e+01	-1.309638e+03
2.740000e-06	-3.950994e-06	-2.024775e-08	-2.806828e+01	-1.325562e+03
2.750000e-06	-4.083079e-06	-2.044193e-08	-2.900663e+01	-1.339088e+03
2.760000e-06	-4.213714e-06	-2.061961e-08	-2.993467e+01	-1.350261e+03
2.770000e-06	-4.342947e-06	-2.078654e-08	-3.085276e+01	-1.359566e+03
2.780000e-06	-4.470654e-06	-2.094518e-08	-3.176000e+01	-1.367765e+03
2.790000e-06	-4.596806e-06	-2.109555e-08	-3.265620e+01	-1.375667e+03
2.800000e-06	-4.721427e-06	-2.123722e-08	-3.354152e+01	-1.383893e+03
2.810000e-06	-4.844334e-06	-2.136782e-08	-3.441467e+01	-1.392729e+03
2.820000e-06	-4.965495e-06	-2.148830e-08	-3.527541e+01	-1.402076e+03
2.830000e-06	-5.084821e-06	-2.160306e-08	-3.612311e+01	-1.411536e+03
2.840000e-06	-5.202150e-06	-2.171395e-08	-3.695663e+01	-1.420565e+03
2.850000e-06	-5.317417e-06	-2.182183e-08	-3.777550e+01	-1.428669e+03
2.860000e-06	-5.430534e-06	-2.192530e-08	-3.857909e+01	-1.435555e+03
2.870000e-06	-5.541499e-06	-2.202180e-08	-3.936740e+01	-1.441225e+03
2.880000e-06	-5.650408e-06	-2.211143e-08	-4.014110e+01	-1.445954e+03
2.890000e-06	-5.757385e-06	-2.219625e-08	-4.090108e+01	-1.450201e+03
2.900000e-06	-5.862329e-06	-2.227802e-08	-4.164661e+01	-1.454460e+03
2.910000e-06	-5.965057e-06	-2.235581e-08	-4.237640e+01	-1.459113e+03
2.920000e-06	-6.065544e-06	-2.243114e-08	-4.309027e+01	-1.464320e+03
2.930000e-06	-6.163855e-06	-2.250487e-08	-4.378868e+01	-1.469996e+03
2.940000e-06	-6.260015e-06	-2.257672e-08	-4.447181e+01	-1.475847e+03
