# Temperatura_=_62.38
# Concentracion g/m^3_=_28200.0
# C_Vs_to_Am_M_A/Vsm_=_65563218390.804596
# pendiente_HvsI_1/m_=_3716.3
# ordenada_HvsI_A/m_=_1297.0
# frecuencia_Hz_=_302371.71455070307

Tiempo_(s)	Campo_(V.s)	Magnetizacion_(V.s)	Campo_(kA/m)	Magnetizacion_(A/m)
0.000000e+00	-7.335428e-06	-2.461660e-08	-5.318817e+01	-1.611206e+03
1.000000e-08	-7.331074e-06	-2.460965e-08	-5.315660e+01	-1.610665e+03
2.000000e-08	-7.324363e-06	-2.459864e-08	-5.310793e+01	-1.609979e+03
3.000000e-08	-7.315147e-06	-2.458670e-08	-5.304111e+01	-1.609168e+03
4.000000e-08	-7.303316e-06	-2.457151e-08	-5.295533e+01	-1.608242e+03
5.000000e-08	-7.288759e-06	-2.455283e-08	-5.284978e+01	-1.607202e+03
6.000000e-08	-7.271560e-06	-2.453312e-08	-5.272507e+01	-1.606039e+03
7.000000e-08	-7.252233e-06	-2.451520e-08	-5.258493e+01	-1.604738e+03
8.000000e-08	-7.230784e-06	-2.452644e-08	-5.242941e+01	-1.603286e+03
9.000000e-08	-7.206585e-06	-2.452873e-08	-5.225394e+01	-1.601682e+03
1.000000e-07	-7.179336e-06	-2.446182e-08	-5.205636e+01	-1.599937e+03
1.100000e-07	-7.149416e-06	-2.440255e-08	-5.183942e+01	-1.598077e+03
1.200000e-07	-7.117028e-06	-2.437474e-08	-5.160458e+01	-1.596134e+03
1.300000e-07	-7.082142e-06	-2.432975e-08	-5.135162e+01	-1.594137e+03
1.400000e-07	-7.045179e-06	-2.426963e-08	-5.108361e+01	-1.592103e+03
1.500000e-07	-7.006442e-06	-2.426515e-08	-5.080274e+01	-1.590022e+03
1.600000e-07	-6.965483e-06	-2.426119e-08	-5.050575e+01	-1.587862e+03
1.700000e-07	-6.921965e-06	-2.416334e-08	-5.019020e+01	-1.585566e+03
1.800000e-07	-6.876061e-06	-2.412612e-08	-4.985736e+01	-1.583063e+03
1.900000e-07	-6.827556e-06	-2.408783e-08	-4.950566e+01	-1.580287e+03
2.000000e-07	-6.776152e-06	-2.401071e-08	-4.913294e+01	-1.577188e+03
2.100000e-07	-6.722093e-06	-2.398097e-08	-4.874096e+01	-1.573743e+03
2.200000e-07	-6.665579e-06	-2.393889e-08	-4.833119e+01	-1.569964e+03
2.300000e-07	-6.606575e-06	-2.388981e-08	-4.790336e+01	-1.565889e+03
2.400000e-07	-6.545171e-06	-2.379074e-08	-4.745812e+01	-1.561574e+03
2.500000e-07	-6.481396e-06	-2.370971e-08	-4.699570e+01	-1.557073e+03
2.600000e-07	-6.415062e-06	-2.365456e-08	-4.651472e+01	-1.552427e+03
2.700000e-07	-6.346272e-06	-2.357311e-08	-4.601594e+01	-1.547647e+03
2.800000e-07	-6.275212e-06	-2.350555e-08	-4.550069e+01	-1.542717e+03
2.900000e-07	-6.201710e-06	-2.343335e-08	-4.496774e+01	-1.537595e+03
3.000000e-07	-6.125605e-06	-2.335531e-08	-4.441591e+01	-1.532225e+03
3.100000e-07	-6.046804e-06	-2.324783e-08	-4.384454e+01	-1.526557e+03
3.200000e-07	-5.965543e-06	-2.314297e-08	-4.325533e+01	-1.520556e+03
3.300000e-07	-5.882306e-06	-2.306208e-08	-4.265178e+01	-1.514212e+03
3.400000e-07	-5.797208e-06	-2.296410e-08	-4.203475e+01	-1.507543e+03
3.500000e-07	-5.710198e-06	-2.286475e-08	-4.140385e+01	-1.500579e+03
3.600000e-07	-5.621157e-06	-2.275255e-08	-4.075823e+01	-1.493359e+03
3.700000e-07	-5.529967e-06	-2.263887e-08	-4.009702e+01	-1.485906e+03
3.800000e-07	-5.436798e-06	-2.251782e-08	-3.942146e+01	-1.478220e+03
3.900000e-07	-5.341787e-06	-2.239304e-08	-3.873255e+01	-1.470275e+03
4.000000e-07	-5.244888e-06	-2.227069e-08	-3.802995e+01	-1.462020e+03
4.100000e-07	-5.146070e-06	-2.213407e-08	-3.731343e+01	-1.453392e+03
4.200000e-07	-5.045416e-06	-2.199605e-08	-3.658361e+01	-1.444332e+03
4.300000e-07	-4.942987e-06	-2.184820e-08	-3.584091e+01	-1.434797e+03
4.400000e-07	-4.838870e-06	-2.169500e-08	-3.508598e+01	-1.424775e+03
4.500000e-07	-4.733063e-06	-2.153396e-08	-3.431878e+01	-1.414275e+03
4.600000e-07	-4.625431e-06	-2.137047e-08	-3.353836e+01	-1.403329e+03
4.700000e-07	-4.516117e-06	-2.119864e-08	-3.274573e+01	-1.391969e+03
4.800000e-07	-4.405216e-06	-2.101617e-08	-3.194161e+01	-1.380214e+03
4.900000e-07	-4.292777e-06	-2.083016e-08	-3.112633e+01	-1.368054e+03
5.000000e-07	-4.178675e-06	-2.063538e-08	-3.029899e+01	-1.355446e+03
5.100000e-07	-4.062755e-06	-2.043233e-08	-2.945847e+01	-1.342318e+03
5.200000e-07	-3.945258e-06	-2.021550e-08	-2.860652e+01	-1.328583e+03
5.300000e-07	-3.826348e-06	-1.999307e-08	-2.774432e+01	-1.314153e+03
5.400000e-07	-3.706011e-06	-1.976394e-08	-2.687177e+01	-1.298961e+03
5.500000e-07	-3.584287e-06	-1.952038e-08	-2.598917e+01	-1.282969e+03
5.600000e-07	-3.461148e-06	-1.926062e-08	-2.509630e+01	-1.266168e+03
5.700000e-07	-3.336597e-06	-1.898820e-08	-2.419320e+01	-1.248569e+03
5.800000e-07	-3.210877e-06	-1.870667e-08	-2.328162e+01	-1.230183e+03
5.900000e-07	-3.084128e-06	-1.841450e-08	-2.236258e+01	-1.211002e+03
6.000000e-07	-2.956275e-06	-1.811181e-08	-2.143554e+01	-1.190980e+03
6.100000e-07	-2.827292e-06	-1.779305e-08	-2.050030e+01	-1.170026e+03
6.200000e-07	-2.697222e-06	-1.745261e-08	-1.955718e+01	-1.148007e+03
6.300000e-07	-2.566071e-06	-1.709003e-08	-1.860622e+01	-1.124765e+03
6.400000e-07	-2.433852e-06	-1.670697e-08	-1.764752e+01	-1.100137e+03
6.500000e-07	-2.300783e-06	-1.630549e-08	-1.668266e+01	-1.073973e+03
6.600000e-07	-2.167066e-06	-1.588404e-08	-1.571310e+01	-1.046153e+03
6.700000e-07	-2.032663e-06	-1.543862e-08	-1.473855e+01	-1.016579e+03
6.800000e-07	-1.897465e-06	-1.496314e-08	-1.375826e+01	-9.851609e+02
6.900000e-07	-1.761514e-06	-1.445466e-08	-1.277249e+01	-9.517955e+02
7.000000e-07	-1.624966e-06	-1.391114e-08	-1.178240e+01	-9.163372e+02
7.100000e-07	-1.487894e-06	-1.333255e-08	-1.078851e+01	-8.785836e+02
7.200000e-07	-1.350247e-06	-1.271591e-08	-9.790453e+00	-8.382784e+02
7.300000e-07	-1.212142e-06	-1.205470e-08	-8.789075e+00	-7.951385e+02
7.400000e-07	-1.073639e-06	-1.134641e-08	-7.784810e+00	-7.489018e+02
7.500000e-07	-9.347528e-07	-1.058926e-08	-6.777762e+00	-6.993896e+02
7.600000e-07	-7.955831e-07	-9.784003e-09	-5.768662e+00	-6.465665e+02
7.700000e-07	-6.560555e-07	-8.933243e-09	-4.756967e+00	-5.905834e+02
7.800000e-07	-5.162054e-07	-8.043482e-09	-3.742933e+00	-5.317879e+02
7.900000e-07	-3.761829e-07	-7.118445e-09	-2.727649e+00	-4.706952e+02
8.000000e-07	-2.360014e-07	-6.164156e-09	-1.711213e+00	-4.079192e+02
8.100000e-07	-9.558534e-08	-5.189580e-09	-6.930760e-01	-3.440761e+02
8.200000e-07	4.492319e-08	-4.204461e-09	3.257318e-01	-2.796791e+02
8.300000e-07	1.853990e-07	-3.216245e-09	1.344302e+00	-2.150481e+02
8.400000e-07	3.258548e-07	-2.226915e-09	2.362728e+00	-1.502557e+02
8.500000e-07	4.661856e-07	-1.235629e-09	3.380247e+00	-8.512572e+01
8.600000e-07	6.062873e-07	-2.382319e-10	4.396105e+00	-1.928875e+01
8.700000e-07	7.461766e-07	7.733042e-10	5.410423e+00	4.771478e+01
8.800000e-07	8.858252e-07	1.810252e-09	6.422995e+00	1.163022e+02
8.900000e-07	1.025198e-06	2.877628e-09	7.433567e+00	1.867144e+02
9.000000e-07	1.164230e-06	3.976255e-09	8.441671e+00	2.589093e+02
9.100000e-07	1.302798e-06	5.100380e-09	9.446410e+00	3.325040e+02
9.200000e-07	1.440824e-06	6.236606e-09	1.044721e+01	4.067821e+02
9.300000e-07	1.578260e-06	7.368811e-09	1.144374e+01	4.807630e+02
9.400000e-07	1.715062e-06	8.476364e-09	1.243568e+01	5.533213e+02
9.500000e-07	1.851164e-06	9.540123e-09	1.342253e+01	6.233325e+02
9.600000e-07	1.986536e-06	1.054361e-08	1.440409e+01	6.898161e+02
9.700000e-07	2.121162e-06	1.147838e-08	1.538025e+01	7.520492e+02
9.800000e-07	2.255028e-06	1.234357e-08	1.635090e+01	8.096312e+02
9.900000e-07	2.388085e-06	1.313983e-08	1.731567e+01	8.624915e+02
1.000000e-06	2.520190e-06	1.387037e-08	1.827355e+01	9.108435e+02
1.010000e-06	2.651309e-06	1.454432e-08	1.922427e+01	9.551005e+02
1.020000e-06	2.781487e-06	1.516760e-08	2.016817e+01	9.957740e+02
1.030000e-06	2.910679e-06	1.574448e-08	2.110492e+01	1.033378e+03
1.040000e-06	3.038748e-06	1.627800e-08	2.203354e+01	1.068353e+03
1.050000e-06	3.165639e-06	1.677164e-08	2.295361e+01	1.101033e+03
1.060000e-06	3.291457e-06	1.723086e-08	2.386590e+01	1.131636e+03
1.070000e-06	3.416166e-06	1.766065e-08	2.477014e+01	1.160295e+03
1.080000e-06	3.539627e-06	1.806328e-08	2.566534e+01	1.187095e+03
1.090000e-06	3.661839e-06	1.844169e-08	2.655148e+01	1.212116e+03
1.100000e-06	3.782767e-06	1.879866e-08	2.742832e+01	1.235464e+03
1.110000e-06	3.902293e-06	1.913360e-08	2.829498e+01	1.257282e+03
1.120000e-06	4.020361e-06	1.944888e-08	2.915108e+01	1.277746e+03
1.130000e-06	4.136908e-06	1.974845e-08	2.999615e+01	1.297040e+03
1.140000e-06	4.251888e-06	2.003027e-08	3.082985e+01	1.315328e+03
1.150000e-06	4.365278e-06	2.029257e-08	3.165202e+01	1.332738e+03
1.160000e-06	4.477044e-06	2.053978e-08	3.246242e+01	1.349344e+03
1.170000e-06	4.587227e-06	2.077467e-08	3.326135e+01	1.365172e+03
1.180000e-06	4.695898e-06	2.099876e-08	3.404930e+01	1.380213e+03
1.190000e-06	4.802969e-06	2.121196e-08	3.482566e+01	1.394451e+03
1.200000e-06	4.908312e-06	2.141575e-08	3.558948e+01	1.407879e+03
1.210000e-06	5.011783e-06	2.160906e-08	3.633974e+01	1.420520e+03
1.220000e-06	5.113425e-06	2.179162e-08	3.707673e+01	1.432431e+03
1.230000e-06	5.213277e-06	2.196419e-08	3.780075e+01	1.443694e+03
1.240000e-06	5.311166e-06	2.212847e-08	3.851052e+01	1.454399e+03
1.250000e-06	5.407029e-06	2.228577e-08	3.920561e+01	1.464630e+03
1.260000e-06	5.500943e-06	2.243617e-08	3.988657e+01	1.474440e+03
1.270000e-06	5.592935e-06	2.257934e-08	4.055359e+01	1.483848e+03
1.280000e-06	5.682925e-06	2.271526e-08	4.120610e+01	1.492841e+03
1.290000e-06	5.770823e-06	2.284459e-08	4.184344e+01	1.501381e+03
1.300000e-06	5.856623e-06	2.296754e-08	4.246556e+01	1.509430e+03
1.310000e-06	5.940388e-06	2.308407e-08	4.307292e+01	1.516962e+03
1.320000e-06	6.022046e-06	2.319435e-08	4.366502e+01	1.523977e+03
1.330000e-06	6.101475e-06	2.329733e-08	4.424095e+01	1.530513e+03
1.340000e-06	6.178612e-06	2.339283e-08	4.480026e+01	1.536630e+03
1.350000e-06	6.253402e-06	2.348170e-08	4.534254e+01	1.542408e+03
1.360000e-06	6.325789e-06	2.356489e-08	4.586741e+01	1.547921e+03
1.370000e-06	6.395876e-06	2.364475e-08	4.637561e+01	1.553228e+03
1.380000e-06	6.463756e-06	2.372254e-08	4.686780e+01	1.558360e+03
1.390000e-06	6.529302e-06	2.379736e-08	4.734306e+01	1.563318e+03
1.400000e-06	6.592505e-06	2.386852e-08	4.780134e+01	1.568077e+03
1.410000e-06	6.653460e-06	2.393487e-08	4.824332e+01	1.572604e+03
1.420000e-06	6.712170e-06	2.399635e-08	4.866901e+01	1.576862e+03
1.430000e-06	6.768500e-06	2.405604e-08	4.907745e+01	1.580832e+03
1.440000e-06	6.822262e-06	2.411440e-08	4.946727e+01	1.584511e+03
1.450000e-06	6.873301e-06	2.417047e-08	4.983735e+01	1.587915e+03
1.460000e-06	6.921585e-06	2.422240e-08	5.018745e+01	1.591073e+03
1.470000e-06	6.967306e-06	2.427064e-08	5.051897e+01	1.594015e+03
1.480000e-06	7.010651e-06	2.431423e-08	5.083325e+01	1.596764e+03
1.490000e-06	7.051470e-06	2.435101e-08	5.112923e+01	1.599330e+03
1.500000e-06	7.089709e-06	2.438440e-08	5.140649e+01	1.601708e+03
1.510000e-06	7.125546e-06	2.441615e-08	5.166634e+01	1.603882e+03
1.520000e-06	7.158863e-06	2.444497e-08	5.190792e+01	1.605833e+03
1.530000e-06	7.189611e-06	2.447168e-08	5.213087e+01	1.607548e+03
1.540000e-06	7.217932e-06	2.449650e-08	5.233622e+01	1.609025e+03
1.550000e-06	7.243612e-06	2.451820e-08	5.252242e+01	1.610277e+03
1.560000e-06	7.266586e-06	2.453624e-08	5.268901e+01	1.611329e+03
1.570000e-06	7.287083e-06	2.455069e-08	5.283763e+01	1.612210e+03
1.580000e-06	7.305076e-06	2.456242e-08	5.296809e+01	1.612948e+03
1.590000e-06	7.320300e-06	2.457076e-08	5.307847e+01	1.613560e+03
1.600000e-06	7.332577e-06	2.457654e-08	5.316749e+01	1.614050e+03
1.610000e-06	7.341940e-06	2.458254e-08	5.323538e+01	1.614407e+03
1.620000e-06	7.348597e-06	2.458820e-08	5.328365e+01	1.614616e+03
1.630000e-06	7.352763e-06	2.459112e-08	5.331386e+01	1.614658e+03
1.640000e-06	7.354327e-06	2.459213e-08	5.332520e+01	1.614520e+03
1.650000e-06	7.353259e-06	2.458876e-08	5.331745e+01	1.614203e+03
1.660000e-06	7.349794e-06	2.458019e-08	5.329233e+01	1.613717e+03
1.670000e-06	7.343923e-06	2.457067e-08	5.324976e+01	1.613080e+03
1.680000e-06	7.335577e-06	2.455866e-08	5.318924e+01	1.612311e+03
1.690000e-06	7.324785e-06	2.454534e-08	5.311100e+01	1.611425e+03
1.700000e-06	7.311383e-06	2.453392e-08	5.301382e+01	1.610426e+03
1.710000e-06	7.295464e-06	2.452402e-08	5.289840e+01	1.609308e+03
1.720000e-06	7.277376e-06	2.450482e-08	5.276724e+01	1.608056e+03
1.730000e-06	7.257108e-06	2.443656e-08	5.262028e+01	1.606659e+03
1.740000e-06	7.234019e-06	2.439715e-08	5.245287e+01	1.605108e+03
1.750000e-06	7.207499e-06	2.441351e-08	5.226057e+01	1.603410e+03
1.760000e-06	7.177705e-06	2.439520e-08	5.204454e+01	1.601587e+03
1.770000e-06	7.145353e-06	2.436076e-08	5.180996e+01	1.599669e+03
1.780000e-06	7.111039e-06	2.436813e-08	5.156115e+01	1.597688e+03
1.790000e-06	7.075093e-06	2.434923e-08	5.130051e+01	1.595666e+03
1.800000e-06	7.037333e-06	2.427385e-08	5.102673e+01	1.593604e+03
1.810000e-06	6.997037e-06	2.427739e-08	5.073454e+01	1.591477e+03
1.820000e-06	6.954194e-06	2.424462e-08	5.042389e+01	1.589236e+03
1.830000e-06	6.909118e-06	2.420455e-08	5.009706e+01	1.586815e+03
1.840000e-06	6.861508e-06	2.420698e-08	4.975184e+01	1.584143e+03
1.850000e-06	6.811340e-06	2.413027e-08	4.938808e+01	1.581162e+03
1.860000e-06	6.758461e-06	2.408879e-08	4.900466e+01	1.577840e+03
1.870000e-06	6.702822e-06	2.399544e-08	4.860123e+01	1.574177e+03
1.880000e-06	6.644810e-06	2.394119e-08	4.818060e+01	1.570201e+03
1.890000e-06	6.584242e-06	2.393058e-08	4.774142e+01	1.565964e+03
1.900000e-06	6.521110e-06	2.383630e-08	4.728366e+01	1.561524e+03
1.910000e-06	6.455540e-06	2.379987e-08	4.680822e+01	1.556925e+03
1.920000e-06	6.387558e-06	2.369816e-08	4.631530e+01	1.552193e+03
1.930000e-06	6.317092e-06	2.360715e-08	4.580435e+01	1.547320e+03
1.940000e-06	6.244143e-06	2.353923e-08	4.527541e+01	1.542272e+03
1.950000e-06	6.168844e-06	2.346047e-08	4.472943e+01	1.536996e+03
1.960000e-06	6.090943e-06	2.340873e-08	4.416458e+01	1.531439e+03
1.970000e-06	6.010644e-06	2.328567e-08	4.358235e+01	1.525558e+03
1.980000e-06	5.928303e-06	2.320034e-08	4.298530e+01	1.519336e+03
1.990000e-06	5.843890e-06	2.308827e-08	4.237323e+01	1.512779e+03
2.000000e-06	5.757264e-06	2.298240e-08	4.174512e+01	1.505915e+03
2.010000e-06	5.668484e-06	2.288720e-08	4.110139e+01	1.498782e+03
2.020000e-06	5.577841e-06	2.278003e-08	4.044415e+01	1.491410e+03
2.030000e-06	5.485307e-06	2.267995e-08	3.977320e+01	1.483808e+03
2.040000e-06	5.390721e-06	2.253838e-08	3.908736e+01	1.475960e+03
2.050000e-06	5.294180e-06	2.241885e-08	3.838736e+01	1.467822e+03
2.060000e-06	5.195926e-06	2.228179e-08	3.767494e+01	1.459334e+03
2.070000e-06	5.095976e-06	2.215095e-08	3.695021e+01	1.450433e+03
2.080000e-06	4.994095e-06	2.200617e-08	3.621149e+01	1.441071e+03
2.090000e-06	4.890262e-06	2.185959e-08	3.545861e+01	1.431221e+03
2.100000e-06	4.784784e-06	2.170687e-08	3.469380e+01	1.420889e+03
2.110000e-06	4.677820e-06	2.154245e-08	3.391822e+01	1.410098e+03
2.120000e-06	4.569308e-06	2.138080e-08	3.313142e+01	1.398882e+03
2.130000e-06	4.459144e-06	2.120042e-08	3.233263e+01	1.387266e+03
2.140000e-06	4.347174e-06	2.101870e-08	3.152075e+01	1.375253e+03
2.150000e-06	4.233517e-06	2.082379e-08	3.069664e+01	1.362811e+03
2.160000e-06	4.118220e-06	2.063211e-08	2.986064e+01	1.349878e+03
2.170000e-06	4.001208e-06	2.042480e-08	2.901221e+01	1.336369e+03
2.180000e-06	3.882514e-06	2.020854e-08	2.815157e+01	1.322196e+03
2.190000e-06	3.762221e-06	1.997941e-08	2.727934e+01	1.307281e+03
2.200000e-06	3.640585e-06	1.974297e-08	2.639738e+01	1.291577e+03
2.210000e-06	3.517619e-06	1.949724e-08	2.550577e+01	1.275064e+03
2.220000e-06	3.393360e-06	1.924215e-08	2.460478e+01	1.257747e+03
2.230000e-06	3.267919e-06	1.897495e-08	2.369523e+01	1.239641e+03
2.240000e-06	3.141212e-06	1.868435e-08	2.277649e+01	1.220747e+03
2.250000e-06	3.013224e-06	1.837945e-08	2.184847e+01	1.201033e+03
2.260000e-06	2.884186e-06	1.806009e-08	2.091283e+01	1.180424e+03
2.270000e-06	2.754254e-06	1.773083e-08	1.997071e+01	1.158802e+03
2.280000e-06	2.623284e-06	1.738560e-08	1.902107e+01	1.136015e+03
2.290000e-06	2.491280e-06	1.702351e-08	1.806393e+01	1.111899e+03
2.300000e-06	2.358444e-06	1.663420e-08	1.710075e+01	1.086299e+03
2.310000e-06	2.224860e-06	1.621806e-08	1.613215e+01	1.059082e+03
2.320000e-06	2.090505e-06	1.577804e-08	1.515796e+01	1.030143e+03
2.330000e-06	1.955392e-06	1.531592e-08	1.417827e+01	9.993937e+02
2.340000e-06	1.819582e-06	1.482570e-08	1.319354e+01	9.667372e+02
2.350000e-06	1.683069e-06	1.429951e-08	1.220370e+01	9.320458e+02
2.360000e-06	1.545955e-06	1.373298e-08	1.120951e+01	8.951381e+02
2.370000e-06	1.408409e-06	1.312322e-08	1.021217e+01	8.557755e+02
2.380000e-06	1.270498e-06	1.247408e-08	9.212204e+00	8.136797e+02
2.390000e-06	1.132192e-06	1.178575e-08	8.209365e+00	7.685745e+02
2.400000e-06	9.934249e-07	1.105158e-08	7.203186e+00	7.202442e+02
2.410000e-06	8.542206e-07	1.026783e-08	6.193835e+00	6.685958e+02
2.420000e-06	7.146378e-07	9.433763e-09	5.181739e+00	6.137106e+02
2.430000e-06	5.747847e-07	8.553759e-09	4.167684e+00	5.558673e+02
2.440000e-06	4.347620e-07	7.634430e-09	3.152398e+00	4.955271e+02
2.450000e-06	2.945689e-07	6.683544e-09	2.135878e+00	4.332787e+02
2.460000e-06	1.542168e-07	5.711433e-09	1.118204e+00	3.697496e+02
2.470000e-06	1.382711e-08	4.724775e-09	1.002585e-01	3.055013e+02
2.480000e-06	-1.265298e-07	3.731956e-09	-9.174501e-01	2.409315e+02
2.490000e-06	-2.668804e-07	2.738561e-09	-1.935113e+00	1.762039e+02
2.500000e-06	-4.071711e-07	1.743200e-09	-2.952341e+00	1.112279e+02
2.510000e-06	-5.473164e-07	7.396688e-10	-3.968515e+00	4.569351e+01
2.520000e-06	-6.873424e-07	-2.765750e-10	-4.983824e+00	-2.084104e+01
2.530000e-06	-8.271545e-07	-1.310433e-09	-5.997582e+00	-8.882396e+01
2.540000e-06	-9.666678e-07	-2.369846e-09	-7.009173e+00	-1.585735e+02
2.550000e-06	-1.105769e-06	-3.460444e-09	-8.017777e+00	-2.301582e+02
2.560000e-06	-1.244347e-06	-4.579057e-09	-9.022586e+00	-3.033194e+02
2.570000e-06	-1.382459e-06	-5.718766e-09	-1.002402e+01	-3.774552e+02
2.580000e-06	-1.520109e-06	-6.863490e-09	-1.102210e+01	-4.516676e+02
2.590000e-06	-1.657197e-06	-7.990983e-09	-1.201610e+01	-5.248669e+02
2.600000e-06	-1.793611e-06	-9.082359e-09	-1.300522e+01	-5.959114e+02
2.610000e-06	-1.929330e-06	-1.011974e-08	-1.398931e+01	-6.637539e+02
2.620000e-06	-2.064346e-06	-1.108981e-08	-1.496829e+01	-7.275692e+02
2.630000e-06	-2.198549e-06	-1.199114e-08	-1.594137e+01	-7.868377e+02
2.640000e-06	-2.331869e-06	-1.282514e-08	-1.690806e+01	-8.413738e+02
2.650000e-06	-2.464340e-06	-1.359266e-08	-1.786859e+01	-8.912974e+02
2.660000e-06	-2.595876e-06	-1.429805e-08	-1.882233e+01	-9.369618e+02
2.670000e-06	-2.726424e-06	-1.494766e-08	-1.976892e+01	-9.788552e+02
2.680000e-06	-2.855979e-06	-1.554807e-08	-2.070830e+01	-1.017500e+03
2.690000e-06	-2.984510e-06	-1.610312e-08	-2.164027e+01	-1.053371e+03
2.700000e-06	-3.111973e-06	-1.661593e-08	-2.256448e+01	-1.086840e+03
2.710000e-06	-3.238333e-06	-1.709154e-08	-2.348070e+01	-1.118167e+03
2.720000e-06	-3.363560e-06	-1.753746e-08	-2.438870e+01	-1.147510e+03
2.730000e-06	-3.487538e-06	-1.795287e-08	-2.528765e+01	-1.174966e+03
2.740000e-06	-3.610250e-06	-1.834050e-08	-2.617742e+01	-1.200612e+03
2.750000e-06	-3.731695e-06	-1.870668e-08	-2.705800e+01	-1.224544e+03
2.760000e-06	-3.851751e-06	-1.905010e-08	-2.792851e+01	-1.246890e+03
2.770000e-06	-3.970388e-06	-1.937369e-08	-2.878873e+01	-1.267818e+03
2.780000e-06	-4.087570e-06	-1.968095e-08	-2.963840e+01	-1.287509e+03
2.790000e-06	-4.203081e-06	-1.997039e-08	-3.047596e+01	-1.306140e+03
2.800000e-06	-4.316871e-06	-2.024069e-08	-3.130103e+01	-1.323854e+03
2.810000e-06	-4.428977e-06	-2.049330e-08	-3.211390e+01	-1.340742e+03
2.820000e-06	-4.539362e-06	-2.073462e-08	-3.291428e+01	-1.356848e+03
2.830000e-06	-4.648133e-06	-2.096868e-08	-3.370297e+01	-1.372173e+03
2.840000e-06	-4.755375e-06	-2.119463e-08	-3.448056e+01	-1.386700e+03
2.850000e-06	-4.861002e-06	-2.140926e-08	-3.524645e+01	-1.400417e+03
2.860000e-06	-4.964887e-06	-2.160934e-08	-3.599970e+01	-1.413336e+03
2.870000e-06	-5.066964e-06	-2.179563e-08	-3.673985e+01	-1.425500e+03
2.880000e-06	-5.167128e-06	-2.197230e-08	-3.746613e+01	-1.436984e+03
2.890000e-06	-5.265463e-06	-2.214270e-08	-3.817914e+01	-1.447879e+03
2.900000e-06	-5.361978e-06	-2.230363e-08	-3.887895e+01	-1.458272e+03
2.910000e-06	-5.456557e-06	-2.245304e-08	-3.956473e+01	-1.468228e+03
2.920000e-06	-5.549141e-06	-2.259367e-08	-4.023605e+01	-1.477781e+03
2.930000e-06	-5.639731e-06	-2.272915e-08	-4.089291e+01	-1.486926e+03
2.940000e-06	-5.728286e-06	-2.286038e-08	-4.153501e+01	-1.495634e+03
