# Temperatura_=_71.85
# Concentracion g/m^3_=_28200.0
# C_Vs_to_Am_M_A/Vsm_=_65563218390.804596
# pendiente_HvsI_1/m_=_3716.3
# ordenada_HvsI_A/m_=_1297.0
# frecuencia_Hz_=_302367.86214719655

Tiempo_(s)	Campo_(V.s)	Magnetizacion_(V.s)	Campo_(kA/m)	Magnetizacion_(A/m)
0.000000e+00	-7.280490e-06	-2.527752e-08	-5.319254e+01	-1.654905e+03
1.000000e-08	-7.276466e-06	-2.527042e-08	-5.316314e+01	-1.654339e+03
2.000000e-08	-7.270131e-06	-2.525772e-08	-5.311686e+01	-1.653605e+03
3.000000e-08	-7.261406e-06	-2.524606e-08	-5.305311e+01	-1.652730e+03
4.000000e-08	-7.250105e-06	-2.523300e-08	-5.297055e+01	-1.651731e+03
5.000000e-08	-7.236120e-06	-2.521627e-08	-5.286836e+01	-1.650615e+03
6.000000e-08	-7.219477e-06	-2.519376e-08	-5.274677e+01	-1.649375e+03
7.000000e-08	-7.200621e-06	-2.516946e-08	-5.260901e+01	-1.647996e+03
8.000000e-08	-7.179723e-06	-2.515025e-08	-5.245632e+01	-1.646461e+03
9.000000e-08	-7.156280e-06	-2.517687e-08	-5.228504e+01	-1.644759e+03
1.000000e-07	-7.129826e-06	-2.514022e-08	-5.209177e+01	-1.642895e+03
1.100000e-07	-7.100560e-06	-2.505466e-08	-5.187794e+01	-1.640889e+03
1.200000e-07	-7.068852e-06	-2.501389e-08	-5.164627e+01	-1.638772e+03
1.300000e-07	-7.034689e-06	-2.498906e-08	-5.139668e+01	-1.636578e+03
1.400000e-07	-6.998329e-06	-2.492506e-08	-5.113102e+01	-1.634331e+03
1.500000e-07	-6.960143e-06	-2.485779e-08	-5.085203e+01	-1.632033e+03
1.600000e-07	-6.919845e-06	-2.491887e-08	-5.055760e+01	-1.629661e+03
1.700000e-07	-6.877069e-06	-2.482508e-08	-5.024508e+01	-1.627164e+03
1.800000e-07	-6.831957e-06	-2.471460e-08	-4.991548e+01	-1.624476e+03
1.900000e-07	-6.784339e-06	-2.474705e-08	-4.956757e+01	-1.621525e+03
2.000000e-07	-6.733873e-06	-2.464441e-08	-4.919886e+01	-1.618253e+03
2.100000e-07	-6.680736e-06	-2.459371e-08	-4.881063e+01	-1.614628e+03
2.200000e-07	-6.625104e-06	-2.456935e-08	-4.840418e+01	-1.610648e+03
2.300000e-07	-6.566967e-06	-2.448576e-08	-4.797942e+01	-1.606346e+03
2.400000e-07	-6.506383e-06	-2.441967e-08	-4.753678e+01	-1.601773e+03
2.500000e-07	-6.443436e-06	-2.432469e-08	-4.707688e+01	-1.596987e+03
2.600000e-07	-6.378030e-06	-2.426464e-08	-4.659901e+01	-1.592036e+03
2.700000e-07	-6.310152e-06	-2.417751e-08	-4.610308e+01	-1.586942e+03
2.800000e-07	-6.239944e-06	-2.409988e-08	-4.559013e+01	-1.581697e+03
2.900000e-07	-6.167365e-06	-2.402233e-08	-4.505986e+01	-1.576267e+03
3.000000e-07	-6.092268e-06	-2.391434e-08	-4.451118e+01	-1.570602e+03
3.100000e-07	-6.014569e-06	-2.383979e-08	-4.394350e+01	-1.564646e+03
3.200000e-07	-5.934412e-06	-2.373037e-08	-4.335786e+01	-1.558361e+03
3.300000e-07	-5.852102e-06	-2.363346e-08	-4.275649e+01	-1.551727e+03
3.400000e-07	-5.767872e-06	-2.352630e-08	-4.214109e+01	-1.544752e+03
3.500000e-07	-5.681828e-06	-2.342244e-08	-4.151243e+01	-1.537463e+03
3.600000e-07	-5.593833e-06	-2.331394e-08	-4.086953e+01	-1.529893e+03
3.700000e-07	-5.503707e-06	-2.318425e-08	-4.021105e+01	-1.522066e+03
3.800000e-07	-5.411533e-06	-2.306514e-08	-3.953761e+01	-1.513989e+03
3.900000e-07	-5.317458e-06	-2.293049e-08	-3.885029e+01	-1.505642e+03
4.000000e-07	-5.221557e-06	-2.279664e-08	-3.814961e+01	-1.496981e+03
4.100000e-07	-5.123813e-06	-2.265235e-08	-3.743548e+01	-1.487950e+03
4.200000e-07	-5.024250e-06	-2.251368e-08	-3.670806e+01	-1.478492e+03
4.300000e-07	-4.922934e-06	-2.236138e-08	-3.596783e+01	-1.468566e+03
4.400000e-07	-4.819868e-06	-2.219717e-08	-3.521481e+01	-1.458155e+03
4.500000e-07	-4.715158e-06	-2.203015e-08	-3.444977e+01	-1.447268e+03
4.600000e-07	-4.608711e-06	-2.186175e-08	-3.367206e+01	-1.435929e+03
4.700000e-07	-4.500528e-06	-2.168550e-08	-3.288165e+01	-1.424167e+03
4.800000e-07	-4.390837e-06	-2.149978e-08	-3.208022e+01	-1.411997e+03
4.900000e-07	-4.279536e-06	-2.131160e-08	-3.126705e+01	-1.399407e+03
5.000000e-07	-4.166590e-06	-2.110757e-08	-3.044184e+01	-1.386355e+03
5.100000e-07	-4.051980e-06	-2.089431e-08	-2.960448e+01	-1.372768e+03
5.200000e-07	-3.935687e-06	-2.066956e-08	-2.875483e+01	-1.358561e+03
5.300000e-07	-3.817855e-06	-2.043871e-08	-2.789392e+01	-1.343649e+03
5.400000e-07	-3.698627e-06	-2.019622e-08	-2.702282e+01	-1.327970e+03
5.500000e-07	-3.578037e-06	-1.994523e-08	-2.614177e+01	-1.311489e+03
5.600000e-07	-3.456078e-06	-1.968264e-08	-2.525071e+01	-1.294203e+03
5.700000e-07	-3.332711e-06	-1.940822e-08	-2.434937e+01	-1.276130e+03
5.800000e-07	-3.208037e-06	-1.912258e-08	-2.343848e+01	-1.257286e+03
5.900000e-07	-3.082302e-06	-1.882258e-08	-2.251984e+01	-1.237667e+03
6.000000e-07	-2.955527e-06	-1.851155e-08	-2.159360e+01	-1.217228e+03
6.100000e-07	-2.827657e-06	-1.818419e-08	-2.065936e+01	-1.195876e+03
6.200000e-07	-2.698726e-06	-1.783878e-08	-1.971737e+01	-1.173472e+03
6.300000e-07	-2.568769e-06	-1.747074e-08	-1.876788e+01	-1.149851e+03
6.400000e-07	-2.437712e-06	-1.708366e-08	-1.781035e+01	-1.124842e+03
6.500000e-07	-2.305660e-06	-1.667585e-08	-1.684556e+01	-1.098291e+03
6.600000e-07	-2.172896e-06	-1.624674e-08	-1.587556e+01	-1.070077e+03
6.700000e-07	-2.039512e-06	-1.579396e-08	-1.490103e+01	-1.040106e+03
6.800000e-07	-1.905472e-06	-1.531413e-08	-1.392172e+01	-1.008299e+03
6.900000e-07	-1.770815e-06	-1.480336e-08	-1.293789e+01	-9.745668e+02
7.000000e-07	-1.635516e-06	-1.425549e-08	-1.194936e+01	-9.387751e+02
7.100000e-07	-1.499534e-06	-1.367096e-08	-1.095586e+01	-9.007296e+02
7.200000e-07	-1.362979e-06	-1.304715e-08	-9.958166e+00	-8.601724e+02
7.300000e-07	-1.226066e-06	-1.238252e-08	-8.957854e+00	-8.168064e+02
7.400000e-07	-1.088802e-06	-1.167219e-08	-7.954979e+00	-7.703429e+02
7.500000e-07	-9.511383e-07	-1.091335e-08	-6.949184e+00	-7.205656e+02
7.600000e-07	-8.131488e-07	-1.010472e-08	-5.941009e+00	-6.673951e+02
7.700000e-07	-6.748314e-07	-9.247257e-09	-4.930437e+00	-6.109381e+02
7.800000e-07	-5.361898e-07	-8.345260e-09	-3.917497e+00	-5.515046e+02
7.900000e-07	-3.973257e-07	-7.404871e-09	-2.902932e+00	-4.895840e+02
8.000000e-07	-2.583074e-07	-6.435614e-09	-1.887240e+00	-4.257803e+02
8.100000e-07	-1.191203e-07	-5.442792e-09	-8.703137e-01	-3.607157e+02
8.200000e-07	2.020346e-08	-4.436481e-09	1.476101e-01	-2.949231e+02
8.300000e-07	1.596068e-07	-3.424722e-09	1.166115e+00	-2.287507e+02
8.400000e-07	2.989803e-07	-2.411803e-09	2.184403e+00	-1.623020e+02
8.500000e-07	4.382262e-07	-1.396281e-09	3.201758e+00	-9.542886e+01
8.600000e-07	5.772918e-07	-3.722596e-10	4.217796e+00	-2.778259e+01
8.700000e-07	7.161029e-07	6.671394e-10	5.231974e+00	4.108398e+01
8.800000e-07	8.546014e-07	1.734189e-09	6.243868e+00	1.115829e+02
8.900000e-07	9.927661e-07	2.834816e-09	7.253324e+00	1.839535e+02
9.000000e-07	1.130606e-06	3.966269e-09	8.260409e+00	2.581506e+02
9.100000e-07	1.268031e-06	5.121671e-09	9.264456e+00	3.337829e+02
9.200000e-07	1.404923e-06	6.290537e-09	1.026461e+01	4.101169e+02
9.300000e-07	1.541308e-06	7.452641e-09	1.126107e+01	4.861457e+02
9.400000e-07	1.677147e-06	8.587695e-09	1.225353e+01	5.607112e+02
9.500000e-07	1.812320e-06	9.676171e-09	1.324113e+01	6.326537e+02
9.600000e-07	1.946767e-06	1.070444e-08	1.422342e+01	7.009604e+02
9.700000e-07	2.080516e-06	1.166636e-08	1.520062e+01	7.648844e+02
9.800000e-07	2.213582e-06	1.255913e-08	1.617282e+01	8.240127e+02
9.900000e-07	2.345876e-06	1.338177e-08	1.713938e+01	8.782753e+02
1.000000e-06	2.477243e-06	1.413516e-08	1.809918e+01	9.278976e+02
1.010000e-06	2.607586e-06	1.482652e-08	1.905148e+01	9.733128e+02
1.020000e-06	2.736925e-06	1.546450e-08	1.999645e+01	1.015055e+03
1.030000e-06	2.865263e-06	1.605359e-08	2.093412e+01	1.053659e+03
1.040000e-06	2.992539e-06	1.659987e-08	2.186401e+01	1.089582e+03
1.050000e-06	3.118709e-06	1.710789e-08	2.278584e+01	1.123165e+03
1.060000e-06	3.243840e-06	1.758071e-08	2.370007e+01	1.154629e+03
1.070000e-06	3.367998e-06	1.802340e-08	2.460719e+01	1.184105e+03
1.080000e-06	3.490927e-06	1.843843e-08	2.550533e+01	1.211675e+03
1.090000e-06	3.612442e-06	1.882801e-08	2.639314e+01	1.237419e+03
1.100000e-06	3.732632e-06	1.919471e-08	2.727127e+01	1.261444e+03
1.110000e-06	3.851501e-06	1.954039e-08	2.813975e+01	1.283903e+03
1.120000e-06	3.969048e-06	1.986566e-08	2.899856e+01	1.304980e+03
1.130000e-06	4.085153e-06	2.017283e-08	2.984685e+01	1.324870e+03
1.140000e-06	4.199542e-06	2.046186e-08	3.068259e+01	1.343749e+03
1.150000e-06	4.312239e-06	2.073377e-08	3.150598e+01	1.361746e+03
1.160000e-06	4.423391e-06	2.099011e-08	3.231807e+01	1.378936e+03
1.170000e-06	4.533023e-06	2.123398e-08	3.311907e+01	1.395339e+03
1.180000e-06	4.641212e-06	2.146593e-08	3.390951e+01	1.410940e+03
1.190000e-06	4.747801e-06	2.168737e-08	3.468827e+01	1.425711e+03
1.200000e-06	4.852582e-06	2.189729e-08	3.545382e+01	1.439644e+03
1.210000e-06	4.955567e-06	2.209575e-08	3.620624e+01	1.452761e+03
1.220000e-06	5.056829e-06	2.228373e-08	3.694608e+01	1.465124e+03
1.230000e-06	5.156319e-06	2.246168e-08	3.767298e+01	1.476825e+03
1.240000e-06	5.253764e-06	2.263237e-08	3.838493e+01	1.487967e+03
1.250000e-06	5.349138e-06	2.279543e-08	3.908174e+01	1.498645e+03
1.260000e-06	5.442672e-06	2.295159e-08	3.976512e+01	1.508919e+03
1.270000e-06	5.534363e-06	2.310201e-08	4.043503e+01	1.518810e+03
1.280000e-06	5.624000e-06	2.324602e-08	4.108993e+01	1.528298e+03
1.290000e-06	5.711496e-06	2.338278e-08	4.172919e+01	1.537339e+03
1.300000e-06	5.796978e-06	2.351286e-08	4.235374e+01	1.545880e+03
1.310000e-06	5.880542e-06	2.363525e-08	4.296427e+01	1.553882e+03
1.320000e-06	5.962030e-06	2.375006e-08	4.355964e+01	1.561338e+03
1.330000e-06	6.041307e-06	2.385645e-08	4.413886e+01	1.568280e+03
1.340000e-06	6.118394e-06	2.395708e-08	4.470206e+01	1.574768e+03
1.350000e-06	6.193051e-06	2.405271e-08	4.524752e+01	1.580885e+03
1.360000e-06	6.265247e-06	2.414286e-08	4.577500e+01	1.586713e+03
1.370000e-06	6.335228e-06	2.422726e-08	4.628629e+01	1.592317e+03
1.380000e-06	6.403078e-06	2.430649e-08	4.678201e+01	1.597733e+03
1.390000e-06	6.468599e-06	2.438364e-08	4.726072e+01	1.602964e+03
1.400000e-06	6.531713e-06	2.445888e-08	4.772184e+01	1.607988e+03
1.410000e-06	6.592645e-06	2.453113e-08	4.816702e+01	1.612767e+03
1.420000e-06	6.651281e-06	2.459935e-08	4.859543e+01	1.617267e+03
1.430000e-06	6.707533e-06	2.466287e-08	4.900642e+01	1.621468e+03
1.440000e-06	6.761396e-06	2.472181e-08	4.939995e+01	1.625369e+03
1.450000e-06	6.812511e-06	2.477854e-08	4.977341e+01	1.628992e+03
1.460000e-06	6.860831e-06	2.483319e-08	5.012644e+01	1.632372e+03
1.470000e-06	6.906683e-06	2.488527e-08	5.046144e+01	1.635541e+03
1.480000e-06	6.950194e-06	2.493384e-08	5.077934e+01	1.638527e+03
1.490000e-06	6.991187e-06	2.497683e-08	5.107884e+01	1.641336e+03
1.500000e-06	7.029601e-06	2.501506e-08	5.135951e+01	1.643958e+03
1.510000e-06	7.065689e-06	2.504917e-08	5.162317e+01	1.646368e+03
1.520000e-06	7.099272e-06	2.508088e-08	5.186853e+01	1.648536e+03
1.530000e-06	7.130164e-06	2.511187e-08	5.209424e+01	1.650442e+03
1.540000e-06	7.158653e-06	2.513906e-08	5.230238e+01	1.652077e+03
1.550000e-06	7.184565e-06	2.516147e-08	5.249170e+01	1.653456e+03
1.560000e-06	7.207704e-06	2.518119e-08	5.266075e+01	1.654607e+03
1.570000e-06	7.228421e-06	2.519841e-08	5.281212e+01	1.655567e+03
1.580000e-06	7.246690e-06	2.521163e-08	5.294560e+01	1.656372e+03
1.590000e-06	7.262211e-06	2.522070e-08	5.305899e+01	1.657048e+03
1.600000e-06	7.274962e-06	2.522827e-08	5.315215e+01	1.657602e+03
1.610000e-06	7.284829e-06	2.523583e-08	5.322425e+01	1.658025e+03
1.620000e-06	7.291901e-06	2.524183e-08	5.327591e+01	1.658296e+03
1.630000e-06	7.296551e-06	2.524455e-08	5.330989e+01	1.658390e+03
1.640000e-06	7.298647e-06	2.524468e-08	5.332520e+01	1.658287e+03
1.650000e-06	7.298075e-06	2.524469e-08	5.332102e+01	1.657981e+03
1.660000e-06	7.295131e-06	2.523446e-08	5.329951e+01	1.657479e+03
1.670000e-06	7.289740e-06	2.522470e-08	5.326013e+01	1.656801e+03
1.680000e-06	7.281789e-06	2.521442e-08	5.320203e+01	1.655974e+03
1.690000e-06	7.271471e-06	2.520075e-08	5.312664e+01	1.655017e+03
1.700000e-06	7.258597e-06	2.518698e-08	5.303259e+01	1.653942e+03
1.710000e-06	7.243169e-06	2.517374e-08	5.291987e+01	1.652747e+03
1.720000e-06	7.225535e-06	2.516098e-08	5.279103e+01	1.651419e+03
1.730000e-06	7.205819e-06	2.511933e-08	5.264698e+01	1.649941e+03
1.740000e-06	7.183459e-06	2.502723e-08	5.248362e+01	1.648298e+03
1.750000e-06	7.157744e-06	2.503194e-08	5.229574e+01	1.646490e+03
1.760000e-06	7.128726e-06	2.504596e-08	5.208373e+01	1.644530e+03
1.770000e-06	7.096995e-06	2.499901e-08	5.185189e+01	1.642448e+03
1.780000e-06	7.063181e-06	2.498534e-08	5.160485e+01	1.640278e+03
1.790000e-06	7.027682e-06	2.502388e-08	5.134548e+01	1.638047e+03
1.800000e-06	6.990614e-06	2.490207e-08	5.107465e+01	1.635768e+03
1.810000e-06	6.951197e-06	2.487234e-08	5.078667e+01	1.633426e+03
1.820000e-06	6.909085e-06	2.493609e-08	5.047899e+01	1.630980e+03
1.830000e-06	6.864778e-06	2.479788e-08	5.015528e+01	1.628368e+03
1.840000e-06	6.817974e-06	2.485542e-08	4.981332e+01	1.625518e+03
1.850000e-06	6.768567e-06	2.478554e-08	4.945234e+01	1.622366e+03
1.860000e-06	6.716578e-06	2.468445e-08	4.907250e+01	1.618867e+03
1.870000e-06	6.661753e-06	2.468307e-08	4.867194e+01	1.615011e+03
1.880000e-06	6.604499e-06	2.454552e-08	4.825364e+01	1.610818e+03
1.890000e-06	6.544812e-06	2.455817e-08	4.781755e+01	1.606335e+03
1.900000e-06	6.482558e-06	2.446779e-08	4.736271e+01	1.601618e+03
1.910000e-06	6.417842e-06	2.438216e-08	4.688988e+01	1.596721e+03
1.920000e-06	6.350727e-06	2.434162e-08	4.639953e+01	1.591676e+03
1.930000e-06	6.281329e-06	2.420141e-08	4.589249e+01	1.586487e+03
1.940000e-06	6.209462e-06	2.417716e-08	4.536743e+01	1.581128e+03
1.950000e-06	6.135168e-06	2.405779e-08	4.482462e+01	1.575553e+03
1.960000e-06	6.058348e-06	2.398110e-08	4.426336e+01	1.569706e+03
1.970000e-06	5.978969e-06	2.389192e-08	4.368340e+01	1.563541e+03
1.980000e-06	5.897498e-06	2.376871e-08	4.308816e+01	1.557031e+03
1.990000e-06	5.814057e-06	2.369356e-08	4.247852e+01	1.550175e+03
2.000000e-06	5.728501e-06	2.355589e-08	4.185344e+01	1.542994e+03
2.010000e-06	5.640778e-06	2.347151e-08	4.121252e+01	1.535519e+03
2.020000e-06	5.551042e-06	2.334157e-08	4.055689e+01	1.527782e+03
2.030000e-06	5.459385e-06	2.322472e-08	3.988723e+01	1.519795e+03
2.040000e-06	5.365786e-06	2.310124e-08	3.920338e+01	1.511547e+03
2.050000e-06	5.270297e-06	2.296511e-08	3.850572e+01	1.503004e+03
2.060000e-06	5.173019e-06	2.283433e-08	3.779499e+01	1.494111e+03
2.070000e-06	5.074076e-06	2.267899e-08	3.707210e+01	1.484810e+03
2.080000e-06	4.973413e-06	2.254430e-08	3.633663e+01	1.475054e+03
2.090000e-06	4.870839e-06	2.238284e-08	3.558720e+01	1.464816e+03
2.100000e-06	4.766328e-06	2.222812e-08	3.482363e+01	1.454096e+03
2.110000e-06	4.660202e-06	2.205858e-08	3.404826e+01	1.442914e+03
2.120000e-06	4.552622e-06	2.188640e-08	3.326226e+01	1.431300e+03
2.130000e-06	4.443543e-06	2.169740e-08	3.246530e+01	1.419274e+03
2.140000e-06	4.332780e-06	2.150464e-08	3.165605e+01	1.406837e+03
2.150000e-06	4.220260e-06	2.131210e-08	3.083396e+01	1.393956e+03
2.160000e-06	4.106121e-06	2.110859e-08	3.000005e+01	1.380569e+03
2.170000e-06	3.990323e-06	2.090027e-08	2.915400e+01	1.366593e+03
2.180000e-06	3.872866e-06	2.067381e-08	2.829584e+01	1.351941e+03
2.190000e-06	3.753733e-06	2.044072e-08	2.742544e+01	1.336541e+03
2.200000e-06	3.633083e-06	2.019435e-08	2.654395e+01	1.320347e+03
2.210000e-06	3.511212e-06	1.994355e-08	2.565353e+01	1.303347e+03
2.220000e-06	3.388143e-06	1.967814e-08	2.475437e+01	1.285552e+03
2.230000e-06	3.263790e-06	1.940196e-08	2.384582e+01	1.266981e+03
2.240000e-06	3.138253e-06	1.910485e-08	2.292863e+01	1.247641e+03
2.250000e-06	3.011536e-06	1.879368e-08	2.200281e+01	1.227503e+03
2.260000e-06	2.883552e-06	1.846831e-08	2.106774e+01	1.206490e+03
2.270000e-06	2.754495e-06	1.813051e-08	2.012482e+01	1.184478e+03
2.280000e-06	2.624563e-06	1.777986e-08	1.917552e+01	1.161311e+03
2.290000e-06	2.493775e-06	1.740950e-08	1.821996e+01	1.136816e+03
2.300000e-06	2.362088e-06	1.701703e-08	1.725783e+01	1.110831e+03
2.310000e-06	2.229592e-06	1.659826e-08	1.628979e+01	1.083222e+03
2.320000e-06	2.096383e-06	1.615612e-08	1.531654e+01	1.053887e+03
2.330000e-06	1.962439e-06	1.568507e-08	1.433792e+01	1.022745e+03
2.340000e-06	1.827751e-06	1.518605e-08	1.335387e+01	9.897119e+02
2.350000e-06	1.692399e-06	1.465261e-08	1.236496e+01	9.546738e+02
2.360000e-06	1.556468e-06	1.408017e-08	1.137183e+01	9.174591e+02
2.370000e-06	1.419995e-06	1.346790e-08	1.037474e+01	8.778311e+02
2.380000e-06	1.283075e-06	1.281683e-08	9.374374e+00	8.355023e+02
2.390000e-06	1.145834e-06	1.212456e-08	8.371665e+00	7.901744e+02
2.400000e-06	1.008283e-06	1.138447e-08	7.366696e+00	7.415975e+02
2.410000e-06	8.703688e-07	1.059482e-08	6.359068e+00	6.896363e+02
2.420000e-06	7.321157e-07	9.755060e-09	5.348966e+00	6.343272e+02
2.430000e-06	5.936168e-07	8.868060e-09	4.337069e+00	5.759082e+02
2.440000e-06	4.549533e-07	7.939797e-09	3.323969e+00	5.148099e+02
2.450000e-06	3.161146e-07	6.975646e-09	2.309589e+00	4.516053e+02
2.460000e-06	1.770868e-07	5.983544e-09	1.293828e+00	3.869222e+02
2.470000e-06	3.796872e-08	4.974885e-09	2.774062e-01	3.213377e+02
2.480000e-06	-1.012477e-07	3.959297e-09	-7.397339e-01	2.552749e+02
2.490000e-06	-2.404916e-07	2.938788e-09	-1.757074e+00	1.889286e+02
2.500000e-06	-3.796063e-07	1.913370e-09	-2.773470e+00	1.222377e+02
2.510000e-06	-5.185472e-07	8.817340e-10	-3.788597e+00	5.491565e+01
2.520000e-06	-6.572973e-07	-1.598553e-10	-4.802330e+00	-1.346365e+01
2.530000e-06	-7.958189e-07	-1.219995e-09	-5.814393e+00	-8.334106e+01
2.540000e-06	-9.340713e-07	-2.306525e-09	-6.824490e+00	-1.550324e+02
2.550000e-06	-1.072017e-06	-3.424084e-09	-7.832342e+00	-2.286042e+02
2.560000e-06	-1.209593e-06	-4.573300e-09	-8.837496e+00	-3.037920e+02
2.570000e-06	-1.346771e-06	-5.746864e-09	-9.839745e+00	-3.799796e+02
2.580000e-06	-1.483549e-06	-6.926305e-09	-1.083907e+01	-4.562462e+02
2.590000e-06	-1.619836e-06	-8.086951e-09	-1.183481e+01	-5.314714e+02
2.600000e-06	-1.755441e-06	-9.208494e-09	-1.282556e+01	-6.044783e+02
2.610000e-06	-1.890271e-06	-1.027435e-08	-1.381065e+01	-6.741858e+02
2.620000e-06	-2.024283e-06	-1.127252e-08	-1.478977e+01	-7.397412e+02
2.630000e-06	-2.157510e-06	-1.219798e-08	-1.576315e+01	-8.006083e+02
2.640000e-06	-2.289993e-06	-1.305117e-08	-1.673109e+01	-8.565973e+02
2.650000e-06	-2.421628e-06	-1.383615e-08	-1.769284e+01	-9.078364e+02
2.660000e-06	-2.552353e-06	-1.455907e-08	-1.864794e+01	-9.546965e+02
2.670000e-06	-2.682154e-06	-1.522675e-08	-1.959629e+01	-9.976879e+02
2.680000e-06	-2.811054e-06	-1.584443e-08	-2.053805e+01	-1.037355e+03
2.690000e-06	-2.939017e-06	-1.641646e-08	-2.147297e+01	-1.074191e+03
2.700000e-06	-3.065797e-06	-1.694641e-08	-2.239925e+01	-1.108579e+03
2.710000e-06	-3.191396e-06	-1.743631e-08	-2.331690e+01	-1.140782e+03
2.720000e-06	-3.315842e-06	-1.789206e-08	-2.422612e+01	-1.170958e+03
2.730000e-06	-3.439013e-06	-1.831650e-08	-2.512603e+01	-1.199201e+03
2.740000e-06	-3.560955e-06	-1.871528e-08	-2.601697e+01	-1.225587e+03
2.750000e-06	-3.681768e-06	-1.909485e-08	-2.689965e+01	-1.250211e+03
2.760000e-06	-3.801277e-06	-1.945147e-08	-2.777280e+01	-1.273211e+03
2.770000e-06	-3.919222e-06	-1.978431e-08	-2.863453e+01	-1.294760e+03
2.780000e-06	-4.035594e-06	-2.009781e-08	-2.948476e+01	-1.315053e+03
2.790000e-06	-4.150401e-06	-2.039466e-08	-3.032356e+01	-1.334275e+03
2.800000e-06	-4.263580e-06	-2.067561e-08	-3.115047e+01	-1.352577e+03
2.810000e-06	-4.375016e-06	-2.094069e-08	-3.196464e+01	-1.370051e+03
2.820000e-06	-4.484773e-06	-2.119161e-08	-3.276654e+01	-1.386736e+03
2.830000e-06	-4.593052e-06	-2.143262e-08	-3.355765e+01	-1.402627e+03
2.840000e-06	-4.699844e-06	-2.166490e-08	-3.433789e+01	-1.417698e+03
2.850000e-06	-4.805057e-06	-2.188654e-08	-3.510659e+01	-1.431930e+03
2.860000e-06	-4.908538e-06	-2.209567e-08	-3.586264e+01	-1.445334e+03
2.870000e-06	-5.010114e-06	-2.229150e-08	-3.660478e+01	-1.457958e+03
2.880000e-06	-5.109805e-06	-2.247645e-08	-3.733313e+01	-1.469884e+03
2.890000e-06	-5.207711e-06	-2.265224e-08	-3.804846e+01	-1.481215e+03
2.900000e-06	-5.303860e-06	-2.281878e-08	-3.875094e+01	-1.492050e+03
2.910000e-06	-5.398054e-06	-2.297706e-08	-3.943913e+01	-1.502464e+03
2.920000e-06	-5.490309e-06	-2.312791e-08	-4.011316e+01	-1.512493e+03
2.930000e-06	-5.580661e-06	-2.327134e-08	-4.077329e+01	-1.522130e+03
2.940000e-06	-5.668950e-06	-2.340864e-08	-4.141834e+01	-1.531338e+03
