# Temperatura_=_29.84
# Concentracion g/m^3_=_28200.0
# C_Vs_to_Am_M_A/Vsm_=_65563218390.804596
# pendiente_HvsI_1/m_=_3716.3
# ordenada_HvsI_A/m_=_1297.0
# frecuencia_Hz_=_302374.8793471359

Tiempo_(s)	Campo_(V.s)	Magnetizacion_(V.s)	Campo_(kA/m)	Magnetizacion_(A/m)
0.000000e+00	-7.364737e-06	-2.105311e-08	-5.319148e+01	-1.378758e+03
1.000000e-08	-7.361307e-06	-2.104802e-08	-5.316671e+01	-1.378355e+03
2.000000e-08	-7.355467e-06	-2.103932e-08	-5.312453e+01	-1.377816e+03
3.000000e-08	-7.347255e-06	-2.102830e-08	-5.306522e+01	-1.377157e+03
4.000000e-08	-7.336457e-06	-2.101777e-08	-5.298723e+01	-1.376397e+03
5.000000e-08	-7.322907e-06	-2.100576e-08	-5.288937e+01	-1.375546e+03
6.000000e-08	-7.306667e-06	-2.099376e-08	-5.277207e+01	-1.374612e+03
7.000000e-08	-7.288168e-06	-2.098396e-08	-5.263846e+01	-1.373590e+03
8.000000e-08	-7.267520e-06	-2.097794e-08	-5.248934e+01	-1.372475e+03
9.000000e-08	-7.244362e-06	-2.095977e-08	-5.232208e+01	-1.371259e+03
1.000000e-07	-7.218284e-06	-2.094604e-08	-5.213373e+01	-1.369937e+03
1.100000e-07	-7.189301e-06	-2.090727e-08	-5.192440e+01	-1.368511e+03
1.200000e-07	-7.157733e-06	-2.086268e-08	-5.169641e+01	-1.366990e+03
1.300000e-07	-7.123709e-06	-2.083318e-08	-5.145067e+01	-1.365385e+03
1.400000e-07	-7.087487e-06	-2.081357e-08	-5.118905e+01	-1.363704e+03
1.500000e-07	-7.049375e-06	-2.077534e-08	-5.091379e+01	-1.361949e+03
1.600000e-07	-7.009202e-06	-2.072177e-08	-5.062364e+01	-1.360106e+03
1.700000e-07	-6.966587e-06	-2.073903e-08	-5.031586e+01	-1.358151e+03
1.800000e-07	-6.921467e-06	-2.065735e-08	-4.998998e+01	-1.356047e+03
1.900000e-07	-6.873737e-06	-2.060660e-08	-4.964526e+01	-1.353753e+03
2.000000e-07	-6.823207e-06	-2.060568e-08	-4.928031e+01	-1.351235e+03
2.100000e-07	-6.770043e-06	-2.052864e-08	-4.889633e+01	-1.348468e+03
2.200000e-07	-6.714370e-06	-2.052987e-08	-4.849423e+01	-1.345446e+03
2.300000e-07	-6.656197e-06	-2.050306e-08	-4.807408e+01	-1.342179e+03
2.400000e-07	-6.595538e-06	-2.041328e-08	-4.763597e+01	-1.338695e+03
2.500000e-07	-6.532429e-06	-2.033744e-08	-4.718018e+01	-1.335024e+03
2.600000e-07	-6.466823e-06	-2.027577e-08	-4.670634e+01	-1.331196e+03
2.700000e-07	-6.398710e-06	-2.022101e-08	-4.621440e+01	-1.327229e+03
2.800000e-07	-6.328267e-06	-2.015410e-08	-4.570562e+01	-1.323122e+03
2.900000e-07	-6.255377e-06	-2.010607e-08	-4.517918e+01	-1.318861e+03
3.000000e-07	-6.179914e-06	-2.004659e-08	-4.463415e+01	-1.314416e+03
3.100000e-07	-6.101890e-06	-1.995154e-08	-4.407063e+01	-1.309753e+03
3.200000e-07	-6.021376e-06	-1.986564e-08	-4.348912e+01	-1.304843e+03
3.300000e-07	-5.938671e-06	-1.978468e-08	-4.289178e+01	-1.299668e+03
3.400000e-07	-5.854012e-06	-1.972955e-08	-4.228034e+01	-1.294222e+03
3.500000e-07	-5.767450e-06	-1.964338e-08	-4.165514e+01	-1.288513e+03
3.600000e-07	-5.678889e-06	-1.954590e-08	-4.101552e+01	-1.282557e+03
3.700000e-07	-5.588162e-06	-1.945608e-08	-4.036024e+01	-1.276365e+03
3.800000e-07	-5.495380e-06	-1.935074e-08	-3.969013e+01	-1.269940e+03
3.900000e-07	-5.400750e-06	-1.924784e-08	-3.900668e+01	-1.263273e+03
4.000000e-07	-5.304222e-06	-1.914274e-08	-3.830950e+01	-1.256339e+03
4.100000e-07	-5.205776e-06	-1.903705e-08	-3.759848e+01	-1.249101e+03
4.200000e-07	-5.105553e-06	-1.891079e-08	-3.687463e+01	-1.241523e+03
4.300000e-07	-5.003582e-06	-1.878899e-08	-3.613815e+01	-1.233571e+03
4.400000e-07	-4.899802e-06	-1.866121e-08	-3.538860e+01	-1.225228e+03
4.500000e-07	-4.794199e-06	-1.852500e-08	-3.462589e+01	-1.216488e+03
4.600000e-07	-4.686882e-06	-1.838672e-08	-3.385079e+01	-1.207359e+03
4.700000e-07	-4.577931e-06	-1.824323e-08	-3.306390e+01	-1.197852e+03
4.800000e-07	-4.467371e-06	-1.809099e-08	-3.226539e+01	-1.187974e+03
4.900000e-07	-4.355128e-06	-1.793046e-08	-3.145472e+01	-1.177720e+03
5.000000e-07	-4.241108e-06	-1.777159e-08	-3.063121e+01	-1.167063e+03
5.100000e-07	-4.125372e-06	-1.760155e-08	-2.979531e+01	-1.155957e+03
5.200000e-07	-4.008048e-06	-1.742017e-08	-2.894794e+01	-1.144345e+03
5.300000e-07	-3.889279e-06	-1.722806e-08	-2.809014e+01	-1.132165e+03
5.400000e-07	-3.769093e-06	-1.703292e-08	-2.722210e+01	-1.119360e+03
5.500000e-07	-3.647430e-06	-1.682734e-08	-2.634340e+01	-1.105890e+03
5.600000e-07	-3.524343e-06	-1.660831e-08	-2.545441e+01	-1.091730e+03
5.700000e-07	-3.399926e-06	-1.637847e-08	-2.455582e+01	-1.076871e+03
5.800000e-07	-3.274287e-06	-1.613831e-08	-2.364839e+01	-1.061306e+03
5.900000e-07	-3.147546e-06	-1.589232e-08	-2.273301e+01	-1.045017e+03
6.000000e-07	-3.019614e-06	-1.563770e-08	-2.180902e+01	-1.027967e+03
6.100000e-07	-2.890465e-06	-1.537131e-08	-2.087625e+01	-1.010092e+03
6.200000e-07	-2.760235e-06	-1.508390e-08	-1.993567e+01	-9.912976e+02
6.300000e-07	-2.629003e-06	-1.477512e-08	-1.898786e+01	-9.714688e+02
6.400000e-07	-2.496757e-06	-1.444573e-08	-1.803271e+01	-9.504814e+02
6.500000e-07	-2.363601e-06	-1.409877e-08	-1.707100e+01	-9.282148e+02
6.600000e-07	-2.229751e-06	-1.373602e-08	-1.610428e+01	-9.045605e+02
6.700000e-07	-2.095180e-06	-1.335652e-08	-1.513234e+01	-8.794244e+02
6.800000e-07	-1.959789e-06	-1.295226e-08	-1.415449e+01	-8.527189e+02
6.900000e-07	-1.823661e-06	-1.251920e-08	-1.317131e+01	-8.243500e+02
7.000000e-07	-1.686892e-06	-1.205888e-08	-1.218350e+01	-7.942004e+02
7.100000e-07	-1.549461e-06	-1.156814e-08	-1.119091e+01	-7.621191e+02
7.200000e-07	-1.411419e-06	-1.104639e-08	-1.019391e+01	-7.279211e+02
7.300000e-07	-1.272844e-06	-1.048688e-08	-9.193060e+00	-6.914037e+02
7.400000e-07	-1.133828e-06	-9.889287e-09	-8.189019e+00	-6.523772e+02
7.500000e-07	-9.944956e-07	-9.252553e-09	-7.182699e+00	-6.107088e+02
7.600000e-07	-8.548010e-07	-8.574686e-09	-6.173761e+00	-5.663673e+02
7.700000e-07	-7.147506e-07	-7.859224e-09	-5.162254e+00	-5.194591e+02
7.800000e-07	-5.743809e-07	-7.111486e-09	-4.148440e+00	-4.702441e+02
7.900000e-07	-4.336908e-07	-6.335505e-09	-3.132312e+00	-4.191232e+02
8.000000e-07	-2.928103e-07	-5.537855e-09	-2.114809e+00	-3.665951e+02
8.100000e-07	-1.518138e-07	-4.726982e-09	-1.096468e+00	-3.131877e+02
8.200000e-07	-1.072937e-08	-3.907283e-09	-7.749242e-02	-2.593773e+02
8.300000e-07	1.304128e-07	-3.083984e-09	9.419006e-01	-2.055090e+02
8.400000e-07	2.716106e-07	-2.259371e-09	1.961695e+00	-1.517394e+02
8.500000e-07	4.127367e-07	-1.436447e-09	2.980972e+00	-9.801269e+01
8.600000e-07	5.536393e-07	-6.162098e-10	3.998635e+00	-4.408116e+01
8.700000e-07	6.943079e-07	2.081194e-10	5.014607e+00	1.043350e+01
8.800000e-07	8.346860e-07	1.046473e-09	6.028482e+00	6.594656e+01
8.900000e-07	9.747488e-07	1.908301e-09	7.040079e+00	1.228026e+02
9.000000e-07	1.114469e-06	2.794658e-09	8.049204e+00	1.811748e+02
9.100000e-07	1.253741e-06	3.703766e-09	9.055088e+00	2.409918e+02
9.200000e-07	1.392546e-06	4.631148e-09	1.005760e+01	3.019076e+02
9.300000e-07	1.530817e-06	5.567973e-09	1.105626e+01	3.633197e+02
9.400000e-07	1.668491e-06	6.502008e-09	1.205060e+01	4.244340e+02
9.500000e-07	1.805515e-06	7.416752e-09	1.304025e+01	4.843623e+02
9.600000e-07	1.941802e-06	8.297870e-09	1.402458e+01	5.422341e+02
9.700000e-07	2.077300e-06	9.133176e-09	1.500321e+01	5.973015e+02
9.800000e-07	2.211948e-06	9.913421e-09	1.597570e+01	6.490190e+02
9.900000e-07	2.345774e-06	1.063451e-08	1.694225e+01	6.970847e+02
1.000000e-06	2.478778e-06	1.129924e-08	1.790286e+01	7.414405e+02
1.010000e-06	2.610846e-06	1.191430e-08	1.885672e+01	7.822352e+02
1.020000e-06	2.741942e-06	1.248483e-08	1.980355e+01	8.197618e+02
1.030000e-06	2.872063e-06	1.301522e-08	2.074334e+01	8.543852e+02
1.040000e-06	3.001109e-06	1.350811e-08	2.167538e+01	8.864754e+02
1.050000e-06	3.128998e-06	1.396496e-08	2.259905e+01	9.163573e+02
1.060000e-06	3.255731e-06	1.438780e-08	2.351437e+01	9.442855e+02
1.070000e-06	3.381347e-06	1.478092e-08	2.442163e+01	9.704416e+02
1.080000e-06	3.505864e-06	1.514888e-08	2.532094e+01	9.949502e+02
1.090000e-06	3.629135e-06	1.549503e-08	2.621126e+01	1.017904e+03
1.100000e-06	3.751061e-06	1.582146e-08	2.709187e+01	1.039391e+03
1.110000e-06	3.871609e-06	1.612921e-08	2.796252e+01	1.059507e+03
1.120000e-06	3.990675e-06	1.641883e-08	2.882247e+01	1.078370e+03
1.130000e-06	4.108340e-06	1.669134e-08	2.967230e+01	1.096108e+03
1.140000e-06	4.224523e-06	1.694757e-08	3.051143e+01	1.112849e+03
1.150000e-06	4.339012e-06	1.718817e-08	3.133832e+01	1.128707e+03
1.160000e-06	4.451768e-06	1.741479e-08	3.215269e+01	1.143767e+03
1.170000e-06	4.562838e-06	1.762825e-08	3.295489e+01	1.158084e+03
1.180000e-06	4.672433e-06	1.783209e-08	3.374643e+01	1.171685e+03
1.190000e-06	4.780509e-06	1.802543e-08	3.452701e+01	1.184579e+03
1.200000e-06	4.886860e-06	1.820789e-08	3.529512e+01	1.196771e+03
1.210000e-06	4.991397e-06	1.838266e-08	3.605014e+01	1.208275e+03
1.220000e-06	5.094096e-06	1.855010e-08	3.679188e+01	1.219120e+03
1.230000e-06	5.195050e-06	1.870847e-08	3.752102e+01	1.229353e+03
1.240000e-06	5.294185e-06	1.885702e-08	3.823702e+01	1.239028e+03
1.250000e-06	5.391251e-06	1.899793e-08	3.893807e+01	1.248203e+03
1.260000e-06	5.486231e-06	1.913272e-08	3.962405e+01	1.256925e+03
1.270000e-06	5.579311e-06	1.925970e-08	4.029632e+01	1.265224e+03
1.280000e-06	5.670457e-06	1.937806e-08	4.095462e+01	1.273112e+03
1.290000e-06	5.759461e-06	1.949017e-08	4.159745e+01	1.280587e+03
1.300000e-06	5.846281e-06	1.959649e-08	4.222450e+01	1.287641e+03
1.310000e-06	5.931083e-06	1.969624e-08	4.283698e+01	1.294271e+03
1.320000e-06	6.013884e-06	1.978974e-08	4.343500e+01	1.300489e+03
1.330000e-06	6.094483e-06	1.987851e-08	4.401713e+01	1.306324e+03
1.340000e-06	6.172816e-06	1.996315e-08	4.458288e+01	1.311820e+03
1.350000e-06	6.248823e-06	2.004370e-08	4.513184e+01	1.317033e+03
1.360000e-06	6.322391e-06	2.012053e-08	4.566319e+01	1.322014e+03
1.370000e-06	6.393586e-06	2.019368e-08	4.617738e+01	1.326806e+03
1.380000e-06	6.462587e-06	2.026294e-08	4.667574e+01	1.331428e+03
1.390000e-06	6.529337e-06	2.032807e-08	4.715784e+01	1.335882e+03
1.400000e-06	6.593666e-06	2.039070e-08	4.762246e+01	1.340146e+03
1.410000e-06	6.655689e-06	2.045148e-08	4.807041e+01	1.344191e+03
1.420000e-06	6.715502e-06	2.050868e-08	4.850241e+01	1.347988e+03
1.430000e-06	6.772955e-06	2.056141e-08	4.891736e+01	1.351514e+03
1.440000e-06	6.827943e-06	2.061082e-08	4.931451e+01	1.354767e+03
1.450000e-06	6.880353e-06	2.065834e-08	4.969304e+01	1.357758e+03
1.460000e-06	6.929979e-06	2.070336e-08	5.005146e+01	1.360512e+03
1.470000e-06	6.976941e-06	2.074540e-08	5.039064e+01	1.363063e+03
1.480000e-06	7.021459e-06	2.078490e-08	5.071217e+01	1.365439e+03
1.490000e-06	7.063464e-06	2.082005e-08	5.101555e+01	1.367659e+03
1.500000e-06	7.102894e-06	2.084963e-08	5.130033e+01	1.369729e+03
1.510000e-06	7.139894e-06	2.087621e-08	5.156756e+01	1.371643e+03
1.520000e-06	7.174412e-06	2.090099e-08	5.181686e+01	1.373385e+03
1.530000e-06	7.206296e-06	2.092410e-08	5.204715e+01	1.374939e+03
1.540000e-06	7.235682e-06	2.094618e-08	5.225939e+01	1.376296e+03
1.550000e-06	7.262583e-06	2.096556e-08	5.245368e+01	1.377455e+03
1.560000e-06	7.286737e-06	2.098307e-08	5.262813e+01	1.378429e+03
1.570000e-06	7.308211e-06	2.099825e-08	5.278323e+01	1.379238e+03
1.580000e-06	7.327190e-06	2.100968e-08	5.292030e+01	1.379906e+03
1.590000e-06	7.343510e-06	2.101844e-08	5.303817e+01	1.380454e+03
1.600000e-06	7.356998e-06	2.102439e-08	5.313559e+01	1.380894e+03
1.610000e-06	7.367634e-06	2.102941e-08	5.321240e+01	1.381228e+03
1.620000e-06	7.375424e-06	2.103424e-08	5.326866e+01	1.381448e+03
1.630000e-06	7.380575e-06	2.103708e-08	5.330587e+01	1.381540e+03
1.640000e-06	7.383241e-06	2.103701e-08	5.332513e+01	1.381490e+03
1.650000e-06	7.383251e-06	2.103462e-08	5.332520e+01	1.381289e+03
1.660000e-06	7.380698e-06	2.103089e-08	5.330676e+01	1.380937e+03
1.670000e-06	7.375708e-06	2.102197e-08	5.327072e+01	1.380444e+03
1.680000e-06	7.368219e-06	2.101408e-08	5.321663e+01	1.379826e+03
1.690000e-06	7.358276e-06	2.100579e-08	5.314481e+01	1.379099e+03
1.700000e-06	7.345829e-06	2.099544e-08	5.305492e+01	1.378280e+03
1.710000e-06	7.330817e-06	2.098192e-08	5.294649e+01	1.377374e+03
1.720000e-06	7.313477e-06	2.095900e-08	5.282126e+01	1.376384e+03
1.730000e-06	7.293969e-06	2.092778e-08	5.268036e+01	1.375303e+03
1.740000e-06	7.271884e-06	2.089647e-08	5.252085e+01	1.374123e+03
1.750000e-06	7.246618e-06	2.087095e-08	5.233837e+01	1.372838e+03
1.760000e-06	7.217979e-06	2.087616e-08	5.213153e+01	1.371449e+03
1.770000e-06	7.186427e-06	2.086874e-08	5.190365e+01	1.369960e+03
1.780000e-06	7.152686e-06	2.083801e-08	5.165995e+01	1.368383e+03
1.790000e-06	7.117227e-06	2.082597e-08	5.140385e+01	1.366728e+03
1.800000e-06	7.080110e-06	2.083010e-08	5.113577e+01	1.365000e+03
1.810000e-06	7.040742e-06	2.074303e-08	5.085144e+01	1.363190e+03
1.820000e-06	6.998773e-06	2.075642e-08	5.054832e+01	1.361278e+03
1.830000e-06	6.954463e-06	2.076839e-08	5.022830e+01	1.359231e+03
1.840000e-06	6.907687e-06	2.068919e-08	4.989045e+01	1.357010e+03
1.850000e-06	6.858294e-06	2.071295e-08	4.953372e+01	1.354575e+03
1.860000e-06	6.806266e-06	2.061014e-08	4.915795e+01	1.351898e+03
1.870000e-06	6.751515e-06	2.053805e-08	4.876251e+01	1.348966e+03
1.880000e-06	6.694224e-06	2.052545e-08	4.834873e+01	1.345784e+03
1.890000e-06	6.634396e-06	2.047113e-08	4.791663e+01	1.342373e+03
1.900000e-06	6.571966e-06	2.046659e-08	4.746573e+01	1.338765e+03
1.910000e-06	6.507051e-06	2.039316e-08	4.699688e+01	1.334990e+03
1.920000e-06	6.439706e-06	2.032375e-08	4.651049e+01	1.331071e+03
1.930000e-06	6.369948e-06	2.024331e-08	4.600666e+01	1.327014e+03
1.940000e-06	6.297772e-06	2.015868e-08	4.548537e+01	1.322811e+03
1.950000e-06	6.223139e-06	2.013802e-08	4.494634e+01	1.318434e+03
1.960000e-06	6.145941e-06	2.006579e-08	4.438878e+01	1.313852e+03
1.970000e-06	6.066273e-06	2.000540e-08	4.381338e+01	1.309033e+03
1.980000e-06	5.984426e-06	1.990543e-08	4.322224e+01	1.303953e+03
1.990000e-06	5.900469e-06	1.981156e-08	4.261587e+01	1.298603e+03
2.000000e-06	5.814365e-06	1.973590e-08	4.199399e+01	1.292987e+03
2.010000e-06	5.726137e-06	1.963548e-08	4.135677e+01	1.287117e+03
2.020000e-06	5.635880e-06	1.956536e-08	4.070489e+01	1.281007e+03
2.030000e-06	5.543634e-06	1.946709e-08	4.003865e+01	1.274666e+03
2.040000e-06	5.449409e-06	1.936267e-08	3.935811e+01	1.268087e+03
2.050000e-06	5.353258e-06	1.924759e-08	3.866366e+01	1.261251e+03
2.060000e-06	5.255302e-06	1.914452e-08	3.795618e+01	1.254126e+03
2.070000e-06	5.155633e-06	1.903943e-08	3.723633e+01	1.246673e+03
2.080000e-06	5.054073e-06	1.891591e-08	3.650281e+01	1.238857e+03
2.090000e-06	4.950559e-06	1.879566e-08	3.575519e+01	1.230655e+03
2.100000e-06	4.845290e-06	1.866317e-08	3.499489e+01	1.222055e+03
2.110000e-06	4.738432e-06	1.853232e-08	3.422311e+01	1.213063e+03
2.120000e-06	4.629999e-06	1.839194e-08	3.343996e+01	1.203689e+03
2.130000e-06	4.519933e-06	1.824647e-08	3.264502e+01	1.193944e+03
2.140000e-06	4.408161e-06	1.808617e-08	3.183775e+01	1.183826e+03
2.150000e-06	4.294669e-06	1.792008e-08	3.101805e+01	1.173316e+03
2.160000e-06	4.179510e-06	1.775624e-08	3.018632e+01	1.162376e+03
2.170000e-06	4.062623e-06	1.758987e-08	2.934211e+01	1.150952e+03
2.180000e-06	3.944037e-06	1.741166e-08	2.848563e+01	1.138981e+03
2.190000e-06	3.823938e-06	1.721828e-08	2.761822e+01	1.126404e+03
2.200000e-06	3.702407e-06	1.701654e-08	2.674047e+01	1.113174e+03
2.210000e-06	3.579529e-06	1.680224e-08	2.585299e+01	1.099263e+03
2.220000e-06	3.455343e-06	1.658333e-08	2.495606e+01	1.084654e+03
2.230000e-06	3.329823e-06	1.635579e-08	2.404950e+01	1.069341e+03
2.240000e-06	3.203035e-06	1.611449e-08	2.313378e+01	1.053313e+03
2.250000e-06	3.075041e-06	1.585457e-08	2.220934e+01	1.036541e+03
2.260000e-06	2.945928e-06	1.558370e-08	2.127683e+01	1.018969e+03
2.270000e-06	2.815807e-06	1.530167e-08	2.033704e+01	1.000515e+03
2.280000e-06	2.684749e-06	1.500787e-08	1.939048e+01	9.810690e+02
2.290000e-06	2.552728e-06	1.469786e-08	1.843696e+01	9.605092e+02
2.300000e-06	2.419736e-06	1.436638e-08	1.747643e+01	9.387122e+02
2.310000e-06	2.285857e-06	1.401228e-08	1.650950e+01	9.155645e+02
2.320000e-06	2.151179e-06	1.363701e-08	1.553679e+01	8.909673e+02
2.330000e-06	2.015787e-06	1.324368e-08	1.455893e+01	8.648319e+02
2.340000e-06	1.879709e-06	1.282815e-08	1.357611e+01	8.370685e+02
2.350000e-06	1.742968e-06	1.238620e-08	1.258851e+01	8.075698e+02
2.360000e-06	1.605631e-06	1.190938e-08	1.159659e+01	7.761976e+02
2.370000e-06	1.467792e-06	1.139471e-08	1.060106e+01	7.427780e+02
2.380000e-06	1.329548e-06	1.084298e-08	9.602601e+00	7.071118e+02
2.390000e-06	1.190874e-06	1.025804e-08	8.601036e+00	6.690001e+02
2.400000e-06	1.051736e-06	9.637431e-09	7.596114e+00	6.282845e+02
2.410000e-06	9.122043e-07	8.977632e-09	6.588354e+00	5.848927e+02
2.420000e-06	7.723181e-07	8.278208e-09	5.578033e+00	5.388789e+02
2.430000e-06	6.320973e-07	7.542350e-09	4.565294e+00	4.904480e+02
2.440000e-06	4.915767e-07	6.774155e-09	3.550390e+00	4.399539e+02
2.450000e-06	3.508640e-07	5.979523e-09	2.534099e+00	3.878671e+02
2.460000e-06	2.100266e-07	5.167497e-09	1.516908e+00	3.347141e+02
2.470000e-06	6.906272e-08	4.344268e-09	4.988024e-01	2.809992e+02
2.480000e-06	-7.193510e-08	3.518327e-09	-5.195480e-01	2.271224e+02
2.490000e-06	-2.129491e-07	2.694247e-09	-1.538015e+00	1.733125e+02
2.500000e-06	-3.539560e-07	1.872019e-09	-2.556431e+00	1.195893e+02
2.510000e-06	-4.948661e-07	1.047897e-09	-3.574148e+00	6.576886e+01
2.520000e-06	-6.355574e-07	2.163561e-10	-4.590284e+00	1.150997e+01
2.530000e-06	-7.759484e-07	-6.268279e-10	-5.604253e+00	-4.360145e+01
2.540000e-06	-9.160298e-07	-1.485789e-09	-6.615984e+00	-9.994761e+01
2.550000e-06	-1.055725e-06	-2.364391e-09	-7.624926e+00	-1.577731e+02
2.560000e-06	-1.194960e-06	-3.267455e-09	-8.630545e+00	-2.171000e+02
2.570000e-06	-1.333709e-06	-4.194504e-09	-9.632651e+00	-2.776807e+02
2.580000e-06	-1.471980e-06	-5.136961e-09	-1.063131e+01	-3.389991e+02
2.590000e-06	-1.609761e-06	-6.081160e-09	-1.162643e+01	-4.003196e+02
2.600000e-06	-1.746972e-06	-7.010529e-09	-1.261743e+01	-4.607752e+02
2.610000e-06	-1.883522e-06	-7.910189e-09	-1.360366e+01	-5.194761e+02
2.620000e-06	-2.019363e-06	-8.767766e-09	-1.458476e+01	-5.756201e+02
2.630000e-06	-2.154415e-06	-9.575738e-09	-1.556017e+01	-6.285822e+02
2.640000e-06	-2.288606e-06	-1.032892e-08	-1.652936e+01	-6.779714e+02
2.650000e-06	-2.421961e-06	-1.102787e-08	-1.749251e+01	-7.236452e+02
2.660000e-06	-2.554393e-06	-1.167570e-08	-1.844899e+01	-7.656845e+02
2.670000e-06	-2.685795e-06	-1.227393e-08	-1.939803e+01	-8.043391e+02
2.680000e-06	-2.816219e-06	-1.282577e-08	-2.034001e+01	-8.399563e+02
2.690000e-06	-2.945654e-06	-1.333457e-08	-2.127486e+01	-8.729113e+02
2.700000e-06	-3.074051e-06	-1.380544e-08	-2.220219e+01	-9.035492e+02
2.710000e-06	-3.201393e-06	-1.424241e-08	-2.312192e+01	-9.321512e+02
2.720000e-06	-3.327615e-06	-1.465096e-08	-2.403355e+01	-9.589239e+02
2.730000e-06	-3.452587e-06	-1.503432e-08	-2.493616e+01	-9.840096e+02
2.740000e-06	-3.576199e-06	-1.538993e-08	-2.582894e+01	-1.007510e+03
2.750000e-06	-3.698574e-06	-1.572189e-08	-2.671278e+01	-1.029510e+03
2.760000e-06	-3.819704e-06	-1.603550e-08	-2.758764e+01	-1.050104e+03
2.770000e-06	-3.939373e-06	-1.633313e-08	-2.845194e+01	-1.069401e+03
2.780000e-06	-4.057572e-06	-1.661381e-08	-2.930563e+01	-1.087526e+03
2.790000e-06	-4.174242e-06	-1.687664e-08	-3.014828e+01	-1.104610e+03
2.800000e-06	-4.289201e-06	-1.712522e-08	-3.097856e+01	-1.120772e+03
2.810000e-06	-4.402371e-06	-1.736118e-08	-3.179592e+01	-1.136109e+03
2.820000e-06	-4.513730e-06	-1.758553e-08	-3.260021e+01	-1.150688e+03
2.830000e-06	-4.623416e-06	-1.779969e-08	-3.339242e+01	-1.164543e+03
2.840000e-06	-4.731615e-06	-1.800390e-08	-3.417387e+01	-1.177690e+03
2.850000e-06	-4.838329e-06	-1.819451e-08	-3.494461e+01	-1.190132e+03
2.860000e-06	-4.943395e-06	-1.836994e-08	-3.570345e+01	-1.201880e+03
2.870000e-06	-5.046572e-06	-1.853481e-08	-3.644864e+01	-1.212956e+03
2.880000e-06	-5.147819e-06	-1.869384e-08	-3.717989e+01	-1.223402e+03
2.890000e-06	-5.247267e-06	-1.884631e-08	-3.789815e+01	-1.233270e+03
2.900000e-06	-5.344946e-06	-1.899150e-08	-3.860363e+01	-1.242618e+03
2.910000e-06	-5.440683e-06	-1.912959e-08	-3.929509e+01	-1.251498e+03
2.920000e-06	-5.534361e-06	-1.925923e-08	-3.997167e+01	-1.259946e+03
2.930000e-06	-5.626025e-06	-1.938002e-08	-4.063371e+01	-1.267981e+03
2.940000e-06	-5.715717e-06	-1.949300e-08	-4.128151e+01	-1.275605e+03
