# Temperatura_=_78.31
# Concentracion g/m^3_=_28200.0
# C_Vs_to_Am_M_A/Vsm_=_65563218390.804596
# pendiente_HvsI_1/m_=_3716.3
# ordenada_HvsI_A/m_=_1297.0
# frecuencia_Hz_=_302371.21385271463

Tiempo_(s)	Campo_(V.s)	Magnetizacion_(V.s)	Campo_(kA/m)	Magnetizacion_(A/m)
0.000000e+00	-7.288452e-06	-2.778716e-08	-5.318769e+01	-1.819591e+03
1.000000e-08	-7.284342e-06	-2.777513e-08	-5.315769e+01	-1.818940e+03
2.000000e-08	-7.277897e-06	-2.776124e-08	-5.311066e+01	-1.818106e+03
3.000000e-08	-7.269065e-06	-2.774702e-08	-5.304621e+01	-1.817119e+03
4.000000e-08	-7.257659e-06	-2.773088e-08	-5.296297e+01	-1.816002e+03
5.000000e-08	-7.243544e-06	-2.771153e-08	-5.285997e+01	-1.814763e+03
6.000000e-08	-7.226815e-06	-2.769105e-08	-5.273789e+01	-1.813395e+03
7.000000e-08	-7.207883e-06	-2.766833e-08	-5.259973e+01	-1.811878e+03
8.000000e-08	-7.186823e-06	-2.766354e-08	-5.244604e+01	-1.810190e+03
9.000000e-08	-7.163113e-06	-2.764951e-08	-5.227302e+01	-1.808315e+03
1.000000e-07	-7.136432e-06	-2.759927e-08	-5.207832e+01	-1.806254e+03
1.100000e-07	-7.107040e-06	-2.754909e-08	-5.186383e+01	-1.804027e+03
1.200000e-07	-7.075142e-06	-2.750881e-08	-5.163105e+01	-1.801666e+03
1.300000e-07	-7.040752e-06	-2.746161e-08	-5.138009e+01	-1.799207e+03
1.400000e-07	-7.004211e-06	-2.740357e-08	-5.111343e+01	-1.796679e+03
1.500000e-07	-6.965894e-06	-2.737785e-08	-5.083381e+01	-1.794089e+03
1.600000e-07	-6.925416e-06	-2.734736e-08	-5.053842e+01	-1.791416e+03
1.700000e-07	-6.882434e-06	-2.725455e-08	-5.022476e+01	-1.788609e+03
1.800000e-07	-6.837090e-06	-2.720958e-08	-4.989386e+01	-1.785599e+03
1.900000e-07	-6.789151e-06	-2.716033e-08	-4.954403e+01	-1.782310e+03
2.000000e-07	-6.738382e-06	-2.709485e-08	-4.917354e+01	-1.778678e+03
2.100000e-07	-6.685012e-06	-2.704748e-08	-4.878407e+01	-1.774665e+03
2.200000e-07	-6.629141e-06	-2.698900e-08	-4.837635e+01	-1.770265e+03
2.300000e-07	-6.570721e-06	-2.694208e-08	-4.795003e+01	-1.765506e+03
2.400000e-07	-6.509819e-06	-2.683893e-08	-4.750559e+01	-1.760438e+03
2.500000e-07	-6.446582e-06	-2.674239e-08	-4.704412e+01	-1.755117e+03
2.600000e-07	-6.380959e-06	-2.665261e-08	-4.656524e+01	-1.749593e+03
2.700000e-07	-6.312880e-06	-2.656290e-08	-4.606842e+01	-1.743890e+03
2.800000e-07	-6.242462e-06	-2.647666e-08	-4.555454e+01	-1.738004e+03
2.900000e-07	-6.169633e-06	-2.637918e-08	-4.502307e+01	-1.731907e+03
3.000000e-07	-6.094272e-06	-2.629550e-08	-4.447312e+01	-1.725552e+03
3.100000e-07	-6.016363e-06	-2.619131e-08	-4.390458e+01	-1.718892e+03
3.200000e-07	-5.936017e-06	-2.607398e-08	-4.331826e+01	-1.711890e+03
3.300000e-07	-5.853515e-06	-2.595815e-08	-4.271619e+01	-1.704533e+03
3.400000e-07	-5.769122e-06	-2.585187e-08	-4.210033e+01	-1.696826e+03
3.500000e-07	-5.682862e-06	-2.574241e-08	-4.147085e+01	-1.688794e+03
3.600000e-07	-5.594582e-06	-2.560904e-08	-4.082662e+01	-1.680462e+03
3.700000e-07	-5.504193e-06	-2.547479e-08	-4.016701e+01	-1.671847e+03
3.800000e-07	-5.411798e-06	-2.533862e-08	-3.949275e+01	-1.662943e+03
3.900000e-07	-5.317482e-06	-2.519201e-08	-3.880448e+01	-1.653719e+03
4.000000e-07	-5.221303e-06	-2.504104e-08	-3.810261e+01	-1.644124e+03
4.100000e-07	-5.123285e-06	-2.488884e-08	-3.738732e+01	-1.634097e+03
4.200000e-07	-5.023443e-06	-2.473203e-08	-3.665872e+01	-1.623584e+03
4.300000e-07	-4.921871e-06	-2.456012e-08	-3.591749e+01	-1.612549e+03
4.400000e-07	-4.818568e-06	-2.438113e-08	-3.516364e+01	-1.600985e+03
4.500000e-07	-4.713622e-06	-2.419782e-08	-3.439779e+01	-1.588910e+03
4.600000e-07	-4.606906e-06	-2.400686e-08	-3.361903e+01	-1.576357e+03
4.700000e-07	-4.498471e-06	-2.381089e-08	-3.282772e+01	-1.563358e+03
4.800000e-07	-4.388552e-06	-2.360834e-08	-3.202558e+01	-1.549927e+03
4.900000e-07	-4.277061e-06	-2.339809e-08	-3.121198e+01	-1.536046e+03
5.000000e-07	-4.163968e-06	-2.317413e-08	-3.038668e+01	-1.521662e+03
5.100000e-07	-4.049115e-06	-2.294127e-08	-2.954853e+01	-1.506693e+03
5.200000e-07	-3.932526e-06	-2.269733e-08	-2.869772e+01	-1.491043e+03
5.300000e-07	-3.814425e-06	-2.244049e-08	-2.783587e+01	-1.474621e+03
5.400000e-07	-3.694909e-06	-2.217480e-08	-2.696371e+01	-1.457364e+03
5.500000e-07	-3.574086e-06	-2.189699e-08	-2.608200e+01	-1.439237e+03
5.600000e-07	-3.451901e-06	-2.160740e-08	-2.519035e+01	-1.420241e+03
5.700000e-07	-3.328301e-06	-2.130427e-08	-2.428838e+01	-1.400392e+03
5.800000e-07	-3.203486e-06	-2.098977e-08	-2.337753e+01	-1.379704e+03
5.900000e-07	-3.077574e-06	-2.066356e-08	-2.245868e+01	-1.358161e+03
6.000000e-07	-2.950528e-06	-2.032489e-08	-2.153156e+01	-1.335701e+03
6.100000e-07	-2.822395e-06	-1.996595e-08	-2.059651e+01	-1.312209e+03
6.200000e-07	-2.693265e-06	-1.958167e-08	-1.965418e+01	-1.287525e+03
6.300000e-07	-2.563122e-06	-1.917653e-08	-1.870446e+01	-1.261466e+03
6.400000e-07	-2.431872e-06	-1.874905e-08	-1.774666e+01	-1.233849e+03
6.500000e-07	-2.299674e-06	-1.829925e-08	-1.678194e+01	-1.204516e+03
6.600000e-07	-2.166866e-06	-1.782569e-08	-1.581277e+01	-1.173347e+03
6.700000e-07	-2.033404e-06	-1.732738e-08	-1.483883e+01	-1.140256e+03
6.800000e-07	-1.899126e-06	-1.679878e-08	-1.385893e+01	-1.105168e+03
6.900000e-07	-1.764112e-06	-1.623369e-08	-1.287366e+01	-1.067988e+03
7.000000e-07	-1.628498e-06	-1.562838e-08	-1.188401e+01	-1.028567e+03
7.100000e-07	-1.492410e-06	-1.498436e-08	-1.089091e+01	-9.866817e+02
7.200000e-07	-1.355908e-06	-1.430000e-08	-9.894779e+00	-9.420338e+02
7.300000e-07	-1.218984e-06	-1.356787e-08	-8.895574e+00	-8.942826e+02
7.400000e-07	-1.081606e-06	-1.278439e-08	-7.893047e+00	-8.430996e+02
7.500000e-07	-9.437602e-07	-1.194766e-08	-6.887117e+00	-7.882418e+02
7.600000e-07	-8.055081e-07	-1.105706e-08	-5.878219e+00	-7.296235e+02
7.700000e-07	-6.669557e-07	-1.010977e-08	-4.867128e+00	-6.673681e+02
7.800000e-07	-5.280875e-07	-9.113855e-09	-3.853734e+00	-6.018236e+02
7.900000e-07	-3.888995e-07	-8.077495e-09	-2.838005e+00	-5.335314e+02
8.000000e-07	-2.495077e-07	-7.008055e-09	-1.820790e+00	-4.631500e+02
8.100000e-07	-1.100111e-07	-5.912172e-09	-8.028091e-01	-3.913472e+02
8.200000e-07	2.954528e-08	-4.799232e-09	2.156075e-01	-3.186814e+02
8.300000e-07	1.691008e-07	-3.678740e-09	1.234018e+00	-2.455009e+02
8.400000e-07	3.085903e-07	-2.551287e-09	2.251946e+00	-1.718850e+02
8.500000e-07	4.480109e-07	-1.419400e-09	3.269372e+00	-9.764496e+01
8.600000e-07	5.872622e-07	-2.802015e-10	4.285563e+00	-2.238912e+01
8.700000e-07	7.262650e-07	8.779123e-10	5.299940e+00	5.435842e+01
8.800000e-07	8.650025e-07	2.068393e-09	6.312380e+00	1.330079e+02
8.900000e-07	1.003417e-06	3.294774e-09	7.322464e+00	2.137550e+02
9.000000e-07	1.141439e-06	4.554752e-09	8.329684e+00	2.964645e+02
9.100000e-07	1.278992e-06	5.842032e-09	9.333480e+00	3.806144e+02
9.200000e-07	1.415975e-06	7.139358e-09	1.033312e+01	4.653125e+02
9.300000e-07	1.552387e-06	8.425766e-09	1.132859e+01	5.493856e+02
9.400000e-07	1.688334e-06	9.678173e-09	1.232067e+01	6.315235e+02
9.500000e-07	1.823755e-06	1.087508e-08	1.330890e+01	7.104483e+02
9.600000e-07	1.958413e-06	1.199950e-08	1.429157e+01	7.850781e+02
9.700000e-07	2.092241e-06	1.304430e-08	1.526819e+01	8.546516e+02
9.800000e-07	2.225347e-06	1.400964e-08	1.623953e+01	9.187927e+02
9.900000e-07	2.357731e-06	1.489789e-08	1.720561e+01	9.775083e+02
1.000000e-06	2.489306e-06	1.571185e-08	1.816578e+01	1.031124e+03
1.010000e-06	2.619878e-06	1.645949e-08	1.911863e+01	1.080176e+03
1.020000e-06	2.749297e-06	1.714993e-08	2.006307e+01	1.125291e+03
1.030000e-06	2.877686e-06	1.778805e-08	2.100000e+01	1.167070e+03
1.040000e-06	3.005085e-06	1.837979e-08	2.192970e+01	1.206010e+03
1.050000e-06	3.131359e-06	1.893151e-08	2.285118e+01	1.242463e+03
1.060000e-06	3.256565e-06	1.944682e-08	2.376488e+01	1.276641e+03
1.070000e-06	3.380713e-06	1.992819e-08	2.467085e+01	1.308658e+03
1.080000e-06	3.503638e-06	2.037845e-08	2.556790e+01	1.338581e+03
1.090000e-06	3.625220e-06	2.079950e-08	2.645514e+01	1.366482e+03
1.100000e-06	3.745443e-06	2.119373e-08	2.733248e+01	1.392478e+03
1.110000e-06	3.864258e-06	2.156466e-08	2.819954e+01	1.416742e+03
1.120000e-06	3.981676e-06	2.191427e-08	2.905640e+01	1.439488e+03
1.130000e-06	4.097693e-06	2.224548e-08	2.990303e+01	1.460945e+03
1.140000e-06	4.212074e-06	2.255960e-08	3.073773e+01	1.481316e+03
1.150000e-06	4.324801e-06	2.285628e-08	3.156036e+01	1.500752e+03
1.160000e-06	4.435979e-06	2.313599e-08	3.237168e+01	1.519335e+03
1.170000e-06	4.545649e-06	2.339916e-08	3.317201e+01	1.537085e+03
1.180000e-06	4.653837e-06	2.365081e-08	3.396151e+01	1.553976e+03
1.190000e-06	4.760357e-06	2.389143e-08	3.473884e+01	1.569971e+03
1.200000e-06	4.865105e-06	2.411912e-08	3.550324e+01	1.585049e+03
1.210000e-06	4.968071e-06	2.433419e-08	3.625464e+01	1.599230e+03
1.220000e-06	5.069276e-06	2.453668e-08	3.699319e+01	1.612579e+03
1.230000e-06	5.168706e-06	2.472789e-08	3.771878e+01	1.625199e+03
1.240000e-06	5.266137e-06	2.491042e-08	3.842978e+01	1.637209e+03
1.250000e-06	5.361503e-06	2.508587e-08	3.912573e+01	1.648720e+03
1.260000e-06	5.455027e-06	2.525530e-08	3.980821e+01	1.659808e+03
1.270000e-06	5.546746e-06	2.541757e-08	4.047754e+01	1.670505e+03
1.280000e-06	5.636383e-06	2.557242e-08	4.113167e+01	1.680797e+03
1.290000e-06	5.723878e-06	2.572016e-08	4.177017e+01	1.690640e+03
1.300000e-06	5.809351e-06	2.586105e-08	4.239391e+01	1.699974e+03
1.310000e-06	5.892836e-06	2.599492e-08	4.300314e+01	1.708757e+03
1.320000e-06	5.974223e-06	2.612270e-08	4.359706e+01	1.716971e+03
1.330000e-06	6.053375e-06	2.624431e-08	4.417467e+01	1.724641e+03
1.340000e-06	6.130278e-06	2.635890e-08	4.473588e+01	1.731821e+03
1.350000e-06	6.204808e-06	2.646600e-08	4.527976e+01	1.738589e+03
1.360000e-06	6.276912e-06	2.656557e-08	4.580595e+01	1.745023e+03
1.370000e-06	6.346799e-06	2.665961e-08	4.631595e+01	1.751187e+03
1.380000e-06	6.414545e-06	2.674833e-08	4.681032e+01	1.757116e+03
1.390000e-06	6.479922e-06	2.683272e-08	4.728741e+01	1.762815e+03
1.400000e-06	6.542921e-06	2.691271e-08	4.774715e+01	1.768264e+03
1.410000e-06	6.603771e-06	2.698827e-08	4.819121e+01	1.773432e+03
1.420000e-06	6.662341e-06	2.705992e-08	4.861862e+01	1.778292e+03
1.430000e-06	6.718517e-06	2.712896e-08	4.902857e+01	1.782832e+03
1.440000e-06	6.772288e-06	2.719685e-08	4.942097e+01	1.787062e+03
1.450000e-06	6.823312e-06	2.726180e-08	4.979332e+01	1.791010e+03
1.460000e-06	6.871546e-06	2.732184e-08	5.014531e+01	1.794712e+03
1.470000e-06	6.917336e-06	2.737812e-08	5.047946e+01	1.798205e+03
1.480000e-06	6.960770e-06	2.743071e-08	5.079642e+01	1.801509e+03
1.490000e-06	7.001681e-06	2.747724e-08	5.109497e+01	1.804625e+03
1.500000e-06	7.040067e-06	2.751861e-08	5.137509e+01	1.807534e+03
1.510000e-06	7.076043e-06	2.755557e-08	5.163762e+01	1.810203e+03
1.520000e-06	7.109476e-06	2.759095e-08	5.188161e+01	1.812598e+03
1.530000e-06	7.140334e-06	2.762618e-08	5.210679e+01	1.814696e+03
1.540000e-06	7.168775e-06	2.765623e-08	5.231434e+01	1.816491e+03
1.550000e-06	7.194652e-06	2.768152e-08	5.250318e+01	1.818001e+03
1.560000e-06	7.217796e-06	2.770424e-08	5.267207e+01	1.819263e+03
1.570000e-06	7.238426e-06	2.772283e-08	5.282262e+01	1.820320e+03
1.580000e-06	7.256575e-06	2.773661e-08	5.295506e+01	1.821212e+03
1.590000e-06	7.271937e-06	2.774755e-08	5.306717e+01	1.821967e+03
1.600000e-06	7.284466e-06	2.775598e-08	5.315860e+01	1.822590e+03
1.610000e-06	7.294133e-06	2.776277e-08	5.322915e+01	1.823066e+03
1.620000e-06	7.301032e-06	2.776671e-08	5.327949e+01	1.823369e+03
1.630000e-06	7.305445e-06	2.776788e-08	5.331169e+01	1.823469e+03
1.640000e-06	7.307296e-06	2.776851e-08	5.332520e+01	1.823343e+03
1.650000e-06	7.306519e-06	2.776483e-08	5.331954e+01	1.822985e+03
1.660000e-06	7.303343e-06	2.775738e-08	5.329635e+01	1.822407e+03
1.670000e-06	7.297745e-06	2.774788e-08	5.325550e+01	1.821633e+03
1.680000e-06	7.289635e-06	2.773625e-08	5.319632e+01	1.820697e+03
1.690000e-06	7.279137e-06	2.772328e-08	5.311971e+01	1.819623e+03
1.700000e-06	7.266102e-06	2.770954e-08	5.302459e+01	1.818427e+03
1.710000e-06	7.250495e-06	2.769232e-08	5.291070e+01	1.817107e+03
1.720000e-06	7.232675e-06	2.766746e-08	5.278065e+01	1.815645e+03
1.730000e-06	7.212781e-06	2.760291e-08	5.263548e+01	1.814019e+03
1.740000e-06	7.190196e-06	2.756189e-08	5.247066e+01	1.812211e+03
1.750000e-06	7.164243e-06	2.755100e-08	5.228127e+01	1.810215e+03
1.760000e-06	7.134974e-06	2.752870e-08	5.206768e+01	1.808043e+03
1.770000e-06	7.103038e-06	2.749939e-08	5.183463e+01	1.805724e+03
1.780000e-06	7.069060e-06	2.749360e-08	5.158667e+01	1.803295e+03
1.790000e-06	7.033416e-06	2.745312e-08	5.132656e+01	1.800789e+03
1.800000e-06	6.996147e-06	2.738337e-08	5.105458e+01	1.798222e+03
1.810000e-06	6.956515e-06	2.739221e-08	5.076537e+01	1.795582e+03
1.820000e-06	6.914259e-06	2.735040e-08	5.045701e+01	1.792829e+03
1.830000e-06	6.869700e-06	2.732468e-08	5.013183e+01	1.789899e+03
1.840000e-06	6.822629e-06	2.728907e-08	4.978833e+01	1.786717e+03
1.850000e-06	6.773019e-06	2.719885e-08	4.942630e+01	1.783213e+03
1.860000e-06	6.720759e-06	2.715293e-08	4.904493e+01	1.779338e+03
1.870000e-06	6.665754e-06	2.705040e-08	4.864353e+01	1.775074e+03
1.880000e-06	6.608358e-06	2.699971e-08	4.822469e+01	1.770438e+03
1.890000e-06	6.548453e-06	2.696108e-08	4.778752e+01	1.765472e+03
1.900000e-06	6.485976e-06	2.688008e-08	4.733160e+01	1.760235e+03
1.910000e-06	6.421021e-06	2.682589e-08	4.685759e+01	1.754778e+03
1.920000e-06	6.353643e-06	2.670558e-08	4.636589e+01	1.749137e+03
1.930000e-06	6.283979e-06	2.661553e-08	4.585751e+01	1.743318e+03
1.940000e-06	6.211905e-06	2.651605e-08	4.533155e+01	1.737300e+03
1.950000e-06	6.137365e-06	2.641493e-08	4.478759e+01	1.731042e+03
1.960000e-06	6.060301e-06	2.633830e-08	4.422522e+01	1.724495e+03
1.970000e-06	5.980746e-06	2.622475e-08	4.364467e+01	1.717617e+03
1.980000e-06	5.899055e-06	2.612606e-08	4.304853e+01	1.710386e+03
1.990000e-06	5.815400e-06	2.599536e-08	4.243805e+01	1.702801e+03
2.000000e-06	5.729676e-06	2.588251e-08	4.181247e+01	1.694882e+03
2.010000e-06	5.641760e-06	2.575523e-08	4.117091e+01	1.686653e+03
2.020000e-06	5.551862e-06	2.562472e-08	4.051487e+01	1.678138e+03
2.030000e-06	5.460120e-06	2.549981e-08	3.984538e+01	1.669339e+03
2.040000e-06	5.366423e-06	2.535283e-08	3.916163e+01	1.660233e+03
2.050000e-06	5.270760e-06	2.520945e-08	3.846353e+01	1.650776e+03
2.060000e-06	5.173283e-06	2.504811e-08	3.775218e+01	1.640910e+03
2.070000e-06	5.074051e-06	2.490072e-08	3.702803e+01	1.630575e+03
2.080000e-06	4.973031e-06	2.473626e-08	3.629084e+01	1.619728e+03
2.090000e-06	4.870149e-06	2.457102e-08	3.554005e+01	1.608351e+03
2.100000e-06	4.765458e-06	2.439431e-08	3.477607e+01	1.596454e+03
2.110000e-06	4.659232e-06	2.420812e-08	3.400088e+01	1.584067e+03
2.120000e-06	4.551466e-06	2.401000e-08	3.321446e+01	1.571224e+03
2.130000e-06	4.442096e-06	2.379838e-08	3.241633e+01	1.557946e+03
2.140000e-06	4.331037e-06	2.358789e-08	3.160587e+01	1.544230e+03
2.150000e-06	4.218281e-06	2.336944e-08	3.078303e+01	1.530033e+03
2.160000e-06	4.103897e-06	2.315078e-08	2.994830e+01	1.515283e+03
2.170000e-06	3.987910e-06	2.291772e-08	2.910189e+01	1.499886e+03
2.180000e-06	3.870370e-06	2.267521e-08	2.824414e+01	1.483748e+03
2.190000e-06	3.751170e-06	2.241789e-08	2.737427e+01	1.466794e+03
2.200000e-06	3.630408e-06	2.215221e-08	2.649301e+01	1.448978e+03
2.210000e-06	3.508317e-06	2.187053e-08	2.560204e+01	1.430290e+03
2.220000e-06	3.384926e-06	2.157717e-08	2.470159e+01	1.410743e+03
2.230000e-06	3.260305e-06	2.126890e-08	2.379217e+01	1.390354e+03
2.240000e-06	3.134573e-06	2.094174e-08	2.287463e+01	1.369120e+03
2.250000e-06	3.007675e-06	2.059845e-08	2.194859e+01	1.346997e+03
2.260000e-06	2.879523e-06	2.024227e-08	2.101340e+01	1.323889e+03
2.270000e-06	2.750295e-06	1.987492e-08	2.007036e+01	1.299650e+03
2.280000e-06	2.620126e-06	1.948808e-08	1.912045e+01	1.274103e+03
2.290000e-06	2.489011e-06	1.907965e-08	1.816363e+01	1.247061e+03
2.300000e-06	2.357052e-06	1.864480e-08	1.720065e+01	1.218356e+03
2.310000e-06	2.224371e-06	1.818269e-08	1.623241e+01	1.187854e+03
2.320000e-06	2.091037e-06	1.769051e-08	1.525940e+01	1.155457e+03
2.330000e-06	1.957035e-06	1.716787e-08	1.428152e+01	1.121091e+03
2.340000e-06	1.822299e-06	1.661420e-08	1.329828e+01	1.084671e+03
2.350000e-06	1.686755e-06	1.602747e-08	1.230914e+01	1.046071e+03
2.360000e-06	1.550512e-06	1.539994e-08	1.131491e+01	1.005095e+03
2.370000e-06	1.413794e-06	1.472886e-08	1.031720e+01	9.614708e+02
2.380000e-06	1.276696e-06	1.401391e-08	9.316727e+00	9.148669e+02
2.390000e-06	1.139262e-06	1.325222e-08	8.313794e+00	8.649427e+02
2.400000e-06	1.001440e-06	1.243773e-08	7.308036e+00	8.114159e+02
2.410000e-06	8.631817e-07	1.156794e-08	6.299093e+00	7.541373e+02
2.420000e-06	7.245986e-07	1.064244e-08	5.287779e+00	6.931515e+02
2.430000e-06	5.857574e-07	9.663994e-09	4.274582e+00	6.287276e+02
2.440000e-06	4.466535e-07	8.638148e-09	3.259467e+00	5.613443e+02
2.450000e-06	3.073741e-07	7.571637e-09	2.243072e+00	4.916296e+02
2.460000e-06	1.679966e-07	6.476923e-09	1.225960e+00	4.202614e+02
2.470000e-06	2.853463e-08	5.367379e-09	2.082323e-01	3.478503e+02
2.480000e-06	-1.109715e-07	4.251213e-09	-8.098174e-01	2.748291e+02
2.490000e-06	-2.504157e-07	3.127456e-09	-1.827416e+00	2.013763e+02
2.500000e-06	-3.897342e-07	1.994972e-09	-2.844096e+00	1.273949e+02
2.510000e-06	-5.289259e-07	8.504141e-10	-3.859852e+00	5.255429e+01
2.520000e-06	-6.679557e-07	-3.131964e-10	-4.874426e+00	-2.360748e+01
2.530000e-06	-8.067409e-07	-1.500719e-09	-5.887215e+00	-1.015420e+02
2.540000e-06	-9.452493e-07	-2.715817e-09	-6.897984e+00	-1.815372e+02
2.550000e-06	-1.083393e-06	-3.962150e-09	-7.906095e+00	-2.635861e+02
2.560000e-06	-1.221115e-06	-5.239213e-09	-8.911122e+00	-3.473068e+02
2.570000e-06	-1.358391e-06	-6.538938e-09	-9.912894e+00	-4.319326e+02
2.580000e-06	-1.495174e-06	-7.840892e-09	-1.091108e+01	-5.163766e+02
2.590000e-06	-1.631500e-06	-9.118951e-09	-1.190592e+01	-5.993585e+02
2.600000e-06	-1.767242e-06	-1.035118e-08	-1.289650e+01	-6.795691e+02
2.610000e-06	-1.902250e-06	-1.151819e-08	-1.388172e+01	-7.558398e+02
2.620000e-06	-2.036372e-06	-1.260571e-08	-1.486048e+01	-8.272837e+02
2.630000e-06	-2.169627e-06	-1.361125e-08	-1.583291e+01	-8.933841e+02
2.640000e-06	-2.302199e-06	-1.453747e-08	-1.680036e+01	-9.540154e+02
2.650000e-06	-2.433957e-06	-1.538739e-08	-1.776187e+01	-1.009400e+03
2.660000e-06	-2.564706e-06	-1.616706e-08	-1.871602e+01	-1.060013e+03
2.670000e-06	-2.694502e-06	-1.688607e-08	-1.966321e+01	-1.106462e+03
2.680000e-06	-2.823425e-06	-1.755180e-08	-2.060402e+01	-1.149370e+03
2.690000e-06	-2.951436e-06	-1.816796e-08	-2.153819e+01	-1.189277e+03
2.700000e-06	-3.078338e-06	-1.874155e-08	-2.246426e+01	-1.226587e+03
2.710000e-06	-3.204013e-06	-1.927630e-08	-2.338138e+01	-1.261562e+03
2.720000e-06	-3.328535e-06	-1.977371e-08	-2.429008e+01	-1.294343e+03
2.730000e-06	-3.451793e-06	-2.023617e-08	-2.518956e+01	-1.325007e+03
2.740000e-06	-3.573769e-06	-2.066839e-08	-2.607968e+01	-1.353620e+03
2.750000e-06	-3.694565e-06	-2.107634e-08	-2.696119e+01	-1.380281e+03
2.760000e-06	-3.814032e-06	-2.146119e-08	-2.783301e+01	-1.405141e+03
2.770000e-06	-3.931974e-06	-2.182259e-08	-2.869369e+01	-1.428404e+03
2.780000e-06	-4.048399e-06	-2.216133e-08	-2.954331e+01	-1.450296e+03
2.790000e-06	-4.163259e-06	-2.248041e-08	-3.038151e+01	-1.471035e+03
2.800000e-06	-4.276381e-06	-2.278389e-08	-3.120701e+01	-1.490793e+03
2.810000e-06	-4.387777e-06	-2.307186e-08	-3.201993e+01	-1.509677e+03
2.820000e-06	-4.497537e-06	-2.334480e-08	-3.282091e+01	-1.527726e+03
2.830000e-06	-4.605823e-06	-2.360483e-08	-3.361113e+01	-1.544929e+03
2.840000e-06	-4.712664e-06	-2.385220e-08	-3.439080e+01	-1.561249e+03
2.850000e-06	-4.817925e-06	-2.408704e-08	-3.515894e+01	-1.576655e+03
2.860000e-06	-4.921433e-06	-2.431110e-08	-3.591430e+01	-1.591152e+03
2.870000e-06	-5.022998e-06	-2.452545e-08	-3.665547e+01	-1.604788e+03
2.880000e-06	-5.122648e-06	-2.472951e-08	-3.738267e+01	-1.617656e+03
2.890000e-06	-5.220572e-06	-2.492191e-08	-3.809728e+01	-1.629872e+03
2.900000e-06	-5.316770e-06	-2.510267e-08	-3.879928e+01	-1.641551e+03
2.910000e-06	-5.411033e-06	-2.527348e-08	-3.948717e+01	-1.652784e+03
2.920000e-06	-5.503260e-06	-2.543591e-08	-4.016020e+01	-1.663621e+03
2.930000e-06	-5.593486e-06	-2.559043e-08	-4.081863e+01	-1.674063e+03
2.940000e-06	-5.681677e-06	-2.573916e-08	-4.146220e+01	-1.684073e+03
