# Temperatura_=_77.08
# Concentracion g/m^3_=_28200.0
# C_Vs_to_Am_M_A/Vsm_=_65563218390.804596
# pendiente_HvsI_1/m_=_3716.3
# ordenada_HvsI_A/m_=_1297.0
# frecuencia_Hz_=_302369.9349497329

Tiempo_(s)	Campo_(V.s)	Magnetizacion_(V.s)	Campo_(kA/m)	Magnetizacion_(A/m)
0.000000e+00	-7.274424e-06	-2.724723e-08	-5.319640e+01	-1.783890e+03
1.000000e-08	-7.270980e-06	-2.724189e-08	-5.317121e+01	-1.783322e+03
2.000000e-08	-7.265137e-06	-2.722999e-08	-5.312848e+01	-1.782585e+03
3.000000e-08	-7.256955e-06	-2.721524e-08	-5.306865e+01	-1.781700e+03
4.000000e-08	-7.246209e-06	-2.719754e-08	-5.299007e+01	-1.780678e+03
5.000000e-08	-7.232708e-06	-2.717696e-08	-5.289134e+01	-1.779518e+03
6.000000e-08	-7.216527e-06	-2.715656e-08	-5.277301e+01	-1.778209e+03
7.000000e-08	-7.198062e-06	-2.713689e-08	-5.263798e+01	-1.776733e+03
8.000000e-08	-7.177596e-06	-2.711737e-08	-5.248832e+01	-1.775072e+03
9.000000e-08	-7.154697e-06	-2.711932e-08	-5.232086e+01	-1.773222e+03
1.000000e-07	-7.128826e-06	-2.710318e-08	-5.213167e+01	-1.771196e+03
1.100000e-07	-7.100072e-06	-2.702890e-08	-5.192139e+01	-1.769023e+03
1.200000e-07	-7.068871e-06	-2.696850e-08	-5.169323e+01	-1.766745e+03
1.300000e-07	-7.035252e-06	-2.693120e-08	-5.144738e+01	-1.764400e+03
1.400000e-07	-6.999307e-06	-2.688131e-08	-5.118452e+01	-1.762016e+03
1.500000e-07	-6.961474e-06	-2.681816e-08	-5.090786e+01	-1.759590e+03
1.600000e-07	-6.921667e-06	-2.681548e-08	-5.061676e+01	-1.757090e+03
1.700000e-07	-6.879439e-06	-2.679716e-08	-5.030795e+01	-1.754455e+03
1.800000e-07	-6.834780e-06	-2.666837e-08	-4.998137e+01	-1.751604e+03
1.900000e-07	-6.787608e-06	-2.664833e-08	-4.963641e+01	-1.748455e+03
2.000000e-07	-6.737613e-06	-2.659383e-08	-4.927081e+01	-1.744942e+03
2.100000e-07	-6.684945e-06	-2.649798e-08	-4.888566e+01	-1.741031e+03
2.200000e-07	-6.629832e-06	-2.647527e-08	-4.848263e+01	-1.736725e+03
2.300000e-07	-6.572237e-06	-2.639926e-08	-4.806145e+01	-1.732063e+03
2.400000e-07	-6.512172e-06	-2.632958e-08	-4.762220e+01	-1.727106e+03
2.500000e-07	-6.449721e-06	-2.623253e-08	-4.716551e+01	-1.721924e+03
2.600000e-07	-6.384861e-06	-2.615075e-08	-4.669120e+01	-1.716568e+03
2.700000e-07	-6.317551e-06	-2.607086e-08	-4.619898e+01	-1.711064e+03
2.800000e-07	-6.247878e-06	-2.597568e-08	-4.568947e+01	-1.705402e+03
2.900000e-07	-6.175867e-06	-2.589448e-08	-4.516288e+01	-1.699543e+03
3.000000e-07	-6.101340e-06	-2.579534e-08	-4.461787e+01	-1.693425e+03
3.100000e-07	-6.024289e-06	-2.569973e-08	-4.405441e+01	-1.686989e+03
3.200000e-07	-5.944755e-06	-2.558934e-08	-4.347279e+01	-1.680190e+03
3.300000e-07	-5.862930e-06	-2.547174e-08	-4.287443e+01	-1.673011e+03
3.400000e-07	-5.779146e-06	-2.536436e-08	-4.226173e+01	-1.665460e+03
3.500000e-07	-5.693469e-06	-2.524527e-08	-4.163519e+01	-1.657573e+03
3.600000e-07	-5.605893e-06	-2.512714e-08	-4.099477e+01	-1.649390e+03
3.700000e-07	-5.516263e-06	-2.499604e-08	-4.033932e+01	-1.640940e+03
3.800000e-07	-5.424519e-06	-2.485897e-08	-3.966841e+01	-1.632233e+03
3.900000e-07	-5.330879e-06	-2.471878e-08	-3.898365e+01	-1.623244e+03
4.000000e-07	-5.235432e-06	-2.456943e-08	-3.828566e+01	-1.613924e+03
4.100000e-07	-5.138102e-06	-2.442119e-08	-3.757391e+01	-1.604206e+03
4.200000e-07	-5.038912e-06	-2.426507e-08	-3.684855e+01	-1.594024e+03
4.300000e-07	-4.938006e-06	-2.410698e-08	-3.611064e+01	-1.583330e+03
4.400000e-07	-4.835365e-06	-2.393520e-08	-3.536005e+01	-1.572106e+03
4.500000e-07	-4.731038e-06	-2.375548e-08	-3.459712e+01	-1.560363e+03
4.600000e-07	-4.624944e-06	-2.356993e-08	-3.382128e+01	-1.548135e+03
4.700000e-07	-4.517133e-06	-2.337474e-08	-3.303288e+01	-1.535459e+03
4.800000e-07	-4.407822e-06	-2.317564e-08	-3.223351e+01	-1.522362e+03
4.900000e-07	-4.296938e-06	-2.297043e-08	-3.142264e+01	-1.508838e+03
5.000000e-07	-4.184484e-06	-2.275636e-08	-3.060029e+01	-1.494844e+03
5.100000e-07	-4.070266e-06	-2.252834e-08	-2.976504e+01	-1.480305e+03
5.200000e-07	-3.954262e-06	-2.229179e-08	-2.891672e+01	-1.465122e+03
5.300000e-07	-3.836774e-06	-2.204496e-08	-2.805756e+01	-1.449200e+03
5.400000e-07	-3.717824e-06	-2.178797e-08	-2.718770e+01	-1.432461e+03
5.500000e-07	-3.597556e-06	-2.151928e-08	-2.630820e+01	-1.414863e+03
5.600000e-07	-3.475989e-06	-2.123778e-08	-2.541921e+01	-1.396400e+03
5.700000e-07	-3.352964e-06	-2.094373e-08	-2.451955e+01	-1.377088e+03
5.800000e-07	-3.228684e-06	-2.063527e-08	-2.361071e+01	-1.356952e+03
5.900000e-07	-3.103279e-06	-2.031605e-08	-2.269366e+01	-1.335992e+03
6.000000e-07	-2.976746e-06	-1.998280e-08	-2.176834e+01	-1.314166e+03
6.100000e-07	-2.849104e-06	-1.963468e-08	-2.083492e+01	-1.291379e+03
6.200000e-07	-2.720486e-06	-1.926765e-08	-1.989437e+01	-1.267485e+03
6.300000e-07	-2.590844e-06	-1.888035e-08	-1.894632e+01	-1.242305e+03
6.400000e-07	-2.460062e-06	-1.846914e-08	-1.798994e+01	-1.215649e+03
6.500000e-07	-2.328296e-06	-1.803227e-08	-1.702636e+01	-1.187347e+03
6.600000e-07	-2.195842e-06	-1.757449e-08	-1.605775e+01	-1.157264e+03
6.700000e-07	-2.062797e-06	-1.709282e-08	-1.508482e+01	-1.125301e+03
6.800000e-07	-1.929028e-06	-1.658198e-08	-1.410659e+01	-1.091382e+03
6.900000e-07	-1.794593e-06	-1.603681e-08	-1.312350e+01	-1.055422e+03
7.000000e-07	-1.659474e-06	-1.545510e-08	-1.213540e+01	-1.017295e+03
7.100000e-07	-1.523694e-06	-1.483256e-08	-1.114247e+01	-9.768084e+02
7.200000e-07	-1.387470e-06	-1.416850e-08	-1.014629e+01	-9.336966e+02
7.300000e-07	-1.250887e-06	-1.346066e-08	-9.147487e+00	-8.876410e+02
7.400000e-07	-1.113960e-06	-1.270464e-08	-8.146163e+00	-8.383184e+02
7.500000e-07	-9.765825e-07	-1.189697e-08	-7.141551e+00	-7.854686e+02
7.600000e-07	-8.387532e-07	-1.103633e-08	-6.133633e+00	-7.289662e+02
7.700000e-07	-7.005855e-07	-1.012500e-08	-5.123241e+00	-6.688781e+02
7.800000e-07	-5.621185e-07	-9.163178e-09	-4.110660e+00	-6.054900e+02
7.900000e-07	-4.233986e-07	-8.159540e-09	-3.096228e+00	-5.392883e+02
8.000000e-07	-2.845050e-07	-7.122438e-09	-2.080528e+00	-4.708970e+02
8.100000e-07	-1.454200e-07	-6.057825e-09	-1.063427e+00	-4.009788e+02
8.200000e-07	-6.152430e-09	-4.974254e-09	-4.499148e-02	-3.301199e+02
8.300000e-07	1.331181e-07	-3.881499e-09	9.734659e-01	-2.587236e+02
8.400000e-07	2.722986e-07	-2.785354e-09	1.991265e+00	-1.869400e+02
8.500000e-07	4.113917e-07	-1.683799e-09	3.008425e+00	-1.146494e+02
8.600000e-07	5.503449e-07	-5.736305e-10	4.024562e+00	-4.150903e+01
8.700000e-07	6.890464e-07	5.523869e-10	5.038857e+00	3.294332e+01
8.800000e-07	8.274369e-07	1.705403e-09	6.050879e+00	1.091489e+02
8.900000e-07	9.654943e-07	2.892895e-09	7.060465e+00	1.873789e+02
9.000000e-07	1.103172e-06	4.113438e-09	8.067274e+00	2.676086e+02
9.100000e-07	1.240437e-06	5.361318e-09	9.071064e+00	3.494446e+02
9.200000e-07	1.377338e-06	6.625909e-09	1.007220e+01	4.321196e+02
9.300000e-07	1.513825e-06	7.888383e-09	1.107030e+01	5.145601e+02
9.400000e-07	1.649726e-06	9.125837e-09	1.206412e+01	5.955135e+02
9.500000e-07	1.784979e-06	1.031333e-08	1.305319e+01	6.737084e+02
9.600000e-07	1.919563e-06	1.143338e-08	1.403738e+01	7.480189e+02
9.700000e-07	2.053375e-06	1.247910e-08	1.501592e+01	8.175987e+02
9.800000e-07	2.186450e-06	1.344941e-08	1.598907e+01	8.819631e+02
9.900000e-07	2.318846e-06	1.434185e-08	1.695725e+01	9.410060e+02
1.000000e-06	2.450360e-06	1.515916e-08	1.791899e+01	9.949538e+02
1.010000e-06	2.580813e-06	1.590806e-08	1.887296e+01	1.044273e+03
1.020000e-06	2.710234e-06	1.659888e-08	1.981940e+01	1.089555e+03
1.030000e-06	2.838702e-06	1.723894e-08	2.075885e+01	1.131398e+03
1.040000e-06	2.966133e-06	1.783163e-08	2.169073e+01	1.170323e+03
1.050000e-06	3.092395e-06	1.838314e-08	2.261407e+01	1.206719e+03
1.060000e-06	3.217582e-06	1.889667e-08	2.352953e+01	1.240838e+03
1.070000e-06	3.341802e-06	1.937473e-08	2.443793e+01	1.272821e+03
1.080000e-06	3.464833e-06	1.982079e-08	2.533763e+01	1.302746e+03
1.090000e-06	3.586529e-06	2.024037e-08	2.622756e+01	1.330684e+03
1.100000e-06	3.706914e-06	2.063692e-08	2.710792e+01	1.356734e+03
1.110000e-06	3.825943e-06	2.101021e-08	2.797835e+01	1.381045e+03
1.120000e-06	3.943655e-06	2.136028e-08	2.883915e+01	1.403814e+03
1.130000e-06	4.059944e-06	2.169262e-08	2.968955e+01	1.425256e+03
1.140000e-06	4.174571e-06	2.200767e-08	3.052779e+01	1.445576e+03
1.150000e-06	4.287535e-06	2.230292e-08	3.135388e+01	1.464936e+03
1.160000e-06	4.398927e-06	2.258126e-08	3.216847e+01	1.483438e+03
1.170000e-06	4.508749e-06	2.284451e-08	3.297157e+01	1.501120e+03
1.180000e-06	4.617116e-06	2.309473e-08	3.376404e+01	1.517974e+03
1.190000e-06	4.723929e-06	2.333463e-08	3.454514e+01	1.533967e+03
1.200000e-06	4.829013e-06	2.356283e-08	3.531360e+01	1.549078e+03
1.210000e-06	4.932290e-06	2.377918e-08	3.606884e+01	1.563313e+03
1.220000e-06	5.033760e-06	2.398328e-08	3.681087e+01	1.576721e+03
1.230000e-06	5.133420e-06	2.417653e-08	3.753967e+01	1.589386e+03
1.240000e-06	5.231119e-06	2.436047e-08	3.825412e+01	1.601416e+03
1.250000e-06	5.326813e-06	2.453604e-08	3.895391e+01	1.612914e+03
1.260000e-06	5.420621e-06	2.470457e-08	3.963991e+01	1.623962e+03
1.270000e-06	5.512599e-06	2.486584e-08	4.031253e+01	1.634602e+03
1.280000e-06	5.602572e-06	2.501972e-08	4.097048e+01	1.644834e+03
1.290000e-06	5.690391e-06	2.516659e-08	4.161268e+01	1.654626e+03
1.300000e-06	5.776162e-06	2.530732e-08	4.223991e+01	1.663929e+03
1.310000e-06	5.860018e-06	2.544132e-08	4.285313e+01	1.672700e+03
1.320000e-06	5.941787e-06	2.556825e-08	4.345109e+01	1.680919e+03
1.330000e-06	6.021352e-06	2.568864e-08	4.403294e+01	1.688599e+03
1.340000e-06	6.098694e-06	2.580267e-08	4.459852e+01	1.695785e+03
1.350000e-06	6.173699e-06	2.590821e-08	4.514702e+01	1.702547e+03
1.360000e-06	6.246312e-06	2.600656e-08	4.567802e+01	1.708960e+03
1.370000e-06	6.316661e-06	2.609994e-08	4.619247e+01	1.715087e+03
1.380000e-06	6.384824e-06	2.618960e-08	4.669093e+01	1.720974e+03
1.390000e-06	6.450694e-06	2.627581e-08	4.717262e+01	1.726633e+03
1.400000e-06	6.514221e-06	2.635756e-08	4.763719e+01	1.732057e+03
1.410000e-06	6.575490e-06	2.643380e-08	4.808524e+01	1.737220e+03
1.420000e-06	6.634533e-06	2.650459e-08	4.851700e+01	1.742098e+03
1.430000e-06	6.691196e-06	2.657225e-08	4.893137e+01	1.746674e+03
1.440000e-06	6.745462e-06	2.663814e-08	4.932821e+01	1.750950e+03
1.450000e-06	6.797104e-06	2.670316e-08	4.970585e+01	1.754941e+03
1.460000e-06	6.845864e-06	2.676609e-08	5.006243e+01	1.758676e+03
1.470000e-06	6.892053e-06	2.682514e-08	5.040020e+01	1.762184e+03
1.480000e-06	6.935941e-06	2.687842e-08	5.072114e+01	1.765485e+03
1.490000e-06	6.977358e-06	2.692403e-08	5.102402e+01	1.768584e+03
1.500000e-06	7.016240e-06	2.696347e-08	5.130835e+01	1.771472e+03
1.510000e-06	7.052776e-06	2.700046e-08	5.157553e+01	1.774124e+03
1.520000e-06	7.086892e-06	2.703626e-08	5.182502e+01	1.776516e+03
1.530000e-06	7.118396e-06	2.706920e-08	5.205539e+01	1.778628e+03
1.540000e-06	7.147371e-06	2.709693e-08	5.226728e+01	1.780455e+03
1.550000e-06	7.173788e-06	2.712146e-08	5.246046e+01	1.782011e+03
1.560000e-06	7.197457e-06	2.714484e-08	5.263355e+01	1.783321e+03
1.570000e-06	7.218581e-06	2.716484e-08	5.278803e+01	1.784421e+03
1.580000e-06	7.237290e-06	2.718061e-08	5.292485e+01	1.785343e+03
1.590000e-06	7.253316e-06	2.719322e-08	5.304204e+01	1.786111e+03
1.600000e-06	7.266549e-06	2.720197e-08	5.313881e+01	1.786732e+03
1.610000e-06	7.276944e-06	2.720845e-08	5.321482e+01	1.787198e+03
1.620000e-06	7.284513e-06	2.721323e-08	5.327018e+01	1.787493e+03
1.630000e-06	7.289526e-06	2.721585e-08	5.330683e+01	1.787597e+03
1.640000e-06	7.292037e-06	2.721708e-08	5.332520e+01	1.787496e+03
1.650000e-06	7.291932e-06	2.721695e-08	5.332443e+01	1.787189e+03
1.660000e-06	7.289376e-06	2.721056e-08	5.330574e+01	1.786686e+03
1.670000e-06	7.284440e-06	2.720034e-08	5.326965e+01	1.786006e+03
1.680000e-06	7.277019e-06	2.719140e-08	5.321538e+01	1.785171e+03
1.690000e-06	7.267196e-06	2.717813e-08	5.314354e+01	1.784196e+03
1.700000e-06	7.254849e-06	2.716040e-08	5.305325e+01	1.783086e+03
1.710000e-06	7.239932e-06	2.714259e-08	5.294416e+01	1.781832e+03
1.720000e-06	7.222727e-06	2.712595e-08	5.281835e+01	1.780417e+03
1.730000e-06	7.203397e-06	2.709327e-08	5.267699e+01	1.778822e+03
1.740000e-06	7.181575e-06	2.701200e-08	5.251741e+01	1.777039e+03
1.750000e-06	7.156580e-06	2.698228e-08	5.233463e+01	1.775072e+03
1.760000e-06	7.128227e-06	2.699852e-08	5.212729e+01	1.772947e+03
1.770000e-06	7.096984e-06	2.697454e-08	5.189882e+01	1.770701e+03
1.780000e-06	7.063513e-06	2.694497e-08	5.165405e+01	1.768375e+03
1.790000e-06	7.028336e-06	2.695757e-08	5.139680e+01	1.766003e+03
1.800000e-06	6.991676e-06	2.689206e-08	5.112872e+01	1.763593e+03
1.810000e-06	6.952851e-06	2.679654e-08	5.084480e+01	1.761125e+03
1.820000e-06	6.911261e-06	2.685493e-08	5.054066e+01	1.758546e+03
1.830000e-06	6.867314e-06	2.678282e-08	5.021929e+01	1.755781e+03
1.840000e-06	6.820977e-06	2.675739e-08	4.988043e+01	1.752746e+03
1.850000e-06	6.772096e-06	2.675163e-08	4.952298e+01	1.749369e+03
1.860000e-06	6.720676e-06	2.661824e-08	4.914695e+01	1.745601e+03
1.870000e-06	6.666493e-06	2.659933e-08	4.875072e+01	1.741432e+03
1.880000e-06	6.609818e-06	2.649142e-08	4.833627e+01	1.736890e+03
1.890000e-06	6.550698e-06	2.643501e-08	4.790393e+01	1.732030e+03
1.900000e-06	6.489002e-06	2.639289e-08	4.745277e+01	1.726920e+03
1.910000e-06	6.424841e-06	2.627708e-08	4.698357e+01	1.721621e+03
1.920000e-06	6.358257e-06	2.623383e-08	4.649665e+01	1.716168e+03
1.930000e-06	6.289367e-06	2.610978e-08	4.599288e+01	1.710566e+03
1.940000e-06	6.218067e-06	2.603146e-08	4.547147e+01	1.704782e+03
1.950000e-06	6.144343e-06	2.594193e-08	4.493234e+01	1.698763e+03
1.960000e-06	6.068089e-06	2.583086e-08	4.437472e+01	1.692447e+03
1.970000e-06	5.989251e-06	2.575797e-08	4.379819e+01	1.685781e+03
1.980000e-06	5.908225e-06	2.562473e-08	4.320566e+01	1.678736e+03
1.990000e-06	5.825178e-06	2.553593e-08	4.259836e+01	1.671315e+03
2.000000e-06	5.740100e-06	2.540389e-08	4.197620e+01	1.663543e+03
2.010000e-06	5.652901e-06	2.528254e-08	4.133853e+01	1.655460e+03
2.020000e-06	5.563658e-06	2.516387e-08	4.068591e+01	1.647102e+03
2.030000e-06	5.472524e-06	2.502729e-08	4.001947e+01	1.638487e+03
2.040000e-06	5.379491e-06	2.490558e-08	3.933914e+01	1.629603e+03
2.050000e-06	5.284502e-06	2.475371e-08	3.864450e+01	1.620408e+03
2.060000e-06	5.187647e-06	2.461196e-08	3.793622e+01	1.610839e+03
2.070000e-06	5.089121e-06	2.444687e-08	3.721572e+01	1.600828e+03
2.080000e-06	4.988821e-06	2.429072e-08	3.648225e+01	1.590321e+03
2.090000e-06	4.886603e-06	2.412434e-08	3.573474e+01	1.579286e+03
2.100000e-06	4.782542e-06	2.395299e-08	3.497376e+01	1.567724e+03
2.110000e-06	4.676890e-06	2.377650e-08	3.420115e+01	1.555664e+03
2.120000e-06	4.569710e-06	2.358632e-08	3.341737e+01	1.543143e+03
2.130000e-06	4.460965e-06	2.338948e-08	3.262214e+01	1.530195e+03
2.140000e-06	4.350583e-06	2.317980e-08	3.181494e+01	1.516825e+03
2.150000e-06	4.238514e-06	2.297105e-08	3.099540e+01	1.503006e+03
2.160000e-06	4.124837e-06	2.275107e-08	3.016410e+01	1.488671e+03
2.170000e-06	4.009481e-06	2.252776e-08	2.932053e+01	1.473729e+03
2.180000e-06	3.892531e-06	2.228978e-08	2.846530e+01	1.458081e+03
2.190000e-06	3.773949e-06	2.204095e-08	2.759813e+01	1.441640e+03
2.200000e-06	3.653805e-06	2.177784e-08	2.671954e+01	1.424350e+03
2.210000e-06	3.532359e-06	2.150499e-08	2.583143e+01	1.406194e+03
2.220000e-06	3.409591e-06	2.122181e-08	2.493365e+01	1.387182e+03
2.230000e-06	3.285549e-06	2.092545e-08	2.402656e+01	1.367338e+03
2.240000e-06	3.160405e-06	2.061254e-08	2.311141e+01	1.346673e+03
2.250000e-06	3.034015e-06	2.028057e-08	2.218714e+01	1.325164e+03
2.260000e-06	2.906305e-06	1.993474e-08	2.125323e+01	1.302734e+03
2.270000e-06	2.777561e-06	1.957315e-08	2.031174e+01	1.279254e+03
2.280000e-06	2.647897e-06	1.919756e-08	1.936354e+01	1.254554e+03
2.290000e-06	2.517280e-06	1.880232e-08	1.840836e+01	1.228445e+03
2.300000e-06	2.385742e-06	1.838474e-08	1.744645e+01	1.200748e+03
2.310000e-06	2.253459e-06	1.793766e-08	1.647909e+01	1.171314e+03
2.320000e-06	2.120555e-06	1.746156e-08	1.550719e+01	1.140031e+03
2.330000e-06	1.986976e-06	1.695521e-08	1.453036e+01	1.106819e+03
2.340000e-06	1.852649e-06	1.641858e-08	1.354805e+01	1.071598e+03
2.350000e-06	1.717509e-06	1.585170e-08	1.255980e+01	1.034263e+03
2.360000e-06	1.581616e-06	1.524954e-08	1.156604e+01	9.946449e+02
2.370000e-06	1.445218e-06	1.460598e-08	1.056859e+01	9.525046e+02
2.380000e-06	1.308473e-06	1.391596e-08	9.568602e+00	9.075378e+02
2.390000e-06	1.171384e-06	1.317937e-08	8.566094e+00	8.594160e+02
2.400000e-06	1.033933e-06	1.239190e-08	7.560941e+00	8.078481e+02
2.410000e-06	8.961004e-07	1.155057e-08	6.553001e+00	7.526527e+02
2.420000e-06	7.579679e-07	1.065672e-08	5.542867e+00	6.938232e+02
2.430000e-06	6.195938e-07	9.713074e-09	4.530964e+00	6.315666e+02
2.440000e-06	4.809394e-07	8.721752e-09	3.517013e+00	5.663028e+02
2.450000e-06	3.420707e-07	7.687899e-09	2.501494e+00	4.986163e+02
2.460000e-06	2.030624e-07	6.623626e-09	1.484955e+00	4.291690e+02
2.470000e-06	6.399324e-08	5.540152e-09	4.679697e-01	3.585876e+02
2.480000e-06	-7.513195e-08	4.445284e-09	-5.494248e-01	2.873512e+02
2.490000e-06	-2.142702e-07	3.343508e-09	-1.566915e+00	2.157052e+02
2.500000e-06	-3.533370e-07	2.236273e-09	-2.583882e+00	1.436244e+02
2.510000e-06	-4.923128e-07	1.122704e-09	-3.600184e+00	7.083646e+01
2.520000e-06	-6.311515e-07	-3.011435e-12	-4.615484e+00	-3.093029e+00
2.530000e-06	-7.697620e-07	-1.150008e-09	-5.629114e+00	-7.863017e+01
2.540000e-06	-9.080073e-07	-2.326953e-09	-6.640074e+00	-1.561231e+02
2.550000e-06	-1.045854e-06	-3.537278e-09	-7.648123e+00	-2.356645e+02
2.560000e-06	-1.183291e-06	-4.778831e-09	-8.653167e+00	-3.169970e+02
2.570000e-06	-1.320352e-06	-6.043476e-09	-9.655466e+00	-3.994826e+02
2.580000e-06	-1.457096e-06	-7.315697e-09	-1.065545e+01	-4.821453e+02
2.590000e-06	-1.593413e-06	-8.574633e-09	-1.165231e+01	-5.637790e+02
2.600000e-06	-1.729047e-06	-9.796740e-09	-1.264417e+01	-6.430999e+02
2.610000e-06	-1.863874e-06	-1.095859e-08	-1.363013e+01	-7.189124e+02
2.620000e-06	-1.997902e-06	-1.204460e-08	-1.461026e+01	-7.902579e+02
2.630000e-06	-2.131185e-06	-1.305140e-08	-1.558492e+01	-8.565172e+02
2.640000e-06	-2.263765e-06	-1.397936e-08	-1.655446e+01	-9.174510e+02
2.650000e-06	-2.395502e-06	-1.483234e-08	-1.751782e+01	-9.731757e+02
2.660000e-06	-2.526283e-06	-1.561623e-08	-1.847420e+01	-1.024085e+03
2.670000e-06	-2.656131e-06	-1.633897e-08	-1.942375e+01	-1.070739e+03
2.680000e-06	-2.785089e-06	-1.700767e-08	-2.036679e+01	-1.113746e+03
2.690000e-06	-2.913102e-06	-1.762648e-08	-2.130293e+01	-1.153661e+03
2.700000e-06	-3.039966e-06	-1.820287e-08	-2.223066e+01	-1.190926e+03
2.710000e-06	-3.165680e-06	-1.873934e-08	-2.314998e+01	-1.225837e+03
2.720000e-06	-3.290289e-06	-1.923670e-08	-2.406122e+01	-1.258572e+03
2.730000e-06	-3.413615e-06	-1.969902e-08	-2.496308e+01	-1.289226e+03
2.740000e-06	-3.535663e-06	-2.013104e-08	-2.585559e+01	-1.317865e+03
2.750000e-06	-3.656613e-06	-2.053844e-08	-2.674008e+01	-1.344575e+03
2.760000e-06	-3.776222e-06	-2.092295e-08	-2.761475e+01	-1.369488e+03
2.770000e-06	-3.894245e-06	-2.128427e-08	-2.847783e+01	-1.392784e+03
2.780000e-06	-4.010844e-06	-2.162296e-08	-2.933050e+01	-1.414676e+03
2.790000e-06	-4.125915e-06	-2.194263e-08	-3.017198e+01	-1.435376e+03
2.800000e-06	-4.239176e-06	-2.224455e-08	-3.100024e+01	-1.455065e+03
2.810000e-06	-4.350730e-06	-2.252977e-08	-3.181602e+01	-1.473866e+03
2.820000e-06	-4.460730e-06	-2.280081e-08	-3.262042e+01	-1.491841e+03
2.830000e-06	-4.569221e-06	-2.305968e-08	-3.341379e+01	-1.508994e+03
2.840000e-06	-4.676288e-06	-2.330801e-08	-3.419675e+01	-1.525299e+03
2.850000e-06	-4.781784e-06	-2.354537e-08	-3.496822e+01	-1.540727e+03
2.860000e-06	-4.885450e-06	-2.377078e-08	-3.572631e+01	-1.555272e+03
2.870000e-06	-4.987255e-06	-2.398448e-08	-3.647079e+01	-1.568968e+03
2.880000e-06	-5.087237e-06	-2.418676e-08	-3.720194e+01	-1.581887e+03
2.890000e-06	-5.185426e-06	-2.437773e-08	-3.791998e+01	-1.594132e+03
2.900000e-06	-5.281826e-06	-2.455921e-08	-3.862493e+01	-1.605810e+03
2.910000e-06	-5.376273e-06	-2.473130e-08	-3.931560e+01	-1.617012e+03
2.920000e-06	-5.468755e-06	-2.489307e-08	-3.999190e+01	-1.627797e+03
2.930000e-06	-5.559347e-06	-2.504701e-08	-4.065438e+01	-1.638178e+03
2.940000e-06	-5.647932e-06	-2.519557e-08	-4.130219e+01	-1.648133e+03
