# Temperatura_=_29.78
# Concentracion g/m^3_=_28200.0
# C_Vs_to_Am_M_A/Vsm_=_65563218390.804596
# pendiente_HvsI_1/m_=_3716.3
# ordenada_HvsI_A/m_=_1297.0
# frecuencia_Hz_=_302373.8441106018

Tiempo_(s)	Campo_(V.s)	Magnetizacion_(V.s)	Campo_(kA/m)	Magnetizacion_(A/m)
0.000000e+00	-7.376570e-06	-2.106441e-08	-5.318727e+01	-1.379381e+03
1.000000e-08	-7.372638e-06	-2.105836e-08	-5.315892e+01	-1.378950e+03
2.000000e-08	-7.366329e-06	-2.104914e-08	-5.311344e+01	-1.378365e+03
3.000000e-08	-7.357600e-06	-2.104037e-08	-5.305050e+01	-1.377647e+03
4.000000e-08	-7.346249e-06	-2.102978e-08	-5.296865e+01	-1.376821e+03
5.000000e-08	-7.332129e-06	-2.101664e-08	-5.286684e+01	-1.375905e+03
6.000000e-08	-7.315355e-06	-2.100197e-08	-5.274589e+01	-1.374914e+03
7.000000e-08	-7.296378e-06	-2.098783e-08	-5.260907e+01	-1.373847e+03
8.000000e-08	-7.275268e-06	-2.098729e-08	-5.245686e+01	-1.372696e+03
9.000000e-08	-7.251560e-06	-2.098891e-08	-5.228592e+01	-1.371452e+03
1.000000e-07	-7.224885e-06	-2.094370e-08	-5.209358e+01	-1.370101e+03
1.100000e-07	-7.195332e-06	-2.088823e-08	-5.188050e+01	-1.368640e+03
1.200000e-07	-7.163153e-06	-2.086210e-08	-5.164848e+01	-1.367070e+03
1.300000e-07	-7.128499e-06	-2.084056e-08	-5.139861e+01	-1.365401e+03
1.400000e-07	-7.091714e-06	-2.080247e-08	-5.113337e+01	-1.363644e+03
1.500000e-07	-7.053149e-06	-2.076509e-08	-5.085531e+01	-1.361804e+03
1.600000e-07	-7.012459e-06	-2.076292e-08	-5.056192e+01	-1.359880e+03
1.700000e-07	-6.969240e-06	-2.070537e-08	-5.025030e+01	-1.357856e+03
1.800000e-07	-6.923605e-06	-2.063080e-08	-4.992126e+01	-1.355703e+03
1.900000e-07	-6.875344e-06	-2.061960e-08	-4.957329e+01	-1.353385e+03
2.000000e-07	-6.824152e-06	-2.058649e-08	-4.920418e+01	-1.350866e+03
2.100000e-07	-6.770328e-06	-2.055111e-08	-4.881609e+01	-1.348116e+03
2.200000e-07	-6.714005e-06	-2.053903e-08	-4.840998e+01	-1.345117e+03
2.300000e-07	-6.655106e-06	-2.050837e-08	-4.798531e+01	-1.341869e+03
2.400000e-07	-6.593790e-06	-2.042081e-08	-4.754320e+01	-1.338387e+03
2.500000e-07	-6.530094e-06	-2.033035e-08	-4.708393e+01	-1.334696e+03
2.600000e-07	-6.463877e-06	-2.028007e-08	-4.660649e+01	-1.330823e+03
2.700000e-07	-6.395153e-06	-2.020831e-08	-4.611097e+01	-1.326787e+03
2.800000e-07	-6.324028e-06	-2.013964e-08	-4.559813e+01	-1.322598e+03
2.900000e-07	-6.250403e-06	-2.008776e-08	-4.506727e+01	-1.318252e+03
3.000000e-07	-6.174248e-06	-2.002347e-08	-4.451817e+01	-1.313731e+03
3.100000e-07	-6.095492e-06	-1.993766e-08	-4.395032e+01	-1.309011e+03
3.200000e-07	-6.014319e-06	-1.985438e-08	-4.336504e+01	-1.304066e+03
3.300000e-07	-5.931146e-06	-1.979184e-08	-4.276533e+01	-1.298878e+03
3.400000e-07	-5.846044e-06	-1.971333e-08	-4.215172e+01	-1.293433e+03
3.500000e-07	-5.758976e-06	-1.962797e-08	-4.152394e+01	-1.287731e+03
3.600000e-07	-5.669829e-06	-1.953664e-08	-4.088116e+01	-1.281772e+03
3.700000e-07	-5.578581e-06	-1.943745e-08	-4.022323e+01	-1.275559e+03
3.800000e-07	-5.485349e-06	-1.933566e-08	-3.955100e+01	-1.269090e+03
3.900000e-07	-5.390220e-06	-1.923341e-08	-3.886510e+01	-1.262352e+03
4.000000e-07	-5.293123e-06	-1.912957e-08	-3.816500e+01	-1.255325e+03
4.100000e-07	-5.194059e-06	-1.901056e-08	-3.745071e+01	-1.247983e+03
4.200000e-07	-5.093200e-06	-1.889010e-08	-3.672350e+01	-1.240301e+03
4.300000e-07	-4.990605e-06	-1.876459e-08	-3.598376e+01	-1.232258e+03
4.400000e-07	-4.886200e-06	-1.863212e-08	-3.523096e+01	-1.223842e+03
4.500000e-07	-4.780070e-06	-1.849441e-08	-3.446573e+01	-1.215054e+03
4.600000e-07	-4.672223e-06	-1.835863e-08	-3.368812e+01	-1.205898e+03
4.700000e-07	-4.562694e-06	-1.821777e-08	-3.289839e+01	-1.196379e+03
4.800000e-07	-4.451642e-06	-1.806387e-08	-3.209767e+01	-1.186494e+03
4.900000e-07	-4.338851e-06	-1.790774e-08	-3.128441e+01	-1.176222e+03
5.000000e-07	-4.224226e-06	-1.774672e-08	-3.045793e+01	-1.165528e+03
5.100000e-07	-4.107856e-06	-1.757468e-08	-2.961887e+01	-1.154359e+03
5.200000e-07	-3.989973e-06	-1.738824e-08	-2.876890e+01	-1.142654e+03
5.300000e-07	-3.870742e-06	-1.719568e-08	-2.790921e+01	-1.130353e+03
5.400000e-07	-3.750016e-06	-1.699714e-08	-2.703874e+01	-1.117405e+03
5.500000e-07	-3.627829e-06	-1.678678e-08	-2.615773e+01	-1.103776e+03
5.600000e-07	-3.504255e-06	-1.656379e-08	-2.526673e+01	-1.089448e+03
5.700000e-07	-3.379366e-06	-1.633164e-08	-2.436624e+01	-1.074416e+03
5.800000e-07	-3.253318e-06	-1.609358e-08	-2.345740e+01	-1.058672e+03
5.900000e-07	-3.126194e-06	-1.584857e-08	-2.254079e+01	-1.042197e+03
6.000000e-07	-2.997857e-06	-1.559330e-08	-2.161545e+01	-1.024951e+03
6.100000e-07	-2.868242e-06	-1.532042e-08	-2.068088e+01	-1.006862e+03
6.200000e-07	-2.737578e-06	-1.502702e-08	-1.973876e+01	-9.878338e+02
6.300000e-07	-2.605961e-06	-1.471255e-08	-1.878976e+01	-9.677516e+02
6.400000e-07	-2.473339e-06	-1.437899e-08	-1.783352e+01	-9.464932e+02
6.500000e-07	-2.339775e-06	-1.402861e-08	-1.687048e+01	-9.239425e+02
6.600000e-07	-2.205529e-06	-1.366229e-08	-1.590252e+01	-8.999960e+02
6.700000e-07	-2.070673e-06	-1.327774e-08	-1.493017e+01	-8.745622e+02
6.800000e-07	-1.935024e-06	-1.286676e-08	-1.395210e+01	-8.475527e+02
6.900000e-07	-1.798438e-06	-1.242942e-08	-1.296728e+01	-8.188666e+02
7.000000e-07	-1.661047e-06	-1.196432e-08	-1.197665e+01	-7.883759e+02
7.100000e-07	-1.523115e-06	-1.146738e-08	-1.098211e+01	-7.559157e+02
7.200000e-07	-1.384754e-06	-1.093816e-08	-9.984488e+00	-7.212884e+02
7.300000e-07	-1.245961e-06	-1.037271e-08	-8.983749e+00	-6.842832e+02
7.400000e-07	-1.106676e-06	-9.767768e-09	-7.979467e+00	-6.447112e+02
7.500000e-07	-9.669975e-07	-9.121556e-09	-6.972341e+00	-6.024512e+02
7.600000e-07	-8.269697e-07	-8.436489e-09	-5.962699e+00	-5.574941e+02
7.700000e-07	-6.865932e-07	-7.714817e-09	-4.950542e+00	-5.099767e+02
7.800000e-07	-5.459301e-07	-6.958560e-09	-3.936319e+00	-4.601922e+02
7.900000e-07	-4.050252e-07	-6.173031e-09	-2.920353e+00	-4.085714e+02
8.000000e-07	-2.639361e-07	-5.367869e-09	-1.903058e+00	-3.556326e+02
8.100000e-07	-1.227304e-07	-4.550153e-09	-8.849232e-01	-3.019085e+02
8.200000e-07	1.858448e-08	-3.725675e-09	1.339997e-01	-2.478621e+02
8.300000e-07	1.599742e-07	-2.900731e-09	1.153462e+00	-1.938095e+02
8.400000e-07	3.013336e-07	-2.077173e-09	2.172705e+00	-1.398665e+02
8.500000e-07	4.425843e-07	-1.255615e-09	3.191165e+00	-8.593367e+01
8.600000e-07	5.837165e-07	-4.328155e-10	4.208771e+00	-3.172559e+01
8.700000e-07	7.246469e-07	3.982232e-10	5.224921e+00	2.315837e+01
8.800000e-07	8.652837e-07	1.246694e-09	6.238954e+00	7.913399e+01
8.900000e-07	1.005600e-06	2.117421e-09	7.250675e+00	1.365218e+02
9.000000e-07	1.145518e-06	3.011380e-09	8.259525e+00	1.954484e+02
9.100000e-07	1.285012e-06	3.928152e-09	9.265319e+00	2.557799e+02
9.200000e-07	1.423986e-06	4.862816e-09	1.026737e+01	3.171017e+02
9.300000e-07	1.562406e-06	5.804185e-09	1.126541e+01	3.787483e+02
9.400000e-07	1.700300e-06	6.737627e-09	1.225967e+01	4.398789e+02
9.500000e-07	1.837532e-06	7.648087e-09	1.324915e+01	4.995829e+02
9.600000e-07	1.973917e-06	8.520156e-09	1.423253e+01	5.569955e+02
9.700000e-07	2.109360e-06	9.343252e-09	1.520912e+01	6.114010e+02
9.800000e-07	2.243939e-06	1.010988e-08	1.617947e+01	6.623069e+02
9.900000e-07	2.377763e-06	1.081774e-08	1.714438e+01	7.094760e+02
1.000000e-06	2.510780e-06	1.147165e-08	1.810347e+01	7.529160e+02
1.010000e-06	2.642864e-06	1.207652e-08	1.905584e+01	7.928326e+02
1.020000e-06	2.773923e-06	1.263588e-08	2.000082e+01	8.295595e+02
1.030000e-06	2.903977e-06	1.315394e-08	2.093854e+01	8.634830e+02
1.040000e-06	3.032970e-06	1.363330e-08	2.186862e+01	8.949747e+02
1.050000e-06	3.160744e-06	1.407957e-08	2.278991e+01	9.243465e+02
1.060000e-06	3.287348e-06	1.449565e-08	2.370276e+01	9.518303e+02
1.070000e-06	3.412851e-06	1.488631e-08	2.460768e+01	9.775832e+02
1.080000e-06	3.537229e-06	1.525237e-08	2.550448e+01	1.001709e+03
1.090000e-06	3.660400e-06	1.559378e-08	2.639258e+01	1.024288e+03
1.100000e-06	3.782255e-06	1.591275e-08	2.727119e+01	1.045402e+03
1.110000e-06	3.902668e-06	1.621204e-08	2.813940e+01	1.065153e+03
1.120000e-06	4.021613e-06	1.649471e-08	2.899703e+01	1.083665e+03
1.130000e-06	4.139199e-06	1.676084e-08	2.984486e+01	1.101077e+03
1.140000e-06	4.255296e-06	1.701305e-08	3.068195e+01	1.117522e+03
1.150000e-06	4.369687e-06	1.725269e-08	3.150675e+01	1.133116e+03
1.160000e-06	4.482350e-06	1.747721e-08	3.231908e+01	1.147944e+03
1.170000e-06	4.593365e-06	1.768722e-08	3.311954e+01	1.162052e+03
1.180000e-06	4.702847e-06	1.788739e-08	3.390893e+01	1.175459e+03
1.190000e-06	4.810773e-06	1.807768e-08	3.468711e+01	1.188167e+03
1.200000e-06	4.917001e-06	1.825827e-08	3.545304e+01	1.200178e+03
1.210000e-06	5.021392e-06	1.842952e-08	3.620574e+01	1.211504e+03
1.220000e-06	5.123885e-06	1.859307e-08	3.694474e+01	1.222179e+03
1.230000e-06	5.224596e-06	1.874804e-08	3.767090e+01	1.232253e+03
1.240000e-06	5.323460e-06	1.889419e-08	3.838374e+01	1.241786e+03
1.250000e-06	5.420250e-06	1.903362e-08	3.908163e+01	1.250839e+03
1.260000e-06	5.514913e-06	1.916742e-08	3.976417e+01	1.259458e+03
1.270000e-06	5.607649e-06	1.929250e-08	4.043283e+01	1.267668e+03
1.280000e-06	5.698493e-06	1.940953e-08	4.108784e+01	1.275474e+03
1.290000e-06	5.787198e-06	1.952145e-08	4.172743e+01	1.282865e+03
1.300000e-06	5.873760e-06	1.962598e-08	4.235157e+01	1.289828e+03
1.310000e-06	5.958308e-06	1.972211e-08	4.296118e+01	1.296356e+03
1.320000e-06	6.040837e-06	1.981327e-08	4.355624e+01	1.302460e+03
1.330000e-06	6.121179e-06	1.990079e-08	4.413553e+01	1.308176e+03
1.340000e-06	6.199223e-06	1.998544e-08	4.469825e+01	1.313555e+03
1.350000e-06	6.274933e-06	2.006518e-08	4.524414e+01	1.318662e+03
1.360000e-06	6.348188e-06	2.014067e-08	4.577233e+01	1.323557e+03
1.370000e-06	6.419080e-06	2.021257e-08	4.628349e+01	1.328283e+03
1.380000e-06	6.487718e-06	2.027997e-08	4.677839e+01	1.332861e+03
1.390000e-06	6.554007e-06	2.034526e-08	4.725635e+01	1.337285e+03
1.400000e-06	6.617918e-06	2.040817e-08	4.771716e+01	1.341527e+03
1.410000e-06	6.679571e-06	2.046811e-08	4.816170e+01	1.345549e+03
1.420000e-06	6.738964e-06	2.052316e-08	4.858995e+01	1.349312e+03
1.430000e-06	6.795953e-06	2.057531e-08	4.900086e+01	1.352791e+03
1.440000e-06	6.850509e-06	2.062519e-08	4.939422e+01	1.355983e+03
1.450000e-06	6.902453e-06	2.067187e-08	4.976875e+01	1.358903e+03
1.460000e-06	6.951554e-06	2.071508e-08	5.012278e+01	1.361584e+03
1.470000e-06	6.997987e-06	2.075538e-08	5.045758e+01	1.364066e+03
1.480000e-06	7.042064e-06	2.079373e-08	5.077539e+01	1.366384e+03
1.490000e-06	7.083632e-06	2.082703e-08	5.107511e+01	1.368560e+03
1.500000e-06	7.122566e-06	2.085537e-08	5.135583e+01	1.370601e+03
1.510000e-06	7.159093e-06	2.088103e-08	5.161920e+01	1.372495e+03
1.520000e-06	7.193100e-06	2.090559e-08	5.186440e+01	1.374221e+03
1.530000e-06	7.224479e-06	2.093094e-08	5.209065e+01	1.375757e+03
1.540000e-06	7.253402e-06	2.095385e-08	5.229919e+01	1.377089e+03
1.550000e-06	7.279750e-06	2.097210e-08	5.248917e+01	1.378215e+03
1.560000e-06	7.303368e-06	2.098857e-08	5.265947e+01	1.379148e+03
1.570000e-06	7.324419e-06	2.100342e-08	5.281125e+01	1.379915e+03
1.580000e-06	7.342983e-06	2.101381e-08	5.294510e+01	1.380546e+03
1.590000e-06	7.358839e-06	2.102100e-08	5.305943e+01	1.381067e+03
1.600000e-06	7.371806e-06	2.102775e-08	5.315292e+01	1.381494e+03
1.610000e-06	7.381831e-06	2.103367e-08	5.322521e+01	1.381828e+03
1.620000e-06	7.389023e-06	2.103761e-08	5.327706e+01	1.382059e+03
1.630000e-06	7.393662e-06	2.103957e-08	5.331052e+01	1.382165e+03
1.640000e-06	7.395699e-06	2.104108e-08	5.332520e+01	1.382124e+03
1.650000e-06	7.395060e-06	2.104098e-08	5.332059e+01	1.381919e+03
1.660000e-06	7.391991e-06	2.103499e-08	5.329847e+01	1.381547e+03
1.670000e-06	7.386447e-06	2.102673e-08	5.325849e+01	1.381015e+03
1.680000e-06	7.378400e-06	2.101790e-08	5.320047e+01	1.380341e+03
1.690000e-06	7.367987e-06	2.100795e-08	5.312539e+01	1.379550e+03
1.700000e-06	7.354986e-06	2.099659e-08	5.303165e+01	1.378664e+03
1.710000e-06	7.339421e-06	2.098410e-08	5.291942e+01	1.377698e+03
1.720000e-06	7.321613e-06	2.096563e-08	5.279102e+01	1.376658e+03
1.730000e-06	7.301667e-06	2.091501e-08	5.264720e+01	1.375538e+03
1.740000e-06	7.279016e-06	2.087269e-08	5.248388e+01	1.374328e+03
1.750000e-06	7.253014e-06	2.088720e-08	5.229640e+01	1.373016e+03
1.760000e-06	7.223683e-06	2.088839e-08	5.208491e+01	1.371594e+03
1.770000e-06	7.191637e-06	2.085679e-08	5.185385e+01	1.370062e+03
1.780000e-06	7.157530e-06	2.084378e-08	5.160793e+01	1.368426e+03
1.790000e-06	7.121702e-06	2.084885e-08	5.134960e+01	1.366699e+03
1.800000e-06	7.084124e-06	2.079354e-08	5.107865e+01	1.364888e+03
1.810000e-06	7.044132e-06	2.077165e-08	5.079030e+01	1.362995e+03
1.820000e-06	7.001588e-06	2.078813e-08	5.048354e+01	1.361008e+03
1.830000e-06	6.956820e-06	2.073716e-08	5.016075e+01	1.358905e+03
1.840000e-06	6.909478e-06	2.071401e-08	4.981940e+01	1.356650e+03
1.850000e-06	6.859493e-06	2.065994e-08	4.945899e+01	1.354206e+03
1.860000e-06	6.806832e-06	2.060245e-08	4.907929e+01	1.351540e+03
1.870000e-06	6.751393e-06	2.053320e-08	4.867956e+01	1.348631e+03
1.880000e-06	6.693547e-06	2.047621e-08	4.826247e+01	1.345470e+03
1.890000e-06	6.633120e-06	2.049256e-08	4.782678e+01	1.342069e+03
1.900000e-06	6.570024e-06	2.043282e-08	4.737184e+01	1.338449e+03
1.910000e-06	6.504483e-06	2.038284e-08	4.689927e+01	1.334637e+03
1.920000e-06	6.436591e-06	2.031769e-08	4.640974e+01	1.330657e+03
1.930000e-06	6.366312e-06	2.022357e-08	4.590301e+01	1.326523e+03
1.940000e-06	6.293504e-06	2.017097e-08	4.537804e+01	1.322234e+03
1.950000e-06	6.218204e-06	2.011678e-08	4.483511e+01	1.317777e+03
1.960000e-06	6.140297e-06	2.006682e-08	4.427337e+01	1.313131e+03
1.970000e-06	6.059944e-06	1.996909e-08	4.369401e+01	1.308268e+03
1.980000e-06	5.977545e-06	1.988993e-08	4.309988e+01	1.303168e+03
1.990000e-06	5.893040e-06	1.980489e-08	4.249058e+01	1.297815e+03
2.000000e-06	5.806265e-06	1.970925e-08	4.186490e+01	1.292204e+03
2.010000e-06	5.717326e-06	1.963379e-08	4.122363e+01	1.286336e+03
2.020000e-06	5.626500e-06	1.954688e-08	4.056875e+01	1.280213e+03
2.030000e-06	5.533718e-06	1.945308e-08	3.989976e+01	1.273836e+03
2.040000e-06	5.438887e-06	1.932964e-08	3.921600e+01	1.267195e+03
2.050000e-06	5.342177e-06	1.922913e-08	3.851870e+01	1.260274e+03
2.060000e-06	5.243771e-06	1.912803e-08	3.780915e+01	1.253048e+03
2.070000e-06	5.143606e-06	1.902090e-08	3.708693e+01	1.245489e+03
2.080000e-06	5.041426e-06	1.890269e-08	3.635019e+01	1.237576e+03
2.090000e-06	4.937273e-06	1.878061e-08	3.559921e+01	1.229294e+03
2.100000e-06	4.831393e-06	1.865238e-08	3.483579e+01	1.220638e+03
2.110000e-06	4.724079e-06	1.851116e-08	3.406202e+01	1.211612e+03
2.120000e-06	4.615267e-06	1.837423e-08	3.327745e+01	1.202222e+03
2.130000e-06	4.504723e-06	1.822098e-08	3.248040e+01	1.192468e+03
2.140000e-06	4.392412e-06	1.806148e-08	3.167060e+01	1.182337e+03
2.150000e-06	4.278444e-06	1.789380e-08	3.084886e+01	1.171799e+03
2.160000e-06	4.162761e-06	1.773269e-08	3.001475e+01	1.160806e+03
2.170000e-06	4.045223e-06	1.756387e-08	2.916726e+01	1.149299e+03
2.180000e-06	3.926066e-06	1.738646e-08	2.830811e+01	1.137216e+03
2.190000e-06	3.805419e-06	1.719589e-08	2.743821e+01	1.124504e+03
2.200000e-06	3.683395e-06	1.699353e-08	2.655838e+01	1.111120e+03
2.210000e-06	3.560139e-06	1.678128e-08	2.566966e+01	1.097043e+03
2.220000e-06	3.435529e-06	1.655782e-08	2.477119e+01	1.082262e+03
2.230000e-06	3.309520e-06	1.632438e-08	2.386262e+01	1.066773e+03
2.240000e-06	3.182297e-06	1.607169e-08	2.294531e+01	1.050562e+03
2.250000e-06	3.053892e-06	1.580710e-08	2.201947e+01	1.033597e+03
2.260000e-06	2.924350e-06	1.553283e-08	2.108544e+01	1.015819e+03
2.270000e-06	2.793856e-06	1.525232e-08	2.014454e+01	9.971382e+02
2.280000e-06	2.662500e-06	1.495915e-08	1.919742e+01	9.774460e+02
2.290000e-06	2.530112e-06	1.464959e-08	1.824286e+01	9.566210e+02
2.300000e-06	2.396572e-06	1.431446e-08	1.728000e+01	9.345439e+02
2.310000e-06	2.262191e-06	1.395401e-08	1.631107e+01	9.111064e+02
2.320000e-06	2.127160e-06	1.357434e-08	1.533746e+01	8.862134e+02
2.330000e-06	1.991406e-06	1.317725e-08	1.435863e+01	8.597767e+02
2.340000e-06	1.854902e-06	1.275733e-08	1.337439e+01	8.317019e+02
2.350000e-06	1.717769e-06	1.230759e-08	1.238563e+01	8.018721e+02
2.360000e-06	1.580119e-06	1.182305e-08	1.139313e+01	7.701361e+02
2.370000e-06	1.442042e-06	1.130039e-08	1.039756e+01	7.363064e+02
2.380000e-06	1.303553e-06	1.074280e-08	9.399009e+00	7.001736e+02
2.390000e-06	1.164601e-06	1.015308e-08	8.397122e+00	6.615363e+02
2.400000e-06	1.025245e-06	9.525661e-09	7.392320e+00	6.202436e+02
2.410000e-06	8.854734e-07	8.855151e-09	6.384528e+00	5.762415e+02
2.420000e-06	7.453161e-07	8.144494e-09	5.373952e+00	5.296124e+02
2.430000e-06	6.048091e-07	7.398660e-09	4.360854e+00	4.805940e+02
2.440000e-06	4.639370e-07	6.621116e-09	3.345124e+00	4.295723e+02
2.450000e-06	3.227924e-07	5.819518e-09	2.327430e+00	3.770415e+02
2.460000e-06	1.814973e-07	5.003007e-09	1.308650e+00	3.235388e+02
2.470000e-06	4.012089e-08	4.175756e-09	2.892836e-01	2.695616e+02
2.480000e-06	-1.012885e-07	3.347163e-09	-7.303203e-01	2.154863e+02
2.490000e-06	-2.426709e-07	2.522534e-09	-1.749730e+00	1.615041e+02
2.500000e-06	-3.840014e-07	1.697403e-09	-2.768765e+00	1.075913e+02
2.510000e-06	-5.251948e-07	8.674980e-10	-3.786812e+00	5.352299e+01
2.520000e-06	-6.661504e-07	2.877750e-11	-4.803143e+00	-1.070793e+00
2.530000e-06	-8.068453e-07	-8.219806e-10	-5.817596e+00	-5.661298e+01
2.540000e-06	-9.471828e-07	-1.688540e-09	-6.829471e+00	-1.134705e+02
2.550000e-06	-1.087036e-06	-2.576059e-09	-7.837857e+00	-1.718489e+02
2.560000e-06	-1.226392e-06	-3.487405e-09	-8.842652e+00	-2.317124e+02
2.570000e-06	-1.365295e-06	-4.421660e-09	-9.844188e+00	-2.927456e+02
2.580000e-06	-1.503732e-06	-5.369197e-09	-1.084236e+01	-3.543661e+02
2.590000e-06	-1.641639e-06	-6.314602e-09	-1.183670e+01	-4.157848e+02
2.600000e-06	-1.778896e-06	-7.240533e-09	-1.282637e+01	-4.761029e+02
2.610000e-06	-1.915465e-06	-8.133740e-09	-1.381108e+01	-5.344262e+02
2.620000e-06	-2.051327e-06	-8.982335e-09	-1.479068e+01	-5.899754e+02
2.630000e-06	-2.186429e-06	-9.779792e-09	-1.576481e+01	-6.421723e+02
2.640000e-06	-2.320781e-06	-1.052198e-08	-1.673352e+01	-6.906876e+02
2.650000e-06	-2.454244e-06	-1.120756e-08	-1.769583e+01	-7.354453e+02
2.660000e-06	-2.586582e-06	-1.184004e-08	-1.865003e+01	-7.765875e+02
2.670000e-06	-2.717857e-06	-1.242572e-08	-1.959656e+01	-8.144109e+02
2.680000e-06	-2.848220e-06	-1.296862e-08	-2.053651e+01	-8.492915e+02
2.690000e-06	-2.977632e-06	-1.346793e-08	-2.146962e+01	-8.816126e+02
2.700000e-06	-3.106020e-06	-1.392805e-08	-2.239533e+01	-9.117111e+02
2.710000e-06	-3.233336e-06	-1.435508e-08	-2.331332e+01	-9.398481e+02
2.720000e-06	-3.359550e-06	-1.475632e-08	-2.422336e+01	-9.662055e+02
2.730000e-06	-3.484438e-06	-1.513292e-08	-2.512384e+01	-9.909031e+02
2.740000e-06	-3.607968e-06	-1.548335e-08	-2.601453e+01	-1.014026e+03
2.750000e-06	-3.730304e-06	-1.581238e-08	-2.689661e+01	-1.035653e+03
2.760000e-06	-3.851309e-06	-1.612260e-08	-2.776909e+01	-1.055878e+03
2.770000e-06	-3.970864e-06	-1.641449e-08	-2.863112e+01	-1.074818e+03
2.780000e-06	-4.089016e-06	-1.668904e-08	-2.948303e+01	-1.092607e+03
2.790000e-06	-4.205545e-06	-1.694717e-08	-3.032324e+01	-1.109384e+03
2.800000e-06	-4.320301e-06	-1.719117e-08	-3.115066e+01	-1.125271e+03
2.810000e-06	-4.433361e-06	-1.742304e-08	-3.196586e+01	-1.140366e+03
2.820000e-06	-4.544578e-06	-1.764479e-08	-3.276777e+01	-1.154728e+03
2.830000e-06	-4.654093e-06	-1.785638e-08	-3.355740e+01	-1.168385e+03
2.840000e-06	-4.762144e-06	-1.805637e-08	-3.433649e+01	-1.181343e+03
2.850000e-06	-4.868668e-06	-1.824150e-08	-3.510455e+01	-1.193603e+03
2.860000e-06	-4.973509e-06	-1.841411e-08	-3.586048e+01	-1.205172e+03
2.870000e-06	-5.076488e-06	-1.857902e-08	-3.660300e+01	-1.216075e+03
2.880000e-06	-5.177489e-06	-1.873760e-08	-3.733124e+01	-1.226357e+03
2.890000e-06	-5.276609e-06	-1.889030e-08	-3.804593e+01	-1.236076e+03
2.900000e-06	-5.373949e-06	-1.903525e-08	-3.874778e+01	-1.245295e+03
2.910000e-06	-5.469447e-06	-1.917068e-08	-3.943635e+01	-1.254065e+03
2.920000e-06	-5.562948e-06	-1.929583e-08	-4.011052e+01	-1.262420e+03
2.930000e-06	-5.654398e-06	-1.941332e-08	-4.076990e+01	-1.270372e+03
2.940000e-06	-5.743817e-06	-1.952602e-08	-4.141464e+01	-1.277914e+03
