# Temperatura_=_93.36
# Concentracion g/m^3_=_41000.0
# C_Vs_to_Am_M_A/Vsm_=_65563218390.804596
# pendiente_HvsI_1/m_=_3716.3
# ordenada_HvsI_A/m_=_1297.0
# frecuencia_Hz_=_301585.1543479146

Tiempo_(s)	Campo_(V.s)	Magnetizacion_(V.s)	Campo_(kA/m)	Magnetizacion_(A/m)
0.000000e+00	-5.330389e-06	-2.206427e-08	-3.834805e+01	-1.442416e+03
1.000000e-08	-5.327430e-06	-2.206009e-08	-3.832677e+01	-1.442233e+03
2.000000e-08	-5.322773e-06	-2.205107e-08	-3.829326e+01	-1.442101e+03
3.000000e-08	-5.316540e-06	-2.204318e-08	-3.824842e+01	-1.441912e+03
4.000000e-08	-5.308818e-06	-2.203181e-08	-3.819287e+01	-1.441541e+03
5.000000e-08	-5.299227e-06	-2.201627e-08	-3.812386e+01	-1.440887e+03
6.000000e-08	-5.287485e-06	-2.199278e-08	-3.803939e+01	-1.439902e+03
7.000000e-08	-5.273850e-06	-2.195159e-08	-3.794129e+01	-1.438606e+03
8.000000e-08	-5.258058e-06	-2.198594e-08	-3.782768e+01	-1.437083e+03
9.000000e-08	-5.240000e-06	-2.204590e-08	-3.769777e+01	-1.435456e+03
1.000000e-07	-5.220012e-06	-2.197419e-08	-3.755397e+01	-1.433846e+03
1.100000e-07	-5.198222e-06	-2.192476e-08	-3.739721e+01	-1.432342e+03
1.200000e-07	-5.174829e-06	-2.185403e-08	-3.722892e+01	-1.430975e+03
1.300000e-07	-5.149984e-06	-2.168434e-08	-3.705017e+01	-1.429709e+03
1.400000e-07	-5.123487e-06	-2.188075e-08	-3.685955e+01	-1.428460e+03
1.500000e-07	-5.095303e-06	-2.188286e-08	-3.665678e+01	-1.427117e+03
1.600000e-07	-5.065722e-06	-2.163765e-08	-3.644398e+01	-1.425582e+03
1.700000e-07	-5.034561e-06	-2.184475e-08	-3.621980e+01	-1.423797e+03
1.800000e-07	-5.001173e-06	-2.172339e-08	-3.597960e+01	-1.421756e+03
1.900000e-07	-4.965917e-06	-2.151208e-08	-3.572595e+01	-1.419505e+03
2.000000e-07	-4.929296e-06	-2.173385e-08	-3.546249e+01	-1.417122e+03
2.100000e-07	-4.891019e-06	-2.161986e-08	-3.518712e+01	-1.414680e+03
2.200000e-07	-4.850971e-06	-2.148301e-08	-3.489901e+01	-1.412228e+03
2.300000e-07	-4.808940e-06	-2.153143e-08	-3.459663e+01	-1.409763e+03
2.400000e-07	-4.764949e-06	-2.140414e-08	-3.428015e+01	-1.407231e+03
2.500000e-07	-4.719248e-06	-2.142711e-08	-3.395136e+01	-1.404542e+03
2.600000e-07	-4.671706e-06	-2.139710e-08	-3.360933e+01	-1.401600e+03
2.700000e-07	-4.622134e-06	-2.127566e-08	-3.325270e+01	-1.398330e+03
2.800000e-07	-4.570456e-06	-2.123289e-08	-3.288092e+01	-1.394709e+03
2.900000e-07	-4.516916e-06	-2.117475e-08	-3.249574e+01	-1.390773e+03
3.000000e-07	-4.461830e-06	-2.113340e-08	-3.209944e+01	-1.386607e+03
3.100000e-07	-4.405105e-06	-2.106877e-08	-3.169134e+01	-1.382322e+03
3.200000e-07	-4.346558e-06	-2.101420e-08	-3.127015e+01	-1.378020e+03
3.300000e-07	-4.286442e-06	-2.094952e-08	-3.083766e+01	-1.373761e+03
3.400000e-07	-4.224924e-06	-2.085111e-08	-3.039508e+01	-1.369544e+03
3.500000e-07	-4.162034e-06	-2.079328e-08	-2.994264e+01	-1.365303e+03
3.600000e-07	-4.097707e-06	-2.071831e-08	-2.947985e+01	-1.360931e+03
3.700000e-07	-4.031698e-06	-2.066442e-08	-2.900496e+01	-1.356310e+03
3.800000e-07	-3.964099e-06	-2.058976e-08	-2.851865e+01	-1.351348e+03
3.900000e-07	-3.895120e-06	-2.047123e-08	-2.802239e+01	-1.346008e+03
4.000000e-07	-3.824899e-06	-2.041425e-08	-2.751721e+01	-1.340324e+03
4.100000e-07	-3.753504e-06	-2.033091e-08	-2.700358e+01	-1.334387e+03
4.200000e-07	-3.680814e-06	-2.024349e-08	-2.648063e+01	-1.328318e+03
4.300000e-07	-3.606485e-06	-2.015046e-08	-2.594588e+01	-1.322230e+03
4.400000e-07	-3.530555e-06	-2.006064e-08	-2.539963e+01	-1.316189e+03
4.500000e-07	-3.453323e-06	-1.996689e-08	-2.484400e+01	-1.310189e+03
4.600000e-07	-3.374692e-06	-1.985965e-08	-2.427832e+01	-1.304153e+03
4.700000e-07	-3.294705e-06	-1.976885e-08	-2.370287e+01	-1.297949e+03
4.800000e-07	-3.213500e-06	-1.965752e-08	-2.311866e+01	-1.291434e+03
4.900000e-07	-3.131184e-06	-1.954899e-08	-2.252646e+01	-1.284491e+03
5.000000e-07	-3.047891e-06	-1.943633e-08	-2.192723e+01	-1.277070e+03
5.100000e-07	-2.963759e-06	-1.931871e-08	-2.132196e+01	-1.269200e+03
5.200000e-07	-2.878740e-06	-1.919677e-08	-2.071032e+01	-1.260982e+03
5.300000e-07	-2.792765e-06	-1.907383e-08	-2.009180e+01	-1.252558e+03
5.400000e-07	-2.705906e-06	-1.895281e-08	-1.946691e+01	-1.244059e+03
5.500000e-07	-2.618086e-06	-1.882536e-08	-1.883512e+01	-1.235564e+03
5.600000e-07	-2.529237e-06	-1.869171e-08	-1.819591e+01	-1.227070e+03
5.700000e-07	-2.439251e-06	-1.855022e-08	-1.754854e+01	-1.218481e+03
5.800000e-07	-2.348208e-06	-1.840509e-08	-1.689355e+01	-1.209636e+03
5.900000e-07	-2.256338e-06	-1.825484e-08	-1.623262e+01	-1.200351e+03
6.000000e-07	-2.163780e-06	-1.810016e-08	-1.556674e+01	-1.190476e+03
6.100000e-07	-2.070473e-06	-1.794027e-08	-1.489546e+01	-1.179932e+03
6.200000e-07	-1.976366e-06	-1.777373e-08	-1.421843e+01	-1.168746e+03
6.300000e-07	-1.881600e-06	-1.760048e-08	-1.353667e+01	-1.157029e+03
6.400000e-07	-1.786242e-06	-1.742457e-08	-1.285064e+01	-1.144948e+03
6.500000e-07	-1.690240e-06	-1.724151e-08	-1.215998e+01	-1.132665e+03
6.600000e-07	-1.593541e-06	-1.705145e-08	-1.146430e+01	-1.120274e+03
6.700000e-07	-1.496137e-06	-1.685551e-08	-1.076355e+01	-1.107768e+03
6.800000e-07	-1.398090e-06	-1.665118e-08	-1.005818e+01	-1.095019e+03
6.900000e-07	-1.299498e-06	-1.643923e-08	-9.348892e+00	-1.081810e+03
7.000000e-07	-1.200423e-06	-1.621744e-08	-8.636123e+00	-1.067888e+03
7.100000e-07	-1.101040e-06	-1.598834e-08	-7.921136e+00	-1.053035e+03
7.200000e-07	-1.001336e-06	-1.575012e-08	-7.203841e+00	-1.037125e+03
7.300000e-07	-9.013034e-07	-1.550342e-08	-6.484185e+00	-1.020163e+03
7.400000e-07	-8.010645e-07	-1.524524e-08	-5.763043e+00	-1.002268e+03
7.500000e-07	-7.005800e-07	-1.497539e-08	-5.040135e+00	-9.836298e+02
7.600000e-07	-5.998506e-07	-1.468954e-08	-4.315464e+00	-9.644232e+02
7.700000e-07	-4.989450e-07	-1.438535e-08	-3.589525e+00	-9.447266e+02
7.800000e-07	-3.978701e-07	-1.406617e-08	-2.862369e+00	-9.244571e+02
7.900000e-07	-2.966240e-07	-1.372701e-08	-2.133981e+00	-9.033508e+02
8.000000e-07	-1.952742e-07	-1.336900e-08	-1.404848e+00	-8.809963e+02
8.100000e-07	-9.384263e-08	-1.299073e-08	-6.751256e-01	-8.569162e+02
8.200000e-07	7.645361e-09	-1.258972e-08	5.500249e-02	-8.306716e+02
8.300000e-07	1.091624e-07	-1.216176e-08	7.853396e-01	-8.019590e+02
8.400000e-07	2.106294e-07	-1.170142e-08	1.515317e+00	-7.706614e+02
8.500000e-07	3.120047e-07	-1.120393e-08	2.244634e+00	-7.368305e+02
8.600000e-07	4.133556e-07	-1.066436e-08	2.973776e+00	-7.005908e+02
8.700000e-07	5.145996e-07	-1.008037e-08	3.702149e+00	-6.619826e+02
8.800000e-07	6.156475e-07	-9.443572e-09	4.429111e+00	-6.207807e+02
8.900000e-07	7.164826e-07	-8.744206e-09	5.154542e+00	-5.763415e+02
9.000000e-07	8.170767e-07	-7.971625e-09	5.878239e+00	-5.275311e+02
9.100000e-07	9.174289e-07	-7.112609e-09	6.600195e+00	-4.727734e+02
9.200000e-07	1.017509e-06	-6.147666e-09	7.320192e+00	-4.102344e+02
9.300000e-07	1.117302e-06	-5.054852e-09	8.038128e+00	-3.381231e+02
9.400000e-07	1.216710e-06	-3.811201e-09	8.753293e+00	-2.550612e+02
9.500000e-07	1.315701e-06	-2.396479e-09	9.465458e+00	-1.604488e+02
9.600000e-07	1.414295e-06	-8.034215e-10	1.017477e+01	-5.474758e+01
9.700000e-07	1.512269e-06	9.552450e-10	1.087961e+01	6.038730e+01
9.800000e-07	1.609444e-06	2.838461e-09	1.157871e+01	1.821676e+02
9.900000e-07	1.705788e-06	4.781309e-09	1.227183e+01	3.069276e+02
1.000000e-06	1.801410e-06	6.698112e-09	1.295976e+01	4.305371e+02
1.010000e-06	1.896429e-06	8.509291e-09	1.364335e+01	5.489019e+02
1.020000e-06	1.990807e-06	1.015563e-08	1.432233e+01	6.584605e+02
1.030000e-06	2.084488e-06	1.160620e-08	1.499629e+01	7.565889e+02
1.040000e-06	2.177460e-06	1.285713e-08	1.566515e+01	8.418430e+02
1.050000e-06	2.269754e-06	1.391952e-08	1.632913e+01	9.140035e+02
1.060000e-06	2.361384e-06	1.481505e-08	1.698834e+01	9.739289e+02
1.070000e-06	2.452327e-06	1.556860e-08	1.764261e+01	1.023258e+03
1.080000e-06	2.542241e-06	1.620515e-08	1.828947e+01	1.064033e+03
1.090000e-06	2.630901e-06	1.674743e-08	1.892731e+01	1.098323e+03
1.100000e-06	2.718529e-06	1.721186e-08	1.955773e+01	1.127918e+03
1.110000e-06	2.805337e-06	1.761188e-08	2.018224e+01	1.154146e+03
1.120000e-06	2.891298e-06	1.795884e-08	2.080067e+01	1.177818e+03
1.130000e-06	2.976262e-06	1.826680e-08	2.141192e+01	1.199306e+03
1.140000e-06	3.060225e-06	1.854255e-08	2.201596e+01	1.218694e+03
1.150000e-06	3.143298e-06	1.878982e-08	2.261361e+01	1.235954e+03
1.160000e-06	3.225311e-06	1.901197e-08	2.320363e+01	1.251106e+03
1.170000e-06	3.306087e-06	1.921510e-08	2.378475e+01	1.264311e+03
1.180000e-06	3.385698e-06	1.940390e-08	2.435749e+01	1.275888e+03
1.190000e-06	3.464078e-06	1.957785e-08	2.492138e+01	1.286266e+03
1.200000e-06	3.541209e-06	1.973678e-08	2.547628e+01	1.295892e+03
1.210000e-06	3.617069e-06	1.988481e-08	2.602203e+01	1.305133e+03
1.220000e-06	3.691440e-06	2.002265e-08	2.655707e+01	1.314198e+03
1.230000e-06	3.764171e-06	2.015099e-08	2.708032e+01	1.323120e+03
1.240000e-06	3.835409e-06	2.027171e-08	2.759282e+01	1.331777e+03
1.250000e-06	3.905400e-06	2.038326e-08	2.809635e+01	1.339961e+03
1.260000e-06	3.974125e-06	2.048765e-08	2.859077e+01	1.347467e+03
1.270000e-06	4.041546e-06	2.058324e-08	2.907582e+01	1.354171e+03
1.280000e-06	4.107409e-06	2.067501e-08	2.954965e+01	1.360074e+03
1.290000e-06	4.171570e-06	2.076412e-08	3.001124e+01	1.365310e+03
1.300000e-06	4.234256e-06	2.085031e-08	3.046221e+01	1.370109e+03
1.310000e-06	4.295452e-06	2.093057e-08	3.090248e+01	1.374725e+03
1.320000e-06	4.355349e-06	2.100486e-08	3.133339e+01	1.379375e+03
1.330000e-06	4.413855e-06	2.107549e-08	3.175429e+01	1.384171e+03
1.340000e-06	4.470539e-06	2.114323e-08	3.216209e+01	1.389106e+03
1.350000e-06	4.525479e-06	2.120960e-08	3.255734e+01	1.394060e+03
1.360000e-06	4.578851e-06	2.127451e-08	3.294131e+01	1.398848e+03
1.370000e-06	4.630494e-06	2.133681e-08	3.331284e+01	1.403284e+03
1.380000e-06	4.680059e-06	2.139526e-08	3.366942e+01	1.407234e+03
1.390000e-06	4.727690e-06	2.145060e-08	3.401209e+01	1.410661e+03
1.400000e-06	4.773724e-06	2.150171e-08	3.434328e+01	1.413630e+03
1.410000e-06	4.818220e-06	2.154811e-08	3.466339e+01	1.416285e+03
1.420000e-06	4.861224e-06	2.159171e-08	3.497277e+01	1.418801e+03
1.430000e-06	4.902338e-06	2.163316e-08	3.526855e+01	1.421330e+03
1.440000e-06	4.941524e-06	2.167220e-08	3.555047e+01	1.423958e+03
1.450000e-06	4.979118e-06	2.170711e-08	3.582093e+01	1.426680e+03
1.460000e-06	5.015143e-06	2.173792e-08	3.608010e+01	1.429408e+03
1.470000e-06	5.049390e-06	2.176790e-08	3.632648e+01	1.432002e+03
1.480000e-06	5.081703e-06	2.179781e-08	3.655895e+01	1.434320e+03
1.490000e-06	5.112244e-06	2.182383e-08	3.677866e+01	1.436259e+03
1.500000e-06	5.141113e-06	2.184852e-08	3.698635e+01	1.437793e+03
1.510000e-06	5.168297e-06	2.187341e-08	3.718192e+01	1.438978e+03
1.520000e-06	5.193437e-06	2.189733e-08	3.736279e+01	1.439933e+03
1.530000e-06	5.216489e-06	2.191910e-08	3.752863e+01	1.440805e+03
1.540000e-06	5.237772e-06	2.193654e-08	3.768175e+01	1.441719e+03
1.550000e-06	5.257431e-06	2.195154e-08	3.782317e+01	1.442748e+03
1.560000e-06	5.275286e-06	2.196352e-08	3.795162e+01	1.443885e+03
1.570000e-06	5.291122e-06	2.197412e-08	3.806555e+01	1.445051e+03
1.580000e-06	5.305025e-06	2.198412e-08	3.816557e+01	1.446122e+03
1.590000e-06	5.316901e-06	2.199386e-08	3.825102e+01	1.446967e+03
1.600000e-06	5.326497e-06	2.200348e-08	3.832005e+01	1.447493e+03
1.610000e-06	5.334060e-06	2.201256e-08	3.837446e+01	1.447669e+03
1.620000e-06	5.339823e-06	2.202140e-08	3.841592e+01	1.447538e+03
1.630000e-06	5.343811e-06	2.202725e-08	3.844461e+01	1.447203e+03
1.640000e-06	5.345880e-06	2.202967e-08	3.845949e+01	1.446792e+03
1.650000e-06	5.345950e-06	2.202707e-08	3.846000e+01	1.446421e+03
1.660000e-06	5.344298e-06	2.201330e-08	3.844811e+01	1.446154e+03
1.670000e-06	5.341028e-06	2.200511e-08	3.842459e+01	1.445989e+03
1.680000e-06	5.336082e-06	2.200009e-08	3.838901e+01	1.445854e+03
1.690000e-06	5.329212e-06	2.199330e-08	3.833958e+01	1.445636e+03
1.700000e-06	5.320556e-06	2.198682e-08	3.827731e+01	1.445211e+03
1.710000e-06	5.310390e-06	2.198399e-08	3.820418e+01	1.444486e+03
1.720000e-06	5.298564e-06	2.200479e-08	3.811909e+01	1.443430e+03
1.730000e-06	5.284806e-06	2.196371e-08	3.802011e+01	1.442076e+03
1.740000e-06	5.268950e-06	2.182530e-08	3.790604e+01	1.440519e+03
1.750000e-06	5.250707e-06	2.183990e-08	3.777480e+01	1.438885e+03
1.760000e-06	5.229909e-06	2.184806e-08	3.762517e+01	1.437291e+03
1.770000e-06	5.206848e-06	2.190987e-08	3.745927e+01	1.435816e+03
1.780000e-06	5.182498e-06	2.201328e-08	3.728409e+01	1.434475e+03
1.790000e-06	5.157521e-06	2.170143e-08	3.710440e+01	1.433221e+03
1.800000e-06	5.130990e-06	2.177115e-08	3.691353e+01	1.431960e+03
1.810000e-06	5.102429e-06	2.191230e-08	3.670805e+01	1.430582e+03
1.820000e-06	5.072269e-06	2.159129e-08	3.649108e+01	1.428996e+03
1.830000e-06	5.040194e-06	2.181089e-08	3.626032e+01	1.427154e+03
1.840000e-06	5.006148e-06	2.188591e-08	3.601539e+01	1.425062e+03
1.850000e-06	4.970566e-06	2.153599e-08	3.575940e+01	1.422776e+03
1.860000e-06	4.933062e-06	2.172281e-08	3.548959e+01	1.420373e+03
1.870000e-06	4.893568e-06	2.167010e-08	3.520546e+01	1.417926e+03
1.880000e-06	4.852546e-06	2.156413e-08	3.491034e+01	1.415473e+03
1.890000e-06	4.809756e-06	2.168724e-08	3.460250e+01	1.412998e+03
1.900000e-06	4.765303e-06	2.139467e-08	3.428269e+01	1.410440e+03
1.910000e-06	4.719067e-06	2.148660e-08	3.395006e+01	1.407705e+03
1.920000e-06	4.670974e-06	2.155457e-08	3.360406e+01	1.404696e+03
1.930000e-06	4.621376e-06	2.133454e-08	3.324724e+01	1.401351e+03
1.940000e-06	4.569892e-06	2.138255e-08	3.287686e+01	1.397657e+03
1.950000e-06	4.516439e-06	2.124828e-08	3.249231e+01	1.393662e+03
1.960000e-06	4.461110e-06	2.123622e-08	3.209426e+01	1.389460e+03
1.970000e-06	4.403972e-06	2.117903e-08	3.168319e+01	1.385163e+03
1.980000e-06	4.345347e-06	2.102352e-08	3.126143e+01	1.380867e+03
1.990000e-06	4.285299e-06	2.110887e-08	3.082943e+01	1.376619e+03
2.000000e-06	4.223782e-06	2.097085e-08	3.038686e+01	1.372402e+03
2.010000e-06	4.160574e-06	2.090976e-08	2.993213e+01	1.368143e+03
2.020000e-06	4.095700e-06	2.082625e-08	2.946541e+01	1.363727e+03
2.030000e-06	4.029436e-06	2.072914e-08	2.898869e+01	1.359038e+03
2.040000e-06	3.961833e-06	2.073781e-08	2.850234e+01	1.353995e+03
2.050000e-06	3.892877e-06	2.055555e-08	2.800626e+01	1.348576e+03
2.060000e-06	3.822328e-06	2.051568e-08	2.749871e+01	1.342827e+03
2.070000e-06	3.750342e-06	2.044202e-08	2.698082e+01	1.336851e+03
2.080000e-06	3.677114e-06	2.033739e-08	2.645401e+01	1.330769e+03
2.090000e-06	3.602510e-06	2.026384e-08	2.591729e+01	1.324687e+03
2.100000e-06	3.526609e-06	2.013332e-08	2.537124e+01	1.318657e+03
2.110000e-06	3.449221e-06	2.008440e-08	2.481449e+01	1.312657e+03
2.120000e-06	3.370332e-06	1.996635e-08	2.424695e+01	1.306597e+03
2.130000e-06	3.290194e-06	1.987381e-08	2.367042e+01	1.300338e+03
2.140000e-06	3.208969e-06	1.976490e-08	2.308607e+01	1.293738e+03
2.150000e-06	3.126707e-06	1.964740e-08	2.249425e+01	1.286693e+03
2.160000e-06	3.043413e-06	1.955421e-08	2.189501e+01	1.279170e+03
2.170000e-06	2.959125e-06	1.942582e-08	2.128863e+01	1.271214e+03
2.180000e-06	2.873654e-06	1.932017e-08	2.067373e+01	1.262939e+03
2.190000e-06	2.786918e-06	1.918874e-08	2.004973e+01	1.254488e+03
2.200000e-06	2.699048e-06	1.906342e-08	1.941758e+01	1.245985e+03
2.210000e-06	2.610224e-06	1.892956e-08	1.877855e+01	1.237494e+03
2.220000e-06	2.520531e-06	1.879825e-08	1.813328e+01	1.228989e+03
2.230000e-06	2.430011e-06	1.866868e-08	1.748206e+01	1.220360e+03
2.240000e-06	2.338800e-06	1.852321e-08	1.682586e+01	1.211435e+03
2.250000e-06	2.246897e-06	1.837697e-08	1.616470e+01	1.202034e+03
2.260000e-06	2.154257e-06	1.821961e-08	1.549822e+01	1.192018e+03
2.270000e-06	2.060683e-06	1.806646e-08	1.482503e+01	1.181331e+03
2.280000e-06	1.966144e-06	1.790324e-08	1.414489e+01	1.170017e+03
2.290000e-06	1.870766e-06	1.772990e-08	1.345873e+01	1.158207e+03
2.300000e-06	1.774691e-06	1.755083e-08	1.276754e+01	1.146070e+03
2.310000e-06	1.678175e-06	1.736980e-08	1.207318e+01	1.133758e+03
2.320000e-06	1.581188e-06	1.718496e-08	1.137543e+01	1.121347e+03
2.330000e-06	1.483660e-06	1.698962e-08	1.067379e+01	1.108802e+03
2.340000e-06	1.385637e-06	1.678260e-08	9.968595e+00	1.095975e+03
2.350000e-06	1.287143e-06	1.656278e-08	9.260007e+00	1.082633e+03
2.360000e-06	1.188226e-06	1.633869e-08	8.548369e+00	1.068527e+03
2.370000e-06	1.089019e-06	1.610900e-08	7.834656e+00	1.053453e+03
2.380000e-06	9.895597e-07	1.586983e-08	7.119121e+00	1.037313e+03
2.390000e-06	8.898586e-07	1.561637e-08	6.401849e+00	1.020136e+03
2.400000e-06	7.899393e-07	1.534857e-08	5.683006e+00	1.002065e+03
2.410000e-06	6.897444e-07	1.506831e-08	4.962181e+00	9.832914e+02
2.420000e-06	5.893202e-07	1.477629e-08	4.239706e+00	9.639773e+02
2.430000e-06	4.887706e-07	1.447425e-08	3.516329e+00	9.441704e+02
2.440000e-06	3.880975e-07	1.415897e-08	2.792063e+00	9.237491e+02
2.450000e-06	2.872131e-07	1.382010e-08	2.066278e+00	9.024130e+02
2.460000e-06	1.861116e-07	1.345591e-08	1.338930e+00	8.797286e+02
2.470000e-06	8.488958e-08	1.307173e-08	6.107153e-01	8.552175e+02
2.480000e-06	-1.641719e-08	1.266500e-08	-1.181091e-01	8.284630e+02
2.490000e-06	-1.177969e-07	1.222780e-08	-8.474583e-01	7.991990e+02
2.500000e-06	-2.190980e-07	1.175846e-08	-1.576242e+00	7.673491e+02
2.510000e-06	-3.201965e-07	1.125548e-08	-2.303568e+00	7.329911e+02
2.520000e-06	-4.211501e-07	1.071068e-08	-3.029851e+00	6.962461e+02
2.530000e-06	-5.219844e-07	1.011808e-08	-3.755276e+00	6.571127e+02
2.540000e-06	-6.226528e-07	9.469071e-09	-4.479508e+00	6.152869e+02
2.550000e-06	-7.231323e-07	8.755465e-09	-5.202381e+00	5.700225e+02
2.560000e-06	-8.233343e-07	7.967039e-09	-5.923257e+00	5.200822e+02
2.570000e-06	-9.232652e-07	7.090700e-09	-6.642183e+00	4.638145e+02
2.580000e-06	-1.022979e-06	6.107371e-09	-7.359544e+00	3.993662e+02
2.590000e-06	-1.122333e-06	4.992608e-09	-8.074321e+00	3.250023e+02
2.600000e-06	-1.221272e-06	3.724722e-09	-8.786113e+00	2.394824e+02
2.610000e-06	-1.319851e-06	2.286495e-09	-9.495314e+00	1.424144e+02
2.620000e-06	-1.417957e-06	6.709157e-10	-1.020111e+01	3.451084e+01
2.630000e-06	-1.515536e-06	-1.105790e-09	-1.090311e+01	-8.231851e+01
2.640000e-06	-1.612621e-06	-3.002168e-09	-1.160157e+01	-2.050696e+02
2.650000e-06	-1.709172e-06	-4.952726e-09	-1.229618e+01	-3.299380e+02
2.660000e-06	-1.805227e-06	-6.873288e-09	-1.298722e+01	-4.527580e+02
2.670000e-06	-1.900830e-06	-8.681204e-09	-1.367501e+01	-5.695096e+02
2.680000e-06	-1.995681e-06	-1.031498e-08	-1.435739e+01	-6.768027e+02
2.690000e-06	-2.089436e-06	-1.175056e-08	-1.503189e+01	-7.722521e+02
2.700000e-06	-2.182206e-06	-1.298713e-08	-1.569929e+01	-8.546794e+02
2.710000e-06	-2.274165e-06	-1.403670e-08	-1.636087e+01	-9.241147e+02
2.720000e-06	-2.365413e-06	-1.492098e-08	-1.701733e+01	-9.816124e+02
2.730000e-06	-2.455882e-06	-1.566557e-08	-1.766818e+01	-1.028931e+03
2.740000e-06	-2.545411e-06	-1.629665e-08	-1.831227e+01	-1.068148e+03
2.750000e-06	-2.634062e-06	-1.683534e-08	-1.895005e+01	-1.101296e+03
2.760000e-06	-2.721977e-06	-1.729776e-08	-1.958253e+01	-1.130076e+03
2.770000e-06	-2.809064e-06	-1.769585e-08	-2.020906e+01	-1.155705e+03
2.780000e-06	-2.894947e-06	-1.804209e-08	-2.082691e+01	-1.178892e+03
2.790000e-06	-2.979569e-06	-1.834818e-08	-2.143571e+01	-1.199930e+03
2.800000e-06	-3.063167e-06	-1.862160e-08	-2.203713e+01	-1.218865e+03
2.810000e-06	-3.145859e-06	-1.886653e-08	-2.263204e+01	-1.235669e+03
2.820000e-06	-3.227502e-06	-1.908651e-08	-2.321939e+01	-1.250385e+03
2.830000e-06	-3.308069e-06	-1.928740e-08	-2.379901e+01	-1.263210e+03
2.840000e-06	-3.387593e-06	-1.947120e-08	-2.437113e+01	-1.274492e+03
2.850000e-06	-3.465684e-06	-1.964228e-08	-2.493293e+01	-1.284674e+03
2.860000e-06	-3.542209e-06	-1.980131e-08	-2.548347e+01	-1.294192e+03
2.870000e-06	-3.617323e-06	-1.994777e-08	-2.602386e+01	-1.303384e+03
2.880000e-06	-3.691071e-06	-2.008458e-08	-2.655442e+01	-1.312422e+03
2.890000e-06	-3.763583e-06	-2.021180e-08	-2.707609e+01	-1.321303e+03
2.900000e-06	-3.834877e-06	-2.033187e-08	-2.758899e+01	-1.329877e+03
2.910000e-06	-3.904614e-06	-2.044616e-08	-2.809070e+01	-1.337933e+03
2.920000e-06	-3.972807e-06	-2.055351e-08	-2.858129e+01	-1.345274e+03
2.930000e-06	-4.039661e-06	-2.065168e-08	-2.906226e+01	-1.351802e+03
2.940000e-06	-4.105085e-06	-2.074263e-08	-2.953293e+01	-1.357548e+03
