# Temperatura_=_51.08
# Concentracion g/m^3_=_41000.0
# C_Vs_to_Am_M_A/Vsm_=_65563218390.804596
# pendiente_HvsI_1/m_=_3716.3
# ordenada_HvsI_A/m_=_1297.0
# frecuencia_Hz_=_301595.9120230618

Tiempo_(s)	Campo_(V.s)	Magnetizacion_(V.s)	Campo_(kA/m)	Magnetizacion_(A/m)
0.000000e+00	-5.349701e-06	-2.386673e-08	-3.834351e+01	-1.560859e+03
1.000000e-08	-5.347166e-06	-2.386298e-08	-3.832534e+01	-1.560429e+03
2.000000e-08	-5.342809e-06	-2.385726e-08	-3.829411e+01	-1.560095e+03
3.000000e-08	-5.336783e-06	-2.384865e-08	-3.825092e+01	-1.559839e+03
4.000000e-08	-5.329170e-06	-2.383737e-08	-3.819636e+01	-1.559585e+03
5.000000e-08	-5.319780e-06	-2.382356e-08	-3.812906e+01	-1.559220e+03
6.000000e-08	-5.308342e-06	-2.380728e-08	-3.804707e+01	-1.558633e+03
7.000000e-08	-5.294960e-06	-2.379244e-08	-3.795116e+01	-1.557744e+03
8.000000e-08	-5.279497e-06	-2.379642e-08	-3.784033e+01	-1.556536e+03
9.000000e-08	-5.261772e-06	-2.379706e-08	-3.771329e+01	-1.555056e+03
1.000000e-07	-5.241950e-06	-2.376383e-08	-3.757122e+01	-1.553406e+03
1.100000e-07	-5.220262e-06	-2.372638e-08	-3.741577e+01	-1.551709e+03
1.200000e-07	-5.196992e-06	-2.367566e-08	-3.724898e+01	-1.550078e+03
1.300000e-07	-5.172329e-06	-2.362719e-08	-3.707221e+01	-1.548581e+03
1.400000e-07	-5.146063e-06	-2.364009e-08	-3.688395e+01	-1.547222e+03
1.500000e-07	-5.118069e-06	-2.362287e-08	-3.668331e+01	-1.545942e+03
1.600000e-07	-5.088571e-06	-2.357545e-08	-3.647189e+01	-1.544639e+03
1.700000e-07	-5.057519e-06	-2.358007e-08	-3.624932e+01	-1.543194e+03
1.800000e-07	-5.024438e-06	-2.353690e-08	-3.601221e+01	-1.541510e+03
1.900000e-07	-4.989400e-06	-2.348884e-08	-3.576109e+01	-1.539535e+03
2.000000e-07	-4.952802e-06	-2.347593e-08	-3.549877e+01	-1.537272e+03
2.100000e-07	-4.914533e-06	-2.340785e-08	-3.522448e+01	-1.534776e+03
2.200000e-07	-4.874500e-06	-2.334629e-08	-3.493755e+01	-1.532128e+03
2.300000e-07	-4.832568e-06	-2.330399e-08	-3.463701e+01	-1.529408e+03
2.400000e-07	-4.788692e-06	-2.327540e-08	-3.432253e+01	-1.526663e+03
2.500000e-07	-4.743063e-06	-2.327900e-08	-3.399548e+01	-1.523898e+03
2.600000e-07	-4.695617e-06	-2.321979e-08	-3.365542e+01	-1.521068e+03
2.700000e-07	-4.646137e-06	-2.312789e-08	-3.330078e+01	-1.518095e+03
2.800000e-07	-4.594563e-06	-2.307435e-08	-3.293113e+01	-1.514897e+03
2.900000e-07	-4.541125e-06	-2.302372e-08	-3.254812e+01	-1.511414e+03
3.000000e-07	-4.486129e-06	-2.298339e-08	-3.215393e+01	-1.507630e+03
3.100000e-07	-4.429465e-06	-2.294653e-08	-3.174780e+01	-1.503579e+03
3.200000e-07	-4.370996e-06	-2.287493e-08	-3.132873e+01	-1.499335e+03
3.300000e-07	-4.310896e-06	-2.278755e-08	-3.089797e+01	-1.494991e+03
3.400000e-07	-4.249322e-06	-2.271916e-08	-3.045664e+01	-1.490625e+03
3.500000e-07	-4.186380e-06	-2.265420e-08	-3.000551e+01	-1.486278e+03
3.600000e-07	-4.122007e-06	-2.259228e-08	-2.954412e+01	-1.481935e+03
3.700000e-07	-4.056021e-06	-2.253911e-08	-2.907117e+01	-1.477532e+03
3.800000e-07	-3.988470e-06	-2.245143e-08	-2.858700e+01	-1.472970e+03
3.900000e-07	-3.919535e-06	-2.235274e-08	-2.809292e+01	-1.468149e+03
4.000000e-07	-3.849283e-06	-2.227829e-08	-2.758940e+01	-1.462996e+03
4.100000e-07	-3.777872e-06	-2.220191e-08	-2.707756e+01	-1.457491e+03
4.200000e-07	-3.705153e-06	-2.211855e-08	-2.655635e+01	-1.451670e+03
4.300000e-07	-3.630774e-06	-2.203220e-08	-2.602325e+01	-1.445613e+03
4.400000e-07	-3.554838e-06	-2.194096e-08	-2.547898e+01	-1.439422e+03
4.500000e-07	-3.477544e-06	-2.184491e-08	-2.492499e+01	-1.433182e+03
4.600000e-07	-3.398849e-06	-2.175031e-08	-2.436095e+01	-1.426934e+03
4.700000e-07	-3.318779e-06	-2.165312e-08	-2.378705e+01	-1.420655e+03
4.800000e-07	-3.237496e-06	-2.154808e-08	-2.320446e+01	-1.414266e+03
4.900000e-07	-3.155031e-06	-2.144103e-08	-2.261341e+01	-1.407649e+03
5.000000e-07	-3.071582e-06	-2.133122e-08	-2.201529e+01	-1.400682e+03
5.100000e-07	-2.987298e-06	-2.121646e-08	-2.141119e+01	-1.393276e+03
5.200000e-07	-2.902132e-06	-2.109403e-08	-2.080078e+01	-1.385404e+03
5.300000e-07	-2.816006e-06	-2.096682e-08	-2.018348e+01	-1.377101e+03
5.400000e-07	-2.728969e-06	-2.084165e-08	-1.955964e+01	-1.368460e+03
5.500000e-07	-2.641084e-06	-2.071438e-08	-1.892974e+01	-1.359596e+03
5.600000e-07	-2.552061e-06	-2.058134e-08	-1.829168e+01	-1.350603e+03
5.700000e-07	-2.461832e-06	-2.044380e-08	-1.764497e+01	-1.341527e+03
5.800000e-07	-2.370664e-06	-2.029829e-08	-1.699153e+01	-1.332334e+03
5.900000e-07	-2.278677e-06	-2.014057e-08	-1.633222e+01	-1.322924e+03
6.000000e-07	-2.185899e-06	-1.997680e-08	-1.566724e+01	-1.313147e+03
6.100000e-07	-2.092357e-06	-1.981467e-08	-1.499678e+01	-1.302849e+03
6.200000e-07	-1.998028e-06	-1.964866e-08	-1.432069e+01	-1.291918e+03
6.300000e-07	-1.903045e-06	-1.947370e-08	-1.363991e+01	-1.280310e+03
6.400000e-07	-1.807512e-06	-1.929041e-08	-1.295518e+01	-1.268069e+03
6.500000e-07	-1.711353e-06	-1.909955e-08	-1.226598e+01	-1.255305e+03
6.600000e-07	-1.614443e-06	-1.890465e-08	-1.157138e+01	-1.242157e+03
6.700000e-07	-1.516729e-06	-1.870544e-08	-1.087102e+01	-1.228741e+03
6.800000e-07	-1.418373e-06	-1.849875e-08	-1.016607e+01	-1.215107e+03
6.900000e-07	-1.319527e-06	-1.828130e-08	-9.457590e+00	-1.201204e+03
7.000000e-07	-1.220259e-06	-1.805091e-08	-8.746098e+00	-1.186887e+03
7.100000e-07	-1.120626e-06	-1.781029e-08	-8.031987e+00	-1.171945e+03
7.200000e-07	-1.020657e-06	-1.756181e-08	-7.315467e+00	-1.156156e+03
7.300000e-07	-9.203818e-07	-1.730671e-08	-6.596755e+00	-1.139344e+03
7.400000e-07	-8.197955e-07	-1.704322e-08	-5.875812e+00	-1.121429e+03
7.500000e-07	-7.189476e-07	-1.676918e-08	-5.152994e+00	-1.102438e+03
7.600000e-07	-6.178875e-07	-1.647744e-08	-4.428654e+00	-1.082489e+03
7.700000e-07	-5.166216e-07	-1.616548e-08	-3.702840e+00	-1.061736e+03
7.800000e-07	-4.152102e-07	-1.583629e-08	-2.975982e+00	-1.040295e+03
7.900000e-07	-3.136522e-07	-1.549074e-08	-2.248074e+00	-1.018176e+03
8.000000e-07	-2.119648e-07	-1.512973e-08	-1.519239e+00	-9.952375e+02
8.100000e-07	-1.102048e-07	-1.475131e-08	-7.898833e-01	-9.711856e+02
8.200000e-07	-8.383836e-09	-1.435192e-08	-6.009040e-02	-9.456173e+02
8.300000e-07	9.346830e-08	-1.392765e-08	6.699258e-01	-9.181011e+02
8.400000e-07	1.953857e-07	-1.347386e-08	1.400410e+00	-8.882690e+02
8.500000e-07	2.972584e-07	-1.298845e-08	2.130574e+00	-8.558892e+02
8.600000e-07	3.989728e-07	-1.246927e-08	2.859602e+00	-8.208914e+02
8.700000e-07	5.005500e-07	-1.191277e-08	3.587648e+00	-7.833266e+02
8.800000e-07	6.019314e-07	-1.131377e-08	4.314291e+00	-7.432601e+02
8.900000e-07	7.031129e-07	-1.066361e-08	5.039500e+00	-7.006211e+02
9.000000e-07	8.041034e-07	-9.955808e-09	5.763340e+00	-6.550448e+02
9.100000e-07	9.048642e-07	-9.181557e-09	6.485534e+00	-6.057558e+02
9.200000e-07	1.005351e-06	-8.328730e-09	7.205767e+00	-5.515374e+02
9.300000e-07	1.105572e-06	-7.384747e-09	7.924089e+00	-4.908154e+02
9.400000e-07	1.205476e-06	-6.330861e-09	8.640141e+00	-4.218616e+02
9.500000e-07	1.304878e-06	-5.142474e-09	9.352596e+00	-3.430917e+02
9.600000e-07	1.403755e-06	-3.795465e-09	1.006129e+01	-2.534064e+02
9.700000e-07	1.502085e-06	-2.275372e-09	1.076606e+01	-1.525084e+02
9.800000e-07	1.599724e-06	-5.845693e-10	1.146588e+01	-4.112659e+01
9.900000e-07	1.696577e-06	1.256134e-09	1.216007e+01	7.890966e+01
1.000000e-06	1.792633e-06	3.201047e-09	1.284854e+01	2.047717e+02
1.010000e-06	1.888004e-06	5.185076e-09	1.353210e+01	3.329029e+02
1.020000e-06	1.982805e-06	7.133797e-09	1.421158e+01	4.594165e+02
1.030000e-06	2.076977e-06	8.977719e-09	1.488655e+01	5.805518e+02
1.040000e-06	2.170443e-06	1.066804e-08	1.555646e+01	6.931081e+02
1.050000e-06	2.263223e-06	1.217805e-08	1.622145e+01	7.947789e+02
1.060000e-06	2.355303e-06	1.350138e-08	1.688142e+01	8.843338e+02
1.070000e-06	2.446639e-06	1.465044e-08	1.753607e+01	9.616238e+02
1.080000e-06	2.537056e-06	1.564288e-08	1.818412e+01	1.027423e+03
1.090000e-06	2.626329e-06	1.649929e-08	1.882398e+01	1.083155e+03
1.100000e-06	2.714471e-06	1.723779e-08	1.945573e+01	1.130557e+03
1.110000e-06	2.801693e-06	1.787481e-08	2.008089e+01	1.171370e+03
1.120000e-06	2.888064e-06	1.842390e-08	2.069995e+01	1.207088e+03
1.130000e-06	2.973482e-06	1.890073e-08	2.131217e+01	1.238824e+03
1.140000e-06	3.057977e-06	1.931978e-08	2.191778e+01	1.267286e+03
1.150000e-06	3.141597e-06	1.969162e-08	2.251712e+01	1.292851e+03
1.160000e-06	3.224161e-06	2.002297e-08	2.310889e+01	1.315694e+03
1.170000e-06	3.305457e-06	2.032052e-08	2.369157e+01	1.335932e+03
1.180000e-06	3.385495e-06	2.058904e-08	2.426524e+01	1.353736e+03
1.190000e-06	3.464294e-06	2.082925e-08	2.483002e+01	1.369389e+03
1.200000e-06	3.541830e-06	2.104610e-08	2.538576e+01	1.383280e+03
1.210000e-06	3.618168e-06	2.124569e-08	2.593290e+01	1.395852e+03
1.220000e-06	3.693179e-06	2.143505e-08	2.647053e+01	1.407522e+03
1.230000e-06	3.766576e-06	2.161114e-08	2.699660e+01	1.418599e+03
1.240000e-06	3.838409e-06	2.177374e-08	2.751146e+01	1.429242e+03
1.250000e-06	3.908870e-06	2.192302e-08	2.801648e+01	1.439455e+03
1.260000e-06	3.977997e-06	2.205876e-08	2.851194e+01	1.449123e+03
1.270000e-06	4.045842e-06	2.218190e-08	2.899822e+01	1.458085e+03
1.280000e-06	4.112195e-06	2.229580e-08	2.947379e+01	1.466201e+03
1.290000e-06	4.176842e-06	2.240562e-08	2.993715e+01	1.473422e+03
1.300000e-06	4.239943e-06	2.251010e-08	3.038942e+01	1.479808e+03
1.310000e-06	4.301634e-06	2.260600e-08	3.083158e+01	1.485528e+03
1.320000e-06	4.361984e-06	2.269377e-08	3.126414e+01	1.490811e+03
1.330000e-06	4.420927e-06	2.277632e-08	3.168660e+01	1.495886e+03
1.340000e-06	4.478122e-06	2.285452e-08	3.209654e+01	1.500926e+03
1.350000e-06	4.533558e-06	2.292784e-08	3.249387e+01	1.506006e+03
1.360000e-06	4.587405e-06	2.299807e-08	3.287982e+01	1.511093e+03
1.370000e-06	4.639472e-06	2.306583e-08	3.325301e+01	1.516067e+03
1.380000e-06	4.689547e-06	2.312958e-08	3.361192e+01	1.520772e+03
1.390000e-06	4.737725e-06	2.318929e-08	3.395723e+01	1.525063e+03
1.400000e-06	4.784247e-06	2.324620e-08	3.429067e+01	1.528860e+03
1.410000e-06	4.829197e-06	2.330112e-08	3.461284e+01	1.532167e+03
1.420000e-06	4.872489e-06	2.335182e-08	3.492314e+01	1.535073e+03
1.430000e-06	4.913890e-06	2.339771e-08	3.521987e+01	1.537719e+03
1.440000e-06	4.953483e-06	2.344050e-08	3.550366e+01	1.540257e+03
1.450000e-06	4.991513e-06	2.347964e-08	3.577623e+01	1.542802e+03
1.460000e-06	5.027922e-06	2.351383e-08	3.603719e+01	1.545401e+03
1.470000e-06	5.062577e-06	2.354530e-08	3.628557e+01	1.548022e+03
1.480000e-06	5.095308e-06	2.357671e-08	3.652017e+01	1.550570e+03
1.490000e-06	5.126191e-06	2.360638e-08	3.674152e+01	1.552920e+03
1.500000e-06	5.155417e-06	2.363468e-08	3.695100e+01	1.554960e+03
1.510000e-06	5.182951e-06	2.366209e-08	3.714834e+01	1.556628e+03
1.520000e-06	5.208501e-06	2.368681e-08	3.733147e+01	1.557932e+03
1.530000e-06	5.232029e-06	2.370863e-08	3.750010e+01	1.558950e+03
1.540000e-06	5.253803e-06	2.372707e-08	3.765617e+01	1.559803e+03
1.550000e-06	5.273877e-06	2.374291e-08	3.780005e+01	1.560618e+03
1.560000e-06	5.292139e-06	2.375692e-08	3.793094e+01	1.561492e+03
1.570000e-06	5.308419e-06	2.376903e-08	3.804763e+01	1.562459e+03
1.580000e-06	5.322660e-06	2.377982e-08	3.814970e+01	1.563486e+03
1.590000e-06	5.334839e-06	2.379055e-08	3.823699e+01	1.564481e+03
1.600000e-06	5.344830e-06	2.380155e-08	3.830860e+01	1.565326e+03
1.610000e-06	5.352754e-06	2.381159e-08	3.836539e+01	1.565913e+03
1.620000e-06	5.358794e-06	2.381945e-08	3.840868e+01	1.566180e+03
1.630000e-06	5.363070e-06	2.382360e-08	3.843933e+01	1.566129e+03
1.640000e-06	5.365507e-06	2.382468e-08	3.845680e+01	1.565825e+03
1.650000e-06	5.365954e-06	2.382294e-08	3.846000e+01	1.565376e+03
1.660000e-06	5.364551e-06	2.381706e-08	3.844995e+01	1.564901e+03
1.670000e-06	5.361483e-06	2.381175e-08	3.842796e+01	1.564488e+03
1.680000e-06	5.356734e-06	2.380677e-08	3.839392e+01	1.564172e+03
1.690000e-06	5.350099e-06	2.380140e-08	3.834636e+01	1.563924e+03
1.700000e-06	5.341694e-06	2.379639e-08	3.828612e+01	1.563655e+03
1.710000e-06	5.331756e-06	2.378931e-08	3.821489e+01	1.563250e+03
1.720000e-06	5.320155e-06	2.378349e-08	3.813174e+01	1.562602e+03
1.730000e-06	5.306570e-06	2.375159e-08	3.803437e+01	1.561643e+03
1.740000e-06	5.290919e-06	2.370637e-08	3.792220e+01	1.560369e+03
1.750000e-06	5.273020e-06	2.369338e-08	3.779391e+01	1.558841e+03
1.760000e-06	5.252541e-06	2.368478e-08	3.764713e+01	1.557169e+03
1.770000e-06	5.229752e-06	2.370094e-08	3.748379e+01	1.555477e+03
1.780000e-06	5.205528e-06	2.370220e-08	3.731016e+01	1.553870e+03
1.790000e-06	5.180489e-06	2.363195e-08	3.713070e+01	1.552403e+03
1.800000e-06	5.154100e-06	2.361451e-08	3.694155e+01	1.551066e+03
1.810000e-06	5.125642e-06	2.360353e-08	3.673758e+01	1.549790e+03
1.820000e-06	5.095328e-06	2.355675e-08	3.652032e+01	1.548465e+03
1.830000e-06	5.063286e-06	2.358131e-08	3.629066e+01	1.546974e+03
1.840000e-06	5.029410e-06	2.355227e-08	3.604786e+01	1.545229e+03
1.850000e-06	4.993913e-06	2.349540e-08	3.579343e+01	1.543189e+03
1.860000e-06	4.956621e-06	2.351095e-08	3.552614e+01	1.540869e+03
1.870000e-06	4.917425e-06	2.348074e-08	3.524521e+01	1.538332e+03
1.880000e-06	4.876581e-06	2.345594e-08	3.495246e+01	1.535661e+03
1.890000e-06	4.834023e-06	2.339733e-08	3.464743e+01	1.532931e+03
1.900000e-06	4.789721e-06	2.330172e-08	3.432990e+01	1.530183e+03
1.910000e-06	4.743569e-06	2.332300e-08	3.399911e+01	1.527408e+03
1.920000e-06	4.695527e-06	2.329612e-08	3.365478e+01	1.524552e+03
1.930000e-06	4.645892e-06	2.321676e-08	3.329902e+01	1.521537e+03
1.940000e-06	4.594456e-06	2.318036e-08	3.293036e+01	1.518280e+03
1.950000e-06	4.540968e-06	2.309633e-08	3.254699e+01	1.514732e+03
1.960000e-06	4.485647e-06	2.303094e-08	3.215048e+01	1.510885e+03
1.970000e-06	4.428646e-06	2.297731e-08	3.174193e+01	1.506783e+03
1.980000e-06	4.370103e-06	2.292601e-08	3.132233e+01	1.502509e+03
1.990000e-06	4.310110e-06	2.289243e-08	3.089233e+01	1.498153e+03
2.000000e-06	4.248555e-06	2.282257e-08	3.045115e+01	1.493788e+03
2.010000e-06	4.185353e-06	2.274070e-08	2.999815e+01	1.489444e+03
2.020000e-06	4.120591e-06	2.265059e-08	2.953397e+01	1.485094e+03
2.030000e-06	4.054413e-06	2.259557e-08	2.905965e+01	1.480664e+03
2.040000e-06	3.986900e-06	2.253605e-08	2.857575e+01	1.476053e+03
2.050000e-06	3.917917e-06	2.244475e-08	2.808132e+01	1.471165e+03
2.060000e-06	3.847358e-06	2.238021e-08	2.757560e+01	1.465935e+03
2.070000e-06	3.775402e-06	2.229845e-08	2.705986e+01	1.460356e+03
2.080000e-06	3.702122e-06	2.220894e-08	2.653463e+01	1.454475e+03
2.090000e-06	3.627483e-06	2.211621e-08	2.599967e+01	1.448380e+03
2.100000e-06	3.551472e-06	2.202233e-08	2.545486e+01	1.442171e+03
2.110000e-06	3.473889e-06	2.193587e-08	2.489879e+01	1.435927e+03
2.120000e-06	3.394884e-06	2.183945e-08	2.433253e+01	1.429675e+03
2.130000e-06	3.314713e-06	2.174560e-08	2.375791e+01	1.423379e+03
2.140000e-06	3.233425e-06	2.163954e-08	2.317529e+01	1.416951e+03
2.150000e-06	3.151054e-06	2.152935e-08	2.258490e+01	1.410267e+03
2.160000e-06	3.067631e-06	2.142114e-08	2.198697e+01	1.403210e+03
2.170000e-06	2.983205e-06	2.131464e-08	2.138186e+01	1.395704e+03
2.180000e-06	2.897527e-06	2.120109e-08	2.076777e+01	1.387732e+03
2.190000e-06	2.810615e-06	2.107371e-08	2.014484e+01	1.379347e+03
2.200000e-06	2.722681e-06	2.094622e-08	1.951457e+01	1.370647e+03
2.210000e-06	2.633752e-06	2.081403e-08	1.887718e+01	1.361747e+03
2.220000e-06	2.543903e-06	2.067718e-08	1.823320e+01	1.352734e+03
2.230000e-06	2.453225e-06	2.053949e-08	1.758327e+01	1.343637e+03
2.240000e-06	2.361867e-06	2.040372e-08	1.692848e+01	1.334407e+03
2.250000e-06	2.269847e-06	2.025950e-08	1.626893e+01	1.324930e+03
2.260000e-06	2.176929e-06	2.010200e-08	1.560294e+01	1.315053e+03
2.270000e-06	2.082978e-06	1.993750e-08	1.492956e+01	1.304626e+03
2.280000e-06	1.988154e-06	1.976798e-08	1.424992e+01	1.293549e+03
2.290000e-06	1.892614e-06	1.959404e-08	1.356514e+01	1.281798e+03
2.300000e-06	1.796469e-06	1.941488e-08	1.287603e+01	1.269432e+03
2.310000e-06	1.699797e-06	1.923068e-08	1.218315e+01	1.256573e+03
2.320000e-06	1.602601e-06	1.903883e-08	1.148650e+01	1.243358e+03
2.330000e-06	1.504863e-06	1.883750e-08	1.078598e+01	1.229893e+03
2.340000e-06	1.406615e-06	1.862373e-08	1.008179e+01	1.216208e+03
2.350000e-06	1.307924e-06	1.840127e-08	9.374433e+00	1.202230e+03
2.360000e-06	1.208863e-06	1.817389e-08	8.664422e+00	1.187797e+03
2.370000e-06	1.109532e-06	1.793821e-08	7.952475e+00	1.172690e+03
2.380000e-06	1.009994e-06	1.769087e-08	7.239043e+00	1.156693e+03
2.390000e-06	9.102119e-07	1.742953e-08	6.523864e+00	1.139646e+03
2.400000e-06	8.100771e-07	1.715466e-08	5.806156e+00	1.121493e+03
2.410000e-06	7.095775e-07	1.686835e-08	5.085835e+00	1.102283e+03
2.420000e-06	6.086740e-07	1.657085e-08	4.362617e+00	1.082148e+03
2.430000e-06	5.074426e-07	1.626258e-08	3.637050e+00	1.061239e+03
2.440000e-06	4.060850e-07	1.594104e-08	2.910579e+00	1.039656e+03
2.450000e-06	3.045683e-07	1.559849e-08	2.182966e+00	1.017377e+03
2.460000e-06	2.028627e-07	1.523326e-08	1.454001e+00	9.942284e+02
2.470000e-06	1.010025e-07	1.484636e-08	7.239268e-01	9.698866e+02
2.480000e-06	-9.692024e-10	1.443898e-08	-6.946672e-03	9.439351e+02
2.490000e-06	-1.028968e-07	1.400692e-08	-7.375039e-01	9.159486e+02
2.500000e-06	-2.047215e-07	1.354766e-08	-1.467324e+00	8.855833e+02
2.510000e-06	-3.064795e-07	1.305915e-08	-2.196665e+00	8.526419e+02
2.520000e-06	-4.081072e-07	1.253317e-08	-2.925072e+00	8.170860e+02
2.530000e-06	-5.095565e-07	1.196547e-08	-3.652202e+00	7.789805e+02
2.540000e-06	-6.108144e-07	1.135272e-08	-4.377958e+00	7.383752e+02
2.550000e-06	-7.117974e-07	1.069161e-08	-5.101745e+00	6.951489e+02
2.560000e-06	-8.124598e-07	9.975145e-09	-5.823234e+00	6.488563e+02
2.570000e-06	-9.127466e-07	9.191085e-09	-6.542031e+00	5.986265e+02
2.580000e-06	-1.012699e-06	8.324833e-09	-7.258428e+00	5.431548e+02
2.590000e-06	-1.112356e-06	7.360732e-09	-7.972714e+00	4.808131e+02
2.600000e-06	-1.211655e-06	6.282742e-09	-8.684427e+00	4.098767e+02
2.610000e-06	-1.310575e-06	5.070754e-09	-9.393432e+00	3.288362e+02
2.620000e-06	-1.409074e-06	3.703298e-09	-1.009942e+01	2.367395e+02
2.630000e-06	-1.507015e-06	2.165427e-09	-1.080140e+01	1.334948e+02
2.640000e-06	-1.604400e-06	4.558431e-10	-1.149940e+01	2.006640e+01
2.650000e-06	-1.701351e-06	-1.404445e-09	-1.219428e+01	-1.014876e+02
2.660000e-06	-1.797795e-06	-3.368222e-09	-1.288554e+01	-2.281545e+02
2.670000e-06	-1.893603e-06	-5.365232e-09	-1.357223e+01	-3.562703e+02
2.680000e-06	-1.988766e-06	-7.315004e-09	-1.425430e+01	-4.819363e+02
2.690000e-06	-2.083205e-06	-9.150148e-09	-1.493119e+01	-6.014777e+02
2.700000e-06	-2.176680e-06	-1.082542e-08	-1.560116e+01	-7.118617e+02
2.710000e-06	-2.269120e-06	-1.232021e-08	-1.626372e+01	-8.110032e+02
2.720000e-06	-2.360705e-06	-1.362967e-08	-1.692014e+01	-8.979089e+02
2.730000e-06	-2.451542e-06	-1.476458e-08	-1.757121e+01	-9.726458e+02
2.740000e-06	-2.541544e-06	-1.574818e-08	-1.821629e+01	-1.036154e+03
2.750000e-06	-2.630678e-06	-1.659689e-08	-1.885516e+01	-1.089951e+03
2.760000e-06	-2.718939e-06	-1.732908e-08	-1.948776e+01	-1.135801e+03
2.770000e-06	-2.806358e-06	-1.796177e-08	-2.011432e+01	-1.175409e+03
2.780000e-06	-2.892796e-06	-1.850939e-08	-2.073386e+01	-1.210196e+03
2.790000e-06	-2.978012e-06	-1.898282e-08	-2.134464e+01	-1.241185e+03
2.800000e-06	-3.062067e-06	-1.939513e-08	-2.194710e+01	-1.269005e+03
2.810000e-06	-3.145107e-06	-1.976117e-08	-2.254228e+01	-1.293977e+03
2.820000e-06	-3.227152e-06	-2.008742e-08	-2.313033e+01	-1.316253e+03
2.830000e-06	-3.308139e-06	-2.038091e-08	-2.371080e+01	-1.335953e+03
2.840000e-06	-3.388044e-06	-2.064684e-08	-2.428351e+01	-1.353269e+03
2.850000e-06	-3.466682e-06	-2.089036e-08	-2.484714e+01	-1.368509e+03
2.860000e-06	-3.543808e-06	-2.111639e-08	-2.539993e+01	-1.382082e+03
2.870000e-06	-3.619434e-06	-2.132295e-08	-2.594198e+01	-1.394430e+03
2.880000e-06	-3.693676e-06	-2.150655e-08	-2.647410e+01	-1.405952e+03
2.890000e-06	-3.766599e-06	-2.166992e-08	-2.699677e+01	-1.416929e+03
2.900000e-06	-3.838252e-06	-2.182260e-08	-2.751033e+01	-1.427486e+03
2.910000e-06	-3.908518e-06	-2.196965e-08	-2.801396e+01	-1.437596e+03
2.920000e-06	-3.977191e-06	-2.210856e-08	-2.850616e+01	-1.447128e+03
2.930000e-06	-4.044392e-06	-2.223617e-08	-2.898782e+01	-1.455919e+03
2.940000e-06	-4.110274e-06	-2.235336e-08	-2.946003e+01	-1.463846e+03
