# Temperatura_=_55.37
# Concentracion g/m^3_=_41000.0
# C_Vs_to_Am_M_A/Vsm_=_65563218390.804596
# pendiente_HvsI_1/m_=_3716.3
# ordenada_HvsI_A/m_=_1297.0
# frecuencia_Hz_=_301593.63894775993

Tiempo_(s)	Campo_(V.s)	Magnetizacion_(V.s)	Campo_(kA/m)	Magnetizacion_(A/m)
0.000000e+00	-5.326886e-06	-2.421988e-08	-3.834406e+01	-1.584101e+03
1.000000e-08	-5.324074e-06	-2.421559e-08	-3.832382e+01	-1.583734e+03
2.000000e-08	-5.319534e-06	-2.420940e-08	-3.829114e+01	-1.583463e+03
3.000000e-08	-5.313355e-06	-2.420331e-08	-3.824666e+01	-1.583256e+03
4.000000e-08	-5.305608e-06	-2.419328e-08	-3.819090e+01	-1.583028e+03
5.000000e-08	-5.296112e-06	-2.417836e-08	-3.812255e+01	-1.582666e+03
6.000000e-08	-5.284585e-06	-2.415785e-08	-3.803957e+01	-1.582066e+03
7.000000e-08	-5.271092e-06	-2.413169e-08	-3.794245e+01	-1.581162e+03
8.000000e-08	-5.255455e-06	-2.415349e-08	-3.782988e+01	-1.579952e+03
9.000000e-08	-5.237520e-06	-2.418032e-08	-3.770079e+01	-1.578493e+03
1.000000e-07	-5.217565e-06	-2.412968e-08	-3.755715e+01	-1.576887e+03
1.100000e-07	-5.195777e-06	-2.409064e-08	-3.740031e+01	-1.575249e+03
1.200000e-07	-5.172415e-06	-2.402156e-08	-3.723215e+01	-1.573675e+03
1.300000e-07	-5.147712e-06	-2.391881e-08	-3.705433e+01	-1.572208e+03
1.400000e-07	-5.121389e-06	-2.403536e-08	-3.686485e+01	-1.570832e+03
1.500000e-07	-5.093301e-06	-2.402049e-08	-3.666267e+01	-1.569472e+03
1.600000e-07	-5.063731e-06	-2.388767e-08	-3.644982e+01	-1.568024e+03
1.700000e-07	-5.032630e-06	-2.399695e-08	-3.622594e+01	-1.566382e+03
1.800000e-07	-4.999530e-06	-2.389207e-08	-3.598768e+01	-1.564470e+03
1.900000e-07	-4.964527e-06	-2.374872e-08	-3.573572e+01	-1.562265e+03
2.000000e-07	-4.927998e-06	-2.383455e-08	-3.547278e+01	-1.559799e+03
2.100000e-07	-4.889787e-06	-2.373785e-08	-3.519773e+01	-1.557147e+03
2.200000e-07	-4.849759e-06	-2.365070e-08	-3.490960e+01	-1.554399e+03
2.300000e-07	-4.807809e-06	-2.368091e-08	-3.460763e+01	-1.551627e+03
2.400000e-07	-4.763941e-06	-2.361646e-08	-3.429187e+01	-1.548866e+03
2.500000e-07	-4.718380e-06	-2.360598e-08	-3.396390e+01	-1.546094e+03
2.600000e-07	-4.671030e-06	-2.355129e-08	-3.362307e+01	-1.543244e+03
2.700000e-07	-4.621648e-06	-2.344670e-08	-3.326761e+01	-1.540223e+03
2.800000e-07	-4.570164e-06	-2.341311e-08	-3.289702e+01	-1.536942e+03
2.900000e-07	-4.516823e-06	-2.338402e-08	-3.251306e+01	-1.533346e+03
3.000000e-07	-4.461893e-06	-2.332847e-08	-3.211766e+01	-1.529429e+03
3.100000e-07	-4.405315e-06	-2.325099e-08	-3.171040e+01	-1.525244e+03
3.200000e-07	-4.346912e-06	-2.318655e-08	-3.129000e+01	-1.520878e+03
3.300000e-07	-4.286871e-06	-2.311577e-08	-3.085782e+01	-1.516433e+03
3.400000e-07	-4.225384e-06	-2.304227e-08	-3.041522e+01	-1.511985e+03
3.500000e-07	-4.162471e-06	-2.299060e-08	-2.996235e+01	-1.507568e+03
3.600000e-07	-4.098205e-06	-2.292068e-08	-2.949975e+01	-1.503152e+03
3.700000e-07	-4.032465e-06	-2.284833e-08	-2.902654e+01	-1.498660e+03
3.800000e-07	-3.965073e-06	-2.275722e-08	-2.854145e+01	-1.493984e+03
3.900000e-07	-3.896206e-06	-2.265674e-08	-2.804573e+01	-1.489025e+03
4.000000e-07	-3.826102e-06	-2.259623e-08	-2.754110e+01	-1.483715e+03
4.100000e-07	-3.754771e-06	-2.252131e-08	-2.702764e+01	-1.478046e+03
4.200000e-07	-3.682220e-06	-2.243199e-08	-2.650540e+01	-1.472069e+03
4.300000e-07	-3.608176e-06	-2.233994e-08	-2.597242e+01	-1.465876e+03
4.400000e-07	-3.532438e-06	-2.224924e-08	-2.542725e+01	-1.459572e+03
4.500000e-07	-3.455275e-06	-2.215275e-08	-2.487181e+01	-1.453237e+03
4.600000e-07	-3.376783e-06	-2.205112e-08	-2.430681e+01	-1.446899e+03
4.700000e-07	-3.296928e-06	-2.195332e-08	-2.373199e+01	-1.440523e+03
4.800000e-07	-3.215820e-06	-2.184410e-08	-2.314816e+01	-1.434013e+03
4.900000e-07	-3.133595e-06	-2.173580e-08	-2.255629e+01	-1.427246e+03
5.000000e-07	-3.050363e-06	-2.162240e-08	-2.195717e+01	-1.420103e+03
5.100000e-07	-2.966275e-06	-2.149933e-08	-2.135188e+01	-1.412505e+03
5.200000e-07	-2.881345e-06	-2.137378e-08	-2.074054e+01	-1.404440e+03
5.300000e-07	-2.795447e-06	-2.125222e-08	-2.012223e+01	-1.395964e+03
5.400000e-07	-2.708626e-06	-2.113212e-08	-1.949727e+01	-1.387179e+03
5.500000e-07	-2.620872e-06	-2.100461e-08	-1.886560e+01	-1.378203e+03
5.600000e-07	-2.532140e-06	-2.086614e-08	-1.822689e+01	-1.369124e+03
5.700000e-07	-2.442406e-06	-2.071880e-08	-1.758096e+01	-1.359965e+03
5.800000e-07	-2.351565e-06	-2.056583e-08	-1.692707e+01	-1.350675e+03
5.900000e-07	-2.259737e-06	-2.040699e-08	-1.626607e+01	-1.341131e+03
6.000000e-07	-2.167201e-06	-2.024767e-08	-1.559997e+01	-1.331173e+03
6.100000e-07	-2.073945e-06	-2.008664e-08	-1.492870e+01	-1.320647e+03
6.200000e-07	-1.979917e-06	-1.991616e-08	-1.425186e+01	-1.309453e+03
6.300000e-07	-1.885236e-06	-1.973547e-08	-1.357033e+01	-1.297570e+03
6.400000e-07	-1.789935e-06	-1.955009e-08	-1.288434e+01	-1.285063e+03
6.500000e-07	-1.693983e-06	-1.935933e-08	-1.219365e+01	-1.272061e+03
6.600000e-07	-1.597405e-06	-1.916319e-08	-1.149846e+01	-1.258710e+03
6.700000e-07	-1.500178e-06	-1.896077e-08	-1.079860e+01	-1.245119e+03
6.800000e-07	-1.402272e-06	-1.874867e-08	-1.009385e+01	-1.231316e+03
6.900000e-07	-1.303793e-06	-1.852543e-08	-9.384983e+00	-1.217226e+03
7.000000e-07	-1.204831e-06	-1.829022e-08	-8.672633e+00	-1.202677e+03
7.100000e-07	-1.105436e-06	-1.804739e-08	-7.957163e+00	-1.187442e+03
7.200000e-07	-1.005678e-06	-1.779790e-08	-7.239086e+00	-1.171296e+03
7.300000e-07	-9.056719e-07	-1.754209e-08	-6.519220e+00	-1.154077e+03
7.400000e-07	-8.054383e-07	-1.727389e-08	-5.797717e+00	-1.135726e+03
7.500000e-07	-7.049877e-07	-1.698973e-08	-5.074652e+00	-1.116298e+03
7.600000e-07	-6.043553e-07	-1.668712e-08	-4.350279e+00	-1.095930e+03
7.700000e-07	-5.035383e-07	-1.636528e-08	-3.624576e+00	-1.074779e+03
7.800000e-07	-4.026044e-07	-1.602953e-08	-2.898033e+00	-1.052946e+03
7.900000e-07	-3.015592e-07	-1.567846e-08	-2.170688e+00	-1.030407e+03
8.000000e-07	-2.003549e-07	-1.531143e-08	-1.442198e+00	-1.006978e+03
8.100000e-07	-9.900058e-08	-1.492439e-08	-7.126273e-01	-9.823209e+02
8.200000e-07	2.479895e-09	-1.451332e-08	1.785081e-02	-9.560058e+02
8.300000e-07	1.039787e-07	-1.407567e-08	7.484608e-01	-9.275937e+02
8.400000e-07	2.053846e-07	-1.360935e-08	1.478402e+00	-8.967329e+02
8.500000e-07	3.066771e-07	-1.311105e-08	2.207527e+00	-8.632250e+02
8.600000e-07	4.078901e-07	-1.257459e-08	2.936080e+00	-8.270362e+02
8.700000e-07	5.090191e-07	-1.199731e-08	3.664028e+00	-7.882392e+02
8.800000e-07	6.100139e-07	-1.137407e-08	4.391010e+00	-7.468900e+02
8.900000e-07	7.108137e-07	-1.069915e-08	5.116589e+00	-7.028662e+02
9.000000e-07	8.113627e-07	-9.966745e-09	5.840362e+00	-6.557096e+02
9.100000e-07	9.116957e-07	-9.165913e-09	6.562580e+00	-6.045227e+02
9.200000e-07	1.011783e-06	-8.282786e-09	7.283029e+00	-5.479620e+02
9.300000e-07	1.111601e-06	-7.299097e-09	8.001543e+00	-4.843531e+02
9.400000e-07	1.211080e-06	-6.193040e-09	8.717615e+00	-4.119264e+02
9.500000e-07	1.310065e-06	-4.941608e-09	9.430130e+00	-3.291389e+02
9.600000e-07	1.408452e-06	-3.524413e-09	1.013834e+01	-2.350261e+02
9.700000e-07	1.506190e-06	-1.932996e-09	1.084188e+01	-1.295119e+02
9.800000e-07	1.603185e-06	-1.724669e-10	1.154007e+01	-1.360726e+01
9.900000e-07	1.699443e-06	1.732673e-09	1.223296e+01	1.105539e+02
1.000000e-06	1.795064e-06	3.732736e-09	1.292126e+01	2.398623e+02
1.010000e-06	1.890059e-06	5.755971e-09	1.360505e+01	3.705477e+02
1.020000e-06	1.984440e-06	7.723792e-09	1.428442e+01	4.986090e+02
1.030000e-06	2.078152e-06	9.571082e-09	1.495899e+01	6.202862e+02
1.040000e-06	2.171110e-06	1.125142e-08	1.562811e+01	7.324881e+02
1.050000e-06	2.263384e-06	1.274223e-08	1.629232e+01	8.331039e+02
1.060000e-06	2.355062e-06	1.404361e-08	1.695224e+01	9.211475e+02
1.070000e-06	2.446014e-06	1.517019e-08	1.760693e+01	9.967205e+02
1.080000e-06	2.535877e-06	1.614128e-08	1.825378e+01	1.060817e+03
1.090000e-06	2.624537e-06	1.697693e-08	1.889198e+01	1.115016e+03
1.100000e-06	2.712286e-06	1.769524e-08	1.952362e+01	1.161145e+03
1.110000e-06	2.799169e-06	1.831466e-08	2.014902e+01	1.200957e+03
1.120000e-06	2.885100e-06	1.885049e-08	2.076757e+01	1.235910e+03
1.130000e-06	2.970040e-06	1.931688e-08	2.137899e+01	1.267048e+03
1.140000e-06	3.054108e-06	1.972809e-08	2.198412e+01	1.295007e+03
1.150000e-06	3.137336e-06	2.009322e-08	2.258321e+01	1.320105e+03
1.160000e-06	3.219399e-06	2.041746e-08	2.317392e+01	1.342489e+03
1.170000e-06	3.300170e-06	2.070730e-08	2.375533e+01	1.362273e+03
1.180000e-06	3.379759e-06	2.096953e-08	2.432822e+01	1.379646e+03
1.190000e-06	3.458154e-06	2.120816e-08	2.489253e+01	1.394918e+03
1.200000e-06	3.535314e-06	2.142444e-08	2.544795e+01	1.408503e+03
1.210000e-06	3.611256e-06	2.162294e-08	2.599459e+01	1.420852e+03
1.220000e-06	3.685769e-06	2.180841e-08	2.653095e+01	1.432370e+03
1.230000e-06	3.758595e-06	2.197919e-08	2.705517e+01	1.443342e+03
1.240000e-06	3.829920e-06	2.213625e-08	2.756858e+01	1.453896e+03
1.250000e-06	3.899958e-06	2.228163e-08	2.807273e+01	1.464002e+03
1.260000e-06	3.968662e-06	2.241651e-08	2.856728e+01	1.473529e+03
1.270000e-06	4.036091e-06	2.253977e-08	2.905264e+01	1.482308e+03
1.280000e-06	4.101938e-06	2.265265e-08	2.952663e+01	1.490215e+03
1.290000e-06	4.166070e-06	2.275858e-08	2.998826e+01	1.497221e+03
1.300000e-06	4.228806e-06	2.285914e-08	3.043985e+01	1.503417e+03
1.310000e-06	4.290143e-06	2.295279e-08	3.088137e+01	1.508992e+03
1.320000e-06	4.350153e-06	2.304035e-08	3.131333e+01	1.514185e+03
1.330000e-06	4.408672e-06	2.312346e-08	3.173456e+01	1.519223e+03
1.340000e-06	4.465365e-06	2.320108e-08	3.214265e+01	1.524262e+03
1.350000e-06	4.520345e-06	2.327319e-08	3.253841e+01	1.529354e+03
1.360000e-06	4.573771e-06	2.334132e-08	3.292298e+01	1.534444e+03
1.370000e-06	4.625420e-06	2.340744e-08	3.329476e+01	1.539396e+03
1.380000e-06	4.674995e-06	2.347103e-08	3.365161e+01	1.544048e+03
1.390000e-06	4.722675e-06	2.353185e-08	3.399482e+01	1.548266e+03
1.400000e-06	4.768708e-06	2.359062e-08	3.432618e+01	1.551985e+03
1.410000e-06	4.813222e-06	2.364598e-08	3.464660e+01	1.555228e+03
1.420000e-06	4.856181e-06	2.369694e-08	3.495583e+01	1.558100e+03
1.430000e-06	4.897248e-06	2.374423e-08	3.525144e+01	1.560753e+03
1.440000e-06	4.936498e-06	2.378805e-08	3.553397e+01	1.563333e+03
1.450000e-06	4.974124e-06	2.382648e-08	3.580481e+01	1.565946e+03
1.460000e-06	5.010175e-06	2.385969e-08	3.606431e+01	1.568619e+03
1.470000e-06	5.044447e-06	2.389233e-08	3.631101e+01	1.571303e+03
1.480000e-06	5.076750e-06	2.392486e-08	3.654353e+01	1.573889e+03
1.490000e-06	5.107324e-06	2.395482e-08	3.676361e+01	1.576246e+03
1.500000e-06	5.136295e-06	2.398424e-08	3.697215e+01	1.578269e+03
1.510000e-06	5.163604e-06	2.401241e-08	3.716872e+01	1.579906e+03
1.520000e-06	5.188876e-06	2.403730e-08	3.735064e+01	1.581182e+03
1.530000e-06	5.212070e-06	2.405839e-08	3.751759e+01	1.582185e+03
1.540000e-06	5.233511e-06	2.407483e-08	3.767193e+01	1.583042e+03
1.550000e-06	5.253317e-06	2.408994e-08	3.781449e+01	1.583881e+03
1.560000e-06	5.271324e-06	2.410343e-08	3.794412e+01	1.584787e+03
1.570000e-06	5.287308e-06	2.411496e-08	3.805917e+01	1.585785e+03
1.580000e-06	5.301300e-06	2.412641e-08	3.815989e+01	1.586827e+03
1.590000e-06	5.313263e-06	2.413757e-08	3.824600e+01	1.587817e+03
1.600000e-06	5.323024e-06	2.414838e-08	3.831626e+01	1.588637e+03
1.610000e-06	5.330703e-06	2.415790e-08	3.837154e+01	1.589187e+03
1.620000e-06	5.336531e-06	2.416574e-08	3.841349e+01	1.589417e+03
1.630000e-06	5.340584e-06	2.417111e-08	3.844266e+01	1.589344e+03
1.640000e-06	5.342768e-06	2.417425e-08	3.845839e+01	1.589043e+03
1.650000e-06	5.342992e-06	2.417319e-08	3.846000e+01	1.588625e+03
1.660000e-06	5.341415e-06	2.416555e-08	3.844864e+01	1.588203e+03
1.670000e-06	5.338204e-06	2.416007e-08	3.842553e+01	1.587855e+03
1.680000e-06	5.333300e-06	2.415567e-08	3.839023e+01	1.587601e+03
1.690000e-06	5.326526e-06	2.415174e-08	3.834147e+01	1.587397e+03
1.700000e-06	5.317997e-06	2.414826e-08	3.828008e+01	1.587149e+03
1.710000e-06	5.307898e-06	2.414510e-08	3.820738e+01	1.586743e+03
1.720000e-06	5.296126e-06	2.415359e-08	3.812265e+01	1.586080e+03
1.730000e-06	5.282410e-06	2.411266e-08	3.802391e+01	1.585108e+03
1.740000e-06	5.266598e-06	2.402820e-08	3.791010e+01	1.583836e+03
1.750000e-06	5.248513e-06	2.402895e-08	3.777992e+01	1.582335e+03
1.760000e-06	5.227864e-06	2.402951e-08	3.763128e+01	1.580711e+03
1.770000e-06	5.204936e-06	2.408548e-08	3.746624e+01	1.579080e+03
1.780000e-06	5.180726e-06	2.412679e-08	3.729197e+01	1.577526e+03
1.790000e-06	5.155756e-06	2.393471e-08	3.711223e+01	1.576081e+03
1.800000e-06	5.129313e-06	2.396010e-08	3.692189e+01	1.574715e+03
1.810000e-06	5.100837e-06	2.399886e-08	3.671691e+01	1.573345e+03
1.820000e-06	5.070628e-06	2.382422e-08	3.649947e+01	1.571862e+03
1.830000e-06	5.038587e-06	2.395409e-08	3.626883e+01	1.570166e+03
1.840000e-06	5.004602e-06	2.397960e-08	3.602419e+01	1.568190e+03
1.850000e-06	4.969032e-06	2.380631e-08	3.576815e+01	1.565923e+03
1.860000e-06	4.931640e-06	2.390439e-08	3.549900e+01	1.563409e+03
1.870000e-06	4.892324e-06	2.385580e-08	3.521600e+01	1.560728e+03
1.880000e-06	4.851361e-06	2.376513e-08	3.492113e+01	1.557968e+03
1.890000e-06	4.808680e-06	2.377160e-08	3.461390e+01	1.555197e+03
1.900000e-06	4.764366e-06	2.362074e-08	3.429492e+01	1.552436e+03
1.910000e-06	4.718287e-06	2.368082e-08	3.396324e+01	1.549653e+03
1.920000e-06	4.670362e-06	2.368530e-08	3.361826e+01	1.546774e+03
1.930000e-06	4.620812e-06	2.352446e-08	3.326159e+01	1.543703e+03
1.940000e-06	4.569394e-06	2.349723e-08	3.289148e+01	1.540356e+03
1.950000e-06	4.516017e-06	2.342909e-08	3.250726e+01	1.536688e+03
1.960000e-06	4.460853e-06	2.340563e-08	3.211018e+01	1.532707e+03
1.970000e-06	4.403932e-06	2.333977e-08	3.170044e+01	1.528473e+03
1.980000e-06	4.345432e-06	2.325475e-08	3.127935e+01	1.524081e+03
1.990000e-06	4.285493e-06	2.325625e-08	3.084789e+01	1.519629e+03
2.000000e-06	4.224067e-06	2.313967e-08	3.040574e+01	1.515186e+03
2.010000e-06	4.160952e-06	2.306126e-08	2.995142e+01	1.510772e+03
2.020000e-06	4.096186e-06	2.299859e-08	2.948522e+01	1.506347e+03
2.030000e-06	4.030067e-06	2.294278e-08	2.900928e+01	1.501823e+03
2.040000e-06	3.962640e-06	2.290050e-08	2.852393e+01	1.497094e+03
2.050000e-06	3.893797e-06	2.276894e-08	2.802839e+01	1.492062e+03
2.060000e-06	3.823355e-06	2.270309e-08	2.752133e+01	1.486673e+03
2.070000e-06	3.751427e-06	2.262720e-08	2.700358e+01	1.480931e+03
2.080000e-06	3.678255e-06	2.252791e-08	2.647686e+01	1.474897e+03
2.090000e-06	3.603868e-06	2.243978e-08	2.594141e+01	1.468671e+03
2.100000e-06	3.528149e-06	2.233853e-08	2.539637e+01	1.462354e+03
2.110000e-06	3.450910e-06	2.226429e-08	2.484039e+01	1.456017e+03
2.120000e-06	3.372210e-06	2.216157e-08	2.427389e+01	1.449675e+03
2.130000e-06	3.292246e-06	2.205978e-08	2.369829e+01	1.443278e+03
2.140000e-06	3.211183e-06	2.195035e-08	2.311478e+01	1.436724e+03
2.150000e-06	3.129056e-06	2.184033e-08	2.252361e+01	1.429884e+03
2.160000e-06	3.045860e-06	2.174253e-08	2.192475e+01	1.422646e+03
2.170000e-06	2.961636e-06	2.162618e-08	2.131849e+01	1.414946e+03
2.180000e-06	2.876274e-06	2.150482e-08	2.070403e+01	1.406785e+03
2.190000e-06	2.789651e-06	2.137191e-08	2.008050e+01	1.398232e+03
2.200000e-06	2.701905e-06	2.123970e-08	1.944889e+01	1.389396e+03
2.210000e-06	2.613292e-06	2.110576e-08	1.881104e+01	1.380391e+03
2.220000e-06	2.523809e-06	2.097298e-08	1.816692e+01	1.371294e+03
2.230000e-06	2.433437e-06	2.084154e-08	1.751640e+01	1.362113e+03
2.240000e-06	2.342380e-06	2.069873e-08	1.686095e+01	1.352780e+03
2.250000e-06	2.250566e-06	2.054387e-08	1.620006e+01	1.343160e+03
2.260000e-06	2.157858e-06	2.037914e-08	1.553272e+01	1.333090e+03
2.270000e-06	2.064281e-06	2.021548e-08	1.485913e+01	1.322427e+03
2.280000e-06	1.969945e-06	2.004750e-08	1.418008e+01	1.311082e+03
2.290000e-06	1.874831e-06	1.986807e-08	1.349544e+01	1.299056e+03
2.300000e-06	1.778911e-06	1.968266e-08	1.280498e+01	1.286430e+03
2.310000e-06	1.682451e-06	1.949292e-08	1.211065e+01	1.273340e+03
2.320000e-06	1.585548e-06	1.929647e-08	1.141312e+01	1.259929e+03
2.330000e-06	1.488130e-06	1.908844e-08	1.071188e+01	1.246293e+03
2.340000e-06	1.390245e-06	1.887086e-08	1.000728e+01	1.232438e+03
2.350000e-06	1.291927e-06	1.864801e-08	9.299564e+00	1.218265e+03
2.360000e-06	1.193190e-06	1.841742e-08	8.588838e+00	1.203588e+03
2.370000e-06	1.094138e-06	1.817445e-08	7.875843e+00	1.188174e+03
2.380000e-06	9.948037e-07	1.791842e-08	7.160809e+00	1.171808e+03
2.390000e-06	8.951757e-07	1.765146e-08	6.443666e+00	1.154346e+03
2.400000e-06	7.952372e-07	1.737399e-08	5.724287e+00	1.135755e+03
2.410000e-06	6.949925e-07	1.708675e-08	5.002704e+00	1.116111e+03
2.420000e-06	5.945574e-07	1.678689e-08	4.279751e+00	1.095562e+03
2.430000e-06	4.939730e-07	1.647197e-08	3.555723e+00	1.074259e+03
2.440000e-06	3.932305e-07	1.613851e-08	2.830557e+00	1.052280e+03
2.450000e-06	2.922817e-07	1.578371e-08	2.103906e+00	1.029570e+03
2.460000e-06	1.910814e-07	1.540941e-08	1.375445e+00	1.005909e+03
2.470000e-06	8.979316e-08	1.501565e-08	6.463503e-01	9.809342e+02
2.480000e-06	-1.151206e-08	1.459917e-08	-8.286624e-02	9.542039e+02
2.490000e-06	-1.128165e-07	1.415344e-08	-8.120773e-01	9.252911e+02
2.500000e-06	-2.140292e-07	1.367914e-08	-1.540628e+00	8.938728e+02
2.510000e-06	-3.151241e-07	1.317472e-08	-2.268331e+00	8.597871e+02
2.520000e-06	-4.161102e-07	1.263242e-08	-2.995250e+00	8.230305e+02
2.530000e-06	-5.169819e-07	1.204771e-08	-3.721346e+00	7.836843e+02
2.540000e-06	-6.177337e-07	1.141489e-08	-4.446579e+00	7.417804e+02
2.550000e-06	-7.182816e-07	1.072819e-08	-5.170344e+00	6.971366e+02
2.560000e-06	-8.185099e-07	9.978376e-09	-5.891809e+00	6.492067e+02
2.570000e-06	-9.184144e-07	9.157806e-09	-6.610943e+00	5.969942e+02
2.580000e-06	-1.018057e-06	8.255549e-09	-7.328195e+00	5.390705e+02
2.590000e-06	-1.117373e-06	7.252056e-09	-8.043089e+00	4.737175e+02
2.600000e-06	-1.216289e-06	6.127505e-09	-8.755108e+00	3.991850e+02
2.610000e-06	-1.314839e-06	4.858756e-09	-9.464492e+00	3.140246e+02
2.620000e-06	-1.412919e-06	3.423651e-09	-1.017049e+01	2.174389e+02
2.630000e-06	-1.510431e-06	1.811754e-09	-1.087240e+01	1.095730e+02
2.640000e-06	-1.607417e-06	2.814575e-11	-1.157053e+01	-8.318316e+00
2.650000e-06	-1.703907e-06	-1.900167e-09	-1.226509e+01	-1.338736e+02
2.660000e-06	-1.799921e-06	-3.918411e-09	-1.295622e+01	-2.638106e+02
2.670000e-06	-1.895379e-06	-5.950521e-09	-1.364335e+01	-3.942705e+02
2.680000e-06	-1.990082e-06	-7.915544e-09	-1.432504e+01	-5.212646e+02
2.690000e-06	-2.083807e-06	-9.750503e-09	-1.499968e+01	-6.411430e+02
2.700000e-06	-2.176503e-06	-1.141637e-08	-1.566694e+01	-7.510036e+02
2.710000e-06	-2.268405e-06	-1.289256e-08	-1.632846e+01	-8.489707e+02
2.720000e-06	-2.359615e-06	-1.417912e-08	-1.698501e+01	-9.343003e+02
2.730000e-06	-2.450050e-06	-1.529186e-08	-1.763598e+01	-1.007306e+03
2.740000e-06	-2.539608e-06	-1.625258e-08	-1.828064e+01	-1.069136e+03
2.750000e-06	-2.628245e-06	-1.708142e-08	-1.891867e+01	-1.121452e+03
2.760000e-06	-2.716100e-06	-1.779657e-08	-1.955107e+01	-1.166088e+03
2.770000e-06	-2.803156e-06	-1.841388e-08	-2.017772e+01	-1.204751e+03
2.780000e-06	-2.889049e-06	-1.894741e-08	-2.079599e+01	-1.238814e+03
2.790000e-06	-2.973712e-06	-1.940893e-08	-2.140542e+01	-1.269231e+03
2.800000e-06	-3.057402e-06	-1.981224e-08	-2.200783e+01	-1.296559e+03
2.810000e-06	-3.140130e-06	-2.016899e-08	-2.260333e+01	-1.321068e+03
2.820000e-06	-3.221796e-06	-2.048656e-08	-2.319117e+01	-1.342885e+03
2.830000e-06	-3.302341e-06	-2.077460e-08	-2.377096e+01	-1.362134e+03
2.840000e-06	-3.381856e-06	-2.103794e-08	-2.434332e+01	-1.379027e+03
2.850000e-06	-3.460060e-06	-2.128029e-08	-2.490625e+01	-1.393902e+03
2.860000e-06	-3.536687e-06	-2.150234e-08	-2.545783e+01	-1.407185e+03
2.870000e-06	-3.611914e-06	-2.170311e-08	-2.599933e+01	-1.419326e+03
2.880000e-06	-3.685729e-06	-2.188286e-08	-2.653067e+01	-1.430709e+03
2.890000e-06	-3.758226e-06	-2.204548e-08	-2.705252e+01	-1.441588e+03
2.900000e-06	-3.829499e-06	-2.219786e-08	-2.756555e+01	-1.452053e+03
2.910000e-06	-3.899181e-06	-2.234107e-08	-2.806714e+01	-1.462050e+03
2.920000e-06	-3.967336e-06	-2.247451e-08	-2.855773e+01	-1.471432e+03
2.930000e-06	-4.034226e-06	-2.259911e-08	-2.903922e+01	-1.480033e+03
2.940000e-06	-4.099708e-06	-2.271594e-08	-2.951058e+01	-1.487746e+03
