# Temperatura_=_60.42
# Concentracion g/m^3_=_41000.0
# C_Vs_to_Am_M_A/Vsm_=_65563218390.804596
# pendiente_HvsI_1/m_=_3716.3
# ordenada_HvsI_A/m_=_1297.0
# frecuencia_Hz_=_301592.0615375329

Tiempo_(s)	Campo_(V.s)	Magnetizacion_(V.s)	Campo_(kA/m)	Magnetizacion_(A/m)
0.000000e+00	-5.346870e-06	-2.384478e-08	-3.834711e+01	-1.558921e+03
1.000000e-08	-5.344295e-06	-2.384193e-08	-3.832864e+01	-1.558627e+03
2.000000e-08	-5.339893e-06	-2.383252e-08	-3.829707e+01	-1.558449e+03
3.000000e-08	-5.333856e-06	-2.382494e-08	-3.825377e+01	-1.558333e+03
4.000000e-08	-5.326251e-06	-2.381602e-08	-3.819923e+01	-1.558170e+03
5.000000e-08	-5.316957e-06	-2.380304e-08	-3.813257e+01	-1.557833e+03
6.000000e-08	-5.305650e-06	-2.378528e-08	-3.805148e+01	-1.557213e+03
7.000000e-08	-5.292354e-06	-2.375281e-08	-3.795612e+01	-1.556255e+03
8.000000e-08	-5.276935e-06	-2.376272e-08	-3.784554e+01	-1.554974e+03
9.000000e-08	-5.259208e-06	-2.381382e-08	-3.771840e+01	-1.553451e+03
1.000000e-07	-5.239457e-06	-2.376867e-08	-3.757675e+01	-1.551808e+03
1.100000e-07	-5.217899e-06	-2.371151e-08	-3.742214e+01	-1.550174e+03
1.200000e-07	-5.194681e-06	-2.366657e-08	-3.725562e+01	-1.548649e+03
1.300000e-07	-5.170116e-06	-2.352795e-08	-3.707945e+01	-1.547271e+03
1.400000e-07	-5.143953e-06	-2.361944e-08	-3.689181e+01	-1.546011e+03
1.500000e-07	-5.115913e-06	-2.368414e-08	-3.669071e+01	-1.544783e+03
1.600000e-07	-5.086376e-06	-2.349183e-08	-3.647887e+01	-1.543469e+03
1.700000e-07	-5.055443e-06	-2.359443e-08	-3.625703e+01	-1.541959e+03
1.800000e-07	-5.022532e-06	-2.356868e-08	-3.602099e+01	-1.540176e+03
1.900000e-07	-4.987621e-06	-2.336254e-08	-3.577061e+01	-1.538100e+03
2.000000e-07	-4.951194e-06	-2.349111e-08	-3.550937e+01	-1.535771e+03
2.100000e-07	-4.913100e-06	-2.343652e-08	-3.523616e+01	-1.533263e+03
2.200000e-07	-4.873261e-06	-2.328166e-08	-3.495044e+01	-1.530664e+03
2.300000e-07	-4.831493e-06	-2.331491e-08	-3.465088e+01	-1.528043e+03
2.400000e-07	-4.787726e-06	-2.323888e-08	-3.433699e+01	-1.525420e+03
2.500000e-07	-4.742227e-06	-2.322548e-08	-3.401068e+01	-1.522766e+03
2.600000e-07	-4.694931e-06	-2.322830e-08	-3.367147e+01	-1.520009e+03
2.700000e-07	-4.645645e-06	-2.311335e-08	-3.331800e+01	-1.517056e+03
2.800000e-07	-4.594203e-06	-2.304810e-08	-3.294907e+01	-1.513829e+03
2.900000e-07	-4.540832e-06	-2.300449e-08	-3.256630e+01	-1.510285e+03
3.000000e-07	-4.485901e-06	-2.296155e-08	-3.217234e+01	-1.506438e+03
3.100000e-07	-4.429346e-06	-2.290322e-08	-3.176674e+01	-1.502348e+03
3.200000e-07	-4.370940e-06	-2.285029e-08	-3.134785e+01	-1.498111e+03
3.300000e-07	-4.310910e-06	-2.279010e-08	-3.091733e+01	-1.493820e+03
3.400000e-07	-4.249434e-06	-2.269265e-08	-3.047643e+01	-1.489539e+03
3.500000e-07	-4.186513e-06	-2.263825e-08	-3.002516e+01	-1.485280e+03
3.600000e-07	-4.122220e-06	-2.256928e-08	-2.956406e+01	-1.480997e+03
3.700000e-07	-4.056337e-06	-2.250416e-08	-2.909156e+01	-1.476600e+03
3.800000e-07	-3.988820e-06	-2.244114e-08	-2.860734e+01	-1.471980e+03
3.900000e-07	-3.919893e-06	-2.233071e-08	-2.811300e+01	-1.467048e+03
4.000000e-07	-3.849711e-06	-2.225634e-08	-2.760966e+01	-1.461760e+03
4.100000e-07	-3.778354e-06	-2.218070e-08	-2.709790e+01	-1.456131e+03
4.200000e-07	-3.705762e-06	-2.209511e-08	-2.657728e+01	-1.450233e+03
4.300000e-07	-3.631587e-06	-2.200633e-08	-2.604530e+01	-1.444171e+03
4.400000e-07	-3.555768e-06	-2.191998e-08	-2.550154e+01	-1.438047e+03
4.500000e-07	-3.478620e-06	-2.183151e-08	-2.494824e+01	-1.431926e+03
4.600000e-07	-3.400070e-06	-2.173116e-08	-2.438489e+01	-1.425812e+03
4.700000e-07	-3.320054e-06	-2.163661e-08	-2.381102e+01	-1.419639e+03
4.800000e-07	-3.238834e-06	-2.152581e-08	-2.322852e+01	-1.413292e+03
4.900000e-07	-3.156556e-06	-2.141068e-08	-2.263843e+01	-1.406633e+03
5.000000e-07	-3.073244e-06	-2.129982e-08	-2.204094e+01	-1.399547e+03
5.100000e-07	-2.989059e-06	-2.118352e-08	-2.143717e+01	-1.391974e+03
5.200000e-07	-2.903994e-06	-2.106204e-08	-2.082710e+01	-1.383927e+03
5.300000e-07	-2.817891e-06	-2.094045e-08	-2.020957e+01	-1.375486e+03
5.400000e-07	-2.730862e-06	-2.081830e-08	-1.958541e+01	-1.366773e+03
5.500000e-07	-2.643007e-06	-2.069169e-08	-1.895533e+01	-1.357911e+03
5.600000e-07	-2.554131e-06	-2.055481e-08	-1.831792e+01	-1.348979e+03
5.700000e-07	-2.464066e-06	-2.041187e-08	-1.767198e+01	-1.339981e+03
5.800000e-07	-2.372946e-06	-2.026304e-08	-1.701848e+01	-1.330840e+03
5.900000e-07	-2.281015e-06	-2.010538e-08	-1.635916e+01	-1.321413e+03
6.000000e-07	-2.188370e-06	-1.994127e-08	-1.569472e+01	-1.311530e+03
6.100000e-07	-2.094937e-06	-1.977684e-08	-1.502464e+01	-1.301045e+03
6.200000e-07	-2.000693e-06	-1.961004e-08	-1.434873e+01	-1.289879e+03
6.300000e-07	-1.905808e-06	-1.943482e-08	-1.366822e+01	-1.278039e+03
6.400000e-07	-1.810329e-06	-1.925630e-08	-1.298346e+01	-1.265620e+03
6.500000e-07	-1.714191e-06	-1.907006e-08	-1.229397e+01	-1.252769e+03
6.600000e-07	-1.617320e-06	-1.887306e-08	-1.159922e+01	-1.239634e+03
6.700000e-07	-1.519688e-06	-1.866739e-08	-1.089902e+01	-1.226307e+03
6.800000e-07	-1.421408e-06	-1.845425e-08	-1.019416e+01	-1.212782e+03
6.900000e-07	-1.322597e-06	-1.823368e-08	-9.485505e+00	-1.198946e+03
7.000000e-07	-1.223309e-06	-1.800485e-08	-8.773426e+00	-1.184592e+03
7.100000e-07	-1.123621e-06	-1.776739e-08	-8.058471e+00	-1.169477e+03
7.200000e-07	-1.023637e-06	-1.751862e-08	-7.341401e+00	-1.153379e+03
7.300000e-07	-9.234315e-07	-1.726014e-08	-6.622739e+00	-1.136160e+03
7.400000e-07	-8.230016e-07	-1.699018e-08	-5.902468e+00	-1.117803e+03
7.500000e-07	-7.223343e-07	-1.670916e-08	-5.180494e+00	-1.098402e+03
7.600000e-07	-6.214210e-07	-1.641164e-08	-4.456756e+00	-1.078123e+03
7.700000e-07	-5.202255e-07	-1.609385e-08	-3.730994e+00	-1.057131e+03
7.800000e-07	-4.188886e-07	-1.576001e-08	-3.004218e+00	-1.035503e+03
7.900000e-07	-3.174687e-07	-1.540752e-08	-2.276847e+00	-1.013174e+03
8.000000e-07	-2.158577e-07	-1.503645e-08	-1.548105e+00	-9.899011e+02
8.100000e-07	-1.140664e-07	-1.464700e-08	-8.180702e-01	-9.652984e+02
8.200000e-07	-1.221399e-08	-1.423887e-08	-8.759723e-02	-9.389037e+02
8.300000e-07	8.960278e-08	-1.380465e-08	6.426203e-01	-9.102789e+02
8.400000e-07	1.913986e-07	-1.333694e-08	1.372687e+00	-8.791037e+02
8.500000e-07	2.931783e-07	-1.283373e-08	2.102639e+00	-8.452318e+02
8.600000e-07	3.948705e-07	-1.228970e-08	2.831964e+00	-8.086818e+02
8.700000e-07	4.964151e-07	-1.170522e-08	3.560229e+00	-7.695546e+02
8.800000e-07	5.977577e-07	-1.107510e-08	4.287046e+00	-7.278887e+02
8.900000e-07	6.988824e-07	-1.039047e-08	5.012300e+00	-6.834870e+02
9.000000e-07	7.998135e-07	-9.644539e-09	5.736165e+00	-6.357633e+02
9.100000e-07	9.005160e-07	-8.825958e-09	6.458392e+00	-5.836603e+02
9.200000e-07	1.000989e-06	-7.919825e-09	7.178974e+00	-5.256789e+02
9.300000e-07	1.101183e-06	-6.907275e-09	7.897550e+00	-4.600378e+02
9.400000e-07	1.201014e-06	-5.766327e-09	8.613526e+00	-3.849502e+02
9.500000e-07	1.300421e-06	-4.472752e-09	9.326462e+00	-2.989750e+02
9.600000e-07	1.399301e-06	-3.007392e-09	1.003562e+01	-2.013764e+02
9.700000e-07	1.497532e-06	-1.362420e-09	1.074012e+01	-9.241600e+01
9.800000e-07	1.595079e-06	4.516739e-10	1.143971e+01	2.649115e+01
9.900000e-07	1.691941e-06	2.400716e-09	1.213440e+01	1.528006e+02
1.000000e-06	1.788084e-06	4.420506e-09	1.282392e+01	2.830519e+02
1.010000e-06	1.883562e-06	6.433215e-09	1.350868e+01	4.132427e+02
1.020000e-06	1.978377e-06	8.363059e-09	1.418868e+01	5.392992e+02
1.030000e-06	2.072539e-06	1.014744e-08	1.486400e+01	6.575608e+02
1.040000e-06	2.165957e-06	1.174918e-08	1.553398e+01	7.651909e+02
1.050000e-06	2.258641e-06	1.315451e-08	1.619870e+01	8.604455e+02
1.060000e-06	2.350732e-06	1.437107e-08	1.685916e+01	9.427569e+02
1.070000e-06	2.442039e-06	1.541673e-08	1.751401e+01	1.012632e+03
1.080000e-06	2.532328e-06	1.631261e-08	1.816155e+01	1.071398e+03
1.090000e-06	2.621571e-06	1.707990e-08	1.880159e+01	1.120861e+03
1.100000e-06	2.709791e-06	1.773873e-08	1.943429e+01	1.162949e+03
1.110000e-06	2.797036e-06	1.830667e-08	2.006001e+01	1.199405e+03
1.120000e-06	2.883362e-06	1.879789e-08	2.067912e+01	1.231590e+03
1.130000e-06	2.968689e-06	1.922666e-08	2.129107e+01	1.260412e+03
1.140000e-06	3.053100e-06	1.960336e-08	2.189646e+01	1.286364e+03
1.150000e-06	3.136725e-06	1.993703e-08	2.249621e+01	1.309656e+03
1.160000e-06	3.219277e-06	2.023442e-08	2.308826e+01	1.330367e+03
1.170000e-06	3.300530e-06	2.050382e-08	2.367100e+01	1.348595e+03
1.180000e-06	3.380562e-06	2.074879e-08	2.424498e+01	1.364549e+03
1.190000e-06	3.459399e-06	2.097337e-08	2.481039e+01	1.378571e+03
1.200000e-06	3.537026e-06	2.117621e-08	2.536712e+01	1.391105e+03
1.210000e-06	3.613439e-06	2.136065e-08	2.591515e+01	1.402608e+03
1.220000e-06	3.688404e-06	2.153305e-08	2.645279e+01	1.413464e+03
1.230000e-06	3.761710e-06	2.169329e-08	2.697853e+01	1.423914e+03
1.240000e-06	3.833519e-06	2.184339e-08	2.749353e+01	1.434026e+03
1.250000e-06	3.903985e-06	2.198176e-08	2.799891e+01	1.443717e+03
1.260000e-06	3.973095e-06	2.210952e-08	2.849455e+01	1.452813e+03
1.270000e-06	4.040907e-06	2.222541e-08	2.898089e+01	1.461135e+03
1.280000e-06	4.107260e-06	2.233171e-08	2.945677e+01	1.468568e+03
1.290000e-06	4.171919e-06	2.243310e-08	2.992050e+01	1.475117e+03
1.300000e-06	4.235077e-06	2.253146e-08	3.037346e+01	1.480908e+03
1.310000e-06	4.296858e-06	2.262206e-08	3.081655e+01	1.486163e+03
1.320000e-06	4.357258e-06	2.270447e-08	3.124973e+01	1.491136e+03
1.330000e-06	4.416160e-06	2.278222e-08	3.167216e+01	1.496049e+03
1.340000e-06	4.473331e-06	2.285657e-08	3.208219e+01	1.501033e+03
1.350000e-06	4.528808e-06	2.292778e-08	3.248006e+01	1.506102e+03
1.360000e-06	4.582695e-06	2.299581e-08	3.286654e+01	1.511162e+03
1.370000e-06	4.634885e-06	2.306143e-08	3.324083e+01	1.516053e+03
1.380000e-06	4.685037e-06	2.312376e-08	3.360052e+01	1.520601e+03
1.390000e-06	4.733171e-06	2.318292e-08	3.394573e+01	1.524676e+03
1.400000e-06	4.779621e-06	2.323973e-08	3.427886e+01	1.528236e+03
1.410000e-06	4.824502e-06	2.329344e-08	3.460074e+01	1.531333e+03
1.420000e-06	4.867838e-06	2.334220e-08	3.491154e+01	1.534093e+03
1.430000e-06	4.909374e-06	2.338653e-08	3.520944e+01	1.536679e+03
1.440000e-06	4.949076e-06	2.342777e-08	3.549417e+01	1.539237e+03
1.450000e-06	4.987140e-06	2.346595e-08	3.576716e+01	1.541852e+03
1.460000e-06	5.023605e-06	2.350146e-08	3.602869e+01	1.544527e+03
1.470000e-06	5.058324e-06	2.353563e-08	3.627768e+01	1.547186e+03
1.480000e-06	5.091088e-06	2.356771e-08	3.651267e+01	1.549700e+03
1.490000e-06	5.122045e-06	2.359463e-08	3.673469e+01	1.551936e+03
1.500000e-06	5.151352e-06	2.361984e-08	3.694487e+01	1.553798e+03
1.510000e-06	5.178944e-06	2.364497e-08	3.714276e+01	1.555260e+03
1.520000e-06	5.204526e-06	2.366757e-08	3.732623e+01	1.556372e+03
1.530000e-06	5.228060e-06	2.368808e-08	3.749502e+01	1.557250e+03
1.540000e-06	5.249785e-06	2.370566e-08	3.765082e+01	1.558035e+03
1.550000e-06	5.269862e-06	2.372170e-08	3.779482e+01	1.558854e+03
1.560000e-06	5.288183e-06	2.373517e-08	3.792621e+01	1.559781e+03
1.570000e-06	5.304429e-06	2.374662e-08	3.804272e+01	1.560815e+03
1.580000e-06	5.318639e-06	2.375760e-08	3.814463e+01	1.561885e+03
1.590000e-06	5.330873e-06	2.376716e-08	3.823237e+01	1.562874e+03
1.600000e-06	5.340952e-06	2.377602e-08	3.830466e+01	1.563654e+03
1.610000e-06	5.348971e-06	2.378528e-08	3.836217e+01	1.564131e+03
1.620000e-06	5.355133e-06	2.379421e-08	3.840637e+01	1.564272e+03
1.630000e-06	5.359577e-06	2.379921e-08	3.843824e+01	1.564118e+03
1.640000e-06	5.362117e-06	2.380057e-08	3.845646e+01	1.563766e+03
1.650000e-06	5.362611e-06	2.380013e-08	3.846000e+01	1.563342e+03
1.660000e-06	5.361288e-06	2.379228e-08	3.845051e+01	1.562962e+03
1.670000e-06	5.358308e-06	2.378663e-08	3.842913e+01	1.562693e+03
1.680000e-06	5.353663e-06	2.378508e-08	3.839583e+01	1.562534e+03
1.690000e-06	5.347110e-06	2.378234e-08	3.834883e+01	1.562417e+03
1.700000e-06	5.338747e-06	2.377845e-08	3.828885e+01	1.562226e+03
1.710000e-06	5.328807e-06	2.377371e-08	3.821756e+01	1.561835e+03
1.720000e-06	5.317217e-06	2.378180e-08	3.813443e+01	1.561144e+03
1.730000e-06	5.303776e-06	2.376374e-08	3.803804e+01	1.560112e+03
1.740000e-06	5.288296e-06	2.365201e-08	3.792702e+01	1.558770e+03
1.750000e-06	5.270537e-06	2.364181e-08	3.779966e+01	1.557209e+03
1.760000e-06	5.250216e-06	2.366018e-08	3.765392e+01	1.555556e+03
1.770000e-06	5.227507e-06	2.368334e-08	3.749104e+01	1.553939e+03
1.780000e-06	5.203361e-06	2.378571e-08	3.731787e+01	1.552443e+03
1.790000e-06	5.178491e-06	2.358469e-08	3.713951e+01	1.551094e+03
1.800000e-06	5.152263e-06	2.354290e-08	3.695140e+01	1.549848e+03
1.810000e-06	5.123929e-06	2.368123e-08	3.674820e+01	1.548611e+03
1.820000e-06	5.093744e-06	2.345728e-08	3.653171e+01	1.547263e+03
1.830000e-06	5.061793e-06	2.352645e-08	3.630257e+01	1.545698e+03
1.840000e-06	5.027952e-06	2.365278e-08	3.605987e+01	1.543850e+03
1.850000e-06	4.992531e-06	2.338942e-08	3.580583e+01	1.541715e+03
1.860000e-06	4.955230e-06	2.348262e-08	3.553831e+01	1.539339e+03
1.870000e-06	4.915960e-06	2.351701e-08	3.525667e+01	1.536803e+03
1.880000e-06	4.875195e-06	2.336874e-08	3.496431e+01	1.534195e+03
1.890000e-06	4.832707e-06	2.345060e-08	3.465959e+01	1.531571e+03
1.900000e-06	4.788515e-06	2.325504e-08	3.434265e+01	1.528945e+03
1.910000e-06	4.742558e-06	2.323281e-08	3.401305e+01	1.526276e+03
1.920000e-06	4.694643e-06	2.334327e-08	3.366941e+01	1.523483e+03
1.930000e-06	4.645107e-06	2.317357e-08	3.331414e+01	1.520477e+03
1.940000e-06	4.593764e-06	2.316584e-08	3.294592e+01	1.517182e+03
1.950000e-06	4.540412e-06	2.308602e-08	3.256328e+01	1.513569e+03
1.960000e-06	4.485218e-06	2.303221e-08	3.216744e+01	1.509662e+03
1.970000e-06	4.428287e-06	2.298916e-08	3.175914e+01	1.505532e+03
1.980000e-06	4.369818e-06	2.285144e-08	3.133981e+01	1.501275e+03
1.990000e-06	4.309929e-06	2.290379e-08	3.091029e+01	1.496981e+03
2.000000e-06	4.248508e-06	2.280477e-08	3.046978e+01	1.492705e+03
2.010000e-06	4.185412e-06	2.271969e-08	3.001727e+01	1.488445e+03
2.020000e-06	4.120675e-06	2.266588e-08	2.955298e+01	1.484145e+03
2.030000e-06	4.054542e-06	2.255737e-08	2.907868e+01	1.479708e+03
2.040000e-06	3.987123e-06	2.255554e-08	2.859517e+01	1.475027e+03
2.050000e-06	3.918205e-06	2.241752e-08	2.810089e+01	1.470020e+03
2.060000e-06	3.847612e-06	2.234774e-08	2.759461e+01	1.464654e+03
2.070000e-06	3.775656e-06	2.229468e-08	2.707855e+01	1.458958e+03
2.080000e-06	3.702531e-06	2.218481e-08	2.655411e+01	1.453015e+03
2.090000e-06	3.628037e-06	2.211243e-08	2.601984e+01	1.446931e+03
2.100000e-06	3.552135e-06	2.198941e-08	2.547548e+01	1.440803e+03
2.110000e-06	3.474684e-06	2.192176e-08	2.492002e+01	1.434685e+03
2.120000e-06	3.395732e-06	2.182210e-08	2.435378e+01	1.428564e+03
2.130000e-06	3.315601e-06	2.172831e-08	2.377909e+01	1.422365e+03
2.140000e-06	3.234411e-06	2.163268e-08	2.319680e+01	1.415961e+03
2.150000e-06	3.152118e-06	2.151173e-08	2.260661e+01	1.409218e+03
2.160000e-06	3.068764e-06	2.141692e-08	2.200880e+01	1.402029e+03
2.170000e-06	2.984464e-06	2.129383e-08	2.140422e+01	1.394350e+03
2.180000e-06	2.899014e-06	2.118053e-08	2.079138e+01	1.386208e+03
2.190000e-06	2.812244e-06	2.105240e-08	2.016908e+01	1.377697e+03
2.200000e-06	2.724340e-06	2.092327e-08	1.953864e+01	1.368942e+03
2.210000e-06	2.635556e-06	2.079282e-08	1.890189e+01	1.360060e+03
2.220000e-06	2.545870e-06	2.065576e-08	1.825867e+01	1.351115e+03
2.230000e-06	2.455277e-06	2.052186e-08	1.760895e+01	1.342095e+03
2.240000e-06	2.363970e-06	2.037798e-08	1.695411e+01	1.332905e+03
2.250000e-06	2.271993e-06	2.023338e-08	1.629446e+01	1.323393e+03
2.260000e-06	2.179221e-06	2.007235e-08	1.562911e+01	1.313391e+03
2.270000e-06	2.085437e-06	1.990936e-08	1.495650e+01	1.302763e+03
2.280000e-06	1.990663e-06	1.974133e-08	1.427679e+01	1.291447e+03
2.290000e-06	1.895125e-06	1.956352e-08	1.359161e+01	1.279472e+03
2.300000e-06	1.798974e-06	1.937986e-08	1.290202e+01	1.266946e+03
2.310000e-06	1.702349e-06	1.919213e-08	1.220904e+01	1.254022e+03
2.320000e-06	1.605225e-06	1.900195e-08	1.151248e+01	1.240840e+03
2.330000e-06	1.507486e-06	1.879994e-08	1.081150e+01	1.227473e+03
2.340000e-06	1.409234e-06	1.858485e-08	1.010685e+01	1.213894e+03
2.350000e-06	1.310593e-06	1.835760e-08	9.399412e+00	1.199966e+03
2.360000e-06	1.211620e-06	1.812541e-08	8.689595e+00	1.185469e+03
2.370000e-06	1.112363e-06	1.788638e-08	7.977735e+00	1.170158e+03
2.380000e-06	1.012833e-06	1.763896e-08	7.263915e+00	1.153827e+03
2.390000e-06	9.129659e-07	1.737948e-08	6.547681e+00	1.136361e+03
2.400000e-06	8.127835e-07	1.710308e-08	5.829185e+00	1.117768e+03
2.410000e-06	7.122970e-07	1.681226e-08	5.108508e+00	1.098162e+03
2.420000e-06	6.115031e-07	1.650828e-08	4.385626e+00	1.077717e+03
2.430000e-06	5.105439e-07	1.619199e-08	3.661559e+00	1.056585e+03
2.440000e-06	4.094259e-07	1.586208e-08	2.936353e+00	1.034818e+03
2.450000e-06	3.081252e-07	1.551236e-08	2.209837e+00	1.012311e+03
2.460000e-06	2.065894e-07	1.513877e-08	1.481634e+00	9.887891e+02
2.470000e-06	1.048839e-07	1.474238e-08	7.522148e-01	9.638411e+02
2.480000e-06	3.139353e-09	1.432407e-08	2.251506e-02	9.370017e+02
2.490000e-06	-9.860710e-08	1.387878e-08	-7.071982e-01	9.078508e+02
2.500000e-06	-2.002264e-07	1.340258e-08	-1.435999e+00	8.761028e+02
2.510000e-06	-3.017821e-07	1.289465e-08	-2.164345e+00	8.416499e+02
2.520000e-06	-4.033098e-07	1.234923e-08	-2.892489e+00	8.045377e+02
2.530000e-06	-5.046577e-07	1.175890e-08	-3.619344e+00	7.648676e+02
2.540000e-06	-6.057906e-07	1.111887e-08	-4.344657e+00	7.226423e+02
2.550000e-06	-7.067359e-07	1.042268e-08	-5.068624e+00	6.775925e+02
2.560000e-06	-8.074396e-07	9.660693e-09	-5.790859e+00	6.290348e+02
2.570000e-06	-9.078390e-07	8.824013e-09	-6.510911e+00	5.758102e+02
2.580000e-06	-1.007904e-06	7.898935e-09	-7.228563e+00	5.163415e+02
2.590000e-06	-1.107609e-06	6.866408e-09	-7.943636e+00	4.488195e+02
2.600000e-06	-1.206874e-06	5.704915e-09	-8.655555e+00	3.715003e+02
2.610000e-06	-1.305701e-06	4.391381e-09	-9.364328e+00	2.830650e+02
2.620000e-06	-1.404151e-06	2.905925e-09	-1.007040e+01	1.829707e+02
2.630000e-06	-1.502082e-06	1.241734e-09	-1.077275e+01	7.171855e+01
2.640000e-06	-1.599460e-06	-5.905030e-10	-1.147113e+01	-4.902569e+01
2.650000e-06	-1.696362e-06	-2.555805e-09	-1.216610e+01	-1.764972e+02
2.660000e-06	-1.792745e-06	-4.591348e-09	-1.285735e+01	-3.070834e+02
2.670000e-06	-1.888590e-06	-6.614747e-09	-1.354474e+01	-4.367253e+02
2.680000e-06	-1.983809e-06	-8.542490e-09	-1.422764e+01	-5.613981e+02
2.690000e-06	-2.078120e-06	-1.031538e-08	-1.490402e+01	-6.775869e+02
2.700000e-06	-2.171436e-06	-1.190146e-08	-1.557328e+01	-7.826729e+02
2.710000e-06	-2.263886e-06	-1.329053e-08	-1.623631e+01	-8.751635e+02
2.720000e-06	-2.355493e-06	-1.449220e-08	-1.689331e+01	-9.547355e+02
2.730000e-06	-2.446322e-06	-1.552533e-08	-1.754473e+01	-1.022097e+03
2.740000e-06	-2.536343e-06	-1.641213e-08	-1.819035e+01	-1.078710e+03
2.750000e-06	-2.625450e-06	-1.717320e-08	-1.882941e+01	-1.126434e+03
2.760000e-06	-2.713736e-06	-1.782886e-08	-1.946259e+01	-1.167180e+03
2.770000e-06	-2.801223e-06	-1.839434e-08	-2.009004e+01	-1.202622e+03
2.780000e-06	-2.887685e-06	-1.888244e-08	-2.071013e+01	-1.234026e+03
2.790000e-06	-2.972940e-06	-1.930669e-08	-2.132157e+01	-1.262205e+03
2.800000e-06	-3.057039e-06	-1.967950e-08	-2.192471e+01	-1.287577e+03
2.810000e-06	-3.140060e-06	-2.000901e-08	-2.252013e+01	-1.310312e+03
2.820000e-06	-3.222039e-06	-2.030129e-08	-2.310808e+01	-1.330481e+03
2.830000e-06	-3.302999e-06	-2.056608e-08	-2.368871e+01	-1.348200e+03
2.840000e-06	-3.382930e-06	-2.080957e-08	-2.426196e+01	-1.363707e+03
2.850000e-06	-3.461562e-06	-2.103667e-08	-2.482591e+01	-1.377373e+03
2.860000e-06	-3.538640e-06	-2.124555e-08	-2.537870e+01	-1.389649e+03
2.870000e-06	-3.614242e-06	-2.143453e-08	-2.592091e+01	-1.400986e+03
2.880000e-06	-3.688495e-06	-2.160383e-08	-2.645344e+01	-1.411742e+03
2.890000e-06	-3.761485e-06	-2.175582e-08	-2.697691e+01	-1.422121e+03
2.900000e-06	-3.833207e-06	-2.189798e-08	-2.749129e+01	-1.432155e+03
2.910000e-06	-3.903434e-06	-2.203418e-08	-2.799496e+01	-1.441735e+03
2.920000e-06	-3.972115e-06	-2.216300e-08	-2.848753e+01	-1.450680e+03
2.930000e-06	-4.039389e-06	-2.228207e-08	-2.897001e+01	-1.458819e+03
2.940000e-06	-4.105221e-06	-2.239224e-08	-2.944215e+01	-1.466059e+03
