# Temperatura_=_60.45
# Concentracion g/m^3_=_41000.0
# C_Vs_to_Am_M_A/Vsm_=_65563218390.804596
# pendiente_HvsI_1/m_=_3716.3
# ordenada_HvsI_A/m_=_1297.0
# frecuencia_Hz_=_301587.8693118122

Tiempo_(s)	Campo_(V.s)	Magnetizacion_(V.s)	Campo_(kA/m)	Magnetizacion_(A/m)
0.000000e+00	-5.335322e-06	-1.992260e-08	-3.835003e+01	-1.302849e+03
1.000000e-08	-5.333006e-06	-1.991777e-08	-3.833338e+01	-1.302693e+03
2.000000e-08	-5.328864e-06	-1.990802e-08	-3.830361e+01	-1.302591e+03
3.000000e-08	-5.323128e-06	-1.990083e-08	-3.826237e+01	-1.302465e+03
4.000000e-08	-5.315772e-06	-1.989535e-08	-3.820950e+01	-1.302216e+03
5.000000e-08	-5.306683e-06	-1.988555e-08	-3.814417e+01	-1.301755e+03
6.000000e-08	-5.295628e-06	-1.987117e-08	-3.806470e+01	-1.301031e+03
7.000000e-08	-5.282658e-06	-1.984669e-08	-3.797148e+01	-1.300047e+03
8.000000e-08	-5.267607e-06	-1.984055e-08	-3.786329e+01	-1.298858e+03
9.000000e-08	-5.250238e-06	-1.988578e-08	-3.773844e+01	-1.297555e+03
1.000000e-07	-5.230806e-06	-1.986992e-08	-3.759877e+01	-1.296239e+03
1.100000e-07	-5.209496e-06	-1.981072e-08	-3.744559e+01	-1.294987e+03
1.200000e-07	-5.186452e-06	-1.977377e-08	-3.727995e+01	-1.293834e+03
1.300000e-07	-5.162034e-06	-1.966109e-08	-3.710444e+01	-1.292763e+03
1.400000e-07	-5.136200e-06	-1.967445e-08	-3.691874e+01	-1.291711e+03
1.500000e-07	-5.108576e-06	-1.978012e-08	-3.672019e+01	-1.290591e+03
1.600000e-07	-5.079345e-06	-1.964349e-08	-3.651008e+01	-1.289315e+03
1.700000e-07	-5.048693e-06	-1.966938e-08	-3.628975e+01	-1.287826e+03
1.800000e-07	-5.016123e-06	-1.972114e-08	-3.605564e+01	-1.286105e+03
1.900000e-07	-4.981471e-06	-1.952527e-08	-3.580656e+01	-1.284179e+03
2.000000e-07	-4.945261e-06	-1.955149e-08	-3.554629e+01	-1.282103e+03
2.100000e-07	-4.907455e-06	-1.954585e-08	-3.527454e+01	-1.279941e+03
2.200000e-07	-4.867883e-06	-1.939631e-08	-3.499010e+01	-1.277740e+03
2.300000e-07	-4.826426e-06	-1.941868e-08	-3.469210e+01	-1.275512e+03
2.400000e-07	-4.782952e-06	-1.940980e-08	-3.437961e+01	-1.273231e+03
2.500000e-07	-4.737714e-06	-1.938802e-08	-3.405445e+01	-1.270836e+03
2.600000e-07	-4.690743e-06	-1.939014e-08	-3.371682e+01	-1.268257e+03
2.700000e-07	-4.641779e-06	-1.925451e-08	-3.336487e+01	-1.265434e+03
2.800000e-07	-4.590653e-06	-1.919423e-08	-3.299738e+01	-1.262342e+03
2.900000e-07	-4.537604e-06	-1.919321e-08	-3.261607e+01	-1.259003e+03
3.000000e-07	-4.482990e-06	-1.915743e-08	-3.222351e+01	-1.255475e+03
3.100000e-07	-4.426827e-06	-1.911045e-08	-3.181981e+01	-1.251845e+03
3.200000e-07	-4.368809e-06	-1.904527e-08	-3.140278e+01	-1.248193e+03
3.300000e-07	-4.309079e-06	-1.897562e-08	-3.097345e+01	-1.244573e+03
3.400000e-07	-4.247916e-06	-1.889531e-08	-3.053381e+01	-1.240990e+03
3.500000e-07	-4.185339e-06	-1.885248e-08	-3.008400e+01	-1.237398e+03
3.600000e-07	-4.121423e-06	-1.880539e-08	-2.962458e+01	-1.233715e+03
3.700000e-07	-4.055973e-06	-1.874655e-08	-2.915413e+01	-1.229840e+03
3.800000e-07	-3.988836e-06	-1.868280e-08	-2.867155e+01	-1.225691e+03
3.900000e-07	-3.920163e-06	-1.857714e-08	-2.817793e+01	-1.221225e+03
4.000000e-07	-3.850204e-06	-1.850811e-08	-2.767507e+01	-1.216454e+03
4.100000e-07	-3.779090e-06	-1.845943e-08	-2.716391e+01	-1.211441e+03
4.200000e-07	-3.706809e-06	-1.838350e-08	-2.664435e+01	-1.206280e+03
4.300000e-07	-3.633048e-06	-1.830801e-08	-2.611416e+01	-1.201065e+03
4.400000e-07	-3.557583e-06	-1.822963e-08	-2.557173e+01	-1.195861e+03
4.500000e-07	-3.480680e-06	-1.815116e-08	-2.501895e+01	-1.190678e+03
4.600000e-07	-3.402480e-06	-1.806534e-08	-2.445685e+01	-1.185468e+03
4.700000e-07	-3.322855e-06	-1.797545e-08	-2.388451e+01	-1.180135e+03
4.800000e-07	-3.241849e-06	-1.788082e-08	-2.330225e+01	-1.174562e+03
4.900000e-07	-3.159733e-06	-1.778452e-08	-2.271200e+01	-1.168647e+03
5.000000e-07	-3.076633e-06	-1.769724e-08	-2.211468e+01	-1.162334e+03
5.100000e-07	-2.992614e-06	-1.759661e-08	-2.151076e+01	-1.155625e+03
5.200000e-07	-2.907739e-06	-1.748748e-08	-2.090068e+01	-1.148587e+03
5.300000e-07	-2.821946e-06	-1.737704e-08	-2.028400e+01	-1.141321e+03
5.400000e-07	-2.735235e-06	-1.726838e-08	-1.966073e+01	-1.133934e+03
5.500000e-07	-2.647638e-06	-1.716013e-08	-1.903109e+01	-1.126499e+03
5.600000e-07	-2.559096e-06	-1.704404e-08	-1.839465e+01	-1.119029e+03
5.700000e-07	-2.469400e-06	-1.692650e-08	-1.774992e+01	-1.111463e+03
5.800000e-07	-2.378566e-06	-1.679774e-08	-1.709702e+01	-1.103684e+03
5.900000e-07	-2.286857e-06	-1.665803e-08	-1.643782e+01	-1.095546e+03
6.000000e-07	-2.194449e-06	-1.651592e-08	-1.577359e+01	-1.086917e+03
6.100000e-07	-2.101328e-06	-1.637913e-08	-1.510424e+01	-1.077717e+03
6.200000e-07	-2.007385e-06	-1.623970e-08	-1.442898e+01	-1.067939e+03
6.300000e-07	-1.912722e-06	-1.608968e-08	-1.374855e+01	-1.057650e+03
6.400000e-07	-1.817460e-06	-1.593144e-08	-1.306381e+01	-1.046967e+03
6.500000e-07	-1.721603e-06	-1.576512e-08	-1.237479e+01	-1.036013e+03
6.600000e-07	-1.625144e-06	-1.559538e-08	-1.168146e+01	-1.024874e+03
6.700000e-07	-1.527988e-06	-1.542081e-08	-1.098310e+01	-1.013560e+03
6.800000e-07	-1.430123e-06	-1.524034e-08	-1.027965e+01	-1.001991e+03
6.900000e-07	-1.331623e-06	-1.505086e-08	-9.571637e+00	-9.900095e+02
7.000000e-07	-1.232525e-06	-1.485070e-08	-8.859327e+00	-9.774218e+02
7.100000e-07	-1.133026e-06	-1.463856e-08	-8.144136e+00	-9.640469e+02
7.200000e-07	-1.033251e-06	-1.441750e-08	-7.426954e+00	-9.497670e+02
7.300000e-07	-9.331872e-07	-1.419160e-08	-6.707703e+00	-9.345577e+02
7.400000e-07	-8.328928e-07	-1.395859e-08	-5.986792e+00	-9.184872e+02
7.500000e-07	-7.323650e-07	-1.371525e-08	-5.264203e+00	-9.016839e+02
7.600000e-07	-6.316341e-07	-1.345815e-08	-4.540154e+00	-8.842777e+02
7.700000e-07	-5.307903e-07	-1.318564e-08	-3.815294e+00	-8.663342e+02
7.800000e-07	-4.297567e-07	-1.289647e-08	-3.089069e+00	-8.478014e+02
7.900000e-07	-3.285046e-07	-1.258762e-08	-2.361274e+00	-8.284865e+02
8.000000e-07	-2.271407e-07	-1.225952e-08	-1.632676e+00	-8.080752e+02
8.100000e-07	-1.256805e-07	-1.191467e-08	-9.033850e-01	-7.861881e+02
8.200000e-07	-2.412605e-08	-1.155070e-08	-1.734168e-01	-7.624601e+02
8.300000e-07	7.745934e-08	-1.116318e-08	5.567738e-01	-7.366182e+02
8.400000e-07	1.790617e-07	-1.074991e-08	1.287087e+00	-7.085285e+02
8.500000e-07	2.805936e-07	-1.030643e-08	2.016893e+00	-6.781909e+02
8.600000e-07	3.820601e-07	-9.823764e-09	2.746229e+00	-6.456737e+02
8.700000e-07	4.834605e-07	-9.298488e-09	3.475090e+00	-6.109962e+02
8.800000e-07	5.847214e-07	-8.727744e-09	4.202948e+00	-5.739858e+02
8.900000e-07	6.857665e-07	-8.103985e-09	4.929255e+00	-5.341514e+02
9.000000e-07	7.865193e-07	-7.418592e-09	5.653461e+00	-4.906133e+02
9.100000e-07	8.870029e-07	-6.657596e-09	6.375732e+00	-4.421245e+02
9.200000e-07	9.872391e-07	-5.805213e-09	7.096225e+00	-3.872009e+02
9.300000e-07	1.087229e-06	-4.848515e-09	7.814944e+00	-3.243494e+02
9.400000e-07	1.186868e-06	-3.770240e-09	8.531150e+00	-2.523595e+02
9.500000e-07	1.286035e-06	-2.549180e-09	9.243957e+00	-1.706047e+02
9.600000e-07	1.384703e-06	-1.172868e-09	9.953176e+00	-7.928974e+01
9.700000e-07	1.482814e-06	3.490299e-10	1.065839e+01	2.041364e+01
9.800000e-07	1.580226e-06	1.984217e-09	1.135858e+01	1.263811e+02
9.900000e-07	1.676902e-06	3.680591e-09	1.205348e+01	2.357094e+02
1.000000e-06	1.772862e-06	5.372444e-09	1.274324e+01	3.450260e+02
1.010000e-06	1.868163e-06	6.994273e-09	1.342826e+01	4.508838e+02
1.020000e-06	1.962839e-06	8.492583e-09	1.410879e+01	5.501703e+02
1.030000e-06	2.056811e-06	9.836438e-09	1.478425e+01	6.404595e+02
1.040000e-06	2.150072e-06	1.101474e-08	1.545461e+01	7.202448e+02
1.050000e-06	2.242630e-06	1.203057e-08	1.611991e+01	7.890182e+02
1.060000e-06	2.334565e-06	1.289811e-08	1.678074e+01	8.471923e+02
1.070000e-06	2.425814e-06	1.363660e-08	1.743663e+01	8.958912e+02
1.080000e-06	2.516015e-06	1.426746e-08	1.808499e+01	9.366620e+02
1.090000e-06	2.605097e-06	1.480858e-08	1.872531e+01	9.711705e+02
1.100000e-06	2.693141e-06	1.527612e-08	1.935816e+01	1.000937e+03
1.110000e-06	2.780241e-06	1.568061e-08	1.998423e+01	1.027163e+03
1.120000e-06	2.866451e-06	1.603151e-08	2.060390e+01	1.050655e+03
1.130000e-06	2.951736e-06	1.633896e-08	2.121693e+01	1.071859e+03
1.140000e-06	3.036136e-06	1.661139e-08	2.182359e+01	1.090960e+03
1.150000e-06	3.119634e-06	1.685530e-08	2.242377e+01	1.108016e+03
1.160000e-06	3.202072e-06	1.707590e-08	2.301633e+01	1.123084e+03
1.170000e-06	3.283308e-06	1.727876e-08	2.360025e+01	1.136309e+03
1.180000e-06	3.363307e-06	1.746576e-08	2.417528e+01	1.147945e+03
1.190000e-06	3.442066e-06	1.763753e-08	2.474140e+01	1.158338e+03
1.200000e-06	3.519609e-06	1.779200e-08	2.529877e+01	1.167854e+03
1.210000e-06	3.595895e-06	1.793348e-08	2.584711e+01	1.176814e+03
1.220000e-06	3.670839e-06	1.806588e-08	2.638580e+01	1.185425e+03
1.230000e-06	3.744247e-06	1.819086e-08	2.691346e+01	1.193759e+03
1.240000e-06	3.816094e-06	1.830641e-08	2.742989e+01	1.201763e+03
1.250000e-06	3.886584e-06	1.841070e-08	2.793657e+01	1.209307e+03
1.260000e-06	3.955790e-06	1.850638e-08	2.843402e+01	1.216252e+03
1.270000e-06	4.023710e-06	1.859523e-08	2.892222e+01	1.222506e+03
1.280000e-06	4.090114e-06	1.868019e-08	2.939953e+01	1.228070e+03
1.290000e-06	4.154794e-06	1.876329e-08	2.986445e+01	1.233046e+03
1.300000e-06	4.217953e-06	1.884412e-08	3.031844e+01	1.237607e+03
1.310000e-06	4.279750e-06	1.891982e-08	3.076263e+01	1.241958e+03
1.320000e-06	4.340169e-06	1.898958e-08	3.119691e+01	1.246273e+03
1.330000e-06	4.399137e-06	1.905431e-08	3.162077e+01	1.250652e+03
1.340000e-06	4.456378e-06	1.911581e-08	3.203222e+01	1.255098e+03
1.350000e-06	4.511847e-06	1.917412e-08	3.243093e+01	1.259526e+03
1.360000e-06	4.565735e-06	1.922910e-08	3.281828e+01	1.263794e+03
1.370000e-06	4.617955e-06	1.928213e-08	3.319362e+01	1.267750e+03
1.380000e-06	4.668162e-06	1.933367e-08	3.355451e+01	1.271284e+03
1.390000e-06	4.716377e-06	1.938251e-08	3.390108e+01	1.274359e+03
1.400000e-06	4.762910e-06	1.942614e-08	3.423556e+01	1.277021e+03
1.410000e-06	4.807869e-06	1.946560e-08	3.455872e+01	1.279386e+03
1.420000e-06	4.851322e-06	1.950344e-08	3.487106e+01	1.281599e+03
1.430000e-06	4.893010e-06	1.954020e-08	3.517071e+01	1.283796e+03
1.440000e-06	4.932855e-06	1.957528e-08	3.545711e+01	1.286059e+03
1.450000e-06	4.971055e-06	1.960598e-08	3.573169e+01	1.288398e+03
1.460000e-06	5.007638e-06	1.963325e-08	3.599465e+01	1.290754e+03
1.470000e-06	5.042541e-06	1.965793e-08	3.624553e+01	1.293017e+03
1.480000e-06	5.075507e-06	1.968188e-08	3.648249e+01	1.295067e+03
1.490000e-06	5.106609e-06	1.970520e-08	3.670604e+01	1.296814e+03
1.500000e-06	5.136062e-06	1.972804e-08	3.691775e+01	1.298221e+03
1.510000e-06	5.163868e-06	1.975199e-08	3.711762e+01	1.299324e+03
1.520000e-06	5.189755e-06	1.977517e-08	3.730369e+01	1.300211e+03
1.530000e-06	5.213540e-06	1.979508e-08	3.747466e+01	1.301001e+03
1.540000e-06	5.235477e-06	1.980989e-08	3.763235e+01	1.301805e+03
1.550000e-06	5.255741e-06	1.982172e-08	3.777800e+01	1.302694e+03
1.560000e-06	5.274231e-06	1.983190e-08	3.791090e+01	1.303676e+03
1.570000e-06	5.290706e-06	1.984103e-08	3.802933e+01	1.304697e+03
1.580000e-06	5.305178e-06	1.985040e-08	3.813335e+01	1.305663e+03
1.590000e-06	5.317703e-06	1.985985e-08	3.822338e+01	1.306463e+03
1.600000e-06	5.328055e-06	1.986838e-08	3.829779e+01	1.307011e+03
1.610000e-06	5.336318e-06	1.987780e-08	3.835719e+01	1.307268e+03
1.620000e-06	5.342729e-06	1.988669e-08	3.840326e+01	1.307255e+03
1.630000e-06	5.347324e-06	1.989197e-08	3.843629e+01	1.307047e+03
1.640000e-06	5.349980e-06	1.989341e-08	3.845538e+01	1.306745e+03
1.650000e-06	5.350622e-06	1.989259e-08	3.846000e+01	1.306449e+03
1.660000e-06	5.349471e-06	1.988576e-08	3.845173e+01	1.306225e+03
1.670000e-06	5.346667e-06	1.987692e-08	3.843157e+01	1.306085e+03
1.680000e-06	5.342282e-06	1.987410e-08	3.840006e+01	1.305985e+03
1.690000e-06	5.336084e-06	1.987101e-08	3.835550e+01	1.305840e+03
1.700000e-06	5.328026e-06	1.986687e-08	3.829758e+01	1.305552e+03
1.710000e-06	5.318409e-06	1.986321e-08	3.822845e+01	1.305036e+03
1.720000e-06	5.307122e-06	1.986852e-08	3.814732e+01	1.304254e+03
1.730000e-06	5.293948e-06	1.986618e-08	3.805263e+01	1.303219e+03
1.740000e-06	5.278720e-06	1.977479e-08	3.794317e+01	1.301997e+03
1.750000e-06	5.261209e-06	1.973178e-08	3.781731e+01	1.300682e+03
1.760000e-06	5.241167e-06	1.975573e-08	3.767324e+01	1.299374e+03
1.770000e-06	5.218657e-06	1.977042e-08	3.751144e+01	1.298141e+03
1.780000e-06	5.194597e-06	1.987064e-08	3.733850e+01	1.297008e+03
1.790000e-06	5.169805e-06	1.976264e-08	3.716030e+01	1.295948e+03
1.800000e-06	5.143820e-06	1.963343e-08	3.697352e+01	1.294888e+03
1.810000e-06	5.115871e-06	1.976566e-08	3.677262e+01	1.293741e+03
1.820000e-06	5.086032e-06	1.963076e-08	3.655814e+01	1.292422e+03
1.830000e-06	5.054376e-06	1.958025e-08	3.633060e+01	1.290883e+03
1.840000e-06	5.020823e-06	1.976668e-08	3.608942e+01	1.289114e+03
1.850000e-06	4.985676e-06	1.959901e-08	3.583678e+01	1.287149e+03
1.860000e-06	4.948840e-06	1.957830e-08	3.557201e+01	1.285049e+03
1.870000e-06	4.910005e-06	1.967721e-08	3.529287e+01	1.282876e+03
1.880000e-06	4.869499e-06	1.951923e-08	3.500172e+01	1.280669e+03
1.890000e-06	4.827264e-06	1.953999e-08	3.469813e+01	1.278433e+03
1.900000e-06	4.783276e-06	1.943561e-08	3.438194e+01	1.276132e+03
1.910000e-06	4.737653e-06	1.935554e-08	3.405401e+01	1.273703e+03
1.920000e-06	4.690148e-06	1.951084e-08	3.371255e+01	1.271075e+03
1.930000e-06	4.640929e-06	1.935650e-08	3.335876e+01	1.268194e+03
1.940000e-06	4.589953e-06	1.927229e-08	3.299235e+01	1.265046e+03
1.950000e-06	4.537029e-06	1.924377e-08	3.261194e+01	1.261659e+03
1.960000e-06	4.482193e-06	1.915189e-08	3.221778e+01	1.258102e+03
1.970000e-06	4.425532e-06	1.915715e-08	3.181050e+01	1.254460e+03
1.980000e-06	4.367333e-06	1.905744e-08	3.139217e+01	1.250811e+03
1.990000e-06	4.307759e-06	1.906749e-08	3.096395e+01	1.247200e+03
2.000000e-06	4.246731e-06	1.902271e-08	3.052529e+01	1.243620e+03
2.010000e-06	4.183977e-06	1.889252e-08	3.007422e+01	1.240016e+03
2.020000e-06	4.119521e-06	1.886249e-08	2.961091e+01	1.236299e+03
2.030000e-06	4.053718e-06	1.877853e-08	2.913792e+01	1.232371e+03
2.040000e-06	3.986552e-06	1.877407e-08	2.865513e+01	1.228155e+03
2.050000e-06	3.918024e-06	1.868580e-08	2.816256e+01	1.223620e+03
2.060000e-06	3.847958e-06	1.858291e-08	2.765893e+01	1.218790e+03
2.070000e-06	3.776348e-06	1.855567e-08	2.714420e+01	1.213737e+03
2.080000e-06	3.703485e-06	1.844579e-08	2.662046e+01	1.208556e+03
2.090000e-06	3.629380e-06	1.837899e-08	2.608780e+01	1.203339e+03
2.100000e-06	3.553932e-06	1.828123e-08	2.554549e+01	1.198140e+03
2.110000e-06	3.476971e-06	1.820990e-08	2.499229e+01	1.192956e+03
2.120000e-06	3.398470e-06	1.814487e-08	2.442803e+01	1.187729e+03
2.130000e-06	3.318692e-06	1.804624e-08	2.385459e+01	1.182353e+03
2.140000e-06	3.237812e-06	1.796526e-08	2.327323e+01	1.176714e+03
2.150000e-06	3.155802e-06	1.785372e-08	2.268375e+01	1.170717e+03
2.160000e-06	3.072711e-06	1.777490e-08	2.208649e+01	1.164315e+03
2.170000e-06	2.988667e-06	1.767825e-08	2.148239e+01	1.157528e+03
2.180000e-06	2.903569e-06	1.757400e-08	2.087071e+01	1.150431e+03
2.190000e-06	2.817148e-06	1.746727e-08	2.024951e+01	1.143130e+03
2.200000e-06	2.729510e-06	1.734935e-08	1.961958e+01	1.135728e+03
2.210000e-06	2.640978e-06	1.723980e-08	1.898322e+01	1.128286e+03
2.220000e-06	2.551587e-06	1.711829e-08	1.834068e+01	1.120802e+03
2.230000e-06	2.461318e-06	1.701043e-08	1.769183e+01	1.113202e+03
2.240000e-06	2.370265e-06	1.689440e-08	1.703735e+01	1.105358e+03
2.250000e-06	2.278496e-06	1.676866e-08	1.637772e+01	1.097124e+03
2.260000e-06	2.185985e-06	1.662596e-08	1.571275e+01	1.088377e+03
2.270000e-06	2.092536e-06	1.648122e-08	1.504105e+01	1.079050e+03
2.280000e-06	1.998107e-06	1.633784e-08	1.436229e+01	1.069154e+03
2.290000e-06	1.902905e-06	1.618438e-08	1.367798e+01	1.058769e+03
2.300000e-06	1.807051e-06	1.602958e-08	1.298899e+01	1.048017e+03
2.310000e-06	1.710653e-06	1.586995e-08	1.229609e+01	1.037019e+03
2.320000e-06	1.613785e-06	1.570696e-08	1.159980e+01	1.025844e+03
2.330000e-06	1.516339e-06	1.552921e-08	1.089937e+01	1.014484e+03
2.340000e-06	1.418334e-06	1.533970e-08	1.019492e+01	1.002841e+03
2.350000e-06	1.319919e-06	1.514262e-08	9.487515e+00	9.907459e+02
2.360000e-06	1.221149e-06	1.494437e-08	8.777555e+00	9.780027e+02
2.370000e-06	1.122062e-06	1.474185e-08	8.065326e+00	9.644404e+02
2.380000e-06	1.022708e-06	1.452720e-08	7.351174e+00	9.499594e+02
2.390000e-06	9.230929e-07	1.429822e-08	6.635145e+00	9.345564e+02
2.400000e-06	8.231545e-07	1.405511e-08	5.916793e+00	9.183165e+02
2.410000e-06	7.228735e-07	1.380263e-08	5.195978e+00	9.013736e+02
2.420000e-06	6.223648e-07	1.354006e-08	4.473527e+00	8.838496e+02
2.430000e-06	5.216464e-07	1.326828e-08	3.749568e+00	8.657884e+02
2.440000e-06	4.207027e-07	1.298223e-08	3.023990e+00	8.471083e+02
2.450000e-06	3.195853e-07	1.267495e-08	2.297163e+00	8.275877e+02
2.460000e-06	2.182894e-07	1.234364e-08	1.569053e+00	8.068923e+02
2.470000e-06	1.168852e-07	1.199240e-08	8.401652e-01	7.846387e+02
2.480000e-06	1.541169e-08	1.162129e-08	1.107785e-01	7.604758e+02
2.490000e-06	-8.611539e-08	1.122454e-08	-6.189930e-01	7.341579e+02
2.500000e-06	-1.875785e-07	1.080105e-08	-1.348305e+00	7.055821e+02
2.510000e-06	-2.889292e-07	1.034954e-08	-2.076808e+00	6.747708e+02
2.520000e-06	-3.901862e-07	9.863882e-09	-2.804639e+00	6.417928e+02
2.530000e-06	-4.913000e-07	9.333270e-09	-3.531439e+00	6.066385e+02
2.540000e-06	-5.922016e-07	8.752291e-09	-4.256715e+00	5.690764e+02
2.550000e-06	-6.928946e-07	8.114984e-09	-4.980491e+00	5.285355e+02
2.560000e-06	-7.933503e-07	7.415363e-09	-5.702562e+00	4.840516e+02
2.570000e-06	-8.935014e-07	6.642462e-09	-6.422443e+00	4.343126e+02
2.580000e-06	-9.933041e-07	5.778904e-09	-7.139820e+00	3.778104e+02
2.590000e-06	-1.092818e-06	4.805549e-09	-7.855123e+00	3.130866e+02
2.600000e-06	-1.191985e-06	3.703252e-09	-8.567926e+00	2.390312e+02
2.610000e-06	-1.290755e-06	2.459633e-09	-9.277882e+00	1.551781e+02
2.620000e-06	-1.389080e-06	1.065081e-09	-9.984637e+00	6.193264e+01
2.630000e-06	-1.486819e-06	-4.719282e-10	-1.068718e+01	-3.932269e+01
2.640000e-06	-1.584021e-06	-2.120128e-09	-1.138586e+01	-1.462768e+02
2.650000e-06	-1.680814e-06	-3.826645e-09	-1.208161e+01	-2.558959e+02
2.660000e-06	-1.777134e-06	-5.524639e-09	-1.277395e+01	-3.647568e+02
2.670000e-06	-1.872815e-06	-7.147886e-09	-1.346170e+01	-4.694504e+02
2.680000e-06	-1.967779e-06	-8.639245e-09	-1.414430e+01	-5.669850e+02
2.690000e-06	-2.061912e-06	-9.969330e-09	-1.482092e+01	-6.551168e+02
2.700000e-06	-2.155192e-06	-1.113315e-08	-1.549141e+01	-7.325522e+02
2.710000e-06	-2.247600e-06	-1.213694e-08	-1.615563e+01	-7.989920e+02
2.720000e-06	-2.339133e-06	-1.299535e-08	-1.681357e+01	-8.550226e+02
2.730000e-06	-2.429836e-06	-1.372717e-08	-1.746554e+01	-9.018843e+02
2.740000e-06	-2.519715e-06	-1.435301e-08	-1.811158e+01	-9.411751e+02
2.750000e-06	-2.608763e-06	-1.488932e-08	-1.875166e+01	-9.745490e+02
2.760000e-06	-2.696974e-06	-1.535065e-08	-1.938571e+01	-1.003470e+03
2.770000e-06	-2.784327e-06	-1.574828e-08	-2.001360e+01	-1.029055e+03
2.780000e-06	-2.870695e-06	-1.609544e-08	-2.063441e+01	-1.052031e+03
2.790000e-06	-2.955928e-06	-1.640177e-08	-2.124706e+01	-1.072775e+03
2.800000e-06	-3.039983e-06	-1.667330e-08	-2.185124e+01	-1.091436e+03
2.810000e-06	-3.123010e-06	-1.691674e-08	-2.244804e+01	-1.108059e+03
2.820000e-06	-3.205057e-06	-1.713584e-08	-2.303779e+01	-1.122718e+03
2.830000e-06	-3.286050e-06	-1.733362e-08	-2.361996e+01	-1.135577e+03
2.840000e-06	-3.365920e-06	-1.751331e-08	-2.419406e+01	-1.146917e+03
2.850000e-06	-3.444511e-06	-1.768014e-08	-2.475897e+01	-1.157092e+03
2.860000e-06	-3.521673e-06	-1.783537e-08	-2.531361e+01	-1.166466e+03
2.870000e-06	-3.597381e-06	-1.798009e-08	-2.585779e+01	-1.175339e+03
2.880000e-06	-3.671692e-06	-1.811203e-08	-2.639194e+01	-1.183890e+03
2.890000e-06	-3.744665e-06	-1.823057e-08	-2.691646e+01	-1.192161e+03
2.900000e-06	-3.816353e-06	-1.834032e-08	-2.743175e+01	-1.200079e+03
2.910000e-06	-3.886581e-06	-1.844496e-08	-2.793655e+01	-1.207507e+03
2.920000e-06	-3.955208e-06	-1.854398e-08	-2.842983e+01	-1.214309e+03
2.930000e-06	-4.022399e-06	-1.863537e-08	-2.891280e+01	-1.220412e+03
2.940000e-06	-4.088269e-06	-1.872033e-08	-2.938627e+01	-1.225839e+03
