# Temperatura_=_65.94
# Concentracion g/m^3_=_41000.0
# C_Vs_to_Am_M_A/Vsm_=_65563218390.804596
# pendiente_HvsI_1/m_=_3716.3
# ordenada_HvsI_A/m_=_1297.0
# frecuencia_Hz_=_301587.94394554966

Tiempo_(s)	Campo_(V.s)	Magnetizacion_(V.s)	Campo_(kA/m)	Magnetizacion_(A/m)
0.000000e+00	-5.311649e-06	-1.965733e-08	-3.834607e+01	-1.285321e+03
1.000000e-08	-5.308733e-06	-1.965183e-08	-3.832502e+01	-1.285200e+03
2.000000e-08	-5.304080e-06	-1.964507e-08	-3.829143e+01	-1.285101e+03
3.000000e-08	-5.297788e-06	-1.963980e-08	-3.824601e+01	-1.284937e+03
4.000000e-08	-5.289927e-06	-1.963027e-08	-3.818926e+01	-1.284613e+03
5.000000e-08	-5.280260e-06	-1.961737e-08	-3.811946e+01	-1.284054e+03
6.000000e-08	-5.268546e-06	-1.959736e-08	-3.803490e+01	-1.283231e+03
7.000000e-08	-5.254984e-06	-1.956706e-08	-3.793700e+01	-1.282167e+03
8.000000e-08	-5.239337e-06	-1.960525e-08	-3.782404e+01	-1.280932e+03
9.000000e-08	-5.221377e-06	-1.963267e-08	-3.769438e+01	-1.279624e+03
1.000000e-07	-5.201371e-06	-1.957416e-08	-3.754995e+01	-1.278338e+03
1.100000e-07	-5.179542e-06	-1.954833e-08	-3.739236e+01	-1.277142e+03
1.200000e-07	-5.156187e-06	-1.946294e-08	-3.722376e+01	-1.276053e+03
1.300000e-07	-5.131487e-06	-1.936720e-08	-3.704544e+01	-1.275040e+03
1.400000e-07	-5.105141e-06	-1.953427e-08	-3.685524e+01	-1.274029e+03
1.500000e-07	-5.077004e-06	-1.945867e-08	-3.665211e+01	-1.272931e+03
1.600000e-07	-5.047417e-06	-1.935144e-08	-3.643852e+01	-1.271663e+03
1.700000e-07	-5.016264e-06	-1.950950e-08	-3.621362e+01	-1.270178e+03
1.800000e-07	-4.982989e-06	-1.933588e-08	-3.597340e+01	-1.268467e+03
1.900000e-07	-4.947930e-06	-1.925371e-08	-3.572029e+01	-1.266566e+03
2.000000e-07	-4.911385e-06	-1.936984e-08	-3.545647e+01	-1.264531e+03
2.100000e-07	-4.873066e-06	-1.922992e-08	-3.517984e+01	-1.262424e+03
2.200000e-07	-4.833052e-06	-1.919446e-08	-3.489097e+01	-1.260284e+03
2.300000e-07	-4.791115e-06	-1.921574e-08	-3.458821e+01	-1.258114e+03
2.400000e-07	-4.747209e-06	-1.912574e-08	-3.427124e+01	-1.255879e+03
2.500000e-07	-4.701562e-06	-1.916266e-08	-3.394171e+01	-1.253517e+03
2.600000e-07	-4.654115e-06	-1.907447e-08	-3.359917e+01	-1.250960e+03
2.700000e-07	-4.604679e-06	-1.898191e-08	-3.324228e+01	-1.248156e+03
2.800000e-07	-4.553147e-06	-1.897816e-08	-3.287026e+01	-1.245088e+03
2.900000e-07	-4.499796e-06	-1.893826e-08	-3.248511e+01	-1.241784e+03
3.000000e-07	-4.444877e-06	-1.889300e-08	-3.208864e+01	-1.238305e+03
3.100000e-07	-4.388347e-06	-1.883494e-08	-3.168053e+01	-1.234732e+03
3.200000e-07	-4.330003e-06	-1.878154e-08	-3.125934e+01	-1.231136e+03
3.300000e-07	-4.269998e-06	-1.870745e-08	-3.082614e+01	-1.227558e+03
3.400000e-07	-4.208604e-06	-1.865524e-08	-3.038293e+01	-1.223995e+03
3.500000e-07	-4.145893e-06	-1.861185e-08	-2.993020e+01	-1.220397e+03
3.600000e-07	-4.081810e-06	-1.854403e-08	-2.946757e+01	-1.216683e+03
3.700000e-07	-4.016123e-06	-1.849776e-08	-2.899335e+01	-1.212765e+03
3.800000e-07	-3.948763e-06	-1.840991e-08	-2.850707e+01	-1.208575e+03
3.900000e-07	-3.879964e-06	-1.831575e-08	-2.801040e+01	-1.204089e+03
4.000000e-07	-3.809930e-06	-1.827764e-08	-2.750480e+01	-1.199329e+03
4.100000e-07	-3.738714e-06	-1.820949e-08	-2.699068e+01	-1.194364e+03
4.200000e-07	-3.666322e-06	-1.813457e-08	-2.646806e+01	-1.189278e+03
4.300000e-07	-3.592405e-06	-1.805673e-08	-2.593444e+01	-1.184153e+03
4.400000e-07	-3.516778e-06	-1.798011e-08	-2.538846e+01	-1.179032e+03
4.500000e-07	-3.439795e-06	-1.789794e-08	-2.483271e+01	-1.173905e+03
4.600000e-07	-3.361494e-06	-1.781106e-08	-2.426743e+01	-1.168713e+03
4.700000e-07	-3.281811e-06	-1.773116e-08	-2.369219e+01	-1.163355e+03
4.800000e-07	-3.200881e-06	-1.763427e-08	-2.310793e+01	-1.157724e+03
4.900000e-07	-3.118786e-06	-1.754543e-08	-2.251527e+01	-1.151736e+03
5.000000e-07	-3.035685e-06	-1.744531e-08	-2.191534e+01	-1.145355e+03
5.100000e-07	-2.951790e-06	-1.733925e-08	-2.130968e+01	-1.138606e+03
5.200000e-07	-2.867074e-06	-1.723325e-08	-2.069810e+01	-1.131563e+03
5.300000e-07	-2.781376e-06	-1.712793e-08	-2.007942e+01	-1.124329e+03
5.400000e-07	-2.694704e-06	-1.702713e-08	-1.945371e+01	-1.117001e+03
5.500000e-07	-2.607198e-06	-1.691758e-08	-1.882199e+01	-1.109631e+03
5.600000e-07	-2.518825e-06	-1.680216e-08	-1.818400e+01	-1.102213e+03
5.700000e-07	-2.429278e-06	-1.667657e-08	-1.753754e+01	-1.094669e+03
5.800000e-07	-2.338543e-06	-1.654730e-08	-1.688250e+01	-1.086877e+03
5.900000e-07	-2.246958e-06	-1.641261e-08	-1.622133e+01	-1.078698e+03
6.000000e-07	-2.154660e-06	-1.627899e-08	-1.555501e+01	-1.070015e+03
6.100000e-07	-2.061643e-06	-1.614177e-08	-1.488350e+01	-1.060771e+03
6.200000e-07	-1.967924e-06	-1.599448e-08	-1.420691e+01	-1.050980e+03
6.300000e-07	-1.873434e-06	-1.584066e-08	-1.352477e+01	-1.040719e+03
6.400000e-07	-1.778269e-06	-1.568200e-08	-1.283775e+01	-1.030106e+03
6.500000e-07	-1.682630e-06	-1.552091e-08	-1.214731e+01	-1.019251e+03
6.600000e-07	-1.586505e-06	-1.535465e-08	-1.145336e+01	-1.008217e+03
6.700000e-07	-1.489739e-06	-1.518112e-08	-1.075478e+01	-9.969896e+02
6.800000e-07	-1.392243e-06	-1.499530e-08	-1.005094e+01	-9.854695e+02
6.900000e-07	-1.294010e-06	-1.480035e-08	-9.341771e+00	-9.734941e+02
7.000000e-07	-1.195187e-06	-1.459631e-08	-8.628346e+00	-9.608771e+02
7.100000e-07	-1.095952e-06	-1.438695e-08	-7.911938e+00	-9.474580e+02
7.200000e-07	-9.964003e-07	-1.417366e-08	-7.193254e+00	-9.331459e+02
7.300000e-07	-8.966418e-07	-1.395395e-08	-6.473073e+00	-9.179399e+02
7.400000e-07	-7.967023e-07	-1.372364e-08	-5.751585e+00	-9.019205e+02
7.500000e-07	-6.965502e-07	-1.347829e-08	-5.028564e+00	-8.852108e+02
7.600000e-07	-5.961799e-07	-1.321680e-08	-4.303966e+00	-8.679175e+02
7.700000e-07	-4.956199e-07	-1.293991e-08	-3.577999e+00	-8.500704e+02
7.800000e-07	-3.949068e-07	-1.265053e-08	-2.850927e+00	-8.315780e+02
7.900000e-07	-2.940501e-07	-1.234328e-08	-2.122818e+00	-8.122165e+02
8.000000e-07	-1.930630e-07	-1.201790e-08	-1.393768e+00	-7.916577e+02
8.100000e-07	-9.196830e-08	-1.167415e-08	-6.639413e-01	-7.695301e+02
8.200000e-07	9.225111e-09	-1.130743e-08	6.659829e-02	-7.454949e+02
8.300000e-07	1.104425e-07	-1.091664e-08	7.973107e-01	-7.193136e+02
8.400000e-07	2.115718e-07	-1.049879e-08	1.527388e+00	-6.908795e+02
8.500000e-07	3.125585e-07	-1.004718e-08	2.256435e+00	-6.601975e+02
8.600000e-07	4.134539e-07	-9.553014e-09	2.984823e+00	-6.273070e+02
8.700000e-07	5.142547e-07	-9.015416e-09	3.712528e+00	-5.921622e+02
8.800000e-07	6.148977e-07	-8.430875e-09	4.439094e+00	-5.544988e+02
8.900000e-07	7.153190e-07	-7.792038e-09	5.164060e+00	-5.137274e+02
9.000000e-07	8.155057e-07	-7.089365e-09	5.887332e+00	-4.688902e+02
9.100000e-07	9.155168e-07	-6.308429e-09	6.609336e+00	-4.187127e+02
9.200000e-07	1.015315e-06	-5.434775e-09	7.329803e+00	-3.617557e+02
9.300000e-07	1.114846e-06	-4.449726e-09	8.048339e+00	-2.966547e+02
9.400000e-07	1.214075e-06	-3.336002e-09	8.764697e+00	-2.224057e+02
9.500000e-07	1.312839e-06	-2.077518e-09	9.477704e+00	-1.386435e+02
9.600000e-07	1.410934e-06	-6.708452e-10	1.018587e+01	-4.585116e+01
9.700000e-07	1.508319e-06	8.670850e-10	1.088892e+01	5.454831e+01
9.800000e-07	1.604963e-06	2.498996e-09	1.158661e+01	1.602495e+02
9.900000e-07	1.700889e-06	4.173360e-09	1.227913e+01	2.682708e+02
1.000000e-06	1.796265e-06	5.825074e-09	1.296767e+01	3.752791e+02
1.010000e-06	1.891054e-06	7.390860e-09	1.365197e+01	4.779791e+02
1.020000e-06	1.985134e-06	8.826367e-09	1.433116e+01	5.734977e+02
1.030000e-06	2.078482e-06	1.010616e-08	1.500506e+01	6.596964e+02
1.040000e-06	2.171127e-06	1.122399e-08	1.567389e+01	7.353587e+02
1.050000e-06	2.263121e-06	1.218564e-08	1.633801e+01	8.002274e+02
1.060000e-06	2.354564e-06	1.300602e-08	1.699816e+01	8.548943e+02
1.070000e-06	2.445195e-06	1.370506e-08	1.765245e+01	9.005761e+02
1.080000e-06	2.534606e-06	1.429969e-08	1.829793e+01	9.388293e+02
1.090000e-06	2.622817e-06	1.480823e-08	1.893475e+01	9.712625e+02
1.100000e-06	2.710125e-06	1.524307e-08	1.956504e+01	9.993007e+02
1.110000e-06	2.796651e-06	1.561919e-08	2.018970e+01	1.024039e+03
1.120000e-06	2.882248e-06	1.594560e-08	2.080764e+01	1.046197e+03
1.130000e-06	2.966908e-06	1.623269e-08	2.141882e+01	1.066163e+03
1.140000e-06	3.050706e-06	1.648934e-08	2.202378e+01	1.084100e+03
1.150000e-06	3.133558e-06	1.672144e-08	2.262191e+01	1.100075e+03
1.160000e-06	3.215225e-06	1.693293e-08	2.321148e+01	1.114170e+03
1.170000e-06	3.295662e-06	1.712378e-08	2.379217e+01	1.126551e+03
1.180000e-06	3.374948e-06	1.729937e-08	2.436456e+01	1.137487e+03
1.190000e-06	3.452961e-06	1.745974e-08	2.492775e+01	1.147313e+03
1.200000e-06	3.529732e-06	1.760516e-08	2.548198e+01	1.156374e+03
1.210000e-06	3.605289e-06	1.774036e-08	2.602745e+01	1.164949e+03
1.220000e-06	3.679359e-06	1.786756e-08	2.656218e+01	1.173208e+03
1.230000e-06	3.751822e-06	1.798313e-08	2.708531e+01	1.181193e+03
1.240000e-06	3.822896e-06	1.809010e-08	2.759840e+01	1.188838e+03
1.250000e-06	3.892691e-06	1.818884e-08	2.810227e+01	1.196019e+03
1.260000e-06	3.961192e-06	1.828169e-08	2.859680e+01	1.202612e+03
1.270000e-06	4.028372e-06	1.836898e-08	2.908178e+01	1.208552e+03
1.280000e-06	4.093931e-06	1.845323e-08	2.955507e+01	1.213859e+03
1.290000e-06	4.157837e-06	1.853490e-08	3.001643e+01	1.218644e+03
1.300000e-06	4.220315e-06	1.861159e-08	3.046747e+01	1.223077e+03
1.310000e-06	4.281368e-06	1.868289e-08	3.090823e+01	1.227340e+03
1.320000e-06	4.341063e-06	1.874860e-08	3.133918e+01	1.231582e+03
1.330000e-06	4.399232e-06	1.881026e-08	3.175911e+01	1.235873e+03
1.340000e-06	4.455642e-06	1.886824e-08	3.216635e+01	1.240200e+03
1.350000e-06	4.510424e-06	1.892405e-08	3.256183e+01	1.244470e+03
1.360000e-06	4.563607e-06	1.897854e-08	3.294578e+01	1.248551e+03
1.370000e-06	4.614966e-06	1.903039e-08	3.331655e+01	1.252311e+03
1.380000e-06	4.664301e-06	1.907977e-08	3.367271e+01	1.255666e+03
1.390000e-06	4.711771e-06	1.912534e-08	3.401541e+01	1.258599e+03
1.400000e-06	4.757631e-06	1.916751e-08	3.434648e+01	1.261170e+03
1.410000e-06	4.802011e-06	1.920668e-08	3.466687e+01	1.263489e+03
1.420000e-06	4.844730e-06	1.924226e-08	3.497527e+01	1.265686e+03
1.430000e-06	4.885554e-06	1.927624e-08	3.526999e+01	1.267870e+03
1.440000e-06	4.924647e-06	1.930748e-08	3.555221e+01	1.270099e+03
1.450000e-06	4.962094e-06	1.933580e-08	3.582255e+01	1.272363e+03
1.460000e-06	4.997931e-06	1.936209e-08	3.608127e+01	1.274594e+03
1.470000e-06	5.031977e-06	1.938626e-08	3.632705e+01	1.276691e+03
1.480000e-06	5.064103e-06	1.940889e-08	3.655897e+01	1.278555e+03
1.490000e-06	5.094505e-06	1.943011e-08	3.677846e+01	1.280119e+03
1.500000e-06	5.123284e-06	1.945117e-08	3.698622e+01	1.281375e+03
1.510000e-06	5.150337e-06	1.947117e-08	3.718152e+01	1.282373e+03
1.520000e-06	5.175360e-06	1.948908e-08	3.736217e+01	1.283206e+03
1.530000e-06	5.198393e-06	1.950529e-08	3.752845e+01	1.283983e+03
1.540000e-06	5.219633e-06	1.952017e-08	3.768179e+01	1.284794e+03
1.550000e-06	5.239202e-06	1.953392e-08	3.782306e+01	1.285683e+03
1.560000e-06	5.256937e-06	1.954428e-08	3.795109e+01	1.286638e+03
1.570000e-06	5.272628e-06	1.955331e-08	3.806437e+01	1.287593e+03
1.580000e-06	5.286404e-06	1.956322e-08	3.816383e+01	1.288454e+03
1.590000e-06	5.298195e-06	1.957131e-08	3.824894e+01	1.289124e+03
1.600000e-06	5.307789e-06	1.957810e-08	3.831821e+01	1.289538e+03
1.610000e-06	5.315387e-06	1.958484e-08	3.837306e+01	1.289683e+03
1.620000e-06	5.321161e-06	1.959081e-08	3.841474e+01	1.289597e+03
1.630000e-06	5.325178e-06	1.959454e-08	3.844374e+01	1.289363e+03
1.640000e-06	5.327300e-06	1.959710e-08	3.845906e+01	1.289079e+03
1.650000e-06	5.327430e-06	1.959650e-08	3.846000e+01	1.288827e+03
1.660000e-06	5.325803e-06	1.958749e-08	3.844825e+01	1.288650e+03
1.670000e-06	5.322561e-06	1.958317e-08	3.842485e+01	1.288539e+03
1.680000e-06	5.317624e-06	1.957853e-08	3.838921e+01	1.288434e+03
1.690000e-06	5.310762e-06	1.957360e-08	3.833967e+01	1.288242e+03
1.700000e-06	5.302137e-06	1.956977e-08	3.827740e+01	1.287873e+03
1.710000e-06	5.291972e-06	1.956787e-08	3.820402e+01	1.287258e+03
1.720000e-06	5.280143e-06	1.958623e-08	3.811862e+01	1.286379e+03
1.730000e-06	5.266333e-06	1.953017e-08	3.801892e+01	1.285270e+03
1.740000e-06	5.250391e-06	1.944306e-08	3.790383e+01	1.284010e+03
1.750000e-06	5.232162e-06	1.946072e-08	3.777224e+01	1.282699e+03
1.760000e-06	5.211347e-06	1.945007e-08	3.762197e+01	1.281428e+03
1.770000e-06	5.188348e-06	1.953774e-08	3.745593e+01	1.280255e+03
1.780000e-06	5.164195e-06	1.955493e-08	3.728157e+01	1.279186e+03
1.790000e-06	5.139278e-06	1.931798e-08	3.710169e+01	1.278180e+03
1.800000e-06	5.112851e-06	1.944362e-08	3.691090e+01	1.277158e+03
1.810000e-06	5.084414e-06	1.945240e-08	3.670561e+01	1.276029e+03
1.820000e-06	5.054235e-06	1.926097e-08	3.648774e+01	1.274717e+03
1.830000e-06	5.022187e-06	1.950664e-08	3.625637e+01	1.273182e+03
1.840000e-06	4.988243e-06	1.946604e-08	3.601132e+01	1.271426e+03
1.850000e-06	4.952741e-06	1.928223e-08	3.575503e+01	1.269490e+03
1.860000e-06	4.915314e-06	1.944380e-08	3.548484e+01	1.267435e+03
1.870000e-06	4.875982e-06	1.931342e-08	3.520089e+01	1.265318e+03
1.880000e-06	4.835076e-06	1.929312e-08	3.490558e+01	1.263172e+03
1.890000e-06	4.792372e-06	1.931730e-08	3.459729e+01	1.260992e+03
1.900000e-06	4.748043e-06	1.909710e-08	3.427727e+01	1.258735e+03
1.910000e-06	4.701966e-06	1.925841e-08	3.394462e+01	1.256336e+03
1.920000e-06	4.654068e-06	1.921555e-08	3.359884e+01	1.253729e+03
1.930000e-06	4.604552e-06	1.905034e-08	3.324137e+01	1.250868e+03
1.940000e-06	4.553162e-06	1.907979e-08	3.287037e+01	1.247746e+03
1.950000e-06	4.499834e-06	1.897068e-08	3.248538e+01	1.244397e+03
1.960000e-06	4.444649e-06	1.897979e-08	3.208699e+01	1.240891e+03
1.970000e-06	4.387725e-06	1.890042e-08	3.167604e+01	1.237307e+03
1.980000e-06	4.329290e-06	1.883367e-08	3.125418e+01	1.233712e+03
1.990000e-06	4.269501e-06	1.885795e-08	3.082256e+01	1.230140e+03
2.000000e-06	4.208242e-06	1.871963e-08	3.038031e+01	1.226574e+03
2.010000e-06	4.145224e-06	1.869199e-08	2.992537e+01	1.222958e+03
2.020000e-06	4.080576e-06	1.860629e-08	2.945866e+01	1.219207e+03
2.030000e-06	4.014530e-06	1.857675e-08	2.898185e+01	1.215235e+03
2.040000e-06	3.947154e-06	1.855178e-08	2.849546e+01	1.210982e+03
2.050000e-06	3.878431e-06	1.840155e-08	2.799932e+01	1.206433e+03
2.060000e-06	3.808097e-06	1.838300e-08	2.749157e+01	1.201622e+03
2.070000e-06	3.736356e-06	1.829300e-08	2.697365e+01	1.196622e+03
2.080000e-06	3.663418e-06	1.822035e-08	2.644710e+01	1.191522e+03
2.090000e-06	3.589133e-06	1.814520e-08	2.591081e+01	1.186395e+03
2.100000e-06	3.513574e-06	1.805188e-08	2.536534e+01	1.181275e+03
2.110000e-06	3.436564e-06	1.800323e-08	2.480938e+01	1.176141e+03
2.120000e-06	3.357972e-06	1.789467e-08	2.424201e+01	1.170921e+03
2.130000e-06	3.278128e-06	1.781866e-08	2.366560e+01	1.165513e+03
2.140000e-06	3.197202e-06	1.771756e-08	2.308137e+01	1.159811e+03
2.150000e-06	3.115164e-06	1.763364e-08	2.248912e+01	1.153740e+03
2.160000e-06	3.032066e-06	1.754863e-08	2.188921e+01	1.147276e+03
2.170000e-06	2.948032e-06	1.744394e-08	2.128256e+01	1.140455e+03
2.180000e-06	2.862867e-06	1.734876e-08	2.066772e+01	1.133362e+03
2.190000e-06	2.776328e-06	1.722651e-08	2.004298e+01	1.126100e+03
2.200000e-06	2.688711e-06	1.711849e-08	1.941045e+01	1.118760e+03
2.210000e-06	2.600250e-06	1.700085e-08	1.877183e+01	1.111383e+03
2.220000e-06	2.510896e-06	1.689146e-08	1.812676e+01	1.103945e+03
2.230000e-06	2.420730e-06	1.677708e-08	1.747584e+01	1.096359e+03
2.240000e-06	2.329746e-06	1.665578e-08	1.681900e+01	1.088495e+03
2.250000e-06	2.238012e-06	1.652405e-08	1.615675e+01	1.080216e+03
2.260000e-06	2.145673e-06	1.638258e-08	1.549013e+01	1.071415e+03
2.270000e-06	2.052440e-06	1.624816e-08	1.481706e+01	1.062050e+03
2.280000e-06	1.958167e-06	1.610488e-08	1.413648e+01	1.052149e+03
2.290000e-06	1.863041e-06	1.595563e-08	1.344974e+01	1.041802e+03
2.300000e-06	1.767262e-06	1.579726e-08	1.275829e+01	1.031129e+03
2.310000e-06	1.671017e-06	1.563601e-08	1.206347e+01	1.020232e+03
2.320000e-06	1.574336e-06	1.546770e-08	1.136551e+01	1.009160e+03
2.330000e-06	1.477154e-06	1.529215e-08	1.066393e+01	9.978802e+02
2.340000e-06	1.379446e-06	1.510933e-08	9.958549e+00	9.862774e+02
2.350000e-06	1.281268e-06	1.491999e-08	9.249784e+00	9.741796e+02
2.360000e-06	1.182683e-06	1.472362e-08	8.538072e+00	9.614019e+02
2.370000e-06	1.083719e-06	1.451450e-08	7.823628e+00	9.477958e+02
2.380000e-06	9.844450e-07	1.429493e-08	7.106945e+00	9.332886e+02
2.390000e-06	8.849297e-07	1.406467e-08	6.388520e+00	9.178988e+02
2.400000e-06	7.851747e-07	1.382584e-08	5.668365e+00	9.017203e+02
2.410000e-06	6.851773e-07	1.357768e-08	4.946460e+00	8.848779e+02
2.420000e-06	5.850586e-07	1.331754e-08	4.223679e+00	8.674666e+02
2.430000e-06	4.848533e-07	1.304367e-08	3.500272e+00	8.494931e+02
2.440000e-06	3.845107e-07	1.275322e-08	2.775876e+00	8.308370e+02
2.450000e-06	2.840204e-07	1.244052e-08	2.050412e+00	8.112487e+02
2.460000e-06	1.834124e-07	1.210800e-08	1.324098e+00	7.903847e+02
2.470000e-06	8.268611e-08	1.175799e-08	5.969309e-01	7.678738e+02
2.480000e-06	-1.813295e-08	1.138615e-08	-1.309061e-01	7.433940e+02
2.490000e-06	-1.189641e-07	1.098637e-08	-8.588308e-01	7.167340e+02
2.500000e-06	-2.197301e-07	1.055774e-08	-1.586285e+00	6.878146e+02
2.510000e-06	-3.204193e-07	1.009992e-08	-2.313184e+00	6.566565e+02
2.520000e-06	-4.209836e-07	9.603336e-09	-3.039182e+00	6.232918e+02
2.530000e-06	-5.213458e-07	9.062734e-09	-3.763721e+00	5.876389e+02
2.540000e-06	-6.215741e-07	8.470949e-09	-4.487293e+00	5.493712e+02
2.550000e-06	-7.216812e-07	7.819498e-09	-5.209990e+00	5.078209e+02
2.560000e-06	-8.216204e-07	7.098476e-09	-5.931475e+00	4.619549e+02
2.570000e-06	-9.213124e-07	6.296933e-09	-6.651176e+00	4.104468e+02
2.580000e-06	-1.020714e-06	5.402433e-09	-7.368781e+00	3.518513e+02
2.590000e-06	-1.119863e-06	4.397064e-09	-8.084561e+00	2.848563e+02
2.600000e-06	-1.218611e-06	3.264139e-09	-8.797445e+00	2.085727e+02
2.610000e-06	-1.316823e-06	1.990625e-09	-9.506462e+00	1.228027e+02
2.620000e-06	-1.414572e-06	5.707119e-10	-1.021213e+01	2.822807e+01
2.630000e-06	-1.511873e-06	-9.811245e-10	-1.091457e+01	-7.352914e+01
2.640000e-06	-1.608639e-06	-2.626753e-09	-1.161315e+01	-1.799965e+02
2.650000e-06	-1.704895e-06	-4.310120e-09	-1.230805e+01	-2.880866e+02
2.660000e-06	-1.800751e-06	-5.966434e-09	-1.300006e+01	-3.944407e+02
2.670000e-06	-1.896056e-06	-7.533361e-09	-1.368808e+01	-4.958231e+02
2.680000e-06	-1.990492e-06	-8.962038e-09	-1.436984e+01	-5.894956e+02
2.690000e-06	-2.083831e-06	-1.023007e-08	-1.504368e+01	-6.735062e+02
2.700000e-06	-2.176213e-06	-1.133421e-08	-1.571060e+01	-7.468462e+02
2.710000e-06	-2.267906e-06	-1.228192e-08	-1.637256e+01	-8.094541e+02
2.720000e-06	-2.358885e-06	-1.308921e-08	-1.702936e+01	-8.620775e+02
2.730000e-06	-2.448990e-06	-1.377739e-08	-1.767985e+01	-9.060310e+02
2.740000e-06	-2.538175e-06	-1.436676e-08	-1.832370e+01	-9.429052e+02
2.750000e-06	-2.626498e-06	-1.487181e-08	-1.896132e+01	-9.742868e+02
2.760000e-06	-2.714126e-06	-1.530689e-08	-1.959393e+01	-1.001539e+03
2.770000e-06	-2.800908e-06	-1.568295e-08	-2.022043e+01	-1.025677e+03
2.780000e-06	-2.886473e-06	-1.600916e-08	-2.083814e+01	-1.047342e+03
2.790000e-06	-2.970808e-06	-1.629451e-08	-2.144698e+01	-1.066865e+03
2.800000e-06	-3.054160e-06	-1.654683e-08	-2.204872e+01	-1.084378e+03
2.810000e-06	-3.136531e-06	-1.677445e-08	-2.264337e+01	-1.099942e+03
2.820000e-06	-3.217814e-06	-1.698100e-08	-2.323018e+01	-1.113652e+03
2.830000e-06	-3.298070e-06	-1.716904e-08	-2.380956e+01	-1.125698e+03
2.840000e-06	-3.377311e-06	-1.734158e-08	-2.438162e+01	-1.136367e+03
2.850000e-06	-3.455160e-06	-1.750307e-08	-2.494363e+01	-1.146002e+03
2.860000e-06	-3.531428e-06	-1.765202e-08	-2.549423e+01	-1.154938e+03
2.870000e-06	-3.606333e-06	-1.778858e-08	-2.603499e+01	-1.163436e+03
2.880000e-06	-3.679846e-06	-1.791234e-08	-2.656569e+01	-1.171638e+03
2.890000e-06	-3.752071e-06	-1.802362e-08	-2.708711e+01	-1.179559e+03
2.900000e-06	-3.823081e-06	-1.812883e-08	-2.759974e+01	-1.187116e+03
2.910000e-06	-3.892548e-06	-1.822907e-08	-2.810124e+01	-1.194181e+03
2.920000e-06	-3.960525e-06	-1.832303e-08	-2.859198e+01	-1.200637e+03
2.930000e-06	-4.027149e-06	-1.841047e-08	-2.907296e+01	-1.206437e+03
2.940000e-06	-4.092366e-06	-1.849419e-08	-2.954377e+01	-1.211621e+03
