# Temperatura_=_60.0
# Concentracion g/m^3_=_41000.0
# C_Vs_to_Am_M_A/Vsm_=_65563218390.804596
# pendiente_HvsI_1/m_=_3716.3
# ordenada_HvsI_A/m_=_1297.0
# frecuencia_Hz_=_301593.151605712

Tiempo_(s)	Campo_(V.s)	Magnetizacion_(V.s)	Campo_(kA/m)	Magnetizacion_(A/m)
0.000000e+00	-5.355388e-06	-2.409240e-08	-3.834734e+01	-1.576290e+03
1.000000e-08	-5.352857e-06	-2.408792e-08	-3.832922e+01	-1.575977e+03
2.000000e-08	-5.348526e-06	-2.408000e-08	-3.829820e+01	-1.575775e+03
3.000000e-08	-5.342600e-06	-2.407306e-08	-3.825577e+01	-1.575632e+03
4.000000e-08	-5.335094e-06	-2.406600e-08	-3.820202e+01	-1.575444e+03
5.000000e-08	-5.325802e-06	-2.405511e-08	-3.813549e+01	-1.575086e+03
6.000000e-08	-5.314484e-06	-2.403917e-08	-3.805445e+01	-1.574450e+03
7.000000e-08	-5.301239e-06	-2.401474e-08	-3.795960e+01	-1.573484e+03
8.000000e-08	-5.285900e-06	-2.402697e-08	-3.784977e+01	-1.572201e+03
9.000000e-08	-5.268257e-06	-2.405289e-08	-3.772344e+01	-1.570685e+03
1.000000e-07	-5.248547e-06	-2.401044e-08	-3.758230e+01	-1.569057e+03
1.100000e-07	-5.226954e-06	-2.396653e-08	-3.742769e+01	-1.567447e+03
1.200000e-07	-5.203683e-06	-2.391295e-08	-3.726106e+01	-1.565953e+03
1.300000e-07	-5.179002e-06	-2.381227e-08	-3.708433e+01	-1.564613e+03
1.400000e-07	-5.152758e-06	-2.388292e-08	-3.689640e+01	-1.563392e+03
1.500000e-07	-5.124795e-06	-2.390403e-08	-3.669617e+01	-1.562198e+03
1.600000e-07	-5.095318e-06	-2.379487e-08	-3.648510e+01	-1.560907e+03
1.700000e-07	-5.064337e-06	-2.386334e-08	-3.626326e+01	-1.559398e+03
1.800000e-07	-5.031351e-06	-2.380342e-08	-3.602707e+01	-1.557590e+03
1.900000e-07	-4.996355e-06	-2.366207e-08	-3.577648e+01	-1.555459e+03
2.000000e-07	-4.959847e-06	-2.370831e-08	-3.551506e+01	-1.553044e+03
2.100000e-07	-4.921698e-06	-2.364797e-08	-3.524190e+01	-1.550424e+03
2.200000e-07	-4.881764e-06	-2.356099e-08	-3.495595e+01	-1.547697e+03
2.300000e-07	-4.839879e-06	-2.357264e-08	-3.465603e+01	-1.544939e+03
2.400000e-07	-4.795988e-06	-2.353218e-08	-3.434175e+01	-1.542183e+03
2.500000e-07	-4.750344e-06	-2.351416e-08	-3.401491e+01	-1.539408e+03
2.600000e-07	-4.702858e-06	-2.344385e-08	-3.367489e+01	-1.536547e+03
2.700000e-07	-4.653353e-06	-2.335100e-08	-3.332041e+01	-1.533510e+03
2.800000e-07	-4.601819e-06	-2.332271e-08	-3.295139e+01	-1.530215e+03
2.900000e-07	-4.548428e-06	-2.328041e-08	-3.256909e+01	-1.526615e+03
3.000000e-07	-4.493459e-06	-2.322994e-08	-3.217548e+01	-1.522717e+03
3.100000e-07	-4.436891e-06	-2.316864e-08	-3.177043e+01	-1.518579e+03
3.200000e-07	-4.378498e-06	-2.309919e-08	-3.135230e+01	-1.514290e+03
3.300000e-07	-4.318478e-06	-2.302733e-08	-3.092253e+01	-1.509944e+03
3.400000e-07	-4.256985e-06	-2.295644e-08	-3.048221e+01	-1.505606e+03
3.500000e-07	-4.194015e-06	-2.290072e-08	-3.003131e+01	-1.501292e+03
3.600000e-07	-4.129645e-06	-2.283390e-08	-2.957039e+01	-1.496956e+03
3.700000e-07	-4.063701e-06	-2.276568e-08	-2.909820e+01	-1.492511e+03
3.800000e-07	-3.996126e-06	-2.267757e-08	-2.861432e+01	-1.487847e+03
3.900000e-07	-3.927123e-06	-2.257694e-08	-2.812023e+01	-1.482873e+03
4.000000e-07	-3.856857e-06	-2.251084e-08	-2.761708e+01	-1.477538e+03
4.100000e-07	-3.785429e-06	-2.243368e-08	-2.710562e+01	-1.471857e+03
4.200000e-07	-3.712712e-06	-2.235030e-08	-2.658493e+01	-1.465897e+03
4.300000e-07	-3.638396e-06	-2.226544e-08	-2.605279e+01	-1.459764e+03
4.400000e-07	-3.562480e-06	-2.217680e-08	-2.550920e+01	-1.453561e+03
4.500000e-07	-3.485213e-06	-2.208343e-08	-2.495592e+01	-1.447357e+03
4.600000e-07	-3.406554e-06	-2.197953e-08	-2.439268e+01	-1.441160e+03
4.700000e-07	-3.326472e-06	-2.187746e-08	-2.381925e+01	-1.434907e+03
4.800000e-07	-3.245137e-06	-2.176920e-08	-2.323686e+01	-1.428485e+03
4.900000e-07	-3.162694e-06	-2.166320e-08	-2.264652e+01	-1.421754e+03
5.000000e-07	-3.079259e-06	-2.155232e-08	-2.204908e+01	-1.414597e+03
5.100000e-07	-2.994923e-06	-2.143201e-08	-2.144519e+01	-1.406948e+03
5.200000e-07	-2.909711e-06	-2.130690e-08	-2.083503e+01	-1.398816e+03
5.300000e-07	-2.823535e-06	-2.118271e-08	-2.021797e+01	-1.390280e+03
5.400000e-07	-2.736465e-06	-2.106099e-08	-1.959450e+01	-1.381462e+03
5.500000e-07	-2.648466e-06	-2.093382e-08	-1.896438e+01	-1.372490e+03
5.600000e-07	-2.559345e-06	-2.079918e-08	-1.832623e+01	-1.363447e+03
5.700000e-07	-2.469094e-06	-2.065403e-08	-1.767999e+01	-1.354346e+03
5.800000e-07	-2.377837e-06	-2.049778e-08	-1.702654e+01	-1.345113e+03
5.900000e-07	-2.285744e-06	-2.033557e-08	-1.636710e+01	-1.335606e+03
6.000000e-07	-2.192874e-06	-2.017432e-08	-1.570211e+01	-1.325655e+03
6.100000e-07	-2.099255e-06	-2.001252e-08	-1.503175e+01	-1.315106e+03
6.200000e-07	-2.004902e-06	-1.984488e-08	-1.435613e+01	-1.303867e+03
6.300000e-07	-1.909866e-06	-1.966827e-08	-1.367562e+01	-1.291940e+03
6.400000e-07	-1.814244e-06	-1.948412e-08	-1.299093e+01	-1.279411e+03
6.500000e-07	-1.717940e-06	-1.929301e-08	-1.230134e+01	-1.266423e+03
6.600000e-07	-1.620849e-06	-1.909616e-08	-1.160612e+01	-1.253128e+03
6.700000e-07	-1.523017e-06	-1.889326e-08	-1.090559e+01	-1.239623e+03
6.800000e-07	-1.424531e-06	-1.868017e-08	-1.020038e+01	-1.225916e+03
6.900000e-07	-1.325509e-06	-1.845582e-08	-9.491331e+00	-1.211901e+03
7.000000e-07	-1.226105e-06	-1.821945e-08	-8.779543e+00	-1.197383e+03
7.100000e-07	-1.126401e-06	-1.797504e-08	-8.065612e+00	-1.182119e+03
7.200000e-07	-1.026360e-06	-1.772412e-08	-7.349265e+00	-1.165886e+03
7.300000e-07	-9.259919e-07	-1.746719e-08	-6.630580e+00	-1.148541e+03
7.400000e-07	-8.253233e-07	-1.719995e-08	-5.909740e+00	-1.130054e+03
7.500000e-07	-7.244386e-07	-1.691765e-08	-5.187354e+00	-1.110511e+03
7.600000e-07	-6.233351e-07	-1.661585e-08	-4.463401e+00	-1.090071e+03
7.700000e-07	-5.220035e-07	-1.629351e-08	-3.737814e+00	-1.068895e+03
7.800000e-07	-4.205166e-07	-1.595486e-08	-3.011116e+00	-1.047067e+03
7.900000e-07	-3.188927e-07	-1.559933e-08	-2.283436e+00	-1.024526e+03
8.000000e-07	-2.170799e-07	-1.522674e-08	-1.554404e+00	-1.001041e+03
8.100000e-07	-1.150908e-07	-1.483496e-08	-8.241098e-01	-9.762315e+02
8.200000e-07	-1.307986e-08	-1.442270e-08	-9.365857e-02	-9.496397e+02
8.300000e-07	8.892830e-08	-1.398459e-08	6.367725e-01	-9.208252e+02
8.400000e-07	1.909595e-07	-1.351374e-08	1.367368e+00	-8.894608e+02
8.500000e-07	2.929035e-07	-1.300608e-08	2.097340e+00	-8.553912e+02
8.600000e-07	3.946965e-07	-1.245816e-08	2.826230e+00	-8.186268e+02
8.700000e-07	4.963767e-07	-1.187117e-08	3.554313e+00	-7.792654e+02
8.800000e-07	5.979246e-07	-1.123945e-08	4.281448e+00	-7.373495e+02
8.900000e-07	6.992494e-07	-1.055252e-08	5.006986e+00	-6.926934e+02
9.000000e-07	8.003084e-07	-9.802301e-09	5.730621e+00	-6.447275e+02
9.100000e-07	9.011276e-07	-8.979389e-09	6.452538e+00	-5.924111e+02
9.200000e-07	1.001685e-06	-8.069197e-09	7.172582e+00	-5.342553e+02
9.300000e-07	1.101908e-06	-7.054363e-09	7.890228e+00	-4.684765e+02
9.400000e-07	1.201720e-06	-5.912099e-09	8.604932e+00	-3.932684e+02
9.500000e-07	1.301161e-06	-4.616593e-09	9.316985e+00	-3.071525e+02
9.600000e-07	1.400291e-06	-3.147709e-09	1.002681e+01	-2.093403e+02
9.700000e-07	1.498892e-06	-1.495952e-09	1.073284e+01	-1.000324e+02
9.800000e-07	1.596795e-06	3.281451e-10	1.143388e+01	1.941557e+01
9.900000e-07	1.693883e-06	2.288907e-09	1.212908e+01	1.465060e+02
1.000000e-06	1.790123e-06	4.323475e-09	1.281821e+01	2.778035e+02
1.010000e-06	1.885701e-06	6.354569e-09	1.350259e+01	4.093020e+02
1.020000e-06	1.980680e-06	8.306696e-09	1.418269e+01	5.368942e+02
1.030000e-06	2.074967e-06	1.011822e-08	1.485783e+01	6.568594e+02
1.040000e-06	2.168491e-06	1.174954e-08	1.552751e+01	7.662830e+02
1.050000e-06	2.261315e-06	1.318530e-08	1.619218e+01	8.633354e+02
1.060000e-06	2.353448e-06	1.442905e-08	1.685190e+01	9.473686e+02
1.070000e-06	2.444858e-06	1.549815e-08	1.750645e+01	1.018824e+03
1.080000e-06	2.535436e-06	1.641471e-08	1.815503e+01	1.078987e+03
1.090000e-06	2.624912e-06	1.719992e-08	1.879572e+01	1.129646e+03
1.100000e-06	2.713231e-06	1.787331e-08	1.942814e+01	1.172732e+03
1.110000e-06	2.800592e-06	1.845283e-08	2.005368e+01	1.210012e+03
1.120000e-06	2.887038e-06	1.895373e-08	2.067268e+01	1.242880e+03
1.130000e-06	2.972597e-06	1.939052e-08	2.128533e+01	1.272278e+03
1.140000e-06	3.057256e-06	1.977625e-08	2.189153e+01	1.298729e+03
1.150000e-06	3.140974e-06	2.012087e-08	2.249100e+01	1.322463e+03
1.160000e-06	3.223625e-06	2.042878e-08	2.308282e+01	1.343573e+03
1.170000e-06	3.305007e-06	2.070356e-08	2.366555e+01	1.362160e+03
1.180000e-06	3.385117e-06	2.095179e-08	2.423918e+01	1.378433e+03
1.190000e-06	3.464012e-06	2.117697e-08	2.480411e+01	1.392736e+03
1.200000e-06	3.541697e-06	2.138056e-08	2.536037e+01	1.405510e+03
1.210000e-06	3.618197e-06	2.156774e-08	2.590815e+01	1.417219e+03
1.220000e-06	3.693380e-06	2.174335e-08	2.644651e+01	1.428254e+03
1.230000e-06	3.766935e-06	2.190833e-08	2.697320e+01	1.438865e+03
1.240000e-06	3.838923e-06	2.206179e-08	2.748867e+01	1.449129e+03
1.250000e-06	3.909584e-06	2.220235e-08	2.799464e+01	1.458967e+03
1.260000e-06	3.978886e-06	2.233008e-08	2.849088e+01	1.468210e+03
1.270000e-06	4.046840e-06	2.244643e-08	2.897746e+01	1.476675e+03
1.280000e-06	4.113373e-06	2.255581e-08	2.945387e+01	1.484245e+03
1.290000e-06	4.178201e-06	2.265943e-08	2.991807e+01	1.490916e+03
1.300000e-06	4.241424e-06	2.275754e-08	3.037078e+01	1.496814e+03
1.310000e-06	4.303265e-06	2.284803e-08	3.081360e+01	1.502157e+03
1.320000e-06	4.363807e-06	2.293117e-08	3.124711e+01	1.507203e+03
1.330000e-06	4.422924e-06	2.301111e-08	3.167042e+01	1.512176e+03
1.340000e-06	4.480248e-06	2.308812e-08	3.208089e+01	1.517213e+03
1.350000e-06	4.535780e-06	2.316108e-08	3.247852e+01	1.522335e+03
1.360000e-06	4.589718e-06	2.323050e-08	3.286475e+01	1.527451e+03
1.370000e-06	4.641984e-06	2.329698e-08	3.323900e+01	1.532398e+03
1.380000e-06	4.692237e-06	2.336062e-08	3.359884e+01	1.537002e+03
1.390000e-06	4.740482e-06	2.341981e-08	3.394430e+01	1.541129e+03
1.400000e-06	4.787052e-06	2.347577e-08	3.427776e+01	1.544731e+03
1.410000e-06	4.832075e-06	2.352951e-08	3.460015e+01	1.547856e+03
1.420000e-06	4.875497e-06	2.357975e-08	3.491108e+01	1.550635e+03
1.430000e-06	4.917033e-06	2.362780e-08	3.520849e+01	1.553231e+03
1.440000e-06	4.956716e-06	2.367211e-08	3.549265e+01	1.555797e+03
1.450000e-06	4.994811e-06	2.371102e-08	3.576542e+01	1.558427e+03
1.460000e-06	5.031354e-06	2.374477e-08	3.602709e+01	1.561129e+03
1.470000e-06	5.066148e-06	2.377640e-08	3.627623e+01	1.563831e+03
1.480000e-06	5.098954e-06	2.380790e-08	3.651114e+01	1.566406e+03
1.490000e-06	5.129921e-06	2.383553e-08	3.673288e+01	1.568718e+03
1.500000e-06	5.159257e-06	2.386167e-08	3.694294e+01	1.570663e+03
1.510000e-06	5.186916e-06	2.388726e-08	3.714099e+01	1.572208e+03
1.520000e-06	5.212554e-06	2.391124e-08	3.732457e+01	1.573397e+03
1.530000e-06	5.236139e-06	2.393432e-08	3.749345e+01	1.574340e+03
1.540000e-06	5.257928e-06	2.395387e-08	3.764948e+01	1.575177e+03
1.550000e-06	5.278042e-06	2.397088e-08	3.779350e+01	1.576035e+03
1.560000e-06	5.296425e-06	2.398400e-08	3.792514e+01	1.576993e+03
1.570000e-06	5.312788e-06	2.399368e-08	3.804230e+01	1.578053e+03
1.580000e-06	5.327116e-06	2.400288e-08	3.814490e+01	1.579151e+03
1.590000e-06	5.339441e-06	2.401178e-08	3.823315e+01	1.580169e+03
1.600000e-06	5.349551e-06	2.402152e-08	3.830555e+01	1.580981e+03
1.610000e-06	5.357564e-06	2.403165e-08	3.836292e+01	1.581491e+03
1.620000e-06	5.363708e-06	2.404075e-08	3.840691e+01	1.581662e+03
1.630000e-06	5.368111e-06	2.404693e-08	3.843844e+01	1.581530e+03
1.640000e-06	5.370651e-06	2.405042e-08	3.845663e+01	1.581190e+03
1.650000e-06	5.371121e-06	2.405018e-08	3.846000e+01	1.580766e+03
1.660000e-06	5.369792e-06	2.404215e-08	3.845048e+01	1.580375e+03
1.670000e-06	5.366824e-06	2.403508e-08	3.842923e+01	1.580085e+03
1.680000e-06	5.362146e-06	2.403065e-08	3.839573e+01	1.579901e+03
1.690000e-06	5.355649e-06	2.402716e-08	3.834921e+01	1.579758e+03
1.700000e-06	5.347402e-06	2.402322e-08	3.829015e+01	1.579543e+03
1.710000e-06	5.337588e-06	2.401701e-08	3.821988e+01	1.579131e+03
1.720000e-06	5.326081e-06	2.402001e-08	3.813748e+01	1.578426e+03
1.730000e-06	5.312601e-06	2.398683e-08	3.804097e+01	1.577387e+03
1.740000e-06	5.297049e-06	2.390594e-08	3.792960e+01	1.576045e+03
1.750000e-06	5.279266e-06	2.389749e-08	3.780227e+01	1.574492e+03
1.760000e-06	5.258924e-06	2.390287e-08	3.765661e+01	1.572857e+03
1.770000e-06	5.236179e-06	2.394037e-08	3.749374e+01	1.571264e+03
1.780000e-06	5.211940e-06	2.398983e-08	3.732018e+01	1.569802e+03
1.790000e-06	5.186937e-06	2.383007e-08	3.714114e+01	1.568491e+03
1.800000e-06	5.160634e-06	2.380834e-08	3.695280e+01	1.567284e+03
1.810000e-06	5.132275e-06	2.386473e-08	3.674974e+01	1.566079e+03
1.820000e-06	5.102098e-06	2.373270e-08	3.653365e+01	1.564750e+03
1.830000e-06	5.070162e-06	2.382407e-08	3.630497e+01	1.563181e+03
1.840000e-06	5.036344e-06	2.388410e-08	3.606282e+01	1.561302e+03
1.850000e-06	5.000938e-06	2.373402e-08	3.580930e+01	1.559105e+03
1.860000e-06	4.963714e-06	2.379651e-08	3.554275e+01	1.556637e+03
1.870000e-06	4.924574e-06	2.377241e-08	3.526249e+01	1.553985e+03
1.880000e-06	4.883772e-06	2.367440e-08	3.497033e+01	1.551245e+03
1.890000e-06	4.841203e-06	2.366888e-08	3.466551e+01	1.548485e+03
1.900000e-06	4.796935e-06	2.354076e-08	3.434853e+01	1.545728e+03
1.910000e-06	4.750864e-06	2.358268e-08	3.401864e+01	1.542940e+03
1.920000e-06	4.702888e-06	2.359051e-08	3.367511e+01	1.540048e+03
1.930000e-06	4.653273e-06	2.344255e-08	3.331983e+01	1.536961e+03
1.940000e-06	4.601802e-06	2.341908e-08	3.295128e+01	1.533602e+03
1.950000e-06	4.548279e-06	2.333363e-08	3.256802e+01	1.529934e+03
1.960000e-06	4.492934e-06	2.328932e-08	3.217173e+01	1.525978e+03
1.970000e-06	4.435919e-06	2.324526e-08	3.176347e+01	1.521798e+03
1.980000e-06	4.377406e-06	2.315835e-08	3.134448e+01	1.517488e+03
1.990000e-06	4.317503e-06	2.316038e-08	3.091555e+01	1.513139e+03
2.000000e-06	4.256054e-06	2.305772e-08	3.047554e+01	1.508806e+03
2.010000e-06	4.192890e-06	2.297332e-08	3.002325e+01	1.504491e+03
2.020000e-06	4.128062e-06	2.291118e-08	2.955905e+01	1.500140e+03
2.030000e-06	4.061813e-06	2.284668e-08	2.908468e+01	1.495656e+03
2.040000e-06	3.994257e-06	2.280612e-08	2.860094e+01	1.490931e+03
2.050000e-06	3.925257e-06	2.268263e-08	2.810687e+01	1.485881e+03
2.060000e-06	3.854657e-06	2.261576e-08	2.760133e+01	1.480468e+03
2.070000e-06	3.782630e-06	2.253720e-08	2.708558e+01	1.474718e+03
2.080000e-06	3.709369e-06	2.243508e-08	2.656100e+01	1.468711e+03
2.090000e-06	3.634787e-06	2.235111e-08	2.602695e+01	1.462554e+03
2.100000e-06	3.558782e-06	2.225101e-08	2.548271e+01	1.456346e+03
2.110000e-06	3.481207e-06	2.218048e-08	2.492723e+01	1.450144e+03
2.120000e-06	3.402144e-06	2.207942e-08	2.436111e+01	1.443941e+03
2.130000e-06	3.321885e-06	2.197837e-08	2.378641e+01	1.437662e+03
2.140000e-06	3.240521e-06	2.187047e-08	2.320380e+01	1.431184e+03
2.150000e-06	3.158074e-06	2.175781e-08	2.261344e+01	1.424370e+03
2.160000e-06	3.074696e-06	2.165534e-08	2.201641e+01	1.417109e+03
2.170000e-06	2.990336e-06	2.153748e-08	2.141235e+01	1.409352e+03
2.180000e-06	2.904693e-06	2.142044e-08	2.079910e+01	1.401124e+03
2.190000e-06	2.817749e-06	2.129033e-08	2.017654e+01	1.392515e+03
2.200000e-06	2.729746e-06	2.116051e-08	1.954639e+01	1.383654e+03
2.210000e-06	2.640855e-06	2.102612e-08	1.890988e+01	1.374660e+03
2.220000e-06	2.551083e-06	2.089259e-08	1.826707e+01	1.365606e+03
2.230000e-06	2.460392e-06	2.076082e-08	1.761767e+01	1.356484e+03
2.240000e-06	2.368971e-06	2.061642e-08	1.696306e+01	1.347205e+03
2.250000e-06	2.276894e-06	2.046144e-08	1.630374e+01	1.337617e+03
2.260000e-06	2.183949e-06	2.029675e-08	1.563820e+01	1.327548e+03
2.270000e-06	2.089948e-06	2.013219e-08	1.496511e+01	1.316854e+03
2.280000e-06	1.995016e-06	1.996402e-08	1.428535e+01	1.305464e+03
2.290000e-06	1.899401e-06	1.978979e-08	1.360069e+01	1.293397e+03
2.300000e-06	1.803139e-06	1.960890e-08	1.291141e+01	1.280756e+03
2.310000e-06	1.706325e-06	1.941984e-08	1.221817e+01	1.267689e+03
2.320000e-06	1.609020e-06	1.922104e-08	1.152141e+01	1.254342e+03
2.330000e-06	1.511177e-06	1.901043e-08	1.082081e+01	1.240796e+03
2.340000e-06	1.412828e-06	1.879065e-08	1.011658e+01	1.227034e+03
2.350000e-06	1.314029e-06	1.856596e-08	9.409123e+00	1.212930e+03
2.360000e-06	1.214911e-06	1.833668e-08	8.699388e+00	1.198271e+03
2.370000e-06	1.115527e-06	1.809739e-08	7.987746e+00	1.182816e+03
2.380000e-06	1.015898e-06	1.784417e-08	7.274354e+00	1.166352e+03
2.390000e-06	9.159612e-07	1.757678e-08	6.558755e+00	1.148760e+03
2.400000e-06	8.156517e-07	1.729696e-08	5.840487e+00	1.130035e+03
2.410000e-06	7.150004e-07	1.700535e-08	5.119772e+00	1.110283e+03
2.420000e-06	6.140759e-07	1.670334e-08	4.397100e+00	1.089672e+03
2.430000e-06	5.129090e-07	1.638773e-08	3.672693e+00	1.068353e+03
2.440000e-06	4.115180e-07	1.605251e-08	2.946681e+00	1.046382e+03
2.450000e-06	3.099154e-07	1.569532e-08	2.219154e+00	1.023663e+03
2.460000e-06	2.080974e-07	1.531845e-08	1.490084e+00	9.999288e+02
2.470000e-06	1.060916e-07	1.492240e-08	7.596705e-01	9.747761e+02
2.480000e-06	3.982373e-09	1.450287e-08	2.851584e-02	9.477415e+02
2.490000e-06	-9.807574e-08	1.405417e-08	-7.022729e-01	9.184017e+02
2.500000e-06	-2.000189e-07	1.357607e-08	-1.432238e+00	8.864635e+02
2.510000e-06	-3.018894e-07	1.306631e-08	-2.161684e+00	8.518098e+02
2.520000e-06	-4.036279e-07	1.251624e-08	-2.890184e+00	8.144790e+02
2.530000e-06	-5.051585e-07	1.192038e-08	-3.617196e+00	7.745707e+02
2.540000e-06	-6.065553e-07	1.127575e-08	-4.343249e+00	7.320932e+02
2.550000e-06	-7.076788e-07	1.057737e-08	-5.067345e+00	6.867902e+02
2.560000e-06	-8.083925e-07	9.814229e-09	-5.788507e+00	6.379951e+02
2.570000e-06	-9.087634e-07	8.975895e-09	-6.507215e+00	5.845649e+02
2.580000e-06	-1.008839e-06	8.048332e-09	-7.223809e+00	5.249304e+02
2.590000e-06	-1.108596e-06	7.011562e-09	-7.938119e+00	4.572765e+02
2.600000e-06	-1.207996e-06	5.845504e-09	-8.649874e+00	3.798362e+02
2.610000e-06	-1.307025e-06	4.529379e-09	-9.358976e+00	2.912494e+02
2.620000e-06	-1.405591e-06	3.042727e-09	-1.006475e+01	1.909180e+02
2.630000e-06	-1.503660e-06	1.374579e-09	-1.076698e+01	7.928166e+01
2.640000e-06	-1.601242e-06	-4.672212e-10	-1.146572e+01	-4.205158e+01
2.650000e-06	-1.698277e-06	-2.446281e-09	-1.216054e+01	-1.703597e+02
2.660000e-06	-1.794734e-06	-4.497861e-09	-1.285122e+01	-3.020496e+02
2.670000e-06	-1.890640e-06	-6.540207e-09	-1.353796e+01	-4.330519e+02
2.680000e-06	-1.986019e-06	-8.491702e-09	-1.422092e+01	-5.593022e+02
2.690000e-06	-2.080640e-06	-1.029394e-08	-1.489846e+01	-6.772209e+02
2.700000e-06	-2.174225e-06	-1.191053e-08	-1.556857e+01	-7.841085e+02
2.710000e-06	-2.266773e-06	-1.332830e-08	-1.623126e+01	-8.783870e+02
2.720000e-06	-2.358498e-06	-1.455360e-08	-1.688806e+01	-9.596555e+02
2.730000e-06	-2.449452e-06	-1.560668e-08	-1.753934e+01	-1.028561e+03
2.740000e-06	-2.539534e-06	-1.651292e-08	-1.818438e+01	-1.086528e+03
2.750000e-06	-2.628751e-06	-1.729243e-08	-1.882321e+01	-1.135404e+03
2.760000e-06	-2.717137e-06	-1.796350e-08	-1.945610e+01	-1.177109e+03
2.770000e-06	-2.804705e-06	-1.854077e-08	-2.008314e+01	-1.213342e+03
2.780000e-06	-2.891325e-06	-1.903981e-08	-2.070338e+01	-1.245404e+03
2.790000e-06	-2.976741e-06	-1.947379e-08	-2.131500e+01	-1.274139e+03
2.800000e-06	-3.060986e-06	-1.985548e-08	-2.191824e+01	-1.299997e+03
2.810000e-06	-3.144199e-06	-2.019223e-08	-2.251409e+01	-1.323163e+03
2.820000e-06	-3.226386e-06	-2.048990e-08	-2.310259e+01	-1.343723e+03
2.830000e-06	-3.307509e-06	-2.075859e-08	-2.368347e+01	-1.361793e+03
2.840000e-06	-3.387550e-06	-2.100488e-08	-2.425661e+01	-1.377612e+03
2.850000e-06	-3.466371e-06	-2.123520e-08	-2.482100e+01	-1.391548e+03
2.860000e-06	-3.543682e-06	-2.144806e-08	-2.537459e+01	-1.404057e+03
2.870000e-06	-3.619478e-06	-2.163973e-08	-2.591733e+01	-1.415594e+03
2.880000e-06	-3.693875e-06	-2.181061e-08	-2.645005e+01	-1.426524e+03
2.890000e-06	-3.766938e-06	-2.196590e-08	-2.697322e+01	-1.437061e+03
2.900000e-06	-3.838771e-06	-2.211284e-08	-2.748758e+01	-1.447245e+03
2.910000e-06	-3.909163e-06	-2.225239e-08	-2.799163e+01	-1.456973e+03
2.920000e-06	-3.977939e-06	-2.238246e-08	-2.848410e+01	-1.466065e+03
2.930000e-06	-4.045302e-06	-2.250266e-08	-2.896645e+01	-1.474346e+03
2.940000e-06	-4.111321e-06	-2.261507e-08	-2.943918e+01	-1.481720e+03
