# Temperatura_=_89.18
# Concentracion g/m^3_=_28200.0
# C_Vs_to_Am_M_A/Vsm_=_65563218390.804596
# pendiente_HvsI_1/m_=_3716.3
# ordenada_HvsI_A/m_=_1297.0
# frecuencia_Hz_=_301763.77093385847

Tiempo_(s)	Campo_(V.s)	Magnetizacion_(V.s)	Campo_(kA/m)	Magnetizacion_(A/m)
0.000000e+00	-5.330090e-06	-2.759665e-08	-3.830042e+01	-1.806601e+03
1.000000e-08	-5.328140e-06	-2.759472e-08	-3.828641e+01	-1.806124e+03
2.000000e-08	-5.324344e-06	-2.758233e-08	-3.825913e+01	-1.805432e+03
3.000000e-08	-5.318936e-06	-2.756550e-08	-3.822027e+01	-1.804526e+03
4.000000e-08	-5.311920e-06	-2.754806e-08	-3.816986e+01	-1.803399e+03
5.000000e-08	-5.303239e-06	-2.752472e-08	-3.810748e+01	-1.802037e+03
6.000000e-08	-5.292603e-06	-2.749693e-08	-3.803105e+01	-1.800425e+03
7.000000e-08	-5.280021e-06	-2.745887e-08	-3.794065e+01	-1.798550e+03
8.000000e-08	-5.265523e-06	-2.742515e-08	-3.783646e+01	-1.796412e+03
9.000000e-08	-5.248812e-06	-2.747289e-08	-3.771639e+01	-1.794019e+03
1.000000e-07	-5.229935e-06	-2.746397e-08	-3.758074e+01	-1.791401e+03
1.100000e-07	-5.209116e-06	-2.735196e-08	-3.743114e+01	-1.788596e+03
1.200000e-07	-5.186528e-06	-2.728603e-08	-3.726883e+01	-1.785653e+03
1.300000e-07	-5.162386e-06	-2.714386e-08	-3.709536e+01	-1.782618e+03
1.400000e-07	-5.136697e-06	-2.707890e-08	-3.691076e+01	-1.779525e+03
1.500000e-07	-5.109359e-06	-2.725579e-08	-3.671432e+01	-1.776390e+03
1.600000e-07	-5.080464e-06	-2.707962e-08	-3.650669e+01	-1.773199e+03
1.700000e-07	-5.050138e-06	-2.697625e-08	-3.628877e+01	-1.769917e+03
1.800000e-07	-5.018024e-06	-2.709678e-08	-3.605801e+01	-1.766482e+03
1.900000e-07	-4.983775e-06	-2.681208e-08	-3.581191e+01	-1.762824e+03
2.000000e-07	-4.947884e-06	-2.676044e-08	-3.555401e+01	-1.758870e+03
2.100000e-07	-4.910448e-06	-2.687935e-08	-3.528500e+01	-1.754558e+03
2.200000e-07	-4.871256e-06	-2.668044e-08	-3.500338e+01	-1.749846e+03
2.300000e-07	-4.830322e-06	-2.659568e-08	-3.470924e+01	-1.744715e+03
2.400000e-07	-4.787411e-06	-2.652628e-08	-3.440090e+01	-1.739172e+03
2.500000e-07	-4.742647e-06	-2.636624e-08	-3.407924e+01	-1.733238e+03
2.600000e-07	-4.696140e-06	-2.633012e-08	-3.374505e+01	-1.726944e+03
2.700000e-07	-4.647698e-06	-2.618400e-08	-3.339696e+01	-1.720324e+03
2.800000e-07	-4.597163e-06	-2.606972e-08	-3.303383e+01	-1.713398e+03
2.900000e-07	-4.544603e-06	-2.599092e-08	-3.265615e+01	-1.706176e+03
3.000000e-07	-4.490299e-06	-2.586876e-08	-3.226594e+01	-1.698654e+03
3.100000e-07	-4.434410e-06	-2.575105e-08	-3.186434e+01	-1.690817e+03
3.200000e-07	-4.376745e-06	-2.561100e-08	-3.144997e+01	-1.682645e+03
3.300000e-07	-4.317346e-06	-2.550281e-08	-3.102315e+01	-1.674120e+03
3.400000e-07	-4.256511e-06	-2.535129e-08	-3.058601e+01	-1.665231e+03
3.500000e-07	-4.194280e-06	-2.519412e-08	-3.013884e+01	-1.655974e+03
3.600000e-07	-4.130694e-06	-2.506282e-08	-2.968193e+01	-1.646356e+03
3.700000e-07	-4.065524e-06	-2.492368e-08	-2.921363e+01	-1.636388e+03
3.800000e-07	-3.998651e-06	-2.478135e-08	-2.873310e+01	-1.626076e+03
3.900000e-07	-3.930350e-06	-2.458328e-08	-2.824231e+01	-1.615423e+03
4.000000e-07	-3.860776e-06	-2.440596e-08	-2.774238e+01	-1.604420e+03
4.100000e-07	-3.789979e-06	-2.426822e-08	-2.723365e+01	-1.593046e+03
4.200000e-07	-3.717943e-06	-2.408521e-08	-2.671602e+01	-1.581273e+03
4.300000e-07	-3.644473e-06	-2.389625e-08	-2.618809e+01	-1.569066e+03
4.400000e-07	-3.569390e-06	-2.369617e-08	-2.564856e+01	-1.556393e+03
4.500000e-07	-3.492846e-06	-2.348943e-08	-2.509854e+01	-1.543226e+03
4.600000e-07	-3.414953e-06	-2.327022e-08	-2.453882e+01	-1.529549e+03
4.700000e-07	-3.335655e-06	-2.305310e-08	-2.396902e+01	-1.515352e+03
4.800000e-07	-3.255064e-06	-2.284866e-08	-2.338991e+01	-1.500632e+03
4.900000e-07	-3.173349e-06	-2.261684e-08	-2.280273e+01	-1.485385e+03
5.000000e-07	-3.090603e-06	-2.237608e-08	-2.220814e+01	-1.469605e+03
5.100000e-07	-3.006910e-06	-2.211848e-08	-2.160675e+01	-1.453274e+03
5.200000e-07	-2.922323e-06	-2.185489e-08	-2.099894e+01	-1.436364e+03
5.300000e-07	-2.836752e-06	-2.158728e-08	-2.038405e+01	-1.418840e+03
5.400000e-07	-2.750197e-06	-2.131132e-08	-1.976209e+01	-1.400656e+03
5.500000e-07	-2.662776e-06	-2.102494e-08	-1.913391e+01	-1.381766e+03
5.600000e-07	-2.574461e-06	-2.071930e-08	-1.849930e+01	-1.362127e+03
5.700000e-07	-2.484967e-06	-2.040831e-08	-1.785623e+01	-1.341701e+03
5.800000e-07	-2.394264e-06	-2.008322e-08	-1.720446e+01	-1.320455e+03
5.900000e-07	-2.302661e-06	-1.974799e-08	-1.654623e+01	-1.298357e+03
6.000000e-07	-2.210328e-06	-1.940115e-08	-1.588276e+01	-1.275372e+03
6.100000e-07	-2.117280e-06	-1.903981e-08	-1.521414e+01	-1.251458e+03
6.200000e-07	-2.023474e-06	-1.865937e-08	-1.454008e+01	-1.226558e+03
6.300000e-07	-1.928922e-06	-1.825567e-08	-1.386065e+01	-1.200600e+03
6.400000e-07	-1.833765e-06	-1.783564e-08	-1.317689e+01	-1.173496e+03
6.500000e-07	-1.738071e-06	-1.740034e-08	-1.248926e+01	-1.145147e+03
6.600000e-07	-1.641737e-06	-1.694973e-08	-1.179703e+01	-1.115448e+03
6.700000e-07	-1.544626e-06	-1.647845e-08	-1.109922e+01	-1.084295e+03
6.800000e-07	-1.446721e-06	-1.598223e-08	-1.039570e+01	-1.051588e+03
6.900000e-07	-1.348207e-06	-1.545676e-08	-9.687814e+00	-1.017233e+03
7.000000e-07	-1.249239e-06	-1.490452e-08	-8.976655e+00	-9.811431e+02
7.100000e-07	-1.149897e-06	-1.432479e-08	-8.262815e+00	-9.432367e+02
7.200000e-07	-1.050240e-06	-1.371767e-08	-7.546709e+00	-9.034358e+02
7.300000e-07	-9.503008e-07	-1.308388e-08	-6.828576e+00	-8.616676e+02
7.400000e-07	-8.501019e-07	-1.241969e-08	-6.108577e+00	-8.178696e+02
7.500000e-07	-7.496426e-07	-1.172229e-08	-5.386706e+00	-7.719993e+02
7.600000e-07	-6.489437e-07	-1.099042e-08	-4.663114e+00	-7.240477e+02
7.700000e-07	-5.480215e-07	-1.022618e-08	-3.937918e+00	-6.740541e+02
7.800000e-07	-4.468854e-07	-9.434190e-09	-3.211184e+00	-6.221176e+02
7.900000e-07	-3.455953e-07	-8.618084e-09	-2.483344e+00	-5.684033e+02
8.000000e-07	-2.441770e-07	-7.776303e-09	-1.754583e+00	-5.131374e+02
8.100000e-07	-1.426129e-07	-6.916337e-09	-1.024773e+00	-4.565922e+02
8.200000e-07	-4.098736e-08	-6.041179e-09	-2.945228e-01	-3.990592e+02
8.300000e-07	6.063537e-08	-5.152776e-09	4.357075e-01	-3.408155e+02
8.400000e-07	1.622842e-07	-4.256654e-09	1.166126e+00	-2.820876e+02
8.500000e-07	2.638900e-07	-3.357529e-09	1.896234e+00	-2.230202e+02
8.600000e-07	3.654044e-07	-2.457982e-09	2.625686e+00	-1.636556e+02
8.700000e-07	4.668155e-07	-1.553352e-09	3.354396e+00	-1.039296e+02
8.800000e-07	5.681114e-07	-6.403530e-10	4.082278e+00	-4.368553e+01
8.900000e-07	6.692306e-07	2.889093e-10	4.808890e+00	1.729295e+01
9.000000e-07	7.700980e-07	1.236268e-09	5.533693e+00	7.923687e+01
9.100000e-07	8.706947e-07	2.199098e-09	6.256550e+00	1.423395e+02
9.200000e-07	9.709751e-07	3.177522e-09	6.977135e+00	2.067060e+02
9.300000e-07	1.070988e-06	4.172014e-09	7.695799e+00	2.723134e+02
9.400000e-07	1.170730e-06	5.183974e-09	8.412517e+00	3.389868e+02
9.500000e-07	1.270122e-06	6.210105e-09	9.126713e+00	4.063974e+02
9.600000e-07	1.369070e-06	7.242343e-09	9.837723e+00	4.740812e+02
9.700000e-07	1.467469e-06	8.269354e-09	1.054479e+01	5.414758e+02
9.800000e-07	1.565161e-06	9.281051e-09	1.124678e+01	6.079698e+02
9.900000e-07	1.662019e-06	1.026949e-08	1.194277e+01	6.729573e+02
1.000000e-06	1.758092e-06	1.122592e-08	1.263312e+01	7.358890e+02
1.010000e-06	1.853489e-06	1.214237e-08	1.331862e+01	7.963128e+02
1.020000e-06	1.948248e-06	1.301520e-08	1.399953e+01	8.539012e+02
1.030000e-06	2.042374e-06	1.384161e-08	1.467588e+01	9.084600e+02
1.040000e-06	2.135802e-06	1.462197e-08	1.534723e+01	9.599233e+02
1.050000e-06	2.228494e-06	1.535535e-08	1.601329e+01	1.008334e+03
1.060000e-06	2.320523e-06	1.604429e-08	1.667458e+01	1.053816e+03
1.070000e-06	2.411868e-06	1.669360e-08	1.733096e+01	1.096544e+03
1.080000e-06	2.502335e-06	1.730532e-08	1.798103e+01	1.136719e+03
1.090000e-06	2.591673e-06	1.788319e-08	1.862298e+01	1.174537e+03
1.100000e-06	2.679881e-06	1.842699e-08	1.925682e+01	1.210183e+03
1.110000e-06	2.767198e-06	1.893712e-08	1.988425e+01	1.243817e+03
1.120000e-06	2.853707e-06	1.941624e-08	2.050588e+01	1.275574e+03
1.130000e-06	2.939270e-06	1.987059e-08	2.112071e+01	1.305574e+03
1.140000e-06	3.023817e-06	2.030270e-08	2.172824e+01	1.333921e+03
1.150000e-06	3.107446e-06	2.071206e-08	2.232917e+01	1.360715e+03
1.160000e-06	3.190142e-06	2.109790e-08	2.292340e+01	1.386055e+03
1.170000e-06	3.271641e-06	2.146251e-08	2.350903e+01	1.410041e+03
1.180000e-06	3.351829e-06	2.180969e-08	2.408524e+01	1.432774e+03
1.190000e-06	3.430820e-06	2.214072e-08	2.465284e+01	1.454353e+03
1.200000e-06	3.508631e-06	2.245341e-08	2.521196e+01	1.474869e+03
1.210000e-06	3.585201e-06	2.274916e-08	2.576218e+01	1.494405e+03
1.220000e-06	3.660423e-06	2.303163e-08	2.630270e+01	1.513026e+03
1.230000e-06	3.734048e-06	2.330025e-08	2.683174e+01	1.530787e+03
1.240000e-06	3.806132e-06	2.355548e-08	2.734972e+01	1.547727e+03
1.250000e-06	3.876926e-06	2.379797e-08	2.785843e+01	1.563877e+03
1.260000e-06	3.946399e-06	2.403078e-08	2.835764e+01	1.579263e+03
1.270000e-06	4.014558e-06	2.425439e-08	2.884741e+01	1.593911e+03
1.280000e-06	4.081323e-06	2.446598e-08	2.932716e+01	1.607851e+03
1.290000e-06	4.146415e-06	2.466594e-08	2.979489e+01	1.621117e+03
1.300000e-06	4.209906e-06	2.485758e-08	3.025112e+01	1.633749e+03
1.310000e-06	4.271957e-06	2.504041e-08	3.069700e+01	1.645789e+03
1.320000e-06	4.332652e-06	2.521510e-08	3.113313e+01	1.657277e+03
1.330000e-06	4.392015e-06	2.538202e-08	3.155970e+01	1.668245e+03
1.340000e-06	4.449667e-06	2.554069e-08	3.197397e+01	1.678720e+03
1.350000e-06	4.505538e-06	2.569238e-08	3.237544e+01	1.688716e+03
1.360000e-06	4.559792e-06	2.583872e-08	3.276530e+01	1.698236e+03
1.370000e-06	4.612315e-06	2.597865e-08	3.314271e+01	1.707279e+03
1.380000e-06	4.662884e-06	2.611063e-08	3.350608e+01	1.715841e+03
1.390000e-06	4.711440e-06	2.623420e-08	3.385499e+01	1.723921e+03
1.400000e-06	4.758242e-06	2.634892e-08	3.419130e+01	1.731527e+03
1.410000e-06	4.803470e-06	2.645625e-08	3.451629e+01	1.738674e+03
1.420000e-06	4.847201e-06	2.655840e-08	3.483053e+01	1.745391e+03
1.430000e-06	4.889169e-06	2.665532e-08	3.513210e+01	1.751711e+03
1.440000e-06	4.929224e-06	2.674615e-08	3.541992e+01	1.757671e+03
1.450000e-06	4.967572e-06	2.683202e-08	3.569548e+01	1.763306e+03
1.460000e-06	5.004281e-06	2.691332e-08	3.595926e+01	1.768639e+03
1.470000e-06	5.039361e-06	2.698985e-08	3.621133e+01	1.773686e+03
1.480000e-06	5.072602e-06	2.706190e-08	3.645020e+01	1.778449e+03
1.490000e-06	5.103969e-06	2.712951e-08	3.667559e+01	1.782919e+03
1.500000e-06	5.133648e-06	2.719279e-08	3.688885e+01	1.787081e+03
1.510000e-06	5.161694e-06	2.725176e-08	3.709038e+01	1.790920e+03
1.520000e-06	5.187850e-06	2.730648e-08	3.727833e+01	1.794422e+03
1.530000e-06	5.211916e-06	2.735596e-08	3.745126e+01	1.797584e+03
1.540000e-06	5.234091e-06	2.739948e-08	3.761061e+01	1.800411e+03
1.550000e-06	5.254589e-06	2.743737e-08	3.775790e+01	1.802915e+03
1.560000e-06	5.273363e-06	2.746956e-08	3.789280e+01	1.805114e+03
1.570000e-06	5.290129e-06	2.749818e-08	3.801328e+01	1.807026e+03
1.580000e-06	5.304885e-06	2.752376e-08	3.811931e+01	1.808668e+03
1.590000e-06	5.317742e-06	2.754557e-08	3.821169e+01	1.810052e+03
1.600000e-06	5.328466e-06	2.756280e-08	3.828875e+01	1.811184e+03
1.610000e-06	5.336977e-06	2.757580e-08	3.834991e+01	1.812067e+03
1.620000e-06	5.343515e-06	2.758582e-08	3.839689e+01	1.812700e+03
1.630000e-06	5.348285e-06	2.759394e-08	3.843117e+01	1.813085e+03
1.640000e-06	5.351287e-06	2.759925e-08	3.845274e+01	1.813226e+03
1.650000e-06	5.352297e-06	2.760173e-08	3.846000e+01	1.813130e+03
1.660000e-06	5.351409e-06	2.759565e-08	3.845361e+01	1.812808e+03
1.670000e-06	5.348845e-06	2.758211e-08	3.843519e+01	1.812268e+03
1.680000e-06	5.344710e-06	2.757303e-08	3.840548e+01	1.811515e+03
1.690000e-06	5.338813e-06	2.756011e-08	3.836310e+01	1.810546e+03
1.700000e-06	5.330969e-06	2.754153e-08	3.830674e+01	1.809352e+03
1.710000e-06	5.321447e-06	2.752240e-08	3.823832e+01	1.807919e+03
1.720000e-06	5.310322e-06	2.750825e-08	3.815838e+01	1.806231e+03
1.730000e-06	5.297345e-06	2.750043e-08	3.806513e+01	1.804280e+03
1.740000e-06	5.282331e-06	2.737300e-08	3.795724e+01	1.802066e+03
1.750000e-06	5.265117e-06	2.728536e-08	3.783355e+01	1.799604e+03
1.760000e-06	5.245412e-06	2.731650e-08	3.769195e+01	1.796927e+03
1.770000e-06	5.223159e-06	2.730175e-08	3.753205e+01	1.794076e+03
1.780000e-06	5.199148e-06	2.739792e-08	3.735951e+01	1.791102e+03
1.790000e-06	5.174367e-06	2.726134e-08	3.718144e+01	1.788046e+03
1.800000e-06	5.148634e-06	2.700730e-08	3.699654e+01	1.784940e+03
1.810000e-06	5.120957e-06	2.719447e-08	3.679766e+01	1.781790e+03
1.820000e-06	5.091249e-06	2.708056e-08	3.658418e+01	1.778577e+03
1.830000e-06	5.059852e-06	2.694855e-08	3.635858e+01	1.775257e+03
1.840000e-06	5.026515e-06	2.721670e-08	3.611902e+01	1.771764e+03
1.850000e-06	4.991467e-06	2.697259e-08	3.586718e+01	1.768028e+03
1.860000e-06	4.954857e-06	2.678111e-08	3.560412e+01	1.763976e+03
1.870000e-06	4.916285e-06	2.689977e-08	3.532694e+01	1.759552e+03
1.880000e-06	4.875972e-06	2.669958e-08	3.503727e+01	1.754720e+03
1.890000e-06	4.833982e-06	2.672360e-08	3.473554e+01	1.749469e+03
1.900000e-06	4.790234e-06	2.665311e-08	3.442118e+01	1.743810e+03
1.910000e-06	4.744854e-06	2.646113e-08	3.409509e+01	1.737769e+03
1.920000e-06	4.697514e-06	2.658892e-08	3.375492e+01	1.731378e+03
1.930000e-06	4.648415e-06	2.635409e-08	3.340211e+01	1.724667e+03
1.940000e-06	4.597706e-06	2.619511e-08	3.303773e+01	1.717655e+03
1.950000e-06	4.544994e-06	2.616914e-08	3.265896e+01	1.710348e+03
1.960000e-06	4.490304e-06	2.600702e-08	3.226597e+01	1.702737e+03
1.970000e-06	4.433823e-06	2.595911e-08	3.186012e+01	1.694805e+03
1.980000e-06	4.375746e-06	2.571849e-08	3.144279e+01	1.686533e+03
1.990000e-06	4.316274e-06	2.563997e-08	3.101544e+01	1.677903e+03
2.000000e-06	4.255391e-06	2.558654e-08	3.057796e+01	1.668907e+03
2.010000e-06	4.192815e-06	2.532825e-08	3.012831e+01	1.659546e+03
2.020000e-06	4.128518e-06	2.521421e-08	2.966629e+01	1.649825e+03
2.030000e-06	4.062796e-06	2.504151e-08	2.919403e+01	1.639757e+03
2.040000e-06	3.995729e-06	2.494675e-08	2.871211e+01	1.629347e+03
2.050000e-06	3.927351e-06	2.476587e-08	2.822076e+01	1.618594e+03
2.060000e-06	3.857460e-06	2.452757e-08	2.771854e+01	1.607487e+03
2.070000e-06	3.785976e-06	2.442511e-08	2.720488e+01	1.596001e+03
2.080000e-06	3.713235e-06	2.420471e-08	2.668219e+01	1.584106e+03
2.090000e-06	3.639207e-06	2.402655e-08	2.615025e+01	1.571768e+03
2.100000e-06	3.563831e-06	2.382928e-08	2.560862e+01	1.558955e+03
2.110000e-06	3.487062e-06	2.364660e-08	2.505698e+01	1.545643e+03
2.120000e-06	3.408682e-06	2.345417e-08	2.449377e+01	1.531817e+03
2.130000e-06	3.328950e-06	2.318258e-08	2.392083e+01	1.517470e+03
2.140000e-06	3.248152e-06	2.296844e-08	2.334024e+01	1.502598e+03
2.150000e-06	3.166239e-06	2.272837e-08	2.275164e+01	1.487199e+03
2.160000e-06	3.083246e-06	2.250674e-08	2.215528e+01	1.471262e+03
2.170000e-06	2.999346e-06	2.225508e-08	2.155240e+01	1.454768e+03
2.180000e-06	2.914380e-06	2.198853e-08	2.094186e+01	1.437686e+03
2.190000e-06	2.828059e-06	2.172767e-08	2.032158e+01	1.419976e+03
2.200000e-06	2.740578e-06	2.143642e-08	1.969297e+01	1.401594e+03
2.210000e-06	2.652173e-06	2.114971e-08	1.905771e+01	1.382494e+03
2.220000e-06	2.562836e-06	2.084228e-08	1.841577e+01	1.362633e+03
2.230000e-06	2.472600e-06	2.054018e-08	1.776736e+01	1.341975e+03
2.240000e-06	2.381575e-06	2.021044e-08	1.711328e+01	1.320487e+03
2.250000e-06	2.289904e-06	1.986462e-08	1.645456e+01	1.298138e+03
2.260000e-06	2.197558e-06	1.950503e-08	1.579099e+01	1.274892e+03
2.270000e-06	2.104297e-06	1.913526e-08	1.512085e+01	1.250702e+03
2.280000e-06	2.009970e-06	1.876240e-08	1.444304e+01	1.225506e+03
2.290000e-06	1.914694e-06	1.836471e-08	1.375842e+01	1.199229e+03
2.300000e-06	1.818768e-06	1.794863e-08	1.306912e+01	1.171778e+03
2.310000e-06	1.722364e-06	1.750785e-08	1.237639e+01	1.143053e+03
2.320000e-06	1.625456e-06	1.704822e-08	1.168004e+01	1.112949e+03
2.330000e-06	1.528036e-06	1.656331e-08	1.098001e+01	1.081361e+03
2.340000e-06	1.430124e-06	1.605573e-08	1.027644e+01	1.048191e+03
2.350000e-06	1.331707e-06	1.552618e-08	9.569246e+00	1.013347e+03
2.360000e-06	1.232847e-06	1.497291e-08	8.858866e+00	9.767455e+02
2.370000e-06	1.133682e-06	1.438885e-08	8.146299e+00	9.383045e+02
2.380000e-06	1.034257e-06	1.377089e-08	7.431858e+00	8.979475e+02
2.390000e-06	9.345597e-07	1.312345e-08	6.715465e+00	8.556040e+02
2.400000e-06	8.346442e-07	1.244505e-08	5.997502e+00	8.112159e+02
2.410000e-06	7.345377e-07	1.173729e-08	5.278167e+00	7.647489e+02
2.420000e-06	6.341677e-07	1.099541e-08	4.556939e+00	7.162064e+02
2.430000e-06	5.334919e-07	1.022299e-08	3.833512e+00	6.656436e+02
2.440000e-06	4.326400e-07	9.423077e-09	3.108821e+00	6.131783e+02
2.450000e-06	3.316947e-07	8.594672e-09	2.383458e+00	5.589941e+02
2.460000e-06	2.305944e-07	7.739388e-09	1.656982e+00	5.033324e+02
2.470000e-06	1.292969e-07	6.869744e-09	9.290887e-01	4.464740e+02
2.480000e-06	2.781524e-08	5.993794e-09	1.998720e-01	3.887101e+02
2.490000e-06	-7.368806e-08	5.106506e-09	-5.295003e-01	3.303069e+02
2.500000e-06	-1.751050e-07	4.208070e-09	-1.258252e+00	2.714704e+02
2.510000e-06	-2.764013e-07	3.302146e-09	-1.986137e+00	2.123174e+02
2.520000e-06	-3.775490e-07	2.388792e-09	-2.712954e+00	1.528595e+02
2.530000e-06	-4.785833e-07	1.466465e-09	-3.438956e+00	9.300361e+01
2.540000e-06	-5.794071e-07	5.409654e-10	-4.163445e+00	3.257230e+01
2.550000e-06	-6.799926e-07	-3.906369e-10	-4.886222e+00	-2.866021e+01
2.560000e-06	-7.803629e-07	-1.337189e-09	-5.607453e+00	-9.091954e+01
2.570000e-06	-8.804784e-07	-2.305770e-09	-6.326853e+00	-1.543787e+02
2.580000e-06	-9.802905e-07	-3.298087e-09	-7.044073e+00	-2.191095e+02
2.590000e-06	-1.079810e-06	-4.308235e-09	-7.759192e+00	-2.850473e+02
2.600000e-06	-1.179091e-06	-5.331375e-09	-8.472595e+00	-3.519724e+02
2.610000e-06	-1.278019e-06	-6.360367e-09	-9.183461e+00	-4.195147e+02
2.620000e-06	-1.376504e-06	-7.391663e-09	-9.891143e+00	-4.871775e+02
2.630000e-06	-1.474452e-06	-8.420765e-09	-1.059497e+01	-5.543790e+02
2.640000e-06	-1.571736e-06	-9.437234e-09	-1.129402e+01	-6.205040e+02
2.650000e-06	-1.668478e-06	-1.042773e-08	-1.198918e+01	-6.849577e+02
2.660000e-06	-1.764779e-06	-1.138173e-08	-1.268117e+01	-7.472150e+02
2.670000e-06	-1.860598e-06	-1.229594e-08	-1.336970e+01	-8.068574e+02
2.680000e-06	-1.955804e-06	-1.316590e-08	-1.405382e+01	-8.635953e+02
2.690000e-06	-2.050084e-06	-1.398748e-08	-1.473129e+01	-9.172723e+02
2.700000e-06	-2.143357e-06	-1.476044e-08	-1.540152e+01	-9.678560e+02
2.710000e-06	-2.235773e-06	-1.548943e-08	-1.606560e+01	-1.015415e+03
2.720000e-06	-2.327410e-06	-1.617751e-08	-1.672407e+01	-1.060092e+03
2.730000e-06	-2.418236e-06	-1.682430e-08	-1.737672e+01	-1.102072e+03
2.740000e-06	-2.508172e-06	-1.743173e-08	-1.802297e+01	-1.141554e+03
2.750000e-06	-2.597217e-06	-1.800277e-08	-1.866282e+01	-1.178735e+03
2.760000e-06	-2.685487e-06	-1.853913e-08	-1.929710e+01	-1.213792e+03
2.770000e-06	-2.773012e-06	-1.904296e-08	-1.992603e+01	-1.246878e+03
2.780000e-06	-2.859497e-06	-1.951849e-08	-2.054748e+01	-1.278123e+03
2.790000e-06	-2.944740e-06	-1.996829e-08	-2.116002e+01	-1.307641e+03
2.800000e-06	-3.028871e-06	-2.039470e-08	-2.176456e+01	-1.335536e+03
2.810000e-06	-3.112014e-06	-2.079840e-08	-2.236200e+01	-1.361905e+03
2.820000e-06	-3.194145e-06	-2.118223e-08	-2.295217e+01	-1.386849e+03
2.830000e-06	-3.275240e-06	-2.154555e-08	-2.353489e+01	-1.410467e+03
2.840000e-06	-3.355348e-06	-2.188894e-08	-2.411052e+01	-1.432862e+03
2.850000e-06	-3.434195e-06	-2.221327e-08	-2.467709e+01	-1.454129e+03
2.860000e-06	-3.511479e-06	-2.252023e-08	-2.523243e+01	-1.474359e+03
2.870000e-06	-3.587292e-06	-2.281470e-08	-2.577720e+01	-1.493628e+03
2.880000e-06	-3.661709e-06	-2.309694e-08	-2.631194e+01	-1.512000e+03
2.890000e-06	-3.734794e-06	-2.336717e-08	-2.683711e+01	-1.529524e+03
2.900000e-06	-3.806648e-06	-2.362478e-08	-2.735343e+01	-1.546236e+03
2.910000e-06	-3.877073e-06	-2.386901e-08	-2.785948e+01	-1.562167e+03
2.920000e-06	-3.945921e-06	-2.410126e-08	-2.835420e+01	-1.577340e+03
2.930000e-06	-4.013347e-06	-2.432236e-08	-2.883871e+01	-1.591784e+03
2.940000e-06	-4.079393e-06	-2.453381e-08	-2.931330e+01	-1.605529e+03
