# Temperatura_=_32.2
# Concentracion g/m^3_=_28200.0
# C_Vs_to_Am_M_A/Vsm_=_65563218390.804596
# pendiente_HvsI_1/m_=_3716.3
# ordenada_HvsI_A/m_=_1297.0
# frecuencia_Hz_=_301761.4751537453

Tiempo_(s)	Campo_(V.s)	Magnetizacion_(V.s)	Campo_(kA/m)	Magnetizacion_(A/m)
0.000000e+00	-5.323063e-06	-1.946177e-08	-3.829473e+01	-1.272621e+03
1.000000e-08	-5.320644e-06	-1.946026e-08	-3.827733e+01	-1.272321e+03
2.000000e-08	-5.316420e-06	-1.944979e-08	-3.824694e+01	-1.271883e+03
3.000000e-08	-5.310584e-06	-1.944028e-08	-3.820496e+01	-1.271293e+03
4.000000e-08	-5.303165e-06	-1.942905e-08	-3.815159e+01	-1.270533e+03
5.000000e-08	-5.294034e-06	-1.941071e-08	-3.808590e+01	-1.269584e+03
6.000000e-08	-5.282882e-06	-1.938771e-08	-3.800567e+01	-1.268436e+03
7.000000e-08	-5.269825e-06	-1.934841e-08	-3.791173e+01	-1.267087e+03
8.000000e-08	-5.254755e-06	-1.933875e-08	-3.780332e+01	-1.265555e+03
9.000000e-08	-5.237405e-06	-1.941007e-08	-3.767850e+01	-1.263867e+03
1.000000e-07	-5.217967e-06	-1.938689e-08	-3.753866e+01	-1.262063e+03
1.100000e-07	-5.196633e-06	-1.929476e-08	-3.738518e+01	-1.260179e+03
1.200000e-07	-5.173586e-06	-1.924834e-08	-3.721938e+01	-1.258248e+03
1.300000e-07	-5.149068e-06	-1.908651e-08	-3.704299e+01	-1.256284e+03
1.400000e-07	-5.123010e-06	-1.908717e-08	-3.685553e+01	-1.254282e+03
1.500000e-07	-5.095241e-06	-1.925116e-08	-3.665575e+01	-1.252217e+03
1.600000e-07	-5.065962e-06	-1.904065e-08	-3.644512e+01	-1.250047e+03
1.700000e-07	-5.035275e-06	-1.906541e-08	-3.622436e+01	-1.247721e+03
1.800000e-07	-5.002713e-06	-1.916911e-08	-3.599010e+01	-1.245191e+03
1.900000e-07	-4.968094e-06	-1.884116e-08	-3.574104e+01	-1.242414e+03
2.000000e-07	-4.931897e-06	-1.884442e-08	-3.548064e+01	-1.239368e+03
2.100000e-07	-4.894093e-06	-1.889572e-08	-3.520867e+01	-1.236045e+03
2.200000e-07	-4.854473e-06	-1.872739e-08	-3.492364e+01	-1.232456e+03
2.300000e-07	-4.813016e-06	-1.875704e-08	-3.462539e+01	-1.228624e+03
2.400000e-07	-4.769605e-06	-1.868711e-08	-3.431309e+01	-1.224574e+03
2.500000e-07	-4.724411e-06	-1.857011e-08	-3.398796e+01	-1.220328e+03
2.600000e-07	-4.677453e-06	-1.855674e-08	-3.365014e+01	-1.215899e+03
2.700000e-07	-4.628550e-06	-1.841804e-08	-3.329832e+01	-1.211288e+03
2.800000e-07	-4.577560e-06	-1.837078e-08	-3.293150e+01	-1.206486e+03
2.900000e-07	-4.524514e-06	-1.832651e-08	-3.254988e+01	-1.201474e+03
3.000000e-07	-4.469798e-06	-1.820317e-08	-3.215625e+01	-1.196233e+03
3.100000e-07	-4.413588e-06	-1.811419e-08	-3.175186e+01	-1.190746e+03
3.200000e-07	-4.355539e-06	-1.804939e-08	-3.133425e+01	-1.185004e+03
3.300000e-07	-4.295747e-06	-1.797179e-08	-3.090410e+01	-1.179007e+03
3.400000e-07	-4.234558e-06	-1.784683e-08	-3.046390e+01	-1.172760e+03
3.500000e-07	-4.171978e-06	-1.776559e-08	-3.001369e+01	-1.166273e+03
3.600000e-07	-4.108035e-06	-1.765517e-08	-2.955368e+01	-1.159555e+03
3.700000e-07	-4.042544e-06	-1.753397e-08	-2.908253e+01	-1.152608e+03
3.800000e-07	-3.975404e-06	-1.746419e-08	-2.859952e+01	-1.145429e+03
3.900000e-07	-3.906821e-06	-1.733077e-08	-2.810613e+01	-1.138004e+03
4.000000e-07	-3.836913e-06	-1.719640e-08	-2.760320e+01	-1.130313e+03
4.100000e-07	-3.765792e-06	-1.708258e-08	-2.709155e+01	-1.122332e+03
4.200000e-07	-3.693474e-06	-1.694495e-08	-2.657128e+01	-1.114041e+03
4.300000e-07	-3.619696e-06	-1.681509e-08	-2.604051e+01	-1.105418e+03
4.400000e-07	-3.544316e-06	-1.668954e-08	-2.549822e+01	-1.096451e+03
4.500000e-07	-3.467512e-06	-1.656402e-08	-2.494568e+01	-1.087132e+03
4.600000e-07	-3.389403e-06	-1.640104e-08	-2.438376e+01	-1.077456e+03
4.700000e-07	-3.309885e-06	-1.622555e-08	-2.381169e+01	-1.067418e+03
4.800000e-07	-3.228977e-06	-1.606672e-08	-2.322963e+01	-1.057010e+03
4.900000e-07	-3.146906e-06	-1.590962e-08	-2.263920e+01	-1.046221e+03
5.000000e-07	-3.063837e-06	-1.575158e-08	-2.204160e+01	-1.035030e+03
5.100000e-07	-2.979897e-06	-1.557265e-08	-2.143772e+01	-1.023414e+03
5.200000e-07	-2.895105e-06	-1.538552e-08	-2.082772e+01	-1.011342e+03
5.300000e-07	-2.809402e-06	-1.518642e-08	-2.021116e+01	-9.987863e+02
5.400000e-07	-2.722777e-06	-1.497809e-08	-1.958797e+01	-9.857162e+02
5.500000e-07	-2.635214e-06	-1.477615e-08	-1.895804e+01	-9.721046e+02
5.600000e-07	-2.546716e-06	-1.456703e-08	-1.832137e+01	-9.579259e+02
5.700000e-07	-2.457132e-06	-1.434289e-08	-1.767689e+01	-9.431549e+02
5.800000e-07	-2.366318e-06	-1.409723e-08	-1.702357e+01	-9.277648e+02
5.900000e-07	-2.274526e-06	-1.384376e-08	-1.636321e+01	-9.117248e+02
6.000000e-07	-2.182088e-06	-1.358693e-08	-1.569819e+01	-8.949990e+02
6.100000e-07	-2.088959e-06	-1.332729e-08	-1.502822e+01	-8.775463e+02
6.200000e-07	-1.995062e-06	-1.305579e-08	-1.435271e+01	-8.593209e+02
6.300000e-07	-1.900429e-06	-1.276177e-08	-1.367191e+01	-8.402740e+02
6.400000e-07	-1.805132e-06	-1.245211e-08	-1.298633e+01	-8.203559e+02
6.500000e-07	-1.709329e-06	-1.213009e-08	-1.229711e+01	-7.995167e+02
6.600000e-07	-1.612971e-06	-1.179680e-08	-1.160390e+01	-7.777068e+02
6.700000e-07	-1.515954e-06	-1.144983e-08	-1.090595e+01	-7.548753e+02
6.800000e-07	-1.418236e-06	-1.108732e-08	-1.020295e+01	-7.309689e+02
6.900000e-07	-1.319802e-06	-1.070346e-08	-9.494808e+00	-7.059306e+02
7.000000e-07	-1.220784e-06	-1.029922e-08	-8.782463e+00	-6.796994e+02
7.100000e-07	-1.121348e-06	-9.877369e-09	-8.067107e+00	-6.522131e+02
7.200000e-07	-1.021557e-06	-9.440361e-09	-7.349201e+00	-6.234135e+02
7.300000e-07	-9.214701e-07	-8.984903e-09	-6.629162e+00	-5.932550e+02
7.400000e-07	-8.211903e-07	-8.504726e-09	-5.907739e+00	-5.617138e+02
7.500000e-07	-7.207425e-07	-8.003826e-09	-5.185105e+00	-5.287982e+02
7.600000e-07	-6.201141e-07	-7.482377e-09	-4.461173e+00	-4.945566e+02
7.700000e-07	-5.192625e-07	-6.941619e-09	-3.735635e+00	-4.590818e+02
7.800000e-07	-4.182474e-07	-6.384708e-09	-3.008920e+00	-4.225098e+02
7.900000e-07	-3.171423e-07	-5.813004e-09	-2.281558e+00	-3.850128e+02
8.000000e-07	-2.158769e-07	-5.228843e-09	-1.553044e+00	-3.467868e+02
8.100000e-07	-1.144961e-07	-4.638214e-09	-8.236986e-01	-3.080348e+02
8.200000e-07	-1.304051e-08	-4.046844e-09	-9.381496e-02	-2.689475e+02
8.300000e-07	8.845560e-08	-3.454772e-09	6.363599e-01	-2.296852e+02
8.400000e-07	1.899295e-07	-2.859938e-09	1.366375e+00	-1.903620e+02
8.500000e-07	2.913681e-07	-2.263872e-09	2.096136e+00	-1.510353e+02
8.600000e-07	3.927318e-07	-1.668857e-09	2.825358e+00	-1.117015e+02
8.700000e-07	4.939783e-07	-1.071451e-09	3.553737e+00	-7.229968e+01
8.800000e-07	5.950570e-07	-4.710090e-10	4.280909e+00	-3.272147e+01
8.900000e-07	6.959406e-07	1.353440e-10	5.006677e+00	7.172681e+00
9.000000e-07	7.966158e-07	7.495696e-10	5.730947e+00	4.753305e+01
9.100000e-07	8.970565e-07	1.374762e-09	6.453528e+00	8.849800e+01
9.200000e-07	9.972324e-07	2.011933e-09	7.174206e+00	1.301715e+02
9.300000e-07	1.097124e-06	2.657665e-09	7.892837e+00	1.726029e+02
9.400000e-07	1.196683e-06	3.313015e-09	8.609076e+00	2.157720e+02
9.500000e-07	1.295835e-06	3.976905e-09	9.322385e+00	2.595803e+02
9.600000e-07	1.394482e-06	4.648047e-09	1.003206e+01	3.038498e+02
9.700000e-07	1.492482e-06	5.323994e-09	1.073709e+01	3.483310e+02
9.800000e-07	1.589674e-06	6.001221e-09	1.143630e+01	3.927180e+02
9.900000e-07	1.686015e-06	6.672106e-09	1.212939e+01	4.366705e+02
1.000000e-06	1.781710e-06	7.328302e-09	1.281783e+01	4.798392e+02
1.010000e-06	1.876907e-06	7.965697e-09	1.350269e+01	5.218931e+02
1.020000e-06	1.971434e-06	8.581872e-09	1.418273e+01	5.625437e+02
1.030000e-06	2.065242e-06	9.174138e-09	1.485759e+01	6.015644e+02
1.040000e-06	2.158374e-06	9.738700e-09	1.552759e+01	6.388016e+02
1.050000e-06	2.250832e-06	1.027337e-08	1.619275e+01	6.741779e+02
1.060000e-06	2.342653e-06	1.077752e-08	1.685332e+01	7.076854e+02
1.070000e-06	2.433731e-06	1.125594e-08	1.750854e+01	7.393733e+02
1.080000e-06	2.523816e-06	1.171078e-08	1.815663e+01	7.693298e+02
1.090000e-06	2.612699e-06	1.214353e-08	1.879606e+01	7.976635e+02
1.100000e-06	2.700512e-06	1.255326e-08	1.942780e+01	8.244865e+02
1.110000e-06	2.787473e-06	1.294126e-08	2.005340e+01	8.499020e+02
1.120000e-06	2.873550e-06	1.330786e-08	2.067265e+01	8.739971e+02
1.130000e-06	2.958710e-06	1.365355e-08	2.128530e+01	8.968420e+02
1.140000e-06	3.042974e-06	1.398166e-08	2.189151e+01	9.184936e+02
1.150000e-06	3.126319e-06	1.429268e-08	2.249110e+01	9.390018e+02
1.160000e-06	3.208624e-06	1.458734e-08	2.308321e+01	9.584163e+02
1.170000e-06	3.289699e-06	1.486572e-08	2.366648e+01	9.767918e+02
1.180000e-06	3.369551e-06	1.513025e-08	2.424094e+01	9.941902e+02
1.190000e-06	3.448200e-06	1.538193e-08	2.480675e+01	1.010680e+03
1.200000e-06	3.525597e-06	1.561971e-08	2.536356e+01	1.026332e+03
1.210000e-06	3.601706e-06	1.584415e-08	2.591109e+01	1.041216e+03
1.220000e-06	3.676405e-06	1.605811e-08	2.644848e+01	1.055391e+03
1.230000e-06	3.749513e-06	1.626236e-08	2.697443e+01	1.068907e+03
1.240000e-06	3.821168e-06	1.645647e-08	2.748993e+01	1.081803e+03
1.250000e-06	3.891529e-06	1.664128e-08	2.799611e+01	1.094102e+03
1.260000e-06	3.960496e-06	1.681871e-08	2.849227e+01	1.105823e+03
1.270000e-06	4.028144e-06	1.698761e-08	2.897893e+01	1.116978e+03
1.280000e-06	4.094349e-06	1.714865e-08	2.945522e+01	1.127581e+03
1.290000e-06	4.158853e-06	1.730231e-08	2.991927e+01	1.137644e+03
1.300000e-06	4.221785e-06	1.744921e-08	3.037201e+01	1.147187e+03
1.310000e-06	4.283362e-06	1.758839e-08	3.081500e+01	1.156229e+03
1.320000e-06	4.343654e-06	1.771945e-08	3.124875e+01	1.164792e+03
1.330000e-06	4.402526e-06	1.784190e-08	3.167228e+01	1.172897e+03
1.340000e-06	4.459600e-06	1.795526e-08	3.208288e+01	1.180564e+03
1.350000e-06	4.514869e-06	1.806221e-08	3.248049e+01	1.187812e+03
1.360000e-06	4.568549e-06	1.816566e-08	3.286667e+01	1.194660e+03
1.370000e-06	4.620468e-06	1.826493e-08	3.324018e+01	1.201127e+03
1.380000e-06	4.670329e-06	1.835710e-08	3.359889e+01	1.207238e+03
1.390000e-06	4.718253e-06	1.844278e-08	3.394366e+01	1.213019e+03
1.400000e-06	4.764592e-06	1.852383e-08	3.427703e+01	1.218498e+03
1.410000e-06	4.809410e-06	1.860270e-08	3.459946e+01	1.223703e+03
1.420000e-06	4.852637e-06	1.867963e-08	3.491043e+01	1.228659e+03
1.430000e-06	4.894021e-06	1.875316e-08	3.520815e+01	1.233384e+03
1.440000e-06	4.933582e-06	1.882280e-08	3.549276e+01	1.237884e+03
1.450000e-06	4.971520e-06	1.888766e-08	3.576569e+01	1.242157e+03
1.460000e-06	5.007864e-06	1.894772e-08	3.602715e+01	1.246190e+03
1.470000e-06	5.042475e-06	1.900341e-08	3.627615e+01	1.249965e+03
1.480000e-06	5.075131e-06	1.905533e-08	3.651108e+01	1.253467e+03
1.490000e-06	5.105987e-06	1.910360e-08	3.673306e+01	1.256684e+03
1.500000e-06	5.135227e-06	1.914756e-08	3.694342e+01	1.259612e+03
1.510000e-06	5.162769e-06	1.918820e-08	3.714156e+01	1.262260e+03
1.520000e-06	5.188324e-06	1.922532e-08	3.732541e+01	1.264645e+03
1.530000e-06	5.211832e-06	1.925845e-08	3.749452e+01	1.266792e+03
1.540000e-06	5.233555e-06	1.928709e-08	3.765080e+01	1.268724e+03
1.550000e-06	5.253620e-06	1.931058e-08	3.779515e+01	1.270463e+03
1.560000e-06	5.271844e-06	1.933050e-08	3.792626e+01	1.272022e+03
1.570000e-06	5.288025e-06	1.934976e-08	3.804266e+01	1.273404e+03
1.580000e-06	5.302248e-06	1.936920e-08	3.814499e+01	1.274607e+03
1.590000e-06	5.314526e-06	1.938741e-08	3.823332e+01	1.275622e+03
1.600000e-06	5.324651e-06	1.940187e-08	3.830615e+01	1.276443e+03
1.610000e-06	5.332651e-06	1.941142e-08	3.836371e+01	1.277066e+03
1.620000e-06	5.338785e-06	1.941809e-08	3.840784e+01	1.277495e+03
1.630000e-06	5.343179e-06	1.942404e-08	3.843945e+01	1.277742e+03
1.640000e-06	5.345628e-06	1.942910e-08	3.845707e+01	1.277822e+03
1.650000e-06	5.346036e-06	1.943191e-08	3.846000e+01	1.277752e+03
1.660000e-06	5.344670e-06	1.942495e-08	3.845017e+01	1.277544e+03
1.670000e-06	5.341703e-06	1.941486e-08	3.842883e+01	1.277200e+03
1.680000e-06	5.337049e-06	1.941031e-08	3.839535e+01	1.276714e+03
1.690000e-06	5.330517e-06	1.940256e-08	3.834836e+01	1.276071e+03
1.700000e-06	5.322182e-06	1.939209e-08	3.828839e+01	1.275251e+03
1.710000e-06	5.312269e-06	1.938304e-08	3.821708e+01	1.274238e+03
1.720000e-06	5.300670e-06	1.938782e-08	3.813364e+01	1.273023e+03
1.730000e-06	5.287132e-06	1.937215e-08	3.803624e+01	1.271613e+03
1.740000e-06	5.271603e-06	1.923352e-08	3.792452e+01	1.270026e+03
1.750000e-06	5.253848e-06	1.919139e-08	3.779679e+01	1.268296e+03
1.760000e-06	5.233475e-06	1.922614e-08	3.765023e+01	1.266461e+03
1.770000e-06	5.210671e-06	1.922964e-08	3.748617e+01	1.264558e+03
1.780000e-06	5.186395e-06	1.934938e-08	3.731153e+01	1.262615e+03
1.790000e-06	5.161371e-06	1.916652e-08	3.713150e+01	1.260639e+03
1.800000e-06	5.135184e-06	1.903303e-08	3.694311e+01	1.258620e+03
1.810000e-06	5.106882e-06	1.924583e-08	3.673950e+01	1.256526e+03
1.820000e-06	5.076560e-06	1.901795e-08	3.652136e+01	1.254311e+03
1.830000e-06	5.044633e-06	1.898588e-08	3.629167e+01	1.251924e+03
1.840000e-06	5.010828e-06	1.925085e-08	3.604848e+01	1.249317e+03
1.850000e-06	4.975376e-06	1.898100e-08	3.579343e+01	1.246455e+03
1.860000e-06	4.938216e-06	1.895939e-08	3.552610e+01	1.243318e+03
1.870000e-06	4.899095e-06	1.902202e-08	3.524466e+01	1.239907e+03
1.880000e-06	4.858352e-06	1.877680e-08	3.495155e+01	1.236237e+03
1.890000e-06	4.815885e-06	1.885642e-08	3.464604e+01	1.232331e+03
1.900000e-06	4.771757e-06	1.872986e-08	3.432857e+01	1.228215e+03
1.910000e-06	4.725945e-06	1.865232e-08	3.399900e+01	1.223908e+03
1.920000e-06	4.678156e-06	1.878438e-08	3.365519e+01	1.219421e+03
1.930000e-06	4.628700e-06	1.850900e-08	3.329940e+01	1.214749e+03
1.940000e-06	4.577510e-06	1.846516e-08	3.293114e+01	1.209881e+03
1.950000e-06	4.524243e-06	1.844323e-08	3.254793e+01	1.204796e+03
1.960000e-06	4.469100e-06	1.830821e-08	3.215123e+01	1.199477e+03
1.970000e-06	4.412312e-06	1.828120e-08	3.174268e+01	1.193908e+03
1.980000e-06	4.353971e-06	1.810320e-08	3.132297e+01	1.188083e+03
1.990000e-06	4.294192e-06	1.808347e-08	3.089292e+01	1.182004e+03
2.000000e-06	4.232917e-06	1.798774e-08	3.045210e+01	1.175678e+03
2.010000e-06	4.169984e-06	1.785485e-08	2.999935e+01	1.169115e+03
2.020000e-06	4.105395e-06	1.779725e-08	2.953469e+01	1.162323e+03
2.030000e-06	4.039390e-06	1.761740e-08	2.905984e+01	1.155301e+03
2.040000e-06	3.972101e-06	1.757808e-08	2.857576e+01	1.148044e+03
2.050000e-06	3.903326e-06	1.743136e-08	2.808098e+01	1.140535e+03
2.060000e-06	3.832930e-06	1.729534e-08	2.757454e+01	1.132753e+03
2.070000e-06	3.761179e-06	1.723362e-08	2.705836e+01	1.124674e+03
2.080000e-06	3.688262e-06	1.707009e-08	2.653379e+01	1.116277e+03
2.090000e-06	3.614003e-06	1.694559e-08	2.599956e+01	1.107544e+03
2.100000e-06	3.538382e-06	1.676524e-08	2.545553e+01	1.098464e+03
2.110000e-06	3.461264e-06	1.665906e-08	2.490074e+01	1.089029e+03
2.120000e-06	3.382625e-06	1.653715e-08	2.433500e+01	1.079237e+03
2.130000e-06	3.302758e-06	1.635746e-08	2.376042e+01	1.069080e+03
2.140000e-06	3.221781e-06	1.620080e-08	2.317787e+01	1.058551e+03
2.150000e-06	3.139718e-06	1.601660e-08	2.258749e+01	1.047634e+03
2.160000e-06	3.056599e-06	1.585853e-08	2.198953e+01	1.036309e+03
2.170000e-06	2.972560e-06	1.566254e-08	2.138494e+01	1.024548e+03
2.180000e-06	2.887392e-06	1.548897e-08	2.077223e+01	1.012324e+03
2.190000e-06	2.800833e-06	1.531495e-08	2.014952e+01	9.996047e+02
2.200000e-06	2.713164e-06	1.510141e-08	1.951882e+01	9.863626e+02
2.210000e-06	2.624614e-06	1.488200e-08	1.888178e+01	9.725706e+02
2.220000e-06	2.535170e-06	1.465763e-08	1.823830e+01	9.582036e+02
2.230000e-06	2.444874e-06	1.445029e-08	1.758871e+01	9.432359e+02
2.240000e-06	2.353793e-06	1.421711e-08	1.693346e+01	9.276396e+02
2.250000e-06	2.261990e-06	1.396933e-08	1.627302e+01	9.113825e+02
2.260000e-06	2.169467e-06	1.370261e-08	1.560740e+01	8.944270e+02
2.270000e-06	2.076054e-06	1.342775e-08	1.493537e+01	8.767303e+02
2.280000e-06	1.981638e-06	1.314932e-08	1.425613e+01	8.582454e+02
2.290000e-06	1.886339e-06	1.285813e-08	1.357054e+01	8.389232e+02
2.300000e-06	1.790418e-06	1.255907e-08	1.288047e+01	8.187136e+02
2.310000e-06	1.694048e-06	1.224209e-08	1.218718e+01	7.975670e+02
2.320000e-06	1.597185e-06	1.190432e-08	1.149034e+01	7.754335e+02
2.330000e-06	1.499721e-06	1.154259e-08	1.078917e+01	7.522617e+02
2.340000e-06	1.401694e-06	1.117025e-08	1.008395e+01	7.279972e+02
2.350000e-06	1.303250e-06	1.078639e-08	9.375731e+00	7.025814e+02
2.360000e-06	1.204457e-06	1.038370e-08	8.665002e+00	6.759527e+02
2.370000e-06	1.105340e-06	9.957032e-09	7.951944e+00	6.480493e+02
2.380000e-06	1.005968e-06	9.512277e-09	7.237048e+00	6.188163e+02
2.390000e-06	9.063529e-07	9.049268e-09	6.520408e+00	5.882138e+02
2.400000e-06	8.064304e-07	8.560644e-09	5.801554e+00	5.562273e+02
2.410000e-06	7.061872e-07	8.050270e-09	5.080393e+00	5.228773e+02
2.420000e-06	6.057109e-07	7.519567e-09	4.357554e+00	4.882263e+02
2.430000e-06	5.050669e-07	6.970261e-09	3.633510e+00	4.523812e+02
2.440000e-06	4.042596e-07	6.407709e-09	2.908290e+00	4.154908e+02
2.450000e-06	3.032853e-07	5.834203e-09	2.181869e+00	3.777367e+02
2.460000e-06	2.021760e-07	5.246777e-09	1.454477e+00	3.393188e+02
2.470000e-06	1.009701e-07	4.648123e-09	7.263909e-01	3.004385e+02
2.480000e-06	-3.121407e-10	4.045746e-09	-2.245576e-03	2.612786e+02
2.490000e-06	-1.016154e-07	3.443992e-09	-7.310328e-01	2.219861e+02
2.500000e-06	-2.028545e-07	2.841991e-09	-1.459359e+00	1.826577e+02
2.510000e-06	-3.039826e-07	2.238733e-09	-2.186886e+00	1.433311e+02
2.520000e-06	-4.050130e-07	1.634570e-09	-2.913710e+00	1.039839e+02
2.530000e-06	-5.059283e-07	1.027359e-09	-3.639707e+00	6.453822e+01
2.540000e-06	-6.066685e-07	4.170805e-10	-4.364444e+00	2.487382e+01
2.550000e-06	-7.071754e-07	-1.965007e-10	-5.087502e+00	-1.515471e+01
2.560000e-06	-8.073815e-07	-8.145498e-10	-5.808396e+00	-5.569634e+01
2.570000e-06	-9.072832e-07	-1.441805e-09	-6.527101e+00	-9.688075e+01
2.580000e-06	-1.006884e-06	-2.081746e-09	-7.243639e+00	-1.387963e+02
2.590000e-06	-1.106147e-06	-2.733406e-09	-7.957750e+00	-1.814716e+02
2.600000e-06	-1.205064e-06	-3.397570e-09	-8.669367e+00	-2.248616e+02
2.610000e-06	-1.303588e-06	-4.070278e-09	-9.378161e+00	-2.688420e+02
2.620000e-06	-1.401680e-06	-4.748997e-09	-1.008385e+01	-3.132106e+02
2.630000e-06	-1.499305e-06	-5.429684e-09	-1.078617e+01	-3.576979e+02
2.640000e-06	-1.596431e-06	-6.108683e-09	-1.148491e+01	-4.019841e+02
2.650000e-06	-1.693046e-06	-6.780112e-09	-1.217997e+01	-4.457232e+02
2.660000e-06	-1.789136e-06	-7.434519e-09	-1.287125e+01	-4.885689e+02
2.670000e-06	-1.884669e-06	-8.071435e-09	-1.355853e+01	-5.302014e+02
2.680000e-06	-1.979538e-06	-8.686802e-09	-1.424102e+01	-5.703502e+02
2.690000e-06	-2.073546e-06	-9.276315e-09	-1.491733e+01	-6.088115e+02
2.700000e-06	-2.166583e-06	-9.841339e-09	-1.558665e+01	-6.454563e+02
2.710000e-06	-2.258646e-06	-1.037918e-08	-1.624896e+01	-6.802305e+02
2.720000e-06	-2.349858e-06	-1.088629e-08	-1.690515e+01	-7.131464e+02
2.730000e-06	-2.440260e-06	-1.136292e-08	-1.755551e+01	-7.442676e+02
2.740000e-06	-2.529813e-06	-1.181370e-08	-1.819977e+01	-7.736909e+02
2.750000e-06	-2.618550e-06	-1.223938e-08	-1.883815e+01	-8.015278e+02
2.760000e-06	-2.706431e-06	-1.264232e-08	-1.947038e+01	-8.278887e+02
2.770000e-06	-2.793429e-06	-1.302630e-08	-2.009625e+01	-8.528719e+02
2.780000e-06	-2.879448e-06	-1.339013e-08	-2.071508e+01	-8.765591e+02
2.790000e-06	-2.964268e-06	-1.373307e-08	-2.132528e+01	-8.990155e+02
2.800000e-06	-3.047941e-06	-1.405705e-08	-2.192724e+01	-9.202951e+02
2.810000e-06	-3.130657e-06	-1.436573e-08	-2.252231e+01	-9.404470e+02
2.820000e-06	-3.212407e-06	-1.465992e-08	-2.311043e+01	-9.595220e+02
2.830000e-06	-3.293112e-06	-1.493626e-08	-2.369103e+01	-9.775771e+02
2.840000e-06	-3.372670e-06	-1.519590e-08	-2.426338e+01	-9.946767e+02
2.850000e-06	-3.450939e-06	-1.544318e-08	-2.482645e+01	-1.010890e+03
2.860000e-06	-3.527707e-06	-1.568009e-08	-2.537873e+01	-1.026289e+03
2.870000e-06	-3.603006e-06	-1.590791e-08	-2.592044e+01	-1.040939e+03
2.880000e-06	-3.676972e-06	-1.612680e-08	-2.645256e+01	-1.054899e+03
2.890000e-06	-3.749622e-06	-1.633527e-08	-2.697522e+01	-1.068213e+03
2.900000e-06	-3.821019e-06	-1.652966e-08	-2.748886e+01	-1.080915e+03
2.910000e-06	-3.890956e-06	-1.671075e-08	-2.799199e+01	-1.093028e+03
2.920000e-06	-3.959246e-06	-1.688422e-08	-2.848328e+01	-1.104567e+03
2.930000e-06	-4.026152e-06	-1.705140e-08	-2.896460e+01	-1.115544e+03
2.940000e-06	-4.091776e-06	-1.721057e-08	-2.943671e+01	-1.125972e+03
