# Temperatura_=_58.43
# Concentracion g/m^3_=_28200.0
# C_Vs_to_Am_M_A/Vsm_=_65563218390.804596
# pendiente_HvsI_1/m_=_3716.3
# ordenada_HvsI_A/m_=_1297.0
# frecuencia_Hz_=_301768.09194267844

Tiempo_(s)	Campo_(V.s)	Magnetizacion_(V.s)	Campo_(kA/m)	Magnetizacion_(A/m)
0.000000e+00	-5.333825e-06	-2.200798e-08	-3.829789e+01	-1.439229e+03
1.000000e-08	-5.331504e-06	-2.200862e-08	-3.828123e+01	-1.438895e+03
2.000000e-08	-5.327380e-06	-2.199787e-08	-3.825161e+01	-1.438406e+03
3.000000e-08	-5.321648e-06	-2.198648e-08	-3.821046e+01	-1.437753e+03
4.000000e-08	-5.314336e-06	-2.197514e-08	-3.815795e+01	-1.436918e+03
5.000000e-08	-5.305352e-06	-2.195652e-08	-3.809345e+01	-1.435883e+03
6.000000e-08	-5.294354e-06	-2.193094e-08	-3.801448e+01	-1.434634e+03
7.000000e-08	-5.281422e-06	-2.189023e-08	-3.792163e+01	-1.433163e+03
8.000000e-08	-5.266550e-06	-2.187719e-08	-3.781484e+01	-1.431477e+03
9.000000e-08	-5.249387e-06	-2.194887e-08	-3.769161e+01	-1.429597e+03
1.000000e-07	-5.230026e-06	-2.192152e-08	-3.755259e+01	-1.427552e+03
1.100000e-07	-5.208750e-06	-2.181398e-08	-3.739983e+01	-1.425382e+03
1.200000e-07	-5.185722e-06	-2.176290e-08	-3.723448e+01	-1.423123e+03
1.300000e-07	-5.161195e-06	-2.159758e-08	-3.705838e+01	-1.420808e+03
1.400000e-07	-5.135182e-06	-2.160519e-08	-3.687160e+01	-1.418451e+03
1.500000e-07	-5.107476e-06	-2.180078e-08	-3.667266e+01	-1.416051e+03
1.600000e-07	-5.078197e-06	-2.156258e-08	-3.646243e+01	-1.413587e+03
1.700000e-07	-5.047481e-06	-2.154732e-08	-3.624189e+01	-1.411022e+03
1.800000e-07	-5.014872e-06	-2.166022e-08	-3.600775e+01	-1.408305e+03
1.900000e-07	-4.980187e-06	-2.132755e-08	-3.575870e+01	-1.405384e+03
2.000000e-07	-4.943953e-06	-2.136371e-08	-3.549853e+01	-1.402210e+03
2.100000e-07	-4.906124e-06	-2.145386e-08	-3.522692e+01	-1.398743e+03
2.200000e-07	-4.866476e-06	-2.122328e-08	-3.494223e+01	-1.394961e+03
2.300000e-07	-4.824993e-06	-2.119753e-08	-3.464438e+01	-1.390855e+03
2.400000e-07	-4.781540e-06	-2.114667e-08	-3.433238e+01	-1.386432e+03
2.500000e-07	-4.736300e-06	-2.104325e-08	-3.400755e+01	-1.381711e+03
2.600000e-07	-4.689324e-06	-2.103832e-08	-3.367025e+01	-1.376713e+03
2.700000e-07	-4.640377e-06	-2.087871e-08	-3.331880e+01	-1.371461e+03
2.800000e-07	-4.589365e-06	-2.077593e-08	-3.295253e+01	-1.365971e+03
2.900000e-07	-4.536319e-06	-2.071753e-08	-3.257164e+01	-1.360251e+03
3.000000e-07	-4.481581e-06	-2.063857e-08	-3.217861e+01	-1.354301e+03
3.100000e-07	-4.425301e-06	-2.055497e-08	-3.177452e+01	-1.348114e+03
3.200000e-07	-4.367227e-06	-2.044268e-08	-3.135753e+01	-1.341678e+03
3.300000e-07	-4.307459e-06	-2.035166e-08	-3.092838e+01	-1.334982e+03
3.400000e-07	-4.246257e-06	-2.020853e-08	-3.048894e+01	-1.328014e+03
3.500000e-07	-4.183647e-06	-2.008916e-08	-3.003939e+01	-1.320770e+03
3.600000e-07	-4.119595e-06	-1.999887e-08	-2.957949e+01	-1.313244e+03
3.700000e-07	-4.054016e-06	-1.990307e-08	-2.910862e+01	-1.305439e+03
3.800000e-07	-3.986853e-06	-1.978828e-08	-2.862638e+01	-1.297352e+03
3.900000e-07	-3.918192e-06	-1.960300e-08	-2.813337e+01	-1.288982e+03
4.000000e-07	-3.848240e-06	-1.946165e-08	-2.763111e+01	-1.280321e+03
4.100000e-07	-3.777111e-06	-1.935760e-08	-2.712038e+01	-1.271354e+03
4.200000e-07	-3.704697e-06	-1.921560e-08	-2.660044e+01	-1.262064e+03
4.300000e-07	-3.630829e-06	-1.907022e-08	-2.607005e+01	-1.252427e+03
4.400000e-07	-3.555419e-06	-1.891254e-08	-2.552859e+01	-1.242418e+03
4.500000e-07	-3.478534e-06	-1.875094e-08	-2.497654e+01	-1.232014e+03
4.600000e-07	-3.400271e-06	-1.857671e-08	-2.441460e+01	-1.221197e+03
4.700000e-07	-3.320672e-06	-1.840874e-08	-2.384306e+01	-1.209951e+03
4.800000e-07	-3.239775e-06	-1.824218e-08	-2.326221e+01	-1.198266e+03
4.900000e-07	-3.157676e-06	-1.804757e-08	-2.267272e+01	-1.186137e+03
5.000000e-07	-3.074562e-06	-1.785140e-08	-2.207595e+01	-1.173558e+03
5.100000e-07	-2.990535e-06	-1.764742e-08	-2.147262e+01	-1.160519e+03
5.200000e-07	-2.905610e-06	-1.744143e-08	-2.086284e+01	-1.147008e+03
5.300000e-07	-2.819757e-06	-1.723109e-08	-2.024640e+01	-1.133004e+03
5.400000e-07	-2.732940e-06	-1.701064e-08	-1.962304e+01	-1.118478e+03
5.500000e-07	-2.645159e-06	-1.677959e-08	-1.899275e+01	-1.103393e+03
5.600000e-07	-2.556369e-06	-1.653432e-08	-1.835522e+01	-1.087708e+03
5.700000e-07	-2.466550e-06	-1.628682e-08	-1.771031e+01	-1.071377e+03
5.800000e-07	-2.375661e-06	-1.602662e-08	-1.705770e+01	-1.054355e+03
5.900000e-07	-2.283812e-06	-1.575368e-08	-1.639821e+01	-1.036594e+03
6.000000e-07	-2.191202e-06	-1.546698e-08	-1.573326e+01	-1.018053e+03
6.100000e-07	-2.097837e-06	-1.517151e-08	-1.506287e+01	-9.986889e+02
6.200000e-07	-2.003685e-06	-1.486595e-08	-1.438684e+01	-9.784614e+02
6.300000e-07	-1.908876e-06	-1.454393e-08	-1.370609e+01	-9.573276e+02
6.400000e-07	-1.813457e-06	-1.420706e-08	-1.302097e+01	-9.352406e+02
6.500000e-07	-1.717391e-06	-1.385140e-08	-1.233120e+01	-9.121474e+02
6.600000e-07	-1.620674e-06	-1.347709e-08	-1.163675e+01	-8.879868e+02
6.700000e-07	-1.523306e-06	-1.308680e-08	-1.093763e+01	-8.626891e+02
6.800000e-07	-1.425314e-06	-1.268341e-08	-1.023403e+01	-8.361761e+02
6.900000e-07	-1.326714e-06	-1.226174e-08	-9.526065e+00	-8.083633e+02
7.000000e-07	-1.227607e-06	-1.181868e-08	-8.814454e+00	-7.791637e+02
7.100000e-07	-1.128114e-06	-1.134748e-08	-8.100078e+00	-7.484921e+02
7.200000e-07	-1.028260e-06	-1.085182e-08	-7.383108e+00	-7.162723e+02
7.300000e-07	-9.280659e-07	-1.033790e-08	-6.663692e+00	-6.824439e+02
7.400000e-07	-8.276506e-07	-9.800204e-09	-5.942691e+00	-6.469709e+02
7.500000e-07	-7.270248e-07	-9.236640e-09	-5.220178e+00	-6.098504e+02
7.600000e-07	-6.261551e-07	-8.644268e-09	-4.495915e+00	-5.711193e+02
7.700000e-07	-5.250901e-07	-8.027076e-09	-3.770248e+00	-5.308598e+02
7.800000e-07	-4.238873e-07	-7.390953e-09	-3.043593e+00	-4.892008e+02
7.900000e-07	-3.225878e-07	-6.737254e-09	-2.316243e+00	-4.463140e+02
8.000000e-07	-2.211474e-07	-6.069172e-09	-1.587881e+00	-4.024052e+02
8.100000e-07	-1.195359e-07	-5.391088e-09	-8.582907e-01	-3.576995e+02
8.200000e-07	-1.778679e-08	-4.704239e-09	-1.277126e-01	-3.124215e+02
8.300000e-07	8.397235e-08	-4.010946e-09	6.029377e-01	-2.667734e+02
8.400000e-07	1.856326e-07	-3.315071e-09	1.332878e+00	-2.209127e+02
8.500000e-07	2.872307e-07	-2.620185e-09	2.062372e+00	-1.749338e+02
8.600000e-07	3.887547e-07	-1.924582e-09	2.791333e+00	-1.288561e+02
8.700000e-07	4.901508e-07	-1.222069e-09	3.519377e+00	-8.262253e+01
8.800000e-07	5.914070e-07	-5.127892e-10	4.246416e+00	-3.610883e+01
8.900000e-07	6.925258e-07	2.048058e-10	4.972468e+00	1.085605e+01
9.000000e-07	7.934033e-07	9.315870e-10	5.696789e+00	5.846013e+01
9.100000e-07	8.940353e-07	1.669054e-09	6.419346e+00	1.068734e+02
9.200000e-07	9.944688e-07	2.418790e-09	7.140478e+00	1.562120e+02
9.300000e-07	1.094610e-06	3.181510e-09	7.859510e+00	2.065078e+02
9.400000e-07	1.194390e-06	3.958256e-09	8.575949e+00	2.576867e+02
9.500000e-07	1.293799e-06	4.748096e-09	9.289728e+00	3.095610e+02
9.600000e-07	1.392714e-06	5.548036e-09	9.999956e+00	3.618360e+02
9.700000e-07	1.490924e-06	6.350064e-09	1.070512e+01	4.141305e+02
9.800000e-07	1.588344e-06	7.145258e-09	1.140462e+01	4.660089e+02
9.900000e-07	1.684995e-06	7.922610e-09	1.209859e+01	5.170189e+02
1.000000e-06	1.780992e-06	8.674845e-09	1.278787e+01	5.667303e+02
1.010000e-06	1.876335e-06	9.399970e-09	1.347245e+01	6.147696e+02
1.020000e-06	1.971003e-06	1.009661e-08	1.415218e+01	6.608446e+02
1.030000e-06	2.064986e-06	1.076355e-08	1.482700e+01	7.047583e+02
1.040000e-06	2.158220e-06	1.139624e-08	1.549644e+01	7.464098e+02
1.050000e-06	2.250774e-06	1.199150e-08	1.616099e+01	7.857844e+02
1.060000e-06	2.342735e-06	1.255188e-08	1.682129e+01	8.229361e+02
1.070000e-06	2.434068e-06	1.308280e-08	1.747708e+01	8.579654e+02
1.080000e-06	2.524440e-06	1.358551e-08	1.812596e+01	8.909983e+02
1.090000e-06	2.613562e-06	1.406256e-08	1.876588e+01	9.221675e+02
1.100000e-06	2.701604e-06	1.451188e-08	1.939804e+01	9.515999e+02
1.110000e-06	2.788762e-06	1.493261e-08	2.002385e+01	9.794096e+02
1.120000e-06	2.875035e-06	1.532892e-08	2.064331e+01	1.005697e+03
1.130000e-06	2.960373e-06	1.570586e-08	2.125605e+01	1.030551e+03
1.140000e-06	3.044811e-06	1.606468e-08	2.186233e+01	1.054055e+03
1.150000e-06	3.128388e-06	1.640393e-08	2.246243e+01	1.076288e+03
1.160000e-06	3.210821e-06	1.672452e-08	2.305431e+01	1.097329e+03
1.170000e-06	3.291961e-06	1.702815e-08	2.363691e+01	1.117259e+03
1.180000e-06	3.371943e-06	1.731567e-08	2.421120e+01	1.136154e+03
1.190000e-06	3.450794e-06	1.758788e-08	2.477736e+01	1.154089e+03
1.200000e-06	3.528471e-06	1.784602e-08	2.533510e+01	1.171128e+03
1.210000e-06	3.604929e-06	1.809022e-08	2.588409e+01	1.187331e+03
1.220000e-06	3.680009e-06	1.832309e-08	2.642317e+01	1.202744e+03
1.230000e-06	3.753449e-06	1.854555e-08	2.695049e+01	1.217408e+03
1.240000e-06	3.825355e-06	1.875741e-08	2.746679e+01	1.231359e+03
1.250000e-06	3.895912e-06	1.895777e-08	2.797340e+01	1.244630e+03
1.260000e-06	3.965122e-06	1.914722e-08	2.847034e+01	1.257254e+03
1.270000e-06	4.033086e-06	1.932742e-08	2.895834e+01	1.269265e+03
1.280000e-06	4.099563e-06	1.949997e-08	2.943565e+01	1.280697e+03
1.290000e-06	4.164264e-06	1.966631e-08	2.990022e+01	1.291583e+03
1.300000e-06	4.227403e-06	1.982731e-08	3.035357e+01	1.301951e+03
1.310000e-06	4.289153e-06	1.998010e-08	3.079695e+01	1.311822e+03
1.320000e-06	4.349581e-06	2.012369e-08	3.123083e+01	1.321211e+03
1.330000e-06	4.408615e-06	2.025779e-08	3.165470e+01	1.330126e+03
1.340000e-06	4.465855e-06	2.038261e-08	3.206570e+01	1.338570e+03
1.350000e-06	4.521329e-06	2.050072e-08	3.246402e+01	1.346549e+03
1.360000e-06	4.575223e-06	2.061451e-08	3.285098e+01	1.354070e+03
1.370000e-06	4.627285e-06	2.072467e-08	3.322480e+01	1.361150e+03
1.380000e-06	4.677309e-06	2.082685e-08	3.358398e+01	1.367813e+03
1.390000e-06	4.725460e-06	2.092037e-08	3.392972e+01	1.374092e+03
1.400000e-06	4.771983e-06	2.100818e-08	3.426376e+01	1.380028e+03
1.410000e-06	4.816950e-06	2.109315e-08	3.458663e+01	1.385657e+03
1.420000e-06	4.860340e-06	2.117477e-08	3.489818e+01	1.391015e+03
1.430000e-06	4.901863e-06	2.125132e-08	3.519632e+01	1.396127e+03
1.440000e-06	4.941534e-06	2.132374e-08	3.548117e+01	1.401003e+03
1.450000e-06	4.979574e-06	2.139434e-08	3.575430e+01	1.405646e+03
1.460000e-06	5.016035e-06	2.146208e-08	3.601610e+01	1.410042e+03
1.470000e-06	5.050811e-06	2.152496e-08	3.626579e+01	1.414176e+03
1.480000e-06	5.083632e-06	2.158326e-08	3.650146e+01	1.418031e+03
1.490000e-06	5.114617e-06	2.163607e-08	3.672394e+01	1.421592e+03
1.500000e-06	5.143963e-06	2.168491e-08	3.693465e+01	1.424854e+03
1.510000e-06	5.171661e-06	2.173054e-08	3.713353e+01	1.427821e+03
1.520000e-06	5.197419e-06	2.177233e-08	3.731847e+01	1.430505e+03
1.530000e-06	5.221121e-06	2.180959e-08	3.748866e+01	1.432925e+03
1.540000e-06	5.242973e-06	2.184237e-08	3.764556e+01	1.435100e+03
1.550000e-06	5.263099e-06	2.187024e-08	3.779006e+01	1.437048e+03
1.560000e-06	5.281353e-06	2.189406e-08	3.792114e+01	1.438780e+03
1.570000e-06	5.297601e-06	2.191707e-08	3.803780e+01	1.440303e+03
1.580000e-06	5.311923e-06	2.193990e-08	3.814063e+01	1.441616e+03
1.590000e-06	5.324281e-06	2.195988e-08	3.822936e+01	1.442718e+03
1.600000e-06	5.334473e-06	2.197433e-08	3.830254e+01	1.443605e+03
1.610000e-06	5.342525e-06	2.198375e-08	3.836036e+01	1.444279e+03
1.620000e-06	5.348731e-06	2.198985e-08	3.840492e+01	1.444745e+03
1.630000e-06	5.353243e-06	2.199371e-08	3.843732e+01	1.445016e+03
1.640000e-06	5.355858e-06	2.199686e-08	3.845609e+01	1.445106e+03
1.650000e-06	5.356402e-06	2.200080e-08	3.846000e+01	1.445029e+03
1.660000e-06	5.355138e-06	2.199613e-08	3.845092e+01	1.444797e+03
1.670000e-06	5.352285e-06	2.198770e-08	3.843044e+01	1.444413e+03
1.680000e-06	5.347762e-06	2.198416e-08	3.839796e+01	1.443872e+03
1.690000e-06	5.341332e-06	2.197563e-08	3.835179e+01	1.443161e+03
1.700000e-06	5.333110e-06	2.196289e-08	3.829276e+01	1.442263e+03
1.710000e-06	5.323312e-06	2.195116e-08	3.822240e+01	1.441160e+03
1.720000e-06	5.311848e-06	2.195211e-08	3.814009e+01	1.439839e+03
1.730000e-06	5.298455e-06	2.193519e-08	3.804393e+01	1.438297e+03
1.740000e-06	5.283010e-06	2.179030e-08	3.793303e+01	1.436545e+03
1.750000e-06	5.265318e-06	2.173953e-08	3.780600e+01	1.434607e+03
1.760000e-06	5.245010e-06	2.178171e-08	3.766018e+01	1.432516e+03
1.770000e-06	5.222300e-06	2.179017e-08	3.749712e+01	1.430313e+03
1.780000e-06	5.198076e-06	2.191735e-08	3.732319e+01	1.428032e+03
1.790000e-06	5.173124e-06	2.171623e-08	3.714403e+01	1.425702e+03
1.800000e-06	5.147028e-06	2.153477e-08	3.695666e+01	1.423331e+03
1.810000e-06	5.118767e-06	2.175636e-08	3.675373e+01	1.420913e+03
1.820000e-06	5.088578e-06	2.153009e-08	3.653697e+01	1.418421e+03
1.830000e-06	5.056803e-06	2.147736e-08	3.630882e+01	1.415811e+03
1.840000e-06	5.023093e-06	2.174782e-08	3.606678e+01	1.413034e+03
1.850000e-06	4.987752e-06	2.142647e-08	3.581302e+01	1.410035e+03
1.860000e-06	4.950754e-06	2.136043e-08	3.554737e+01	1.406770e+03
1.870000e-06	4.911765e-06	2.149005e-08	3.526742e+01	1.403203e+03
1.880000e-06	4.871110e-06	2.128322e-08	3.497551e+01	1.399315e+03
1.890000e-06	4.828766e-06	2.133914e-08	3.467147e+01	1.395105e+03
1.900000e-06	4.784620e-06	2.118132e-08	3.435450e+01	1.390584e+03
1.910000e-06	4.738672e-06	2.106174e-08	3.402458e+01	1.385770e+03
1.920000e-06	4.690790e-06	2.122766e-08	3.368078e+01	1.380688e+03
1.930000e-06	4.641300e-06	2.097731e-08	3.332543e+01	1.375357e+03
1.940000e-06	4.590068e-06	2.088762e-08	3.295758e+01	1.369791e+03
1.950000e-06	4.536751e-06	2.084188e-08	3.257474e+01	1.363997e+03
1.960000e-06	4.481552e-06	2.070861e-08	3.217841e+01	1.357971e+03
1.970000e-06	4.424654e-06	2.066625e-08	3.176987e+01	1.351704e+03
1.980000e-06	4.366215e-06	2.045274e-08	3.135027e+01	1.345185e+03
1.990000e-06	4.306327e-06	2.047254e-08	3.092026e+01	1.338402e+03
2.000000e-06	4.244991e-06	2.040986e-08	3.047985e+01	1.331345e+03
2.010000e-06	4.182053e-06	2.018134e-08	3.002794e+01	1.324009e+03
2.020000e-06	4.117433e-06	2.008352e-08	2.956397e+01	1.316393e+03
2.030000e-06	4.051399e-06	1.993940e-08	2.908983e+01	1.308496e+03
2.040000e-06	3.984007e-06	1.990763e-08	2.860594e+01	1.300318e+03
2.050000e-06	3.915157e-06	1.974196e-08	2.811158e+01	1.291854e+03
2.060000e-06	3.844817e-06	1.956945e-08	2.760653e+01	1.283096e+03
2.070000e-06	3.773055e-06	1.949536e-08	2.709127e+01	1.274027e+03
2.080000e-06	3.700023e-06	1.930582e-08	2.656688e+01	1.264627e+03
2.090000e-06	3.625607e-06	1.917017e-08	2.603256e+01	1.254872e+03
2.100000e-06	3.549729e-06	1.900410e-08	2.548774e+01	1.244737e+03
2.110000e-06	3.472365e-06	1.887264e-08	2.493225e+01	1.234202e+03
2.120000e-06	3.393586e-06	1.870685e-08	2.436660e+01	1.223247e+03
2.130000e-06	3.313614e-06	1.849224e-08	2.379239e+01	1.211860e+03
2.140000e-06	3.232538e-06	1.833172e-08	2.321025e+01	1.200032e+03
2.150000e-06	3.150391e-06	1.814153e-08	2.262041e+01	1.187758e+03
2.160000e-06	3.067237e-06	1.797056e-08	2.202335e+01	1.175031e+03
2.170000e-06	2.983001e-06	1.776338e-08	2.141852e+01	1.161842e+03
2.180000e-06	2.897566e-06	1.755119e-08	2.080509e+01	1.148174e+03
2.190000e-06	2.810915e-06	1.734068e-08	2.018291e+01	1.134005e+03
2.200000e-06	2.723125e-06	1.711358e-08	1.955256e+01	1.119303e+03
2.210000e-06	2.634415e-06	1.688459e-08	1.891560e+01	1.104029e+03
2.220000e-06	2.544810e-06	1.663053e-08	1.827222e+01	1.088140e+03
2.230000e-06	2.454344e-06	1.638405e-08	1.762266e+01	1.071591e+03
2.240000e-06	2.363196e-06	1.612264e-08	1.696820e+01	1.054335e+03
2.250000e-06	2.271311e-06	1.585449e-08	1.630845e+01	1.036327e+03
2.260000e-06	2.178576e-06	1.556621e-08	1.564260e+01	1.017525e+03
2.270000e-06	2.084962e-06	1.526580e-08	1.497043e+01	9.978875e+02
2.280000e-06	1.990459e-06	1.495825e-08	1.429188e+01	9.773726e+02
2.290000e-06	1.895110e-06	1.462964e-08	1.360726e+01	9.559368e+02
2.300000e-06	1.799037e-06	1.428948e-08	1.291744e+01	9.335316e+02
2.310000e-06	1.702467e-06	1.393509e-08	1.222404e+01	9.101016e+02
2.320000e-06	1.605458e-06	1.356708e-08	1.152750e+01	8.855827e+02
2.330000e-06	1.507866e-06	1.317167e-08	1.082677e+01	8.599023e+02
2.340000e-06	1.409666e-06	1.275450e-08	1.012168e+01	8.329799e+02
2.350000e-06	1.311027e-06	1.232398e-08	9.413424e+00	8.047300e+02
2.360000e-06	1.212091e-06	1.188005e-08	8.703044e+00	7.750654e+02
2.370000e-06	1.112918e-06	1.141247e-08	7.990966e+00	7.439030e+02
2.380000e-06	1.013467e-06	1.091497e-08	7.276890e+00	7.111708e+02
2.390000e-06	9.136946e-07	1.038931e-08	6.560503e+00	6.768154e+02
2.400000e-06	8.136486e-07	9.835870e-09	5.842154e+00	6.408105e+02
2.410000e-06	7.132638e-07	9.257980e-09	5.121371e+00	6.031652e+02
2.420000e-06	6.125651e-07	8.655444e-09	4.398336e+00	5.639308e+02
2.430000e-06	5.116545e-07	8.035485e-09	3.673778e+00	5.232043e+02
2.440000e-06	4.105965e-07	7.400355e-09	2.948162e+00	4.811291e+02
2.450000e-06	3.093974e-07	6.743915e-09	2.221533e+00	4.378892e+02
2.460000e-06	2.079887e-07	6.064020e-09	1.493399e+00	3.936984e+02
2.470000e-06	1.064486e-07	5.374007e-09	7.643215e-01	3.487840e+02
2.480000e-06	4.822901e-09	4.681278e-09	3.462936e-02	3.033658e+02
2.490000e-06	-9.685525e-08	3.980731e-09	-6.954393e-01	2.576340e+02
2.500000e-06	-1.985255e-07	3.274659e-09	-1.425451e+00	2.117276e+02
2.510000e-06	-3.000880e-07	2.567848e-09	-2.154690e+00	1.657176e+02
2.520000e-06	-4.014381e-07	1.860811e-09	-2.882403e+00	1.195986e+02
2.530000e-06	-5.026425e-07	1.149520e-09	-3.609070e+00	7.329047e+01
2.540000e-06	-6.036764e-07	4.354994e-10	-4.334513e+00	2.665098e+01
2.550000e-06	-7.043654e-07	-2.831991e-10	-5.057479e+00	-2.049989e+01
2.560000e-06	-8.047120e-07	-1.011888e-09	-5.777987e+00	-6.834831e+01
2.570000e-06	-9.048042e-07	-1.755274e-09	-6.496668e+00	-1.170507e+02
2.580000e-06	-1.004618e-06	-2.513753e-09	-7.213348e+00	-1.666993e+02
2.590000e-06	-1.104113e-06	-3.286519e-09	-7.927746e+00	-2.172933e+02
2.600000e-06	-1.203257e-06	-4.073204e-09	-8.639617e+00	-2.687225e+02
2.610000e-06	-1.302051e-06	-4.866483e-09	-9.348979e+00	-3.207633e+02
2.620000e-06	-1.400419e-06	-5.663659e-09	-1.005528e+01	-3.730904e+02
2.630000e-06	-1.498240e-06	-6.461071e-09	-1.075765e+01	-4.253012e+02
2.640000e-06	-1.595442e-06	-7.251866e-09	-1.145558e+01	-4.769503e+02
2.650000e-06	-1.692055e-06	-8.028115e-09	-1.214928e+01	-5.275886e+02
2.660000e-06	-1.788218e-06	-8.780551e-09	-1.283975e+01	-5.768007e+02
2.670000e-06	-1.883922e-06	-9.506401e-09	-1.352692e+01	-6.242370e+02
2.680000e-06	-1.979007e-06	-1.020193e-08	-1.420965e+01	-6.696349e+02
2.690000e-06	-2.073220e-06	-1.086247e-08	-1.488612e+01	-7.128290e+02
2.700000e-06	-2.166397e-06	-1.148966e-08	-1.555515e+01	-7.537474e+02
2.710000e-06	-2.258606e-06	-1.208625e-08	-1.621723e+01	-7.923999e+02
2.720000e-06	-2.350047e-06	-1.265259e-08	-1.687379e+01	-8.288576e+02
2.730000e-06	-2.440738e-06	-1.318517e-08	-1.752497e+01	-8.632318e+02
2.740000e-06	-2.530528e-06	-1.368243e-08	-1.816968e+01	-8.956521e+02
2.750000e-06	-2.619351e-06	-1.414870e-08	-1.880745e+01	-9.262507e+02
2.760000e-06	-2.707381e-06	-1.458741e-08	-1.943952e+01	-9.551506e+02
2.770000e-06	-2.794716e-06	-1.500165e-08	-2.006660e+01	-9.824615e+02
2.780000e-06	-2.881028e-06	-1.539623e-08	-2.068633e+01	-1.008280e+03
2.790000e-06	-2.966044e-06	-1.577179e-08	-2.129677e+01	-1.032692e+03
2.800000e-06	-3.049956e-06	-1.612774e-08	-2.189927e+01	-1.055780e+03
2.810000e-06	-3.132920e-06	-1.646446e-08	-2.249497e+01	-1.077622e+03
2.820000e-06	-3.214877e-06	-1.678243e-08	-2.308343e+01	-1.098298e+03
2.830000e-06	-3.295811e-06	-1.708330e-08	-2.366456e+01	-1.117888e+03
2.840000e-06	-3.375706e-06	-1.736857e-08	-2.423822e+01	-1.136467e+03
2.850000e-06	-3.454250e-06	-1.763829e-08	-2.480218e+01	-1.154108e+03
2.860000e-06	-3.531199e-06	-1.789300e-08	-2.535469e+01	-1.170874e+03
2.870000e-06	-3.606723e-06	-1.813505e-08	-2.589697e+01	-1.186819e+03
2.880000e-06	-3.680889e-06	-1.836820e-08	-2.642949e+01	-1.201988e+03
2.890000e-06	-3.753716e-06	-1.859269e-08	-2.695240e+01	-1.216421e+03
2.900000e-06	-3.825327e-06	-1.880688e-08	-2.746658e+01	-1.230150e+03
2.910000e-06	-3.895460e-06	-1.900956e-08	-2.797016e+01	-1.243210e+03
2.920000e-06	-3.963980e-06	-1.920110e-08	-2.846214e+01	-1.255634e+03
2.930000e-06	-4.031112e-06	-1.938238e-08	-2.894416e+01	-1.267456e+03
2.940000e-06	-4.096870e-06	-1.955253e-08	-2.941632e+01	-1.278710e+03
