# Temperatura_=_83.84
# Concentracion g/m^3_=_28200.0
# C_Vs_to_Am_M_A/Vsm_=_65563218390.804596
# pendiente_HvsI_1/m_=_3716.3
# ordenada_HvsI_A/m_=_1297.0
# frecuencia_Hz_=_301768.8181540473

Tiempo_(s)	Campo_(V.s)	Magnetizacion_(V.s)	Campo_(kA/m)	Magnetizacion_(A/m)
0.000000e+00	-5.357580e-06	-2.668050e-08	-3.829703e+01	-1.746339e+03
1.000000e-08	-5.355491e-06	-2.667932e-08	-3.828209e+01	-1.745857e+03
2.000000e-08	-5.351572e-06	-2.666508e-08	-3.825408e+01	-1.745170e+03
3.000000e-08	-5.346032e-06	-2.664828e-08	-3.821448e+01	-1.744278e+03
4.000000e-08	-5.338909e-06	-2.663202e-08	-3.816356e+01	-1.743175e+03
5.000000e-08	-5.330080e-06	-2.661000e-08	-3.810045e+01	-1.741851e+03
6.000000e-08	-5.319218e-06	-2.658266e-08	-3.802281e+01	-1.740294e+03
7.000000e-08	-5.306385e-06	-2.654023e-08	-3.793107e+01	-1.738493e+03
8.000000e-08	-5.291551e-06	-2.651469e-08	-3.782504e+01	-1.736446e+03
9.000000e-08	-5.274427e-06	-2.658274e-08	-3.770263e+01	-1.734163e+03
1.000000e-07	-5.255176e-06	-2.655800e-08	-3.756502e+01	-1.731664e+03
1.100000e-07	-5.234058e-06	-2.643496e-08	-3.741406e+01	-1.728982e+03
1.200000e-07	-5.211138e-06	-2.638039e-08	-3.725023e+01	-1.726154e+03
1.300000e-07	-5.186647e-06	-2.621533e-08	-3.707516e+01	-1.723216e+03
1.400000e-07	-5.160571e-06	-2.617672e-08	-3.688877e+01	-1.720197e+03
1.500000e-07	-5.132837e-06	-2.638082e-08	-3.669052e+01	-1.717107e+03
1.600000e-07	-5.103641e-06	-2.614435e-08	-3.648182e+01	-1.713938e+03
1.700000e-07	-5.073040e-06	-2.608439e-08	-3.626308e+01	-1.710661e+03
1.800000e-07	-5.040536e-06	-2.622089e-08	-3.603074e+01	-1.707230e+03
1.900000e-07	-5.005901e-06	-2.588465e-08	-3.578315e+01	-1.703586e+03
2.000000e-07	-4.969719e-06	-2.589727e-08	-3.552452e+01	-1.699671e+03
2.100000e-07	-4.931938e-06	-2.600143e-08	-3.525445e+01	-1.695435e+03
2.200000e-07	-4.892390e-06	-2.576851e-08	-3.497176e+01	-1.690838e+03
2.300000e-07	-4.850989e-06	-2.572439e-08	-3.467582e+01	-1.685862e+03
2.400000e-07	-4.807563e-06	-2.563270e-08	-3.436540e+01	-1.680506e+03
2.500000e-07	-4.762381e-06	-2.549440e-08	-3.404243e+01	-1.674781e+03
2.600000e-07	-4.715453e-06	-2.549727e-08	-3.370698e+01	-1.668708e+03
2.700000e-07	-4.666452e-06	-2.531494e-08	-3.335671e+01	-1.662310e+03
2.800000e-07	-4.615295e-06	-2.519015e-08	-3.299103e+01	-1.655603e+03
2.900000e-07	-4.562219e-06	-2.511323e-08	-3.261163e+01	-1.648597e+03
3.000000e-07	-4.507473e-06	-2.499840e-08	-3.222030e+01	-1.641291e+03
3.100000e-07	-4.451151e-06	-2.489691e-08	-3.181770e+01	-1.633676e+03
3.200000e-07	-4.392996e-06	-2.477376e-08	-3.140199e+01	-1.625740e+03
3.300000e-07	-4.333134e-06	-2.466890e-08	-3.097409e+01	-1.617473e+03
3.400000e-07	-4.271863e-06	-2.450062e-08	-3.053611e+01	-1.608866e+03
3.500000e-07	-4.209162e-06	-2.435295e-08	-3.008791e+01	-1.599916e+03
3.600000e-07	-4.145109e-06	-2.422528e-08	-2.963004e+01	-1.590627e+03
3.700000e-07	-4.079442e-06	-2.410112e-08	-2.916065e+01	-1.581002e+03
3.800000e-07	-4.012135e-06	-2.397778e-08	-2.867952e+01	-1.571044e+03
3.900000e-07	-3.943421e-06	-2.376373e-08	-2.818834e+01	-1.560749e+03
4.000000e-07	-3.873319e-06	-2.358698e-08	-2.768724e+01	-1.550107e+03
4.100000e-07	-3.801995e-06	-2.345523e-08	-2.717740e+01	-1.539099e+03
4.200000e-07	-3.729453e-06	-2.327817e-08	-2.665886e+01	-1.527698e+03
4.300000e-07	-3.655415e-06	-2.309914e-08	-2.612962e+01	-1.515876e+03
4.400000e-07	-3.579781e-06	-2.290469e-08	-2.558897e+01	-1.503605e+03
4.500000e-07	-3.502767e-06	-2.270202e-08	-2.503846e+01	-1.490860e+03
4.600000e-07	-3.424484e-06	-2.248437e-08	-2.447888e+01	-1.477625e+03
4.700000e-07	-3.344792e-06	-2.227939e-08	-2.390922e+01	-1.463888e+03
4.800000e-07	-3.263737e-06	-2.208350e-08	-2.332983e+01	-1.449641e+03
4.900000e-07	-3.181462e-06	-2.185597e-08	-2.274171e+01	-1.434877e+03
5.000000e-07	-3.098173e-06	-2.162381e-08	-2.214634e+01	-1.419584e+03
5.100000e-07	-3.014053e-06	-2.137379e-08	-2.154504e+01	-1.403745e+03
5.200000e-07	-2.928997e-06	-2.111811e-08	-2.093704e+01	-1.387333e+03
5.300000e-07	-2.842911e-06	-2.085558e-08	-2.032168e+01	-1.370318e+03
5.400000e-07	-2.755861e-06	-2.058414e-08	-1.969943e+01	-1.352661e+03
5.500000e-07	-2.667987e-06	-2.030381e-08	-1.907129e+01	-1.334325e+03
5.600000e-07	-2.579045e-06	-2.000440e-08	-1.843552e+01	-1.315271e+03
5.700000e-07	-2.488779e-06	-1.970330e-08	-1.779027e+01	-1.295467e+03
5.800000e-07	-2.397453e-06	-1.939225e-08	-1.713746e+01	-1.274879e+03
5.900000e-07	-2.305319e-06	-1.907082e-08	-1.647887e+01	-1.253473e+03
6.000000e-07	-2.212408e-06	-1.873258e-08	-1.581472e+01	-1.231210e+03
6.100000e-07	-2.118730e-06	-1.838065e-08	-1.514509e+01	-1.208044e+03
6.200000e-07	-2.024328e-06	-1.801123e-08	-1.447029e+01	-1.183914e+03
6.300000e-07	-1.929284e-06	-1.761833e-08	-1.379090e+01	-1.158746e+03
6.400000e-07	-1.833682e-06	-1.721056e-08	-1.310752e+01	-1.132455e+03
6.500000e-07	-1.737442e-06	-1.678706e-08	-1.241957e+01	-1.104949e+03
6.600000e-07	-1.640366e-06	-1.634653e-08	-1.172565e+01	-1.076130e+03
6.700000e-07	-1.542402e-06	-1.588549e-08	-1.102539e+01	-1.045900e+03
6.800000e-07	-1.443703e-06	-1.540528e-08	-1.031987e+01	-1.014168e+03
6.900000e-07	-1.344562e-06	-1.490132e-08	-9.611192e+00	-9.808433e+02
7.000000e-07	-1.245068e-06	-1.437120e-08	-8.899988e+00	-9.458417e+02
7.100000e-07	-1.145238e-06	-1.380886e-08	-8.186385e+00	-9.090799e+02
7.200000e-07	-1.045157e-06	-1.321576e-08	-7.470988e+00	-8.704764e+02
7.300000e-07	-9.447734e-07	-1.259648e-08	-6.753424e+00	-8.299534e+02
7.400000e-07	-8.440632e-07	-1.194857e-08	-6.033528e+00	-7.874436e+02
7.500000e-07	-7.430642e-07	-1.127320e-08	-5.311568e+00	-7.429010e+02
7.600000e-07	-6.417877e-07	-1.056385e-08	-4.587624e+00	-6.963154e+02
7.700000e-07	-5.402842e-07	-9.820875e-09	-3.862057e+00	-6.477266e+02
7.800000e-07	-4.386374e-07	-9.050174e-09	-3.135465e+00	-5.972367e+02
7.900000e-07	-3.368625e-07	-8.253265e-09	-2.407959e+00	-5.450148e+02
8.000000e-07	-2.349503e-07	-7.434795e-09	-1.679471e+00	-4.912920e+02
8.100000e-07	-1.329174e-07	-6.600848e-09	-9.501198e-01	-4.363447e+02
8.200000e-07	-3.075951e-08	-5.751580e-09	-2.198750e-01	-3.804681e+02
8.300000e-07	7.148295e-08	-4.889941e-09	5.109740e-01	-3.239414e+02
8.400000e-07	1.737186e-07	-4.021456e-09	1.241775e+00	-2.669920e+02
8.500000e-07	2.758786e-07	-3.151001e-09	1.972034e+00	-2.097641e+02
8.600000e-07	3.779305e-07	-2.279728e-09	2.701521e+00	-1.522984e+02
8.700000e-07	4.798561e-07	-1.401981e-09	3.430105e+00	-9.452827e+01
8.800000e-07	5.816515e-07	-5.153353e-10	4.157758e+00	-3.629439e+01
8.900000e-07	6.832661e-07	3.854686e-10	4.884119e+00	2.262316e+01
9.000000e-07	7.846178e-07	1.300129e-09	5.608601e+00	8.245895e+01
9.100000e-07	8.856907e-07	2.230766e-09	6.331090e+00	1.434100e+02
9.200000e-07	9.864735e-07	3.178590e-09	7.051504e+00	2.055852e+02
9.300000e-07	1.086937e-06	4.141407e-09	7.769638e+00	2.689653e+02
9.400000e-07	1.187074e-06	5.119891e-09	8.485437e+00	3.333799e+02
9.500000e-07	1.286866e-06	6.108483e-09	9.198768e+00	3.985049e+02
9.600000e-07	1.386275e-06	7.103318e-09	9.909360e+00	4.638827e+02
9.700000e-07	1.485178e-06	8.095025e-09	1.061634e+01	5.289590e+02
9.800000e-07	1.583407e-06	9.072970e-09	1.131850e+01	5.931336e+02
9.900000e-07	1.680786e-06	1.002539e-08	1.201459e+01	6.558147e+02
1.000000e-06	1.777298e-06	1.094362e-08	1.270448e+01	7.164699e+02
1.010000e-06	1.873084e-06	1.182549e-08	1.338917e+01	7.746664e+02
1.020000e-06	1.968277e-06	1.266607e-08	1.406963e+01	8.300967e+02
1.030000e-06	2.062840e-06	1.346151e-08	1.474558e+01	8.825859e+02
1.040000e-06	2.156662e-06	1.421174e-08	1.541624e+01	9.320839e+02
1.050000e-06	2.249747e-06	1.491607e-08	1.608163e+01	9.786449e+02
1.060000e-06	2.342094e-06	1.557618e-08	1.674175e+01	1.022398e+03
1.070000e-06	2.433751e-06	1.619877e-08	1.739692e+01	1.063519e+03
1.080000e-06	2.524608e-06	1.678662e-08	1.804639e+01	1.102199e+03
1.090000e-06	2.614390e-06	1.734322e-08	1.868817e+01	1.138626e+03
1.100000e-06	2.703005e-06	1.786676e-08	1.932160e+01	1.172971e+03
1.110000e-06	2.790680e-06	1.835945e-08	1.994832e+01	1.205383e+03
1.120000e-06	2.877537e-06	1.882349e-08	2.056920e+01	1.235990e+03
1.130000e-06	2.963395e-06	1.925995e-08	2.118293e+01	1.264902e+03
1.140000e-06	3.048241e-06	1.967332e-08	2.178942e+01	1.292223e+03
1.150000e-06	3.132215e-06	2.006595e-08	2.238968e+01	1.318052e+03
1.160000e-06	3.215209e-06	2.043886e-08	2.298294e+01	1.342490e+03
1.170000e-06	3.296987e-06	2.079328e-08	2.356750e+01	1.365635e+03
1.180000e-06	3.377479e-06	2.113074e-08	2.414288e+01	1.387588e+03
1.190000e-06	3.456736e-06	2.145182e-08	2.470942e+01	1.408440e+03
1.200000e-06	3.534796e-06	2.175264e-08	2.526741e+01	1.428276e+03
1.210000e-06	3.611648e-06	2.203521e-08	2.581677e+01	1.447166e+03
1.220000e-06	3.687192e-06	2.230491e-08	2.635677e+01	1.465167e+03
1.230000e-06	3.761208e-06	2.256248e-08	2.688585e+01	1.482324e+03
1.240000e-06	3.833627e-06	2.280999e-08	2.740351e+01	1.498672e+03
1.250000e-06	3.904647e-06	2.304677e-08	2.791118e+01	1.514241e+03
1.260000e-06	3.974306e-06	2.327289e-08	2.840912e+01	1.529060e+03
1.270000e-06	4.042593e-06	2.348722e-08	2.889724e+01	1.543160e+03
1.280000e-06	4.109493e-06	2.368935e-08	2.937546e+01	1.556577e+03
1.290000e-06	4.174730e-06	2.388089e-08	2.984179e+01	1.569348e+03
1.300000e-06	4.238329e-06	2.406439e-08	3.029640e+01	1.581515e+03
1.310000e-06	4.300510e-06	2.423960e-08	3.074088e+01	1.593117e+03
1.320000e-06	4.361321e-06	2.440712e-08	3.117557e+01	1.604187e+03
1.330000e-06	4.420774e-06	2.456712e-08	3.160056e+01	1.614753e+03
1.340000e-06	4.478542e-06	2.472048e-08	3.201349e+01	1.624831e+03
1.350000e-06	4.534510e-06	2.486833e-08	3.241356e+01	1.634431e+03
1.360000e-06	4.588822e-06	2.501060e-08	3.280179e+01	1.643557e+03
1.370000e-06	4.641394e-06	2.514484e-08	3.317759e+01	1.652208e+03
1.380000e-06	4.692026e-06	2.527021e-08	3.353952e+01	1.660388e+03
1.390000e-06	4.740644e-06	2.538722e-08	3.388705e+01	1.668104e+03
1.400000e-06	4.787502e-06	2.549401e-08	3.422199e+01	1.675372e+03
1.410000e-06	4.832794e-06	2.559360e-08	3.454575e+01	1.682213e+03
1.420000e-06	4.876547e-06	2.569035e-08	3.485851e+01	1.688659e+03
1.430000e-06	4.918504e-06	2.578404e-08	3.515843e+01	1.694739e+03
1.440000e-06	4.958598e-06	2.587302e-08	3.544502e+01	1.700485e+03
1.450000e-06	4.997019e-06	2.595642e-08	3.571966e+01	1.705921e+03
1.460000e-06	5.033860e-06	2.603493e-08	3.598301e+01	1.711064e+03
1.470000e-06	5.069087e-06	2.610889e-08	3.623482e+01	1.715920e+03
1.480000e-06	5.102383e-06	2.617764e-08	3.647283e+01	1.720488e+03
1.490000e-06	5.133794e-06	2.624131e-08	3.669736e+01	1.724758e+03
1.500000e-06	5.163522e-06	2.630047e-08	3.690986e+01	1.728720e+03
1.510000e-06	5.191570e-06	2.635548e-08	3.711036e+01	1.732365e+03
1.520000e-06	5.217638e-06	2.640630e-08	3.729670e+01	1.735686e+03
1.530000e-06	5.241599e-06	2.645270e-08	3.746797e+01	1.738687e+03
1.540000e-06	5.263729e-06	2.649436e-08	3.762616e+01	1.741375e+03
1.550000e-06	5.284177e-06	2.652926e-08	3.777233e+01	1.743764e+03
1.560000e-06	5.302823e-06	2.655878e-08	3.790561e+01	1.745869e+03
1.570000e-06	5.319439e-06	2.658580e-08	3.802439e+01	1.747704e+03
1.580000e-06	5.334087e-06	2.661124e-08	3.812910e+01	1.749281e+03
1.590000e-06	5.346783e-06	2.663273e-08	3.821985e+01	1.750607e+03
1.600000e-06	5.357316e-06	2.665011e-08	3.829514e+01	1.751686e+03
1.610000e-06	5.365704e-06	2.666407e-08	3.835510e+01	1.752518e+03
1.620000e-06	5.372154e-06	2.667349e-08	3.840120e+01	1.753104e+03
1.630000e-06	5.376821e-06	2.668019e-08	3.843456e+01	1.753448e+03
1.640000e-06	5.379590e-06	2.668311e-08	3.845436e+01	1.753554e+03
1.650000e-06	5.380379e-06	2.668509e-08	3.846000e+01	1.753432e+03
1.660000e-06	5.379366e-06	2.667727e-08	3.845276e+01	1.753092e+03
1.670000e-06	5.376662e-06	2.666233e-08	3.843342e+01	1.752543e+03
1.680000e-06	5.372291e-06	2.665330e-08	3.840218e+01	1.751789e+03
1.690000e-06	5.365996e-06	2.664128e-08	3.835719e+01	1.750828e+03
1.700000e-06	5.357875e-06	2.662586e-08	3.829913e+01	1.749655e+03
1.710000e-06	5.348235e-06	2.660874e-08	3.823022e+01	1.748256e+03
1.720000e-06	5.336973e-06	2.660028e-08	3.814972e+01	1.746619e+03
1.730000e-06	5.323761e-06	2.658870e-08	3.805528e+01	1.744738e+03
1.740000e-06	5.308450e-06	2.643316e-08	3.794584e+01	1.742612e+03
1.750000e-06	5.290979e-06	2.636581e-08	3.782095e+01	1.740256e+03
1.760000e-06	5.270957e-06	2.640821e-08	3.767783e+01	1.737693e+03
1.770000e-06	5.248419e-06	2.639216e-08	3.751672e+01	1.734958e+03
1.780000e-06	5.224219e-06	2.651793e-08	3.734373e+01	1.732090e+03
1.790000e-06	5.199229e-06	2.632686e-08	3.716510e+01	1.729122e+03
1.800000e-06	5.173226e-06	2.609865e-08	3.697922e+01	1.726078e+03
1.810000e-06	5.145202e-06	2.633724e-08	3.677891e+01	1.722964e+03
1.820000e-06	5.115046e-06	2.612851e-08	3.656335e+01	1.719763e+03
1.830000e-06	5.083217e-06	2.604215e-08	3.633583e+01	1.716441e+03
1.840000e-06	5.049509e-06	2.634539e-08	3.609487e+01	1.712946e+03
1.850000e-06	5.014157e-06	2.600869e-08	3.584217e+01	1.709220e+03
1.860000e-06	4.977213e-06	2.589729e-08	3.557808e+01	1.705206e+03
1.870000e-06	4.938248e-06	2.601126e-08	3.529956e+01	1.700855e+03
1.880000e-06	4.897579e-06	2.577875e-08	3.500885e+01	1.696137e+03
1.890000e-06	4.855188e-06	2.587833e-08	3.470583e+01	1.691037e+03
1.900000e-06	4.811127e-06	2.571075e-08	3.439087e+01	1.685559e+03
1.910000e-06	4.765346e-06	2.554017e-08	3.406362e+01	1.679718e+03
1.920000e-06	4.717502e-06	2.573614e-08	3.372162e+01	1.673537e+03
1.930000e-06	4.667998e-06	2.544425e-08	3.336776e+01	1.667037e+03
1.940000e-06	4.616784e-06	2.533527e-08	3.300167e+01	1.660232e+03
1.950000e-06	4.563397e-06	2.529076e-08	3.262005e+01	1.653129e+03
1.960000e-06	4.508138e-06	2.512060e-08	3.222505e+01	1.645723e+03
1.970000e-06	4.451284e-06	2.507678e-08	3.181865e+01	1.638005e+03
1.980000e-06	4.392837e-06	2.481303e-08	3.140085e+01	1.629963e+03
1.990000e-06	4.332960e-06	2.480323e-08	3.097284e+01	1.621585e+03
2.000000e-06	4.271537e-06	2.473056e-08	3.053378e+01	1.612867e+03
2.010000e-06	4.208410e-06	2.447633e-08	3.008253e+01	1.603806e+03
2.020000e-06	4.143659e-06	2.435242e-08	2.961968e+01	1.594407e+03
2.030000e-06	4.077455e-06	2.415650e-08	2.914644e+01	1.584674e+03
2.040000e-06	4.009965e-06	2.411355e-08	2.866401e+01	1.574607e+03
2.050000e-06	3.940984e-06	2.391118e-08	2.817092e+01	1.564201e+03
2.060000e-06	3.870363e-06	2.370152e-08	2.766611e+01	1.553443e+03
2.070000e-06	3.798396e-06	2.360836e-08	2.715168e+01	1.542310e+03
2.080000e-06	3.725221e-06	2.337631e-08	2.662861e+01	1.530776e+03
2.090000e-06	3.650670e-06	2.321696e-08	2.609570e+01	1.518811e+03
2.100000e-06	3.574730e-06	2.301137e-08	2.555286e+01	1.506388e+03
2.110000e-06	3.497218e-06	2.285348e-08	2.499880e+01	1.493486e+03
2.120000e-06	3.418187e-06	2.265358e-08	2.443387e+01	1.480090e+03
2.130000e-06	3.338043e-06	2.239097e-08	2.386098e+01	1.466188e+03
2.140000e-06	3.256789e-06	2.218681e-08	2.328016e+01	1.451775e+03
2.150000e-06	3.174404e-06	2.194812e-08	2.269126e+01	1.436841e+03
2.160000e-06	3.091050e-06	2.174153e-08	2.209543e+01	1.421373e+03
2.170000e-06	3.006807e-06	2.148983e-08	2.149324e+01	1.405351e+03
2.180000e-06	2.921241e-06	2.123868e-08	2.088160e+01	1.388748e+03
2.190000e-06	2.834274e-06	2.098107e-08	2.025994e+01	1.371530e+03
2.200000e-06	2.746323e-06	2.070378e-08	1.963125e+01	1.353657e+03
2.210000e-06	2.657445e-06	2.043046e-08	1.899594e+01	1.335093e+03
2.220000e-06	2.567658e-06	2.012658e-08	1.835412e+01	1.315801e+03
2.230000e-06	2.476962e-06	1.982871e-08	1.770581e+01	1.295747e+03
2.240000e-06	2.385532e-06	1.950572e-08	1.705225e+01	1.274898e+03
2.250000e-06	2.293507e-06	1.917787e-08	1.639444e+01	1.253220e+03
2.260000e-06	2.200587e-06	1.882944e-08	1.573023e+01	1.230671e+03
2.270000e-06	2.106511e-06	1.847287e-08	1.505775e+01	1.207201e+03
2.280000e-06	2.011417e-06	1.810854e-08	1.437800e+01	1.182744e+03
2.290000e-06	1.915626e-06	1.771960e-08	1.369327e+01	1.157224e+03
2.300000e-06	1.819266e-06	1.731508e-08	1.300447e+01	1.130552e+03
2.310000e-06	1.722340e-06	1.689111e-08	1.231162e+01	1.102633e+03
2.320000e-06	1.624904e-06	1.645176e-08	1.161513e+01	1.073370e+03
2.330000e-06	1.526971e-06	1.598061e-08	1.091508e+01	1.042666e+03
2.340000e-06	1.428505e-06	1.548338e-08	1.021123e+01	1.010430e+03
2.350000e-06	1.329582e-06	1.496333e-08	9.504112e+00	9.765740e+02
2.360000e-06	1.230313e-06	1.442550e-08	8.794517e+00	9.410143e+02
2.370000e-06	1.130770e-06	1.386126e-08	8.082963e+00	9.036681e+02
2.380000e-06	1.031022e-06	1.326366e-08	7.369950e+00	8.644544e+02
2.390000e-06	9.310620e-07	1.263393e-08	6.655413e+00	8.232980e+02
2.400000e-06	8.308175e-07	1.197175e-08	5.938846e+00	7.801371e+02
2.410000e-06	7.301887e-07	1.128098e-08	5.219531e+00	7.349355e+02
2.420000e-06	6.291181e-07	1.055998e-08	4.497058e+00	6.876975e+02
2.430000e-06	5.276469e-07	9.811650e-09	3.771723e+00	6.384820e+02
2.440000e-06	4.258855e-07	9.036754e-09	3.044313e+00	5.874125e+02
2.450000e-06	3.239784e-07	8.233456e-09	2.315860e+00	5.346790e+02
2.460000e-06	2.219385e-07	7.400562e-09	1.586460e+00	4.805296e+02
2.470000e-06	1.197061e-07	6.551326e-09	8.556824e-01	4.252502e+02
2.480000e-06	1.735826e-08	5.696646e-09	1.240802e-01	3.691346e+02
2.490000e-06	-8.497691e-08	4.833595e-09	-6.074315e-01	3.124494e+02
2.500000e-06	-1.872568e-07	3.962113e-09	-1.338548e+00	2.553981e+02
2.510000e-06	-2.894687e-07	3.085571e-09	-2.069179e+00	1.980932e+02
2.520000e-06	-3.915788e-07	2.205411e-09	-2.799082e+00	1.405405e+02
2.530000e-06	-4.934823e-07	1.317586e-09	-3.527507e+00	8.264114e+01
2.540000e-06	-5.951304e-07	4.246674e-10	-4.254108e+00	2.421188e+01
2.550000e-06	-6.964668e-07	-4.769435e-10	-4.978480e+00	-3.497728e+01
2.560000e-06	-7.973915e-07	-1.393768e-09	-5.699909e+00	-9.515464e+01
2.570000e-06	-8.979307e-07	-2.328301e-09	-6.418583e+00	-1.564941e+02
2.580000e-06	-9.980888e-07	-3.282102e-09	-7.134533e+00	-2.190670e+02
2.590000e-06	-1.097897e-06	-4.254518e-09	-7.847979e+00	-2.828071e+02
2.600000e-06	-1.197419e-06	-5.245239e-09	-8.559381e+00	-3.474937e+02
2.610000e-06	-1.296610e-06	-6.244326e-09	-9.268420e+00	-4.127567e+02
2.620000e-06	-1.395410e-06	-7.243845e-09	-9.974663e+00	-4.781026e+02
2.630000e-06	-1.493728e-06	-8.238490e-09	-1.067746e+01	-5.429566e+02
2.640000e-06	-1.591459e-06	-9.216281e-09	-1.137606e+01	-6.067151e+02
2.650000e-06	-1.688569e-06	-1.016831e-08	-1.207022e+01	-6.688003e+02
2.660000e-06	-1.785132e-06	-1.108665e-08	-1.276047e+01	-7.287081e+02
2.670000e-06	-1.881203e-06	-1.196563e-08	-1.344720e+01	-7.860439e+02
2.680000e-06	-1.976777e-06	-1.280146e-08	-1.413038e+01	-8.405429e+02
2.690000e-06	-2.071685e-06	-1.358919e-08	-1.480881e+01	-8.920719e+02
2.700000e-06	-2.165592e-06	-1.433213e-08	-1.548008e+01	-9.406171e+02
2.710000e-06	-2.258410e-06	-1.503411e-08	-1.614356e+01	-9.862601e+02
2.720000e-06	-2.350300e-06	-1.569549e-08	-1.680040e+01	-1.029148e+03
2.730000e-06	-2.441394e-06	-1.631795e-08	-1.745156e+01	-1.069464e+03
2.740000e-06	-2.531708e-06	-1.690358e-08	-1.809714e+01	-1.107402e+03
2.750000e-06	-2.621171e-06	-1.745344e-08	-1.873664e+01	-1.143143e+03
2.760000e-06	-2.709731e-06	-1.796752e-08	-1.936968e+01	-1.176854e+03
2.770000e-06	-2.797443e-06	-1.845048e-08	-1.999667e+01	-1.208674e+03
2.780000e-06	-2.884287e-06	-1.890801e-08	-2.061744e+01	-1.238725e+03
2.790000e-06	-2.969990e-06	-1.933965e-08	-2.123007e+01	-1.267116e+03
2.800000e-06	-3.054397e-06	-1.974882e-08	-2.183342e+01	-1.293948e+03
2.810000e-06	-3.137723e-06	-2.013986e-08	-2.242906e+01	-1.319321e+03
2.820000e-06	-3.220100e-06	-2.051141e-08	-2.301790e+01	-1.343333e+03
2.830000e-06	-3.301396e-06	-2.086076e-08	-2.359902e+01	-1.366086e+03
2.840000e-06	-3.381612e-06	-2.118959e-08	-2.417242e+01	-1.387676e+03
2.850000e-06	-3.460705e-06	-2.150155e-08	-2.473779e+01	-1.408195e+03
2.860000e-06	-3.538318e-06	-2.179890e-08	-2.529258e+01	-1.427720e+03
2.870000e-06	-3.614371e-06	-2.208399e-08	-2.583623e+01	-1.446320e+03
2.880000e-06	-3.689024e-06	-2.235692e-08	-2.636986e+01	-1.464047e+03
2.890000e-06	-3.762268e-06	-2.261818e-08	-2.689342e+01	-1.480942e+03
2.900000e-06	-3.834231e-06	-2.286791e-08	-2.740783e+01	-1.497038e+03
2.910000e-06	-3.904865e-06	-2.310467e-08	-2.791274e+01	-1.512364e+03
2.920000e-06	-3.973897e-06	-2.333010e-08	-2.840619e+01	-1.526950e+03
2.930000e-06	-4.041492e-06	-2.354545e-08	-2.888937e+01	-1.540828e+03
2.940000e-06	-4.107757e-06	-2.374971e-08	-2.936305e+01	-1.554034e+03
