# Temperatura_=_45.26
# Concentracion g/m^3_=_28200.0
# C_Vs_to_Am_M_A/Vsm_=_65563218390.804596
# pendiente_HvsI_1/m_=_3716.3
# ordenada_HvsI_A/m_=_1297.0
# frecuencia_Hz_=_301766.0674311805

Tiempo_(s)	Campo_(V.s)	Magnetizacion_(V.s)	Campo_(kA/m)	Magnetizacion_(A/m)
0.000000e+00	-5.327853e-06	-2.098706e-08	-3.830009e+01	-1.373375e+03
1.000000e-08	-5.326062e-06	-2.098689e-08	-3.828721e+01	-1.373075e+03
2.000000e-08	-5.322387e-06	-2.097797e-08	-3.826079e+01	-1.372621e+03
3.000000e-08	-5.317089e-06	-2.096479e-08	-3.822271e+01	-1.372008e+03
4.000000e-08	-5.310218e-06	-2.095151e-08	-3.817331e+01	-1.371226e+03
5.000000e-08	-5.301672e-06	-2.093393e-08	-3.811188e+01	-1.370262e+03
6.000000e-08	-5.291136e-06	-2.091243e-08	-3.803614e+01	-1.369105e+03
7.000000e-08	-5.278644e-06	-2.088371e-08	-3.794634e+01	-1.367752e+03
8.000000e-08	-5.264215e-06	-2.085431e-08	-3.784261e+01	-1.366205e+03
9.000000e-08	-5.247575e-06	-2.089636e-08	-3.772299e+01	-1.364478e+03
1.000000e-07	-5.228753e-06	-2.090663e-08	-3.758769e+01	-1.362595e+03
1.100000e-07	-5.208005e-06	-2.081761e-08	-3.743854e+01	-1.360582e+03
1.200000e-07	-5.185518e-06	-2.076360e-08	-3.727688e+01	-1.358469e+03
1.300000e-07	-5.161516e-06	-2.065598e-08	-3.710434e+01	-1.356276e+03
1.400000e-07	-5.135958e-06	-2.057174e-08	-3.692061e+01	-1.354017e+03
1.500000e-07	-5.108731e-06	-2.073583e-08	-3.672489e+01	-1.351693e+03
1.600000e-07	-5.079953e-06	-2.063069e-08	-3.651802e+01	-1.349288e+03
1.700000e-07	-5.049705e-06	-2.050598e-08	-3.630058e+01	-1.346779e+03
1.800000e-07	-5.017686e-06	-2.063329e-08	-3.607040e+01	-1.344134e+03
1.900000e-07	-4.983566e-06	-2.042370e-08	-3.582513e+01	-1.341317e+03
2.000000e-07	-4.947830e-06	-2.033621e-08	-3.556823e+01	-1.338297e+03
2.100000e-07	-4.910581e-06	-2.045841e-08	-3.530046e+01	-1.335047e+03
2.200000e-07	-4.871514e-06	-2.030199e-08	-3.501962e+01	-1.331549e+03
2.300000e-07	-4.830596e-06	-2.021790e-08	-3.472547e+01	-1.327792e+03
2.400000e-07	-4.787694e-06	-2.019565e-08	-3.441707e+01	-1.323772e+03
2.500000e-07	-4.742967e-06	-2.008770e-08	-3.409554e+01	-1.319491e+03
2.600000e-07	-4.696553e-06	-2.007969e-08	-3.376189e+01	-1.314951e+03
2.700000e-07	-4.648282e-06	-1.995183e-08	-3.341488e+01	-1.310156e+03
2.800000e-07	-4.597915e-06	-1.983791e-08	-3.305281e+01	-1.305108e+03
2.900000e-07	-4.545477e-06	-1.979264e-08	-3.267586e+01	-1.299807e+03
3.000000e-07	-4.491339e-06	-1.970673e-08	-3.228668e+01	-1.294252e+03
3.100000e-07	-4.435671e-06	-1.963129e-08	-3.188650e+01	-1.288445e+03
3.200000e-07	-4.378241e-06	-1.953604e-08	-3.147366e+01	-1.282385e+03
3.300000e-07	-4.319064e-06	-1.944534e-08	-3.104825e+01	-1.276072e+03
3.400000e-07	-4.258367e-06	-1.932420e-08	-3.061192e+01	-1.269509e+03
3.500000e-07	-4.196206e-06	-1.920162e-08	-3.016507e+01	-1.262694e+03
3.600000e-07	-4.132673e-06	-1.911345e-08	-2.970835e+01	-1.255626e+03
3.700000e-07	-4.067602e-06	-1.902159e-08	-2.924058e+01	-1.248299e+03
3.800000e-07	-4.000905e-06	-1.892186e-08	-2.876112e+01	-1.240703e+03
3.900000e-07	-3.932728e-06	-1.876327e-08	-2.827101e+01	-1.232827e+03
4.000000e-07	-3.863191e-06	-1.861363e-08	-2.777114e+01	-1.224655e+03
4.100000e-07	-3.792479e-06	-1.851895e-08	-2.726281e+01	-1.216172e+03
4.200000e-07	-3.720622e-06	-1.838681e-08	-2.674626e+01	-1.207361e+03
4.300000e-07	-3.647314e-06	-1.824686e-08	-2.621927e+01	-1.198209e+03
4.400000e-07	-3.572353e-06	-1.809551e-08	-2.568040e+01	-1.188703e+03
4.500000e-07	-3.495932e-06	-1.793896e-08	-2.513104e+01	-1.178835e+03
4.600000e-07	-3.418214e-06	-1.777514e-08	-2.457235e+01	-1.168593e+03
4.700000e-07	-3.339098e-06	-1.761106e-08	-2.400362e+01	-1.157970e+03
4.800000e-07	-3.258635e-06	-1.746097e-08	-2.342520e+01	-1.146952e+03
4.900000e-07	-3.176934e-06	-1.728555e-08	-2.283787e+01	-1.135527e+03
5.000000e-07	-3.094145e-06	-1.710238e-08	-2.224273e+01	-1.123677e+03
5.100000e-07	-3.010522e-06	-1.690798e-08	-2.164159e+01	-1.111380e+03
5.200000e-07	-2.926052e-06	-1.670992e-08	-2.103437e+01	-1.098614e+03
5.300000e-07	-2.840581e-06	-1.650688e-08	-2.041995e+01	-1.085352e+03
5.400000e-07	-2.754111e-06	-1.629689e-08	-1.979835e+01	-1.071568e+03
5.500000e-07	-2.666787e-06	-1.607900e-08	-1.917060e+01	-1.057231e+03
5.600000e-07	-2.578530e-06	-1.584512e-08	-1.853616e+01	-1.042311e+03
5.700000e-07	-2.489146e-06	-1.560904e-08	-1.789360e+01	-1.026777e+03
5.800000e-07	-2.398647e-06	-1.536317e-08	-1.724304e+01	-1.010594e+03
5.900000e-07	-2.307198e-06	-1.510434e-08	-1.658564e+01	-9.937250e+02
6.000000e-07	-2.214972e-06	-1.483391e-08	-1.592267e+01	-9.761306e+02
6.100000e-07	-2.121989e-06	-1.455685e-08	-1.525424e+01	-9.577689e+02
6.200000e-07	-2.028227e-06	-1.426890e-08	-1.458022e+01	-9.385959e+02
6.300000e-07	-1.933751e-06	-1.396197e-08	-1.390107e+01	-9.185657e+02
6.400000e-07	-1.838641e-06	-1.363774e-08	-1.321735e+01	-8.976298e+02
6.500000e-07	-1.742948e-06	-1.329951e-08	-1.252945e+01	-8.757372e+02
6.600000e-07	-1.646602e-06	-1.294734e-08	-1.183685e+01	-8.528325e+02
6.700000e-07	-1.549554e-06	-1.257965e-08	-1.113921e+01	-8.288547e+02
6.800000e-07	-1.451817e-06	-1.219765e-08	-1.043661e+01	-8.037363e+02
6.900000e-07	-1.353451e-06	-1.179632e-08	-9.729492e+00	-7.774033e+02
7.000000e-07	-1.254608e-06	-1.137500e-08	-9.018944e+00	-7.497765e+02
7.100000e-07	-1.155347e-06	-1.093021e-08	-8.305387e+00	-7.207759e+02
7.200000e-07	-1.055691e-06	-1.046360e-08	-7.588999e+00	-6.903263e+02
7.300000e-07	-9.557332e-07	-9.978628e-09	-6.870433e+00	-6.583663e+02
7.400000e-07	-8.555389e-07	-9.472138e-09	-6.150172e+00	-6.248569e+02
7.500000e-07	-7.551294e-07	-8.940787e-09	-5.428363e+00	-5.897913e+02
7.600000e-07	-6.545142e-07	-8.382654e-09	-4.705075e+00	-5.532029e+02
7.700000e-07	-5.536882e-07	-7.800688e-09	-3.980272e+00	-5.151694e+02
7.800000e-07	-4.526555e-07	-7.201177e-09	-3.253983e+00	-4.758139e+02
7.900000e-07	-3.514575e-07	-6.586868e-09	-2.526506e+00	-4.352995e+02
8.000000e-07	-2.500989e-07	-5.956802e-09	-1.797874e+00	-3.938198e+02
8.100000e-07	-1.486095e-07	-5.315163e-09	-1.068302e+00	-3.515841e+02
8.200000e-07	-4.702523e-08	-4.664432e-09	-3.380480e-01	-3.087996e+02
8.300000e-07	5.469034e-08	-4.006829e-09	3.931499e-01	-2.656525e+02
8.400000e-07	1.564399e-07	-3.344861e-09	1.124592e+00	-2.222896e+02
8.500000e-07	2.580829e-07	-2.683688e-09	1.855268e+00	-1.788044e+02
8.600000e-07	3.596162e-07	-2.024780e-09	2.585156e+00	-1.352277e+02
8.700000e-07	4.610011e-07	-1.362589e-09	3.313976e+00	-9.152642e+01
8.800000e-07	5.622093e-07	-6.962905e-10	4.041527e+00	-4.761039e+01
8.900000e-07	6.631968e-07	-2.282548e-11	4.767492e+00	-3.346913e+00
9.000000e-07	7.639701e-07	6.577466e-10	5.491916e+00	4.141757e+01
9.100000e-07	8.645397e-07	1.349507e-09	6.214875e+00	8.683142e+01
9.200000e-07	9.648457e-07	2.054278e-09	6.935940e+00	1.330101e+02
9.300000e-07	1.064886e-06	2.768949e-09	7.655098e+00	1.800105e+02
9.400000e-07	1.164620e-06	3.494542e-09	8.372048e+00	2.278104e+02
9.500000e-07	1.263956e-06	4.230527e-09	9.086137e+00	2.762967e+02
9.600000e-07	1.362819e-06	4.975841e-09	9.796832e+00	3.252633e+02
9.700000e-07	1.461081e-06	5.725635e-09	1.050320e+01	3.744206e+02
9.800000e-07	1.558596e-06	6.472807e-09	1.120421e+01	4.234146e+02
9.900000e-07	1.655373e-06	7.209362e-09	1.189990e+01	4.718540e+02
1.000000e-06	1.751427e-06	7.929995e-09	1.259040e+01	5.193415e+02
1.010000e-06	1.846814e-06	8.629745e-09	1.327610e+01	5.655057e+02
1.020000e-06	1.941589e-06	9.303932e-09	1.395741e+01	6.100283e+02
1.030000e-06	2.035720e-06	9.950961e-09	1.463408e+01	6.526650e+02
1.040000e-06	2.129145e-06	1.056842e-08	1.530568e+01	6.932561e+02
1.050000e-06	2.221844e-06	1.115189e-08	1.597206e+01	7.317271e+02
1.060000e-06	2.313871e-06	1.170251e-08	1.663362e+01	7.680801e+02
1.070000e-06	2.405220e-06	1.222169e-08	1.729029e+01	8.023784e+02
1.080000e-06	2.495730e-06	1.271160e-08	1.794093e+01	8.347261e+02
1.090000e-06	2.585100e-06	1.317601e-08	1.858339e+01	8.652490e+02
1.100000e-06	2.673290e-06	1.361581e-08	1.921735e+01	8.940767e+02
1.110000e-06	2.760541e-06	1.403074e-08	1.984457e+01	9.213304e+02
1.120000e-06	2.846966e-06	1.442161e-08	2.046585e+01	9.471160e+02
1.130000e-06	2.932500e-06	1.479326e-08	2.108072e+01	9.715231e+02
1.140000e-06	3.017095e-06	1.514689e-08	2.168884e+01	9.946278e+02
1.150000e-06	3.100777e-06	1.548141e-08	2.229041e+01	1.016498e+03
1.160000e-06	3.183467e-06	1.579598e-08	2.288484e+01	1.037198e+03
1.170000e-06	3.264977e-06	1.609329e-08	2.347079e+01	1.056795e+03
1.180000e-06	3.345262e-06	1.637525e-08	2.404792e+01	1.075357e+03
1.190000e-06	3.424391e-06	1.664219e-08	2.461676e+01	1.092955e+03
1.200000e-06	3.502292e-06	1.689513e-08	2.517676e+01	1.109659e+03
1.210000e-06	3.578999e-06	1.713548e-08	2.572818e+01	1.125534e+03
1.220000e-06	3.654460e-06	1.736479e-08	2.627064e+01	1.140639e+03
1.230000e-06	3.728325e-06	1.758363e-08	2.680164e+01	1.155023e+03
1.240000e-06	3.800514e-06	1.779034e-08	2.732058e+01	1.168727e+03
1.250000e-06	3.871294e-06	1.798681e-08	2.782939e+01	1.181783e+03
1.260000e-06	3.940798e-06	1.817475e-08	2.832902e+01	1.194216e+03
1.270000e-06	4.009012e-06	1.835299e-08	2.881939e+01	1.206051e+03
1.280000e-06	4.075860e-06	1.852291e-08	2.929994e+01	1.217312e+03
1.290000e-06	4.141031e-06	1.868534e-08	2.976843e+01	1.228019e+03
1.300000e-06	4.204531e-06	1.884181e-08	3.022491e+01	1.238196e+03
1.310000e-06	4.266610e-06	1.899114e-08	3.067118e+01	1.247865e+03
1.320000e-06	4.327342e-06	1.913278e-08	3.110776e+01	1.257042e+03
1.330000e-06	4.386735e-06	1.926694e-08	3.153471e+01	1.265743e+03
1.340000e-06	4.444432e-06	1.939303e-08	3.194947e+01	1.273981e+03
1.350000e-06	4.500299e-06	1.950957e-08	3.235109e+01	1.281768e+03
1.360000e-06	4.554602e-06	1.961866e-08	3.274145e+01	1.289116e+03
1.370000e-06	4.607223e-06	1.972285e-08	3.311972e+01	1.296043e+03
1.380000e-06	4.657867e-06	1.982183e-08	3.348379e+01	1.302571e+03
1.390000e-06	4.706482e-06	1.991479e-08	3.383327e+01	1.308729e+03
1.400000e-06	4.753334e-06	2.000175e-08	3.417006e+01	1.314551e+03
1.410000e-06	4.798646e-06	2.008551e-08	3.449580e+01	1.320073e+03
1.420000e-06	4.842428e-06	2.016777e-08	3.481053e+01	1.325327e+03
1.430000e-06	4.884456e-06	2.024630e-08	3.511266e+01	1.330336e+03
1.440000e-06	4.924591e-06	2.032050e-08	3.540118e+01	1.335117e+03
1.450000e-06	4.963046e-06	2.039080e-08	3.567761e+01	1.339669e+03
1.460000e-06	4.999957e-06	2.045611e-08	3.594296e+01	1.343983e+03
1.470000e-06	5.035232e-06	2.051529e-08	3.619653e+01	1.348042e+03
1.480000e-06	5.068576e-06	2.057081e-08	3.643623e+01	1.351826e+03
1.490000e-06	5.100021e-06	2.062395e-08	3.666228e+01	1.355317e+03
1.500000e-06	5.129805e-06	2.067270e-08	3.687639e+01	1.358505e+03
1.510000e-06	5.157967e-06	2.071689e-08	3.707883e+01	1.361390e+03
1.520000e-06	5.184288e-06	2.075713e-08	3.726805e+01	1.363984e+03
1.530000e-06	5.208482e-06	2.079277e-08	3.744196e+01	1.366307e+03
1.540000e-06	5.230722e-06	2.082447e-08	3.760184e+01	1.368382e+03
1.550000e-06	5.251274e-06	2.085271e-08	3.774958e+01	1.370234e+03
1.560000e-06	5.270063e-06	2.087642e-08	3.788465e+01	1.371884e+03
1.570000e-06	5.286926e-06	2.089681e-08	3.800587e+01	1.373345e+03
1.580000e-06	5.301812e-06	2.091601e-08	3.811289e+01	1.374622e+03
1.590000e-06	5.314725e-06	2.093409e-08	3.820571e+01	1.375713e+03
1.600000e-06	5.325468e-06	2.094918e-08	3.828294e+01	1.376616e+03
1.610000e-06	5.334057e-06	2.096179e-08	3.834468e+01	1.377325e+03
1.620000e-06	5.340770e-06	2.097158e-08	3.839294e+01	1.377841e+03
1.630000e-06	5.345731e-06	2.097852e-08	3.842860e+01	1.378167e+03
1.640000e-06	5.348922e-06	2.098208e-08	3.845154e+01	1.378311e+03
1.650000e-06	5.350099e-06	2.098373e-08	3.846000e+01	1.378283e+03
1.660000e-06	5.349320e-06	2.097946e-08	3.845440e+01	1.378095e+03
1.670000e-06	5.346831e-06	2.096895e-08	3.843651e+01	1.377751e+03
1.680000e-06	5.342752e-06	2.096399e-08	3.840719e+01	1.377251e+03
1.690000e-06	5.336867e-06	2.095736e-08	3.836488e+01	1.376590e+03
1.700000e-06	5.329067e-06	2.094666e-08	3.830881e+01	1.375757e+03
1.710000e-06	5.319672e-06	2.093498e-08	3.824127e+01	1.374738e+03
1.720000e-06	5.308699e-06	2.092654e-08	3.816239e+01	1.373525e+03
1.730000e-06	5.295823e-06	2.092884e-08	3.806983e+01	1.372115e+03
1.740000e-06	5.280953e-06	2.083262e-08	3.796293e+01	1.370514e+03
1.750000e-06	5.263996e-06	2.074495e-08	3.784104e+01	1.368739e+03
1.760000e-06	5.244516e-06	2.077283e-08	3.770100e+01	1.366815e+03
1.770000e-06	5.222443e-06	2.076378e-08	3.754233e+01	1.364770e+03
1.780000e-06	5.198548e-06	2.084953e-08	3.737055e+01	1.362631e+03
1.790000e-06	5.173805e-06	2.079159e-08	3.719269e+01	1.360419e+03
1.800000e-06	5.148183e-06	2.054649e-08	3.700850e+01	1.358141e+03
1.810000e-06	5.120676e-06	2.068534e-08	3.681076e+01	1.355795e+03
1.820000e-06	5.091070e-06	2.063287e-08	3.659793e+01	1.353363e+03
1.830000e-06	5.059804e-06	2.045827e-08	3.637318e+01	1.350817e+03
1.840000e-06	5.026611e-06	2.069299e-08	3.613456e+01	1.348126e+03
1.850000e-06	4.991616e-06	2.054669e-08	3.588299e+01	1.345254e+03
1.860000e-06	4.955146e-06	2.034234e-08	3.562082e+01	1.342170e+03
1.870000e-06	4.916779e-06	2.047607e-08	3.534501e+01	1.338850e+03
1.880000e-06	4.876587e-06	2.032811e-08	3.505609e+01	1.335277e+03
1.890000e-06	4.834670e-06	2.031675e-08	3.475476e+01	1.331445e+03
1.900000e-06	4.790991e-06	2.028213e-08	3.444077e+01	1.327350e+03
1.910000e-06	4.745673e-06	2.009400e-08	3.411499e+01	1.322994e+03
1.920000e-06	4.698453e-06	2.024547e-08	3.377555e+01	1.318380e+03
1.930000e-06	4.649509e-06	2.009500e-08	3.342371e+01	1.313512e+03
1.940000e-06	4.598919e-06	1.992666e-08	3.306003e+01	1.308390e+03
1.950000e-06	4.546327e-06	1.993970e-08	3.268196e+01	1.303016e+03
1.960000e-06	4.491790e-06	1.978787e-08	3.228991e+01	1.297389e+03
1.970000e-06	4.435500e-06	1.974847e-08	3.188527e+01	1.291509e+03
1.980000e-06	4.377563e-06	1.959292e-08	3.146878e+01	1.285376e+03
1.990000e-06	4.318165e-06	1.952819e-08	3.104179e+01	1.278991e+03
2.000000e-06	4.257340e-06	1.952743e-08	3.060454e+01	1.272355e+03
2.010000e-06	4.194910e-06	1.931209e-08	3.015575e+01	1.265468e+03
2.020000e-06	4.130809e-06	1.921032e-08	2.969495e+01	1.258325e+03
2.030000e-06	4.065221e-06	1.907887e-08	2.922346e+01	1.250922e+03
2.040000e-06	3.998280e-06	1.901333e-08	2.874224e+01	1.243247e+03
2.050000e-06	3.929963e-06	1.890655e-08	2.825114e+01	1.235287e+03
2.060000e-06	3.860100e-06	1.870951e-08	2.774892e+01	1.227028e+03
2.070000e-06	3.788715e-06	1.864302e-08	2.723576e+01	1.218451e+03
2.080000e-06	3.716113e-06	1.847668e-08	2.671384e+01	1.209544e+03
2.090000e-06	3.642241e-06	1.833604e-08	2.618280e+01	1.200291e+03
2.100000e-06	3.566982e-06	1.819641e-08	2.564179e+01	1.190682e+03
2.110000e-06	3.490247e-06	1.805630e-08	2.509018e+01	1.180707e+03
2.120000e-06	3.411949e-06	1.792543e-08	2.452732e+01	1.170357e+03
2.130000e-06	3.332368e-06	1.771276e-08	2.395523e+01	1.159622e+03
2.140000e-06	3.251647e-06	1.754945e-08	2.337496e+01	1.148489e+03
2.150000e-06	3.169813e-06	1.736805e-08	2.278668e+01	1.136943e+03
2.160000e-06	3.086910e-06	1.719970e-08	2.219072e+01	1.124967e+03
2.170000e-06	3.003035e-06	1.701773e-08	2.158778e+01	1.112538e+03
2.180000e-06	2.918184e-06	1.681492e-08	2.097781e+01	1.099633e+03
2.190000e-06	2.832064e-06	1.662051e-08	2.035873e+01	1.086224e+03
2.200000e-06	2.744733e-06	1.640277e-08	1.973093e+01	1.072284e+03
2.210000e-06	2.656434e-06	1.618983e-08	1.909618e+01	1.057783e+03
2.220000e-06	2.567240e-06	1.595074e-08	1.845499e+01	1.042691e+03
2.230000e-06	2.477131e-06	1.571462e-08	1.780724e+01	1.026974e+03
2.240000e-06	2.386220e-06	1.546758e-08	1.715370e+01	1.010598e+03
2.250000e-06	2.294639e-06	1.520778e-08	1.649536e+01	9.935252e+02
2.260000e-06	2.202373e-06	1.493247e-08	1.583209e+01	9.757152e+02
2.270000e-06	2.109255e-06	1.464378e-08	1.516270e+01	9.571257e+02
2.280000e-06	2.015146e-06	1.435386e-08	1.448618e+01	9.377119e+02
2.290000e-06	1.920128e-06	1.404598e-08	1.380314e+01	9.174273e+02
2.300000e-06	1.824350e-06	1.372646e-08	1.311462e+01	8.962229e+02
2.310000e-06	1.727972e-06	1.339252e-08	1.242179e+01	8.740463e+02
2.320000e-06	1.631101e-06	1.304439e-08	1.172542e+01	8.508408e+02
2.330000e-06	1.533749e-06	1.267077e-08	1.102559e+01	8.265436e+02
2.340000e-06	1.435812e-06	1.227524e-08	1.032155e+01	8.010854e+02
2.350000e-06	1.337330e-06	1.186719e-08	9.613598e+00	7.743903e+02
2.360000e-06	1.238487e-06	1.144589e-08	8.903055e+00	7.463784e+02
2.370000e-06	1.139383e-06	1.100228e-08	8.190630e+00	7.169704e+02
2.380000e-06	1.040044e-06	1.053142e-08	7.476512e+00	6.860941e+02
2.390000e-06	9.404260e-07	1.003579e-08	6.760395e+00	6.536935e+02
2.400000e-06	8.405341e-07	9.514311e-09	6.042307e+00	6.197379e+02
2.410000e-06	7.404024e-07	8.970018e-09	5.322495e+00	5.842313e+02
2.420000e-06	6.399665e-07	8.401616e-09	4.600497e+00	5.472194e+02
2.430000e-06	5.392256e-07	7.813736e-09	3.876305e+00	5.087931e+02
2.440000e-06	4.383475e-07	7.209684e-09	3.151128e+00	4.690876e+02
2.450000e-06	3.373751e-07	6.587396e-09	2.425272e+00	4.282760e+02
2.460000e-06	2.362296e-07	5.945218e-09	1.698172e+00	3.865580e+02
2.470000e-06	1.349339e-07	5.292942e-09	9.699928e-01	3.441442e+02
2.480000e-06	3.358499e-08	4.640351e-09	2.414308e-01	3.012379e+02
2.490000e-06	-6.780910e-08	3.982603e-09	-4.874561e-01	2.580156e+02
2.500000e-06	-1.692597e-07	3.317540e-09	-1.216749e+00	2.146102e+02
2.510000e-06	-2.706301e-07	2.649965e-09	-1.945466e+00	1.710979e+02
2.520000e-06	-3.718184e-07	1.983140e-09	-2.672873e+00	1.274910e+02
2.530000e-06	-4.728740e-07	1.311071e-09	-3.399327e+00	8.373917e+01
2.540000e-06	-5.737975e-07	6.353542e-10	-4.124831e+00	3.973812e+01
2.550000e-06	-6.745439e-07	-4.196341e-11	-4.849062e+00	-4.653195e+00
2.560000e-06	-7.750467e-07	-7.279011e-10	-5.571542e+00	-4.958965e+01
2.570000e-06	-8.751986e-07	-1.427825e-09	-6.291499e+00	-9.521301e+01
2.580000e-06	-9.749980e-07	-2.139265e-09	-7.008922e+00	-1.416245e+02
2.590000e-06	-1.074497e-06	-2.860913e-09	-7.724184e+00	-1.888600e+02
2.600000e-06	-1.173676e-06	-3.594502e-09	-8.437145e+00	-2.368724e+02
2.610000e-06	-1.272465e-06	-4.337019e-09	-9.147308e+00	-2.855215e+02
2.620000e-06	-1.370788e-06	-5.084225e-09	-9.854119e+00	-3.345760e+02
2.630000e-06	-1.468584e-06	-5.833250e-09	-1.055714e+01	-3.837256e+02
2.640000e-06	-1.565861e-06	-6.582742e-09	-1.125643e+01	-4.326026e+02
2.650000e-06	-1.662664e-06	-7.324920e-09	-1.195231e+01	-4.808107e+02
2.660000e-06	-1.758993e-06	-8.050258e-09	-1.264479e+01	-5.279568e+02
2.670000e-06	-1.854787e-06	-8.753215e-09	-1.333342e+01	-5.736822e+02
2.680000e-06	-1.949914e-06	-9.426679e-09	-1.401725e+01	-6.176880e+02
2.690000e-06	-2.044204e-06	-1.006731e-08	-1.469507e+01	-6.597534e+02
2.700000e-06	-2.137536e-06	-1.067822e-08	-1.536600e+01	-6.997433e+02
2.710000e-06	-2.229960e-06	-1.125979e-08	-1.603041e+01	-7.376066e+02
2.720000e-06	-2.321576e-06	-1.181141e-08	-1.668901e+01	-7.733646e+02
2.730000e-06	-2.412373e-06	-1.233104e-08	-1.734171e+01	-8.070943e+02
2.740000e-06	-2.502326e-06	-1.281833e-08	-1.798835e+01	-8.389080e+02
2.750000e-06	-2.591406e-06	-1.327650e-08	-1.862872e+01	-8.689341e+02
2.760000e-06	-2.679693e-06	-1.370802e-08	-1.926338e+01	-8.973010e+02
2.770000e-06	-2.767209e-06	-1.411715e-08	-1.989250e+01	-9.241258e+02
2.780000e-06	-2.853688e-06	-1.450801e-08	-2.051417e+01	-9.495098e+02
2.790000e-06	-2.938937e-06	-1.487750e-08	-2.112699e+01	-9.735381e+02
2.800000e-06	-3.023071e-06	-1.522321e-08	-2.173181e+01	-9.962841e+02
2.810000e-06	-3.106245e-06	-1.554878e-08	-2.232971e+01	-1.017814e+03
2.820000e-06	-3.188418e-06	-1.585908e-08	-2.292043e+01	-1.038193e+03
2.830000e-06	-3.269583e-06	-1.615469e-08	-2.350389e+01	-1.057488e+03
2.840000e-06	-3.349615e-06	-1.643514e-08	-2.407922e+01	-1.075767e+03
2.850000e-06	-3.428295e-06	-1.670061e-08	-2.464482e+01	-1.093103e+03
2.860000e-06	-3.505546e-06	-1.695281e-08	-2.520015e+01	-1.109565e+03
2.870000e-06	-3.581396e-06	-1.719367e-08	-2.574541e+01	-1.125215e+03
2.880000e-06	-3.655850e-06	-1.742347e-08	-2.628064e+01	-1.140110e+03
2.890000e-06	-3.728923e-06	-1.764409e-08	-2.680593e+01	-1.154297e+03
2.900000e-06	-3.800733e-06	-1.785434e-08	-2.732215e+01	-1.167813e+03
2.910000e-06	-3.871169e-06	-1.805163e-08	-2.782849e+01	-1.180689e+03
2.920000e-06	-3.940059e-06	-1.823720e-08	-2.832372e+01	-1.192950e+03
2.930000e-06	-4.007511e-06	-1.841311e-08	-2.880860e+01	-1.204619e+03
2.940000e-06	-4.073596e-06	-1.858144e-08	-2.928366e+01	-1.215720e+03
