# Temperatura_=_73.61
# Concentracion g/m^3_=_28200.0
# C_Vs_to_Am_M_A/Vsm_=_65563218390.804596
# pendiente_HvsI_1/m_=_3716.3
# ordenada_HvsI_A/m_=_1297.0
# frecuencia_Hz_=_301760.8881013715

Tiempo_(s)	Campo_(V.s)	Magnetizacion_(V.s)	Campo_(kA/m)	Magnetizacion_(A/m)
0.000000e+00	-5.306044e-06	-2.473395e-08	-3.829891e+01	-1.617683e+03
1.000000e-08	-5.303906e-06	-2.473032e-08	-3.828347e+01	-1.617276e+03
2.000000e-08	-5.299891e-06	-2.471847e-08	-3.825449e+01	-1.616668e+03
3.000000e-08	-5.294299e-06	-2.470420e-08	-3.821413e+01	-1.615853e+03
4.000000e-08	-5.287145e-06	-2.468926e-08	-3.816249e+01	-1.614823e+03
5.000000e-08	-5.278280e-06	-2.466917e-08	-3.809850e+01	-1.613570e+03
6.000000e-08	-5.267437e-06	-2.464551e-08	-3.802025e+01	-1.612090e+03
7.000000e-08	-5.254627e-06	-2.461596e-08	-3.792778e+01	-1.610385e+03
8.000000e-08	-5.239879e-06	-2.459084e-08	-3.782133e+01	-1.608467e+03
9.000000e-08	-5.222857e-06	-2.461415e-08	-3.769847e+01	-1.606356e+03
1.000000e-07	-5.203658e-06	-2.459707e-08	-3.755988e+01	-1.604080e+03
1.100000e-07	-5.182636e-06	-2.451080e-08	-3.740815e+01	-1.601669e+03
1.200000e-07	-5.159899e-06	-2.444488e-08	-3.724403e+01	-1.599151e+03
1.300000e-07	-5.135622e-06	-2.433576e-08	-3.706881e+01	-1.596543e+03
1.400000e-07	-5.109803e-06	-2.429867e-08	-3.688245e+01	-1.593853e+03
1.500000e-07	-5.082299e-06	-2.439855e-08	-3.668392e+01	-1.591069e+03
1.600000e-07	-5.053258e-06	-2.426768e-08	-3.647430e+01	-1.588167e+03
1.700000e-07	-5.022783e-06	-2.420441e-08	-3.625433e+01	-1.585110e+03
1.800000e-07	-4.990474e-06	-2.425878e-08	-3.602113e+01	-1.581855e+03
1.900000e-07	-4.956101e-06	-2.403622e-08	-3.577303e+01	-1.578360e+03
2.000000e-07	-4.920107e-06	-2.397171e-08	-3.551323e+01	-1.574589e+03
2.100000e-07	-4.882590e-06	-2.401408e-08	-3.524242e+01	-1.570516e+03
2.200000e-07	-4.843318e-06	-2.385580e-08	-3.495896e+01	-1.566131e+03
2.300000e-07	-4.802256e-06	-2.379248e-08	-3.466258e+01	-1.561430e+03
2.400000e-07	-4.759227e-06	-2.375162e-08	-3.435199e+01	-1.556422e+03
2.500000e-07	-4.714346e-06	-2.363785e-08	-3.402804e+01	-1.551118e+03
2.600000e-07	-4.667742e-06	-2.357756e-08	-3.369166e+01	-1.545526e+03
2.700000e-07	-4.619235e-06	-2.343800e-08	-3.334154e+01	-1.539652e+03
2.800000e-07	-4.568671e-06	-2.333591e-08	-3.297656e+01	-1.533495e+03
2.900000e-07	-4.516080e-06	-2.327663e-08	-3.259697e+01	-1.527048e+03
3.000000e-07	-4.461794e-06	-2.317705e-08	-3.220513e+01	-1.520301e+03
3.100000e-07	-4.405912e-06	-2.306405e-08	-3.180178e+01	-1.513243e+03
3.200000e-07	-4.348271e-06	-2.293598e-08	-3.138572e+01	-1.505868e+03
3.300000e-07	-4.288928e-06	-2.282497e-08	-3.095738e+01	-1.498174e+03
3.400000e-07	-4.228087e-06	-2.268763e-08	-3.051824e+01	-1.490164e+03
3.500000e-07	-4.165890e-06	-2.255476e-08	-3.006930e+01	-1.481847e+03
3.600000e-07	-4.102318e-06	-2.244775e-08	-2.961044e+01	-1.473233e+03
3.700000e-07	-4.037259e-06	-2.232273e-08	-2.914085e+01	-1.464326e+03
3.800000e-07	-3.970644e-06	-2.217585e-08	-2.866002e+01	-1.455126e+03
3.900000e-07	-3.902529e-06	-2.199726e-08	-2.816837e+01	-1.445626e+03
4.000000e-07	-3.833038e-06	-2.184387e-08	-2.766678e+01	-1.435807e+03
4.100000e-07	-3.762291e-06	-2.171864e-08	-2.715613e+01	-1.425644e+03
4.200000e-07	-3.690382e-06	-2.155703e-08	-2.663709e+01	-1.415110e+03
4.300000e-07	-3.617108e-06	-2.138724e-08	-2.610820e+01	-1.404175e+03
4.400000e-07	-3.542190e-06	-2.121052e-08	-2.556745e+01	-1.392813e+03
4.500000e-07	-3.465738e-06	-2.102846e-08	-2.501562e+01	-1.381005e+03
4.600000e-07	-3.388022e-06	-2.083552e-08	-2.445467e+01	-1.368738e+03
4.700000e-07	-3.309096e-06	-2.063767e-08	-2.388498e+01	-1.356005e+03
4.800000e-07	-3.228876e-06	-2.044400e-08	-2.330596e+01	-1.342799e+03
4.900000e-07	-3.147349e-06	-2.023135e-08	-2.271749e+01	-1.329114e+03
5.000000e-07	-3.064722e-06	-2.001292e-08	-2.212109e+01	-1.314939e+03
5.100000e-07	-2.981126e-06	-1.978427e-08	-2.151770e+01	-1.300258e+03
5.200000e-07	-2.896695e-06	-1.954941e-08	-2.090828e+01	-1.285045e+03
5.300000e-07	-2.811401e-06	-1.931056e-08	-2.029263e+01	-1.269271e+03
5.400000e-07	-2.725134e-06	-1.906154e-08	-1.966996e+01	-1.252901e+03
5.500000e-07	-2.637984e-06	-1.880213e-08	-1.904091e+01	-1.235896e+03
5.600000e-07	-2.549861e-06	-1.853047e-08	-1.840484e+01	-1.218221e+03
5.700000e-07	-2.460701e-06	-1.825136e-08	-1.776128e+01	-1.199840e+03
5.800000e-07	-2.370444e-06	-1.795593e-08	-1.710981e+01	-1.180717e+03
5.900000e-07	-2.279129e-06	-1.764671e-08	-1.645070e+01	-1.160818e+03
6.000000e-07	-2.187009e-06	-1.732825e-08	-1.578578e+01	-1.140103e+03
6.100000e-07	-2.094198e-06	-1.700304e-08	-1.511587e+01	-1.118528e+03
6.200000e-07	-2.000642e-06	-1.666494e-08	-1.444059e+01	-1.096041e+03
6.300000e-07	-1.906376e-06	-1.630455e-08	-1.376018e+01	-1.072578e+03
6.400000e-07	-1.811492e-06	-1.592452e-08	-1.307531e+01	-1.048071e+03
6.500000e-07	-1.715964e-06	-1.552910e-08	-1.238579e+01	-1.022442e+03
6.600000e-07	-1.619829e-06	-1.511809e-08	-1.169189e+01	-9.956060e+02
6.700000e-07	-1.523150e-06	-1.469073e-08	-1.099406e+01	-9.674777e+02
6.800000e-07	-1.425872e-06	-1.424576e-08	-1.029192e+01	-9.379696e+02
6.900000e-07	-1.327984e-06	-1.377567e-08	-9.585359e+00	-9.069943e+02
7.000000e-07	-1.229475e-06	-1.327766e-08	-8.874322e+00	-8.744664e+02
7.100000e-07	-1.130385e-06	-1.275046e-08	-8.159090e+00	-8.403038e+02
7.200000e-07	-1.030943e-06	-1.220021e-08	-7.441324e+00	-8.044304e+02
7.300000e-07	-9.312409e-07	-1.163002e-08	-6.721676e+00	-7.667814e+02
7.400000e-07	-8.312574e-07	-1.103342e-08	-5.999997e+00	-7.273098e+02
7.500000e-07	-7.310588e-07	-1.040481e-08	-5.276766e+00	-6.859958e+02
7.600000e-07	-6.306727e-07	-9.745063e-09	-4.552182e+00	-6.428560e+02
7.700000e-07	-5.301514e-07	-9.058796e-09	-3.826621e+00	-5.979522e+02
7.800000e-07	-4.295535e-07	-8.349224e-09	-3.100508e+00	-5.513970e+02
7.900000e-07	-3.288407e-07	-7.618940e-09	-2.373565e+00	-5.033533e+02
8.000000e-07	-2.279345e-07	-6.870163e-09	-1.645226e+00	-4.540276e+02
8.100000e-07	-1.269028e-07	-6.105566e-09	-9.159817e-01	-4.036555e+02
8.200000e-07	-2.582939e-08	-5.325427e-09	-1.864360e-01	-3.524803e+02
8.300000e-07	7.529881e-08	-4.534021e-09	5.435051e-01	-3.007283e+02
8.400000e-07	1.764657e-07	-3.736451e-09	1.273726e+00	-2.485826e+02
8.500000e-07	2.775658e-07	-2.938828e-09	2.003464e+00	-1.961613e+02
8.600000e-07	3.785063e-07	-2.139836e-09	2.732050e+00	-1.435030e+02
8.700000e-07	4.793330e-07	-1.333793e-09	3.459815e+00	-9.056413e+01
8.800000e-07	5.800722e-07	-5.202881e-10	4.186948e+00	-3.722869e+01
8.900000e-07	6.806789e-07	3.031594e-10	4.913125e+00	1.666872e+01
9.000000e-07	7.811048e-07	1.136928e-09	5.637997e+00	7.131019e+01
9.100000e-07	8.813160e-07	1.982628e-09	6.361319e+00	1.268557e+02
9.200000e-07	9.813242e-07	2.842913e-09	7.083176e+00	1.834042e+02
9.300000e-07	1.081083e-06	3.718903e-09	7.803230e+00	2.409606e+02
9.400000e-07	1.180442e-06	4.608290e-09	8.520406e+00	2.994134e+02
9.500000e-07	1.279300e-06	5.506695e-09	9.233960e+00	3.585276e+02
9.600000e-07	1.377572e-06	6.410169e-09	9.943282e+00	4.179534e+02
9.700000e-07	1.475154e-06	7.313481e-09	1.064763e+01	4.772498e+02
9.800000e-07	1.572019e-06	8.207118e-09	1.134680e+01	5.359209e+02
9.900000e-07	1.668229e-06	9.081433e-09	1.204124e+01	5.934572e+02
1.000000e-06	1.763788e-06	9.929628e-09	1.273099e+01	6.493793e+02
1.010000e-06	1.858720e-06	1.074754e-08	1.341620e+01	7.032749e+02
1.020000e-06	1.953042e-06	1.153022e-08	1.409701e+01	7.548267e+02
1.030000e-06	2.046713e-06	1.227229e-08	1.477313e+01	8.038268e+02
1.040000e-06	2.139669e-06	1.297408e-08	1.544408e+01	8.501778e+02
1.050000e-06	2.231946e-06	1.363495e-08	1.611014e+01	8.938815e+02
1.060000e-06	2.323621e-06	1.425726e-08	1.677184e+01	9.350185e+02
1.070000e-06	2.414476e-06	1.484408e-08	1.742763e+01	9.737234e+02
1.080000e-06	2.504223e-06	1.539814e-08	1.807543e+01	1.010159e+03
1.090000e-06	2.592870e-06	1.592098e-08	1.871528e+01	1.044493e+03
1.100000e-06	2.680593e-06	1.641306e-08	1.934846e+01	1.076886e+03
1.110000e-06	2.767463e-06	1.687717e-08	1.997549e+01	1.107478e+03
1.120000e-06	2.853428e-06	1.731536e-08	2.059598e+01	1.136387e+03
1.130000e-06	2.938406e-06	1.772912e-08	2.120935e+01	1.163717e+03
1.140000e-06	3.022499e-06	1.812053e-08	2.181633e+01	1.189558e+03
1.150000e-06	3.105757e-06	1.849294e-08	2.241728e+01	1.213997e+03
1.160000e-06	3.187873e-06	1.884700e-08	2.300999e+01	1.237118e+03
1.170000e-06	3.268702e-06	1.918217e-08	2.359342e+01	1.259011e+03
1.180000e-06	3.348336e-06	1.949930e-08	2.416822e+01	1.279763e+03
1.190000e-06	3.426792e-06	1.979914e-08	2.473451e+01	1.299461e+03
1.200000e-06	3.504080e-06	2.008165e-08	2.529237e+01	1.318187e+03
1.210000e-06	3.580190e-06	2.034849e-08	2.584173e+01	1.336011e+03
1.220000e-06	3.654900e-06	2.060447e-08	2.638099e+01	1.352992e+03
1.230000e-06	3.727976e-06	2.085076e-08	2.690845e+01	1.369177e+03
1.240000e-06	3.799562e-06	2.108488e-08	2.742515e+01	1.384601e+03
1.250000e-06	3.869782e-06	2.130721e-08	2.793200e+01	1.399296e+03
1.260000e-06	3.938686e-06	2.151785e-08	2.842935e+01	1.413288e+03
1.270000e-06	4.006318e-06	2.171766e-08	2.891751e+01	1.426607e+03
1.280000e-06	4.072464e-06	2.190833e-08	2.939496e+01	1.439285e+03
1.290000e-06	4.136948e-06	2.209075e-08	2.986040e+01	1.451355e+03
1.300000e-06	4.199889e-06	2.226569e-08	3.031471e+01	1.462854e+03
1.310000e-06	4.261460e-06	2.243230e-08	3.075912e+01	1.473814e+03
1.320000e-06	4.321737e-06	2.259094e-08	3.119420e+01	1.484263e+03
1.330000e-06	4.380588e-06	2.274144e-08	3.161899e+01	1.494221e+03
1.340000e-06	4.437676e-06	2.288376e-08	3.203104e+01	1.503701e+03
1.350000e-06	4.493051e-06	2.302118e-08	3.243074e+01	1.512707e+03
1.360000e-06	4.546805e-06	2.315401e-08	3.281874e+01	1.521244e+03
1.370000e-06	4.598801e-06	2.327888e-08	3.319404e+01	1.529314e+03
1.380000e-06	4.648861e-06	2.339399e-08	3.355537e+01	1.536926e+03
1.390000e-06	4.696956e-06	2.350071e-08	3.390253e+01	1.544097e+03
1.400000e-06	4.743319e-06	2.360002e-08	3.423717e+01	1.550851e+03
1.410000e-06	4.788182e-06	2.369426e-08	3.456099e+01	1.557219e+03
1.420000e-06	4.831523e-06	2.378475e-08	3.487383e+01	1.563235e+03
1.430000e-06	4.872994e-06	2.387068e-08	3.517316e+01	1.568933e+03
1.440000e-06	4.912646e-06	2.395231e-08	3.545937e+01	1.574341e+03
1.450000e-06	4.950696e-06	2.402966e-08	3.573401e+01	1.579475e+03
1.460000e-06	4.987163e-06	2.410370e-08	3.599723e+01	1.584343e+03
1.470000e-06	5.021908e-06	2.417373e-08	3.624802e+01	1.588942e+03
1.480000e-06	5.054713e-06	2.423880e-08	3.648480e+01	1.593261e+03
1.490000e-06	5.085688e-06	2.429960e-08	3.670838e+01	1.597287e+03
1.500000e-06	5.115048e-06	2.435622e-08	3.692030e+01	1.601007e+03
1.510000e-06	5.142772e-06	2.440843e-08	3.712041e+01	1.604414e+03
1.520000e-06	5.168533e-06	2.445626e-08	3.730636e+01	1.607509e+03
1.530000e-06	5.192229e-06	2.450040e-08	3.747740e+01	1.610297e+03
1.540000e-06	5.214082e-06	2.453968e-08	3.763513e+01	1.612793e+03
1.550000e-06	5.234212e-06	2.457242e-08	3.778043e+01	1.615012e+03
1.560000e-06	5.252513e-06	2.459833e-08	3.791252e+01	1.616971e+03
1.570000e-06	5.268856e-06	2.462012e-08	3.803049e+01	1.618684e+03
1.580000e-06	5.283267e-06	2.464139e-08	3.813450e+01	1.620161e+03
1.590000e-06	5.295712e-06	2.466229e-08	3.822433e+01	1.621407e+03
1.600000e-06	5.306023e-06	2.468181e-08	3.829875e+01	1.622426e+03
1.610000e-06	5.314206e-06	2.469567e-08	3.835782e+01	1.623219e+03
1.620000e-06	5.320457e-06	2.470456e-08	3.840294e+01	1.623789e+03
1.630000e-06	5.324940e-06	2.471073e-08	3.843530e+01	1.624140e+03
1.640000e-06	5.327626e-06	2.471269e-08	3.845469e+01	1.624278e+03
1.650000e-06	5.328362e-06	2.471242e-08	3.846000e+01	1.624209e+03
1.660000e-06	5.327264e-06	2.470559e-08	3.845207e+01	1.623938e+03
1.670000e-06	5.324486e-06	2.469402e-08	3.843202e+01	1.623466e+03
1.680000e-06	5.320062e-06	2.468674e-08	3.840009e+01	1.622791e+03
1.690000e-06	5.313811e-06	2.467705e-08	3.835497e+01	1.621907e+03
1.700000e-06	5.305737e-06	2.466282e-08	3.829669e+01	1.620805e+03
1.710000e-06	5.296055e-06	2.464610e-08	3.822681e+01	1.619478e+03
1.720000e-06	5.284716e-06	2.462865e-08	3.814496e+01	1.617924e+03
1.730000e-06	5.271509e-06	2.460831e-08	3.804963e+01	1.616147e+03
1.740000e-06	5.256260e-06	2.451481e-08	3.793957e+01	1.614164e+03
1.750000e-06	5.238802e-06	2.444790e-08	3.781356e+01	1.611995e+03
1.760000e-06	5.218824e-06	2.446081e-08	3.766936e+01	1.609671e+03
1.770000e-06	5.196392e-06	2.445641e-08	3.750744e+01	1.607222e+03
1.780000e-06	5.172350e-06	2.450818e-08	3.733391e+01	1.604673e+03
1.790000e-06	5.147552e-06	2.440162e-08	3.715492e+01	1.602038e+03
1.800000e-06	5.121705e-06	2.423882e-08	3.696835e+01	1.599318e+03
1.810000e-06	5.093908e-06	2.434192e-08	3.676771e+01	1.596499e+03
1.820000e-06	5.064146e-06	2.424302e-08	3.655289e+01	1.593550e+03
1.830000e-06	5.032653e-06	2.414697e-08	3.632558e+01	1.590433e+03
1.840000e-06	4.999279e-06	2.429920e-08	3.608468e+01	1.587104e+03
1.850000e-06	4.964206e-06	2.413438e-08	3.583153e+01	1.583523e+03
1.860000e-06	4.927427e-06	2.400909e-08	3.556606e+01	1.579656e+03
1.870000e-06	4.888712e-06	2.408306e-08	3.528661e+01	1.575483e+03
1.880000e-06	4.848316e-06	2.393214e-08	3.499504e+01	1.570995e+03
1.890000e-06	4.806249e-06	2.389215e-08	3.469140e+01	1.566193e+03
1.900000e-06	4.762431e-06	2.382898e-08	3.437512e+01	1.561088e+03
1.910000e-06	4.716924e-06	2.371336e-08	3.404665e+01	1.555689e+03
1.920000e-06	4.669516e-06	2.378099e-08	3.370446e+01	1.550005e+03
1.930000e-06	4.620394e-06	2.359369e-08	3.334990e+01	1.544039e+03
1.940000e-06	4.569623e-06	2.343930e-08	3.298344e+01	1.537789e+03
1.950000e-06	4.516856e-06	2.340376e-08	3.260257e+01	1.531246e+03
1.960000e-06	4.462164e-06	2.326954e-08	3.220780e+01	1.524399e+03
1.970000e-06	4.405735e-06	2.319299e-08	3.180049e+01	1.517238e+03
1.980000e-06	4.347735e-06	2.303286e-08	3.138185e+01	1.509760e+03
1.990000e-06	4.288324e-06	2.296536e-08	3.095303e+01	1.501962e+03
2.000000e-06	4.227480e-06	2.289086e-08	3.051385e+01	1.493852e+03
2.010000e-06	4.164992e-06	2.266276e-08	3.006282e+01	1.485438e+03
2.020000e-06	4.100765e-06	2.254761e-08	2.959923e+01	1.476727e+03
2.030000e-06	4.035105e-06	2.241808e-08	2.912530e+01	1.467726e+03
2.040000e-06	3.968154e-06	2.231387e-08	2.864205e+01	1.458430e+03
2.050000e-06	3.899819e-06	2.216138e-08	2.814881e+01	1.448828e+03
2.060000e-06	3.829983e-06	2.196457e-08	2.764473e+01	1.438901e+03
2.070000e-06	3.758637e-06	2.185543e-08	2.712976e+01	1.428621e+03
2.080000e-06	3.686000e-06	2.166616e-08	2.660546e+01	1.417960e+03
2.090000e-06	3.612097e-06	2.149510e-08	2.607204e+01	1.406889e+03
2.100000e-06	3.536876e-06	2.132575e-08	2.552909e+01	1.395385e+03
2.110000e-06	3.460247e-06	2.115430e-08	2.497599e+01	1.383429e+03
2.120000e-06	3.382082e-06	2.097933e-08	2.441179e+01	1.371012e+03
2.130000e-06	3.302552e-06	2.074940e-08	2.383774e+01	1.358126e+03
2.140000e-06	3.221872e-06	2.055601e-08	2.325540e+01	1.344766e+03
2.150000e-06	3.140127e-06	2.034648e-08	2.266537e+01	1.330924e+03
2.160000e-06	3.057338e-06	2.013983e-08	2.206779e+01	1.316588e+03
2.170000e-06	2.973538e-06	1.991471e-08	2.146293e+01	1.301738e+03
2.180000e-06	2.888732e-06	1.967111e-08	2.085080e+01	1.286347e+03
2.190000e-06	2.802792e-06	1.943529e-08	2.023049e+01	1.270385e+03
2.200000e-06	2.715637e-06	1.917773e-08	1.960140e+01	1.253813e+03
2.210000e-06	2.627434e-06	1.891577e-08	1.896476e+01	1.236596e+03
2.220000e-06	2.538347e-06	1.863605e-08	1.832173e+01	1.218697e+03
2.230000e-06	2.448372e-06	1.835998e-08	1.767229e+01	1.200080e+03
2.240000e-06	2.357609e-06	1.807269e-08	1.701717e+01	1.180711e+03
2.250000e-06	2.266151e-06	1.776810e-08	1.635703e+01	1.160553e+03
2.260000e-06	2.173984e-06	1.744423e-08	1.569177e+01	1.139565e+03
2.270000e-06	2.081040e-06	1.710480e-08	1.502090e+01	1.117702e+03
2.280000e-06	1.987117e-06	1.676111e-08	1.434297e+01	1.094907e+03
2.290000e-06	1.892249e-06	1.640028e-08	1.365821e+01	1.071116e+03
2.300000e-06	1.796679e-06	1.602471e-08	1.296839e+01	1.046256e+03
2.310000e-06	1.700537e-06	1.563122e-08	1.227444e+01	1.020247e+03
2.320000e-06	1.603947e-06	1.521782e-08	1.157725e+01	9.930044e+02
2.330000e-06	1.506888e-06	1.477668e-08	1.087668e+01	9.644412e+02
2.340000e-06	1.409297e-06	1.431284e-08	1.017228e+01	9.344698e+02
2.350000e-06	1.311251e-06	1.383516e-08	9.464578e+00	9.030037e+02
2.360000e-06	1.212836e-06	1.334030e-08	8.754224e+00	8.699580e+02
2.370000e-06	1.114085e-06	1.281613e-08	8.041444e+00	8.352523e+02
2.380000e-06	1.014988e-06	1.225802e-08	7.326163e+00	7.988135e+02
2.390000e-06	9.155774e-07	1.167180e-08	6.608617e+00	7.605816e+02
2.400000e-06	8.158969e-07	1.105848e-08	5.889126e+00	7.205174e+02
2.410000e-06	7.160202e-07	1.041772e-08	5.168218e+00	6.786116e+02
2.420000e-06	6.159507e-07	9.748337e-09	4.445918e+00	6.348947e+02
2.430000e-06	5.156763e-07	9.055533e-09	3.722140e+00	5.894443e+02
2.440000e-06	4.152298e-07	8.340925e-09	2.997120e+00	5.423895e+02
2.450000e-06	3.145727e-07	7.601616e-09	2.270578e+00	4.939085e+02
2.460000e-06	2.138030e-07	6.839279e-09	1.543225e+00	4.442188e+02
2.470000e-06	1.130215e-07	6.064600e-09	8.157867e-01	3.935612e+02
2.480000e-06	1.223875e-08	5.283431e-09	8.833900e-02	3.421764e+02
2.490000e-06	-8.855369e-08	4.491606e-09	-6.391785e-01	2.902796e+02
2.500000e-06	-1.893749e-07	3.692998e-09	-1.366904e+00	2.380351e+02
2.510000e-06	-2.901556e-07	2.891607e-09	-2.094337e+00	1.855364e+02
2.520000e-06	-3.908501e-07	2.086316e-09	-2.821147e+00	1.327954e+02
2.530000e-06	-4.914285e-07	1.274336e-09	-3.547120e+00	7.974357e+01
2.540000e-06	-5.918575e-07	4.577694e-10	-4.272014e+00	2.624603e+01
2.550000e-06	-6.920994e-07	-3.659233e-10	-4.995558e+00	-2.787199e+01
2.560000e-06	-7.921370e-07	-1.203154e-09	-5.717627e+00	-8.278981e+01
2.570000e-06	-8.919066e-07	-2.057424e-09	-6.437762e+00	-1.386519e+02
2.580000e-06	-9.913095e-07	-2.928685e-09	-7.155249e+00	-1.955302e+02
2.590000e-06	-1.090360e-06	-3.813226e-09	-7.870195e+00	-2.533938e+02
2.600000e-06	-1.189107e-06	-4.710237e-09	-8.582949e+00	-3.120917e+02
2.610000e-06	-1.287494e-06	-5.615343e-09	-9.293106e+00	-3.713503e+02
2.620000e-06	-1.385420e-06	-6.523574e-09	-9.999928e+00	-4.307871e+02
2.630000e-06	-1.482768e-06	-7.429265e-09	-1.070258e+01	-4.899392e+02
2.640000e-06	-1.579520e-06	-8.324019e-09	-1.140094e+01	-5.483015e+02
2.650000e-06	-1.675803e-06	-9.201164e-09	-1.209591e+01	-6.053697e+02
2.660000e-06	-1.771684e-06	-1.005199e-08	-1.278797e+01	-6.606823e+02
2.670000e-06	-1.867019e-06	-1.086725e-08	-1.347610e+01	-7.138552e+02
2.680000e-06	-1.961500e-06	-1.164100e-08	-1.415806e+01	-7.646051e+02
2.690000e-06	-2.054969e-06	-1.237513e-08	-1.483272e+01	-8.127603e+02
2.700000e-06	-2.147562e-06	-1.307424e-08	-1.550106e+01	-8.582569e+02
2.710000e-06	-2.239389e-06	-1.373616e-08	-1.616386e+01	-9.011247e+02
2.720000e-06	-2.330490e-06	-1.435957e-08	-1.682143e+01	-9.414646e+02
2.730000e-06	-2.420828e-06	-1.494600e-08	-1.747348e+01	-9.794226e+02
2.740000e-06	-2.510232e-06	-1.549683e-08	-1.811880e+01	-1.015166e+03
2.750000e-06	-2.598765e-06	-1.601413e-08	-1.875783e+01	-1.048861e+03
2.760000e-06	-2.686571e-06	-1.649970e-08	-1.939161e+01	-1.080661e+03
2.770000e-06	-2.773482e-06	-1.695835e-08	-2.001893e+01	-1.110701e+03
2.780000e-06	-2.859231e-06	-1.739181e-08	-2.063786e+01	-1.139093e+03
2.790000e-06	-2.943807e-06	-1.780012e-08	-2.124833e+01	-1.165936e+03
2.800000e-06	-3.027366e-06	-1.818834e-08	-2.185146e+01	-1.191318e+03
2.810000e-06	-3.109965e-06	-1.855763e-08	-2.244765e+01	-1.215325e+03
2.820000e-06	-3.191530e-06	-1.890663e-08	-2.303639e+01	-1.238043e+03
2.830000e-06	-3.272091e-06	-1.923553e-08	-2.361788e+01	-1.259560e+03
2.840000e-06	-3.351644e-06	-1.954734e-08	-2.419209e+01	-1.279965e+03
2.850000e-06	-3.429897e-06	-1.984527e-08	-2.475692e+01	-1.299344e+03
2.860000e-06	-3.506653e-06	-2.012948e-08	-2.531094e+01	-1.317774e+03
2.870000e-06	-3.581963e-06	-2.039900e-08	-2.585453e+01	-1.335322e+03
2.880000e-06	-3.655882e-06	-2.065378e-08	-2.638807e+01	-1.352044e+03
2.890000e-06	-3.728530e-06	-2.089777e-08	-2.691245e+01	-1.367981e+03
2.900000e-06	-3.799902e-06	-2.113293e-08	-2.742760e+01	-1.383169e+03
2.910000e-06	-3.869729e-06	-2.135786e-08	-2.793162e+01	-1.397636e+03
2.920000e-06	-3.937955e-06	-2.157153e-08	-2.842407e+01	-1.411410e+03
2.930000e-06	-4.004778e-06	-2.177425e-08	-2.890639e+01	-1.424520e+03
2.940000e-06	-4.070301e-06	-2.196555e-08	-2.937934e+01	-1.437000e+03
