# Temperatura_=_72.74
# Concentracion g/m^3_=_28200.0
# C_Vs_to_Am_M_A/Vsm_=_65563218390.804596
# pendiente_HvsI_1/m_=_3716.3
# ordenada_HvsI_A/m_=_1297.0
# frecuencia_Hz_=_301761.3203554033

Tiempo_(s)	Campo_(V.s)	Magnetizacion_(V.s)	Campo_(kA/m)	Magnetizacion_(A/m)
0.000000e+00	-5.340138e-06	-2.445308e-08	-3.829762e+01	-1.600241e+03
1.000000e-08	-5.337846e-06	-2.445066e-08	-3.828118e+01	-1.599858e+03
2.000000e-08	-5.333714e-06	-2.443912e-08	-3.825155e+01	-1.599275e+03
3.000000e-08	-5.327951e-06	-2.442547e-08	-3.821021e+01	-1.598485e+03
4.000000e-08	-5.320603e-06	-2.441015e-08	-3.815752e+01	-1.597477e+03
5.000000e-08	-5.311543e-06	-2.438911e-08	-3.809254e+01	-1.596242e+03
6.000000e-08	-5.300505e-06	-2.436355e-08	-3.801339e+01	-1.594774e+03
7.000000e-08	-5.287530e-06	-2.432355e-08	-3.792033e+01	-1.593074e+03
8.000000e-08	-5.272535e-06	-2.431583e-08	-3.781279e+01	-1.591155e+03
9.000000e-08	-5.255273e-06	-2.436578e-08	-3.768900e+01	-1.589037e+03
1.000000e-07	-5.235876e-06	-2.432266e-08	-3.754989e+01	-1.586751e+03
1.100000e-07	-5.214576e-06	-2.423119e-08	-3.739713e+01	-1.584326e+03
1.200000e-07	-5.191576e-06	-2.416899e-08	-3.723218e+01	-1.581792e+03
1.300000e-07	-5.167017e-06	-2.400891e-08	-3.705605e+01	-1.579166e+03
1.400000e-07	-5.140829e-06	-2.404136e-08	-3.686824e+01	-1.576453e+03
1.500000e-07	-5.113007e-06	-2.414916e-08	-3.666871e+01	-1.573643e+03
1.600000e-07	-5.083729e-06	-2.393726e-08	-3.645874e+01	-1.570711e+03
1.700000e-07	-5.053043e-06	-2.397627e-08	-3.623867e+01	-1.567619e+03
1.800000e-07	-5.020419e-06	-2.399608e-08	-3.600471e+01	-1.564327e+03
1.900000e-07	-4.985710e-06	-2.371667e-08	-3.575579e+01	-1.560796e+03
2.000000e-07	-4.949486e-06	-2.378011e-08	-3.549600e+01	-1.556995e+03
2.100000e-07	-4.911670e-06	-2.376945e-08	-3.522479e+01	-1.552902e+03
2.200000e-07	-4.872043e-06	-2.355819e-08	-3.494061e+01	-1.548508e+03
2.300000e-07	-4.830565e-06	-2.353978e-08	-3.464313e+01	-1.543817e+03
2.400000e-07	-4.787111e-06	-2.344482e-08	-3.433150e+01	-1.538834e+03
2.500000e-07	-4.741799e-06	-2.336757e-08	-3.400654e+01	-1.533572e+03
2.600000e-07	-4.694722e-06	-2.335925e-08	-3.366892e+01	-1.528036e+03
2.700000e-07	-4.645712e-06	-2.319735e-08	-3.331743e+01	-1.522229e+03
2.800000e-07	-4.594586e-06	-2.307774e-08	-3.295078e+01	-1.516144e+03
2.900000e-07	-4.541520e-06	-2.300236e-08	-3.257021e+01	-1.509771e+03
3.000000e-07	-4.486836e-06	-2.289609e-08	-3.217803e+01	-1.503098e+03
3.100000e-07	-4.430511e-06	-2.278729e-08	-3.177409e+01	-1.496114e+03
3.200000e-07	-4.372357e-06	-2.270456e-08	-3.135703e+01	-1.488811e+03
3.300000e-07	-4.312570e-06	-2.260422e-08	-3.092825e+01	-1.481190e+03
3.400000e-07	-4.251337e-06	-2.243313e-08	-3.048912e+01	-1.473255e+03
3.500000e-07	-4.188651e-06	-2.230609e-08	-3.003955e+01	-1.465017e+03
3.600000e-07	-4.124542e-06	-2.218932e-08	-2.957979e+01	-1.456485e+03
3.700000e-07	-4.058892e-06	-2.207170e-08	-2.910897e+01	-1.447666e+03
3.800000e-07	-3.991646e-06	-2.195007e-08	-2.862670e+01	-1.438557e+03
3.900000e-07	-3.922977e-06	-2.176223e-08	-2.813423e+01	-1.429151e+03
4.000000e-07	-3.853020e-06	-2.160793e-08	-2.763253e+01	-1.419429e+03
4.100000e-07	-3.781846e-06	-2.147366e-08	-2.712209e+01	-1.409367e+03
4.200000e-07	-3.709440e-06	-2.131303e-08	-2.660282e+01	-1.398937e+03
4.300000e-07	-3.635497e-06	-2.114682e-08	-2.607252e+01	-1.388111e+03
4.400000e-07	-3.559915e-06	-2.097777e-08	-2.553048e+01	-1.376868e+03
4.500000e-07	-3.482930e-06	-2.079888e-08	-2.497837e+01	-1.365188e+03
4.600000e-07	-3.404626e-06	-2.060179e-08	-2.441680e+01	-1.353062e+03
4.700000e-07	-3.324968e-06	-2.041498e-08	-2.384552e+01	-1.340480e+03
4.800000e-07	-3.244014e-06	-2.022348e-08	-2.326495e+01	-1.327435e+03
4.900000e-07	-3.161876e-06	-2.001300e-08	-2.267588e+01	-1.313919e+03
5.000000e-07	-3.078710e-06	-1.979551e-08	-2.207944e+01	-1.299917e+03
5.100000e-07	-2.994669e-06	-1.956825e-08	-2.147673e+01	-1.285407e+03
5.200000e-07	-2.909755e-06	-1.933876e-08	-2.086775e+01	-1.270364e+03
5.300000e-07	-2.823844e-06	-1.910164e-08	-2.025163e+01	-1.254753e+03
5.400000e-07	-2.736969e-06	-1.885233e-08	-1.962859e+01	-1.238541e+03
5.500000e-07	-2.649222e-06	-1.859343e-08	-1.899930e+01	-1.221690e+03
5.600000e-07	-2.560448e-06	-1.832107e-08	-1.836265e+01	-1.204166e+03
5.700000e-07	-2.470452e-06	-1.804460e-08	-1.771722e+01	-1.185935e+03
5.800000e-07	-2.379332e-06	-1.776036e-08	-1.706375e+01	-1.166965e+03
5.900000e-07	-2.287388e-06	-1.746074e-08	-1.640435e+01	-1.147222e+03
6.000000e-07	-2.194721e-06	-1.714292e-08	-1.573978e+01	-1.126667e+03
6.100000e-07	-2.101282e-06	-1.681358e-08	-1.506967e+01	-1.105257e+03
6.200000e-07	-2.007099e-06	-1.647387e-08	-1.439422e+01	-1.082938e+03
6.300000e-07	-1.912248e-06	-1.611771e-08	-1.371398e+01	-1.059648e+03
6.400000e-07	-1.816799e-06	-1.574819e-08	-1.302945e+01	-1.035316e+03
6.500000e-07	-1.720753e-06	-1.536004e-08	-1.234064e+01	-1.009864e+03
6.600000e-07	-1.624005e-06	-1.494919e-08	-1.164680e+01	-9.832095e+02
6.700000e-07	-1.526462e-06	-1.451943e-08	-1.094726e+01	-9.552658e+02
6.800000e-07	-1.428221e-06	-1.407331e-08	-1.024270e+01	-9.259461e+02
6.900000e-07	-1.329433e-06	-1.360714e-08	-9.534232e+00	-8.951633e+02
7.000000e-07	-1.230179e-06	-1.311615e-08	-8.822418e+00	-8.628314e+02
7.100000e-07	-1.130562e-06	-1.259670e-08	-8.107999e+00	-8.288678e+02
7.200000e-07	-1.030694e-06	-1.205079e-08	-7.391782e+00	-7.931961e+02
7.300000e-07	-9.305658e-07	-1.148106e-08	-6.673695e+00	-7.557515e+02
7.400000e-07	-8.301037e-07	-1.088337e-08	-5.953216e+00	-7.164887e+02
7.500000e-07	-7.293608e-07	-1.025881e-08	-5.230723e+00	-6.753907e+02
7.600000e-07	-6.284517e-07	-9.606487e-09	-4.507038e+00	-6.324786e+02
7.700000e-07	-5.273553e-07	-8.925101e-09	-3.782009e+00	-5.878198e+02
7.800000e-07	-4.260411e-07	-8.219312e-09	-3.055419e+00	-5.415327e+02
7.900000e-07	-3.245304e-07	-7.491667e-09	-2.327419e+00	-4.937854e+02
8.000000e-07	-2.228706e-07	-6.745704e-09	-1.598350e+00	-4.447876e+02
8.100000e-07	-1.211795e-07	-5.985317e-09	-8.690574e-01	-3.947749e+02
8.200000e-07	-1.942049e-08	-5.212464e-09	-1.392770e-01	-3.439879e+02
8.300000e-07	8.236825e-08	-4.430428e-09	5.907166e-01	-2.926461e+02
8.400000e-07	1.841269e-07	-3.641958e-09	1.320494e+00	-2.409236e+02
8.500000e-07	2.858748e-07	-2.851375e-09	2.050195e+00	-1.889276e+02
8.600000e-07	3.875384e-07	-2.058326e-09	2.779291e+00	-1.366859e+02
8.700000e-07	4.890699e-07	-1.256653e-09	3.507439e+00	-8.414574e+01
8.800000e-07	5.904642e-07	-4.466667e-10	4.234604e+00	-3.118516e+01
8.900000e-07	6.916747e-07	3.719360e-10	4.960451e+00	2.236301e+01
9.000000e-07	7.926789e-07	1.199057e-09	5.684818e+00	7.667773e+01
9.100000e-07	8.934304e-07	2.037326e-09	6.407373e+00	1.319111e+02
9.200000e-07	9.938791e-07	2.891289e-09	7.127756e+00	1.881499e+02
9.300000e-07	1.094021e-06	3.762134e-09	7.845941e+00	2.453841e+02
9.400000e-07	1.193808e-06	4.649018e-09	8.561576e+00	3.034859e+02
9.500000e-07	1.293252e-06	5.544515e-09	9.274752e+00	3.622040e+02
9.600000e-07	1.392301e-06	6.441200e-09	9.985099e+00	4.211747e+02
9.700000e-07	1.490786e-06	7.334272e-09	1.069140e+01	4.799467e+02
9.800000e-07	1.588503e-06	8.218741e-09	1.139219e+01	5.380183e+02
9.900000e-07	1.685403e-06	9.084401e-09	1.208712e+01	5.948802e+02
1.000000e-06	1.781556e-06	9.921777e-09	1.277670e+01	6.500584e+02
1.010000e-06	1.877027e-06	1.072747e-08	1.346139e+01	7.031516e+02
1.020000e-06	1.971869e-06	1.149655e-08	1.414156e+01	7.538575e+02
1.030000e-06	2.065983e-06	1.222546e-08	1.481651e+01	8.019859e+02
1.040000e-06	2.159383e-06	1.291387e-08	1.548635e+01	8.474580e+02
1.050000e-06	2.252128e-06	1.356188e-08	1.615148e+01	8.902934e+02
1.060000e-06	2.344204e-06	1.417026e-08	1.681182e+01	9.305878e+02
1.070000e-06	2.435578e-06	1.474318e-08	1.746712e+01	9.684870e+02
1.080000e-06	2.526028e-06	1.528492e-08	1.811580e+01	1.004161e+03
1.090000e-06	2.615377e-06	1.579905e-08	1.875658e+01	1.037781e+03
1.100000e-06	2.703583e-06	1.628293e-08	1.938916e+01	1.069505e+03
1.110000e-06	2.790834e-06	1.673692e-08	2.001490e+01	1.099471e+03
1.120000e-06	2.877246e-06	1.716498e-08	2.063461e+01	1.127795e+03
1.130000e-06	2.962652e-06	1.757038e-08	2.124711e+01	1.154575e+03
1.140000e-06	3.047119e-06	1.795483e-08	2.185288e+01	1.179899e+03
1.150000e-06	3.130750e-06	1.831829e-08	2.245265e+01	1.203853e+03
1.160000e-06	3.213354e-06	1.866329e-08	2.304506e+01	1.226524e+03
1.170000e-06	3.294721e-06	1.899151e-08	2.362860e+01	1.247998e+03
1.180000e-06	3.374836e-06	1.930414e-08	2.420315e+01	1.268366e+03
1.190000e-06	3.453754e-06	1.960072e-08	2.476912e+01	1.287712e+03
1.200000e-06	3.531456e-06	1.987944e-08	2.532638e+01	1.306115e+03
1.210000e-06	3.607921e-06	2.014133e-08	2.587476e+01	1.323641e+03
1.220000e-06	3.683057e-06	2.039161e-08	2.641361e+01	1.340340e+03
1.230000e-06	3.756628e-06	2.063178e-08	2.694123e+01	1.356253e+03
1.240000e-06	3.828629e-06	2.086147e-08	2.745760e+01	1.371412e+03
1.250000e-06	3.899226e-06	2.108049e-08	2.796390e+01	1.385842e+03
1.260000e-06	3.968453e-06	2.128843e-08	2.846037e+01	1.399571e+03
1.270000e-06	4.036389e-06	2.148446e-08	2.894758e+01	1.412631e+03
1.280000e-06	4.102862e-06	2.166998e-08	2.942430e+01	1.425058e+03
1.290000e-06	4.167669e-06	2.184767e-08	2.988908e+01	1.436893e+03
1.300000e-06	4.230929e-06	2.202016e-08	3.034276e+01	1.448176e+03
1.310000e-06	4.292747e-06	2.218582e-08	3.078609e+01	1.458944e+03
1.320000e-06	4.353204e-06	2.234340e-08	3.121967e+01	1.469224e+03
1.330000e-06	4.412274e-06	2.249163e-08	3.164330e+01	1.479033e+03
1.340000e-06	4.469679e-06	2.263132e-08	3.205499e+01	1.488378e+03
1.350000e-06	4.525307e-06	2.276604e-08	3.245393e+01	1.497257e+03
1.360000e-06	4.579294e-06	2.289431e-08	3.284111e+01	1.505666e+03
1.370000e-06	4.631561e-06	2.301582e-08	3.321595e+01	1.513603e+03
1.380000e-06	4.681840e-06	2.312953e-08	3.357653e+01	1.521074e+03
1.390000e-06	4.730157e-06	2.323363e-08	3.392305e+01	1.528098e+03
1.400000e-06	4.776750e-06	2.333076e-08	3.425720e+01	1.534702e+03
1.410000e-06	4.821776e-06	2.342384e-08	3.458011e+01	1.540926e+03
1.420000e-06	4.865242e-06	2.351409e-08	3.489182e+01	1.546812e+03
1.430000e-06	4.906853e-06	2.360006e-08	3.519025e+01	1.552398e+03
1.440000e-06	4.946620e-06	2.368054e-08	3.547544e+01	1.557717e+03
1.450000e-06	4.984775e-06	2.375754e-08	3.574908e+01	1.562786e+03
1.460000e-06	5.021347e-06	2.383106e-08	3.601136e+01	1.567608e+03
1.470000e-06	5.056181e-06	2.390010e-08	3.626118e+01	1.572175e+03
1.480000e-06	5.089091e-06	2.396378e-08	3.649719e+01	1.576467e+03
1.490000e-06	5.120202e-06	2.402345e-08	3.672031e+01	1.580463e+03
1.500000e-06	5.149687e-06	2.408076e-08	3.693177e+01	1.584144e+03
1.510000e-06	5.177482e-06	2.413354e-08	3.713111e+01	1.587499e+03
1.520000e-06	5.203293e-06	2.418038e-08	3.731621e+01	1.590527e+03
1.530000e-06	5.227043e-06	2.422160e-08	3.748654e+01	1.593239e+03
1.540000e-06	5.248937e-06	2.425715e-08	3.764356e+01	1.595651e+03
1.550000e-06	5.269120e-06	2.428706e-08	3.778830e+01	1.597785e+03
1.560000e-06	5.287421e-06	2.431283e-08	3.791955e+01	1.599664e+03
1.570000e-06	5.303693e-06	2.433640e-08	3.803625e+01	1.601304e+03
1.580000e-06	5.318069e-06	2.435947e-08	3.813935e+01	1.602721e+03
1.590000e-06	5.330496e-06	2.438071e-08	3.822847e+01	1.603920e+03
1.600000e-06	5.340725e-06	2.439816e-08	3.830183e+01	1.604905e+03
1.610000e-06	5.348833e-06	2.441115e-08	3.835998e+01	1.605676e+03
1.620000e-06	5.355089e-06	2.442050e-08	3.840484e+01	1.606236e+03
1.630000e-06	5.359590e-06	2.442598e-08	3.843712e+01	1.606587e+03
1.640000e-06	5.362195e-06	2.442894e-08	3.845580e+01	1.606733e+03
1.650000e-06	5.362780e-06	2.443174e-08	3.846000e+01	1.606679e+03
1.660000e-06	5.361539e-06	2.442578e-08	3.845110e+01	1.606429e+03
1.670000e-06	5.358660e-06	2.441673e-08	3.843045e+01	1.605981e+03
1.680000e-06	5.354066e-06	2.440891e-08	3.839750e+01	1.605332e+03
1.690000e-06	5.347585e-06	2.439819e-08	3.835102e+01	1.604472e+03
1.700000e-06	5.339358e-06	2.438375e-08	3.829202e+01	1.603391e+03
1.710000e-06	5.329552e-06	2.436691e-08	3.822170e+01	1.602080e+03
1.720000e-06	5.318063e-06	2.436250e-08	3.813931e+01	1.600536e+03
1.730000e-06	5.304646e-06	2.433112e-08	3.804308e+01	1.598763e+03
1.740000e-06	5.289211e-06	2.420028e-08	3.793239e+01	1.596776e+03
1.750000e-06	5.271538e-06	2.416380e-08	3.780564e+01	1.594600e+03
1.760000e-06	5.251245e-06	2.418111e-08	3.766011e+01	1.592265e+03
1.770000e-06	5.228564e-06	2.419128e-08	3.749745e+01	1.589801e+03
1.780000e-06	5.204358e-06	2.427761e-08	3.732385e+01	1.587235e+03
1.790000e-06	5.179349e-06	2.406468e-08	3.714450e+01	1.584580e+03
1.800000e-06	5.153148e-06	2.396911e-08	3.695659e+01	1.581838e+03
1.810000e-06	5.124922e-06	2.412374e-08	3.675416e+01	1.578991e+03
1.820000e-06	5.094783e-06	2.390697e-08	3.653802e+01	1.576010e+03
1.830000e-06	5.062958e-06	2.393918e-08	3.630978e+01	1.572858e+03
1.840000e-06	5.029222e-06	2.410488e-08	3.606783e+01	1.569492e+03
1.850000e-06	4.993811e-06	2.381679e-08	3.581388e+01	1.565876e+03
1.860000e-06	4.956676e-06	2.382647e-08	3.554756e+01	1.561982e+03
1.870000e-06	4.917634e-06	2.386277e-08	3.526756e+01	1.557791e+03
1.880000e-06	4.876970e-06	2.368402e-08	3.497594e+01	1.553301e+03
1.890000e-06	4.834595e-06	2.373323e-08	3.467204e+01	1.548513e+03
1.900000e-06	4.790452e-06	2.352461e-08	3.435546e+01	1.543439e+03
1.910000e-06	4.744497e-06	2.344823e-08	3.402589e+01	1.538088e+03
1.920000e-06	4.696608e-06	2.355502e-08	3.368244e+01	1.532464e+03
1.930000e-06	4.647027e-06	2.332020e-08	3.332687e+01	1.526567e+03
1.940000e-06	4.595691e-06	2.324362e-08	3.295870e+01	1.520390e+03
1.950000e-06	4.542365e-06	2.317877e-08	3.257627e+01	1.513921e+03
1.960000e-06	4.487223e-06	2.305898e-08	3.218081e+01	1.507148e+03
1.970000e-06	4.430353e-06	2.293827e-08	3.177295e+01	1.500061e+03
1.980000e-06	4.371857e-06	2.274355e-08	3.135344e+01	1.492655e+03
1.990000e-06	4.311945e-06	2.275604e-08	3.092378e+01	1.484931e+03
2.000000e-06	4.250532e-06	2.263738e-08	3.048334e+01	1.476897e+03
2.010000e-06	4.187452e-06	2.244945e-08	3.003096e+01	1.468562e+03
2.020000e-06	4.122782e-06	2.231904e-08	2.956716e+01	1.459936e+03
2.030000e-06	4.056722e-06	2.215999e-08	2.909340e+01	1.451023e+03
2.040000e-06	3.989308e-06	2.209849e-08	2.860993e+01	1.441820e+03
2.050000e-06	3.920402e-06	2.190550e-08	2.811576e+01	1.432314e+03
2.060000e-06	3.849880e-06	2.175183e-08	2.761001e+01	1.422484e+03
2.070000e-06	3.777946e-06	2.163793e-08	2.709412e+01	1.412306e+03
2.080000e-06	3.704823e-06	2.143981e-08	2.656970e+01	1.401750e+03
2.090000e-06	3.630370e-06	2.127688e-08	2.603575e+01	1.390792e+03
2.100000e-06	3.554496e-06	2.108959e-08	2.549161e+01	1.379409e+03
2.110000e-06	3.477098e-06	2.094375e-08	2.493654e+01	1.367586e+03
2.120000e-06	3.398257e-06	2.075237e-08	2.437112e+01	1.355313e+03
2.130000e-06	3.318234e-06	2.053722e-08	2.379722e+01	1.342582e+03
2.140000e-06	3.237085e-06	2.034371e-08	2.321525e+01	1.329386e+03
2.150000e-06	3.154828e-06	2.013381e-08	2.262533e+01	1.315714e+03
2.160000e-06	3.071562e-06	1.993525e-08	2.202818e+01	1.301550e+03
2.170000e-06	2.987339e-06	1.970060e-08	2.142416e+01	1.286872e+03
2.180000e-06	2.901929e-06	1.946962e-08	2.081163e+01	1.271649e+03
2.190000e-06	2.815181e-06	1.923094e-08	2.018950e+01	1.255848e+03
2.200000e-06	2.727313e-06	1.898139e-08	1.955934e+01	1.239433e+03
2.210000e-06	2.638543e-06	1.872406e-08	1.892271e+01	1.222368e+03
2.220000e-06	2.548878e-06	1.844848e-08	1.827967e+01	1.204620e+03
2.230000e-06	2.458318e-06	1.816984e-08	1.763021e+01	1.186154e+03
2.240000e-06	2.367018e-06	1.787859e-08	1.697543e+01	1.166938e+03
2.250000e-06	2.275103e-06	1.758101e-08	1.631625e+01	1.146938e+03
2.260000e-06	2.182422e-06	1.726018e-08	1.565157e+01	1.126112e+03
2.270000e-06	2.088701e-06	1.692765e-08	1.497944e+01	1.104415e+03
2.280000e-06	1.993922e-06	1.658422e-08	1.429972e+01	1.081791e+03
2.290000e-06	1.898381e-06	1.622060e-08	1.361453e+01	1.058173e+03
2.300000e-06	1.802281e-06	1.584276e-08	1.292534e+01	1.033489e+03
2.310000e-06	1.705617e-06	1.545335e-08	1.223209e+01	1.007658e+03
2.320000e-06	1.608435e-06	1.504955e-08	1.153514e+01	9.805979e+02
2.330000e-06	1.510732e-06	1.461720e-08	1.083445e+01	9.522204e+02
2.340000e-06	1.412497e-06	1.415720e-08	1.012994e+01	9.224389e+02
2.350000e-06	1.313821e-06	1.367731e-08	9.422265e+00	8.911665e+02
2.360000e-06	1.214769e-06	1.318055e-08	8.711902e+00	8.583180e+02
2.370000e-06	1.115428e-06	1.265674e-08	7.999462e+00	8.238123e+02
2.380000e-06	1.015841e-06	1.210251e-08	7.285262e+00	7.875760e+02
2.390000e-06	9.160176e-07	1.152050e-08	6.569360e+00	7.495498e+02
2.400000e-06	8.159722e-07	1.091058e-08	5.851870e+00	7.096964e+02
2.410000e-06	7.156098e-07	1.027280e-08	5.132106e+00	6.680099e+02
2.420000e-06	6.149603e-07	9.605649e-09	4.410282e+00	6.245256e+02
2.430000e-06	5.140958e-07	8.916048e-09	3.686917e+00	5.793271e+02
2.440000e-06	4.129010e-07	8.207194e-09	2.961183e+00	5.325492e+02
2.450000e-06	3.113657e-07	7.473060e-09	2.233007e+00	4.843744e+02
2.460000e-06	2.096384e-07	6.714326e-09	1.503454e+00	4.350230e+02
2.470000e-06	1.078633e-07	5.942546e-09	7.735581e-01	3.847347e+02
2.480000e-06	6.022927e-09	5.163561e-09	4.319434e-02	3.337462e+02
2.490000e-06	-9.583357e-08	4.376018e-09	-6.872851e-01	2.822649e+02
2.500000e-06	-1.975693e-07	3.582837e-09	-1.416899e+00	2.304455e+02
2.510000e-06	-2.991720e-07	2.788332e-09	-2.145558e+00	1.783705e+02
2.520000e-06	-4.006552e-07	1.991245e-09	-2.873360e+00	1.260413e+02
2.530000e-06	-5.019879e-07	1.186656e-09	-3.600083e+00	7.338111e+01
2.540000e-06	-6.030791e-07	3.752990e-10	-4.325074e+00	2.025024e+01
2.550000e-06	-7.039100e-07	-4.444688e-10	-5.048198e+00	-3.352627e+01
2.560000e-06	-8.044904e-07	-1.277572e-09	-5.769526e+00	-8.812303e+01
2.570000e-06	-9.046905e-07	-2.127976e-09	-6.488127e+00	-1.436752e+02
2.580000e-06	-1.004501e-06	-2.993844e-09	-7.203930e+00	-2.002414e+02
2.590000e-06	-1.104068e-06	-3.872052e-09	-7.917993e+00	-2.577753e+02
2.600000e-06	-1.203378e-06	-4.763679e-09	-8.630211e+00	-3.161094e+02
2.610000e-06	-1.302316e-06	-5.663189e-09	-9.339756e+00	-3.749542e+02
2.620000e-06	-1.400721e-06	-6.565143e-09	-1.004549e+01	-4.339144e+02
2.630000e-06	-1.498551e-06	-7.461921e-09	-1.074709e+01	-4.925182e+02
2.640000e-06	-1.595865e-06	-8.345165e-09	-1.144499e+01	-5.502566e+02
2.650000e-06	-1.692694e-06	-9.209211e-09	-1.213941e+01	-6.066271e+02
2.660000e-06	-1.789000e-06	-1.004541e-08	-1.283009e+01	-6.611756e+02
2.670000e-06	-1.884735e-06	-1.084931e-08	-1.351667e+01	-7.135302e+02
2.680000e-06	-1.979880e-06	-1.161488e-08	-1.419901e+01	-7.634238e+02
2.690000e-06	-2.074282e-06	-1.233877e-08	-1.487603e+01	-8.107028e+02
2.700000e-06	-2.167697e-06	-1.302294e-08	-1.554597e+01	-8.553221e+02
2.710000e-06	-2.260071e-06	-1.366865e-08	-1.620845e+01	-8.973283e+02
2.720000e-06	-2.351616e-06	-1.427810e-08	-1.686498e+01	-9.368362e+02
2.730000e-06	-2.442414e-06	-1.485297e-08	-1.751614e+01	-9.740021e+02
2.740000e-06	-2.532379e-06	-1.539321e-08	-1.816135e+01	-1.008998e+03
2.750000e-06	-2.621422e-06	-1.589881e-08	-1.879993e+01	-1.041994e+03
2.760000e-06	-2.709589e-06	-1.637352e-08	-1.943223e+01	-1.073140e+03
2.770000e-06	-2.796981e-06	-1.682193e-08	-2.005898e+01	-1.102567e+03
2.780000e-06	-2.883421e-06	-1.724578e-08	-2.067889e+01	-1.130386e+03
2.790000e-06	-2.968628e-06	-1.764785e-08	-2.128997e+01	-1.156689e+03
2.800000e-06	-3.052650e-06	-1.803130e-08	-2.189255e+01	-1.181565e+03
2.810000e-06	-3.135685e-06	-1.839384e-08	-2.248804e+01	-1.205098e+03
2.820000e-06	-3.217665e-06	-1.873434e-08	-2.307598e+01	-1.227375e+03
2.830000e-06	-3.298586e-06	-1.905649e-08	-2.365631e+01	-1.248485e+03
2.840000e-06	-3.378490e-06	-1.936378e-08	-2.422936e+01	-1.268516e+03
2.850000e-06	-3.457162e-06	-1.965618e-08	-2.479356e+01	-1.287553e+03
2.860000e-06	-3.534322e-06	-1.993379e-08	-2.534693e+01	-1.305668e+03
2.870000e-06	-3.610011e-06	-2.019775e-08	-2.588975e+01	-1.322924e+03
2.880000e-06	-3.684348e-06	-2.044963e-08	-2.642286e+01	-1.339368e+03
2.890000e-06	-3.757289e-06	-2.069090e-08	-2.694597e+01	-1.355036e+03
2.900000e-06	-3.828962e-06	-2.092160e-08	-2.745998e+01	-1.369959e+03
2.910000e-06	-3.899233e-06	-2.114077e-08	-2.796394e+01	-1.384161e+03
2.920000e-06	-3.967890e-06	-2.134994e-08	-2.845633e+01	-1.397673e+03
2.930000e-06	-4.035126e-06	-2.154955e-08	-2.893852e+01	-1.410526e+03
2.940000e-06	-4.100994e-06	-2.173848e-08	-2.941091e+01	-1.422759e+03
