# Temperatura_=_27.66
# Concentracion g/m^3_=_28200.0
# C_Vs_to_Am_M_A/Vsm_=_65563218390.804596
# pendiente_HvsI_1/m_=_3716.3
# ordenada_HvsI_A/m_=_1297.0
# frecuencia_Hz_=_301760.3492735106

Tiempo_(s)	Campo_(V.s)	Magnetizacion_(V.s)	Campo_(kA/m)	Magnetizacion_(A/m)
0.000000e+00	-5.337047e-06	-1.928605e-08	-3.830182e+01	-1.261210e+03
1.000000e-08	-5.334957e-06	-1.928044e-08	-3.828682e+01	-1.260921e+03
2.000000e-08	-5.331025e-06	-1.927042e-08	-3.825860e+01	-1.260492e+03
3.000000e-08	-5.325444e-06	-1.926018e-08	-3.821855e+01	-1.259913e+03
4.000000e-08	-5.318308e-06	-1.925053e-08	-3.816734e+01	-1.259171e+03
5.000000e-08	-5.309438e-06	-1.923662e-08	-3.810368e+01	-1.258249e+03
6.000000e-08	-5.298512e-06	-1.921795e-08	-3.802527e+01	-1.257133e+03
7.000000e-08	-5.285584e-06	-1.919004e-08	-3.793249e+01	-1.255819e+03
8.000000e-08	-5.270700e-06	-1.917012e-08	-3.782567e+01	-1.254316e+03
9.000000e-08	-5.253666e-06	-1.918718e-08	-3.770343e+01	-1.252643e+03
1.000000e-07	-5.234500e-06	-1.917217e-08	-3.756589e+01	-1.250833e+03
1.100000e-07	-5.213425e-06	-1.911240e-08	-3.741463e+01	-1.248920e+03
1.200000e-07	-5.190600e-06	-1.906596e-08	-3.725083e+01	-1.246935e+03
1.300000e-07	-5.166150e-06	-1.897021e-08	-3.707536e+01	-1.244897e+03
1.400000e-07	-5.140164e-06	-1.894191e-08	-3.688887e+01	-1.242811e+03
1.500000e-07	-5.112620e-06	-1.901286e-08	-3.669120e+01	-1.240664e+03
1.600000e-07	-5.083575e-06	-1.890725e-08	-3.648276e+01	-1.238427e+03
1.700000e-07	-5.053081e-06	-1.886707e-08	-3.626391e+01	-1.236063e+03
1.800000e-07	-5.020769e-06	-1.890748e-08	-3.603202e+01	-1.233532e+03
1.900000e-07	-4.986422e-06	-1.875293e-08	-3.578553e+01	-1.230799e+03
2.000000e-07	-4.950396e-06	-1.870845e-08	-3.552698e+01	-1.227839e+03
2.100000e-07	-4.912785e-06	-1.871467e-08	-3.525707e+01	-1.224642e+03
2.200000e-07	-4.873442e-06	-1.859371e-08	-3.497471e+01	-1.221207e+03
2.300000e-07	-4.832227e-06	-1.855588e-08	-3.467893e+01	-1.217542e+03
2.400000e-07	-4.789016e-06	-1.851724e-08	-3.436883e+01	-1.213658e+03
2.500000e-07	-4.743993e-06	-1.843355e-08	-3.404572e+01	-1.209561e+03
2.600000e-07	-4.697141e-06	-1.839177e-08	-3.370947e+01	-1.205253e+03
2.700000e-07	-4.648261e-06	-1.828905e-08	-3.335868e+01	-1.200727e+03
2.800000e-07	-4.597323e-06	-1.818982e-08	-3.299312e+01	-1.195970e+03
2.900000e-07	-4.544449e-06	-1.813449e-08	-3.261366e+01	-1.190966e+03
3.000000e-07	-4.489919e-06	-1.807048e-08	-3.222233e+01	-1.185702e+03
3.100000e-07	-4.433779e-06	-1.798335e-08	-3.181944e+01	-1.180171e+03
3.200000e-07	-4.375885e-06	-1.788709e-08	-3.140395e+01	-1.174372e+03
3.300000e-07	-4.316340e-06	-1.780030e-08	-3.097662e+01	-1.168313e+03
3.400000e-07	-4.255327e-06	-1.769168e-08	-3.053875e+01	-1.162008e+03
3.500000e-07	-4.192890e-06	-1.758951e-08	-3.009067e+01	-1.155469e+03
3.600000e-07	-4.128977e-06	-1.749943e-08	-2.963199e+01	-1.148704e+03
3.700000e-07	-4.063498e-06	-1.739845e-08	-2.916208e+01	-1.141716e+03
3.800000e-07	-3.996439e-06	-1.728705e-08	-2.868082e+01	-1.134494e+03
3.900000e-07	-3.927920e-06	-1.714821e-08	-2.818909e+01	-1.127021e+03
4.000000e-07	-3.858076e-06	-1.702278e-08	-2.768785e+01	-1.119274e+03
4.100000e-07	-3.786994e-06	-1.692066e-08	-2.717772e+01	-1.111227e+03
4.200000e-07	-3.714642e-06	-1.680013e-08	-2.665848e+01	-1.102857e+03
4.300000e-07	-3.640865e-06	-1.666524e-08	-2.612901e+01	-1.094148e+03
4.400000e-07	-3.565566e-06	-1.652088e-08	-2.558862e+01	-1.085089e+03
4.500000e-07	-3.488748e-06	-1.637217e-08	-2.503733e+01	-1.075676e+03
4.600000e-07	-3.410456e-06	-1.621965e-08	-2.447546e+01	-1.065907e+03
4.700000e-07	-3.330777e-06	-1.606873e-08	-2.390364e+01	-1.055779e+03
4.800000e-07	-3.249805e-06	-1.591416e-08	-2.332253e+01	-1.045287e+03
4.900000e-07	-3.167743e-06	-1.574421e-08	-2.273361e+01	-1.034417e+03
5.000000e-07	-3.084720e-06	-1.557003e-08	-2.213778e+01	-1.023151e+03
5.100000e-07	-3.000715e-06	-1.539081e-08	-2.153491e+01	-1.011464e+03
5.200000e-07	-2.915801e-06	-1.520433e-08	-2.092552e+01	-9.993288e+02
5.300000e-07	-2.829982e-06	-1.501127e-08	-2.030963e+01	-9.867173e+02
5.400000e-07	-2.743306e-06	-1.481171e-08	-1.968759e+01	-9.736030e+02
5.500000e-07	-2.655688e-06	-1.460276e-08	-1.905880e+01	-9.599606e+02
5.600000e-07	-2.567046e-06	-1.438222e-08	-1.842265e+01	-9.457660e+02
5.700000e-07	-2.477395e-06	-1.415692e-08	-1.777926e+01	-9.309937e+02
5.800000e-07	-2.386653e-06	-1.392295e-08	-1.712804e+01	-9.156143e+02
5.900000e-07	-2.294926e-06	-1.367595e-08	-1.646975e+01	-8.995936e+02
6.000000e-07	-2.202378e-06	-1.341850e-08	-1.580557e+01	-8.828911e+02
6.100000e-07	-2.109105e-06	-1.315436e-08	-1.513619e+01	-8.654617e+02
6.200000e-07	-2.015102e-06	-1.288082e-08	-1.446157e+01	-8.472579e+02
6.300000e-07	-1.920413e-06	-1.259024e-08	-1.378202e+01	-8.282325e+02
6.400000e-07	-1.825072e-06	-1.228269e-08	-1.309780e+01	-8.083409e+02
6.500000e-07	-1.728974e-06	-1.196139e-08	-1.240815e+01	-7.875419e+02
6.600000e-07	-1.632159e-06	-1.162751e-08	-1.171334e+01	-7.657969e+02
6.700000e-07	-1.534714e-06	-1.128241e-08	-1.101402e+01	-7.430671e+02
6.800000e-07	-1.436692e-06	-1.092359e-08	-1.031056e+01	-7.193104e+02
6.900000e-07	-1.338096e-06	-1.054587e-08	-9.602969e+00	-6.944783e+02
7.000000e-07	-1.238961e-06	-1.014663e-08	-8.891519e+00	-6.685151e+02
7.100000e-07	-1.139440e-06	-9.727041e-09	-8.177301e+00	-6.413611e+02
7.200000e-07	-1.039620e-06	-9.291061e-09	-7.460931e+00	-6.129586e+02
7.300000e-07	-9.395093e-07	-8.838884e-09	-6.742477e+00	-5.832617e+02
7.400000e-07	-8.390881e-07	-8.368657e-09	-6.021795e+00	-5.522476e+02
7.500000e-07	-7.383858e-07	-7.879623e-09	-5.299095e+00	-5.199284e+02
7.600000e-07	-6.374808e-07	-7.369533e-09	-4.574941e+00	-4.863594e+02
7.700000e-07	-5.364198e-07	-6.839167e-09	-3.849667e+00	-4.516427e+02
7.800000e-07	-4.351685e-07	-6.294582e-09	-3.123027e+00	-4.159252e+02
7.900000e-07	-3.337768e-07	-5.738727e-09	-2.395381e+00	-3.793893e+02
8.000000e-07	-2.322910e-07	-5.174648e-09	-1.667058e+00	-3.422385e+02
8.100000e-07	-1.306473e-07	-4.603595e-09	-9.376028e-01	-3.046799e+02
8.200000e-07	-2.890652e-08	-4.027740e-09	-2.074504e-01	-2.669040e+02
8.300000e-07	7.284952e-08	-3.452392e-09	5.228115e-01	-2.290683e+02
8.400000e-07	1.746224e-07	-2.878785e-09	1.253194e+00	-1.912828e+02
8.500000e-07	2.764013e-07	-2.308332e-09	1.983620e+00	-1.536024e+02
8.600000e-07	3.780908e-07	-1.739704e-09	2.713404e+00	-1.160252e+02
8.700000e-07	4.795923e-07	-1.170274e-09	3.441839e+00	-7.849590e+01
8.800000e-07	5.809218e-07	-5.983973e-10	4.169040e+00	-4.091603e+01
8.900000e-07	6.820766e-07	-2.155208e-11	4.894987e+00	-3.156772e+00
9.000000e-07	7.829893e-07	5.595153e-10	5.619196e+00	3.492490e+01
9.100000e-07	8.836720e-07	1.145243e-09	6.341755e+00	7.346897e+01
9.200000e-07	9.841040e-07	1.737282e-09	7.062515e+00	1.125950e+02
9.300000e-07	1.084215e-06	2.337638e-09	7.780971e+00	1.523861e+02
9.400000e-07	1.183992e-06	2.950272e-09	8.497032e+00	1.928741e+02
9.500000e-07	1.283377e-06	3.577298e-09	9.210276e+00	2.340299e+02
9.600000e-07	1.382287e-06	4.215817e-09	9.920112e+00	2.757566e+02
9.700000e-07	1.480665e-06	4.861005e-09	1.062613e+01	3.178896e+02
9.800000e-07	1.578386e-06	5.507613e-09	1.132744e+01	3.602029e+02
9.900000e-07	1.675301e-06	6.150802e-09	1.202296e+01	4.024218e+02
1.000000e-06	1.771432e-06	6.786614e-09	1.271285e+01	4.442415e+02
1.010000e-06	1.866882e-06	7.411167e-09	1.339785e+01	4.853497e+02
1.020000e-06	1.961681e-06	8.020687e-09	1.407819e+01	5.254501e+02
1.030000e-06	2.055868e-06	8.611340e-09	1.475413e+01	5.642844e+02
1.040000e-06	2.149380e-06	9.178849e-09	1.542523e+01	6.016496e+02
1.050000e-06	2.242188e-06	9.719797e-09	1.609127e+01	6.374082e+02
1.060000e-06	2.334299e-06	1.023488e-08	1.675232e+01	6.714897e+02
1.070000e-06	2.425594e-06	1.072563e-08	1.740750e+01	7.038850e+02
1.080000e-06	2.515946e-06	1.119376e-08	1.805592e+01	7.346333e+02
1.090000e-06	2.605244e-06	1.163737e-08	1.869678e+01	7.638065e+02
1.100000e-06	2.693444e-06	1.205803e-08	1.932975e+01	7.914920e+02
1.110000e-06	2.780688e-06	1.245877e-08	1.995587e+01	8.177785e+02
1.120000e-06	2.867082e-06	1.284038e-08	2.057588e+01	8.427459e+02
1.130000e-06	2.952576e-06	1.320194e-08	2.118944e+01	8.664613e+02
1.140000e-06	3.037150e-06	1.354407e-08	2.179639e+01	8.889798e+02
1.150000e-06	3.120777e-06	1.386858e-08	2.239655e+01	9.103485e+02
1.160000e-06	3.203385e-06	1.417600e-08	2.298939e+01	9.306127e+02
1.170000e-06	3.284773e-06	1.446844e-08	2.357348e+01	9.498216e+02
1.180000e-06	3.364878e-06	1.474599e-08	2.414837e+01	9.680309e+02
1.190000e-06	3.443837e-06	1.500859e-08	2.471502e+01	9.853034e+02
1.200000e-06	3.521635e-06	1.525656e-08	2.527335e+01	1.001706e+03
1.210000e-06	3.598239e-06	1.549286e-08	2.582310e+01	1.017304e+03
1.220000e-06	3.673532e-06	1.571946e-08	2.636345e+01	1.032159e+03
1.230000e-06	3.747255e-06	1.593526e-08	2.689253e+01	1.046320e+03
1.240000e-06	3.819366e-06	1.613907e-08	2.741004e+01	1.059829e+03
1.250000e-06	3.890067e-06	1.633182e-08	2.791743e+01	1.072714e+03
1.260000e-06	3.959436e-06	1.651695e-08	2.841526e+01	1.084995e+03
1.270000e-06	4.027471e-06	1.669494e-08	2.890353e+01	1.096690e+03
1.280000e-06	4.094140e-06	1.686461e-08	2.938198e+01	1.107816e+03
1.290000e-06	4.159138e-06	1.702548e-08	2.984845e+01	1.118390e+03
1.300000e-06	4.222512e-06	1.717835e-08	3.030326e+01	1.128433e+03
1.310000e-06	4.284485e-06	1.732384e-08	3.074801e+01	1.137967e+03
1.320000e-06	4.345073e-06	1.746193e-08	3.118283e+01	1.147013e+03
1.330000e-06	4.404325e-06	1.759366e-08	3.160805e+01	1.155590e+03
1.340000e-06	4.461848e-06	1.771759e-08	3.202088e+01	1.163713e+03
1.350000e-06	4.517528e-06	1.783306e-08	3.242047e+01	1.171393e+03
1.360000e-06	4.571625e-06	1.794171e-08	3.280870e+01	1.178639e+03
1.370000e-06	4.624035e-06	1.804529e-08	3.318482e+01	1.185465e+03
1.380000e-06	4.674521e-06	1.814338e-08	3.354714e+01	1.191888e+03
1.390000e-06	4.722980e-06	1.823422e-08	3.389491e+01	1.197931e+03
1.400000e-06	4.769635e-06	1.831795e-08	3.422973e+01	1.203627e+03
1.410000e-06	4.814738e-06	1.839775e-08	3.455342e+01	1.209010e+03
1.420000e-06	4.858305e-06	1.847656e-08	3.486608e+01	1.214118e+03
1.430000e-06	4.900131e-06	1.855251e-08	3.516625e+01	1.218980e+03
1.440000e-06	4.940089e-06	1.862426e-08	3.545302e+01	1.223618e+03
1.450000e-06	4.978324e-06	1.869261e-08	3.572741e+01	1.228039e+03
1.460000e-06	5.014979e-06	1.875702e-08	3.599047e+01	1.232237e+03
1.470000e-06	5.049940e-06	1.881699e-08	3.624137e+01	1.236197e+03
1.480000e-06	5.082950e-06	1.887160e-08	3.647827e+01	1.239895e+03
1.490000e-06	5.114125e-06	1.892123e-08	3.670200e+01	1.243313e+03
1.500000e-06	5.143654e-06	1.896680e-08	3.691392e+01	1.246436e+03
1.510000e-06	5.171511e-06	1.900787e-08	3.711384e+01	1.249262e+03
1.520000e-06	5.197464e-06	1.904445e-08	3.730009e+01	1.251800e+03
1.530000e-06	5.221345e-06	1.907864e-08	3.747147e+01	1.254071e+03
1.540000e-06	5.243343e-06	1.911058e-08	3.762934e+01	1.256100e+03
1.550000e-06	5.263642e-06	1.913935e-08	3.777503e+01	1.257914e+03
1.560000e-06	5.282187e-06	1.916399e-08	3.790811e+01	1.259532e+03
1.570000e-06	5.298754e-06	1.918492e-08	3.802701e+01	1.260967e+03
1.580000e-06	5.313319e-06	1.920323e-08	3.813154e+01	1.262222e+03
1.590000e-06	5.325912e-06	1.921850e-08	3.822191e+01	1.263294e+03
1.600000e-06	5.336334e-06	1.923222e-08	3.829670e+01	1.264175e+03
1.610000e-06	5.344585e-06	1.924298e-08	3.835592e+01	1.264861e+03
1.620000e-06	5.350966e-06	1.925088e-08	3.840171e+01	1.265350e+03
1.630000e-06	5.355593e-06	1.925629e-08	3.843491e+01	1.265650e+03
1.640000e-06	5.358360e-06	1.925864e-08	3.845477e+01	1.265772e+03
1.650000e-06	5.359088e-06	1.926009e-08	3.846000e+01	1.265733e+03
1.660000e-06	5.357962e-06	1.925792e-08	3.845192e+01	1.265545e+03
1.670000e-06	5.355237e-06	1.925198e-08	3.843236e+01	1.265215e+03
1.680000e-06	5.350885e-06	1.924689e-08	3.840113e+01	1.264744e+03
1.690000e-06	5.344664e-06	1.923877e-08	3.835649e+01	1.264119e+03
1.700000e-06	5.336544e-06	1.922629e-08	3.829821e+01	1.263327e+03
1.710000e-06	5.326824e-06	1.921190e-08	3.822846e+01	1.262350e+03
1.720000e-06	5.315535e-06	1.920193e-08	3.814744e+01	1.261177e+03
1.730000e-06	5.302444e-06	1.918525e-08	3.805349e+01	1.259807e+03
1.740000e-06	5.287283e-06	1.911509e-08	3.794468e+01	1.258252e+03
1.750000e-06	5.269840e-06	1.907086e-08	3.781950e+01	1.256536e+03
1.760000e-06	5.249859e-06	1.907456e-08	3.767611e+01	1.254692e+03
1.770000e-06	5.227489e-06	1.907148e-08	3.751557e+01	1.252755e+03
1.780000e-06	5.203418e-06	1.911410e-08	3.734282e+01	1.250753e+03
1.790000e-06	5.178440e-06	1.902128e-08	3.716356e+01	1.248701e+03
1.800000e-06	5.152459e-06	1.891017e-08	3.697711e+01	1.246599e+03
1.810000e-06	5.124538e-06	1.898181e-08	3.677673e+01	1.244429e+03
1.820000e-06	5.094635e-06	1.888892e-08	3.656213e+01	1.242159e+03
1.830000e-06	5.063003e-06	1.882839e-08	3.633512e+01	1.239750e+03
1.840000e-06	5.029410e-06	1.893295e-08	3.609403e+01	1.237164e+03
1.850000e-06	4.994106e-06	1.881723e-08	3.584067e+01	1.234367e+03
1.860000e-06	4.957190e-06	1.874958e-08	3.557574e+01	1.231340e+03
1.870000e-06	4.918389e-06	1.877574e-08	3.529728e+01	1.228074e+03
1.880000e-06	4.877839e-06	1.866272e-08	3.500627e+01	1.224571e+03
1.890000e-06	4.835573e-06	1.864059e-08	3.470294e+01	1.220842e+03
1.900000e-06	4.791603e-06	1.855990e-08	3.438739e+01	1.216896e+03
1.910000e-06	4.745911e-06	1.846788e-08	3.405948e+01	1.212739e+03
1.920000e-06	4.698284e-06	1.851747e-08	3.371768e+01	1.208369e+03
1.930000e-06	4.649003e-06	1.841118e-08	3.336401e+01	1.203778e+03
1.940000e-06	4.598018e-06	1.829502e-08	3.299811e+01	1.198951e+03
1.950000e-06	4.544953e-06	1.823320e-08	3.261729e+01	1.193873e+03
1.960000e-06	4.489986e-06	1.814943e-08	3.222281e+01	1.188533e+03
1.970000e-06	4.433304e-06	1.808214e-08	3.181602e+01	1.182924e+03
1.980000e-06	4.374991e-06	1.795640e-08	3.139754e+01	1.177049e+03
1.990000e-06	4.315242e-06	1.789828e-08	3.096874e+01	1.170918e+03
2.000000e-06	4.254069e-06	1.782619e-08	3.052973e+01	1.164544e+03
2.010000e-06	4.191250e-06	1.767626e-08	3.007890e+01	1.157939e+03
2.020000e-06	4.126755e-06	1.757225e-08	2.961604e+01	1.151110e+03
2.030000e-06	4.060786e-06	1.746956e-08	2.914261e+01	1.144056e+03
2.040000e-06	3.993455e-06	1.739677e-08	2.865941e+01	1.136764e+03
2.050000e-06	3.924727e-06	1.727784e-08	2.816617e+01	1.129214e+03
2.060000e-06	3.854504e-06	1.712813e-08	2.766221e+01	1.121383e+03
2.070000e-06	3.782820e-06	1.701709e-08	2.714776e+01	1.113245e+03
2.080000e-06	3.709854e-06	1.687581e-08	2.662412e+01	1.104780e+03
2.090000e-06	3.635579e-06	1.674832e-08	2.609108e+01	1.095971e+03
2.100000e-06	3.559890e-06	1.661714e-08	2.554789e+01	1.086810e+03
2.110000e-06	3.482743e-06	1.647771e-08	2.499423e+01	1.077295e+03
2.120000e-06	3.404152e-06	1.632803e-08	2.443022e+01	1.067423e+03
2.130000e-06	3.324252e-06	1.615818e-08	2.385680e+01	1.057191e+03
2.140000e-06	3.243189e-06	1.599890e-08	2.327505e+01	1.046592e+03
2.150000e-06	3.161060e-06	1.582837e-08	2.268564e+01	1.035611e+03
2.160000e-06	3.077937e-06	1.566144e-08	2.208910e+01	1.024226e+03
2.170000e-06	2.993823e-06	1.548680e-08	2.148545e+01	1.012413e+03
2.180000e-06	2.908538e-06	1.529755e-08	2.087340e+01	1.000144e+03
2.190000e-06	2.821974e-06	1.510490e-08	2.025216e+01	9.873913e+02
2.200000e-06	2.734283e-06	1.490446e-08	1.962284e+01	9.741279e+02
2.210000e-06	2.645643e-06	1.469743e-08	1.898671e+01	9.603296e+02
2.220000e-06	2.556116e-06	1.447392e-08	1.834421e+01	9.459720e+02
2.230000e-06	2.465716e-06	1.424393e-08	1.769545e+01	9.310287e+02
2.240000e-06	2.374546e-06	1.401062e-08	1.704115e+01	9.154693e+02
2.250000e-06	2.282697e-06	1.376941e-08	1.638199e+01	8.992574e+02
2.260000e-06	2.190047e-06	1.351117e-08	1.571708e+01	8.823514e+02
2.270000e-06	2.096504e-06	1.323683e-08	1.504576e+01	8.647050e+02
2.280000e-06	2.002050e-06	1.295613e-08	1.436790e+01	8.462705e+02
2.290000e-06	1.906694e-06	1.266522e-08	1.368357e+01	8.270014e+02
2.300000e-06	1.810636e-06	1.236161e-08	1.299420e+01	8.068539e+02
2.310000e-06	1.714031e-06	1.204241e-08	1.230091e+01	7.857879e+02
2.320000e-06	1.616899e-06	1.170770e-08	1.160383e+01	7.637649e+02
2.330000e-06	1.519259e-06	1.135471e-08	1.090310e+01	7.407456e+02
2.340000e-06	1.421109e-06	1.098269e-08	1.019872e+01	7.166863e+02
2.350000e-06	1.322520e-06	1.059854e-08	9.491188e+00	6.915362e+02
2.360000e-06	1.223568e-06	1.020323e-08	8.781054e+00	6.652383e+02
2.370000e-06	1.124304e-06	9.789945e-09	8.068675e+00	6.377326e+02
2.380000e-06	1.024768e-06	9.352956e-09	7.354343e+00	6.089635e+02
2.390000e-06	9.249729e-07	8.892453e-09	6.638155e+00	5.788905e+02
2.400000e-06	8.248898e-07	8.411319e-09	5.919899e+00	5.474999e+02
2.410000e-06	7.244879e-07	7.912332e-09	5.199356e+00	5.148153e+02
2.420000e-06	6.237987e-07	7.394298e-09	4.476750e+00	4.809053e+02
2.430000e-06	5.228787e-07	6.858956e-09	3.752488e+00	4.458852e+02
2.440000e-06	4.217823e-07	6.310276e-09	3.026961e+00	4.099134e+02
2.450000e-06	3.204802e-07	5.748449e-09	2.299956e+00	3.731799e+02
2.460000e-06	2.190058e-07	5.174917e-09	1.571716e+00	3.358912e+02
2.470000e-06	1.174426e-07	4.597372e-09	8.428376e-01	2.982515e+02
2.480000e-06	1.583457e-08	4.021850e-09	1.136383e-01	2.604437e+02
2.490000e-06	-8.576542e-08	3.444542e-09	-6.155036e-01	2.226127e+02
2.500000e-06	-1.873599e-07	2.865533e-09	-1.344606e+00	1.848535e+02
2.510000e-06	-2.889252e-07	2.287645e-09	-2.073499e+00	1.472047e+02
2.520000e-06	-3.903848e-07	1.711143e-09	-2.801634e+00	1.096482e+02
2.530000e-06	-4.917155e-07	1.136279e-09	-3.528842e+00	7.211548e+01
2.540000e-06	-5.928396e-07	5.615453e-10	-4.254569e+00	3.449779e+01
2.550000e-06	-6.936905e-07	-1.546576e-11	-4.978336e+00	-3.339449e+00
2.560000e-06	-7.942695e-07	-5.993007e-10	-5.700150e+00	-4.154017e+01
2.570000e-06	-8.945094e-07	-1.194498e-09	-6.419531e+00	-8.024029e+01
2.580000e-06	-9.943841e-07	-1.799506e-09	-7.136291e+00	-1.195505e+02
2.590000e-06	-1.093910e-06	-2.412105e-09	-7.850547e+00	-1.595406e+02
2.600000e-06	-1.193115e-06	-3.033405e-09	-8.562504e+00	-2.002260e+02
2.610000e-06	-1.291985e-06	-3.662571e-09	-9.272054e+00	-2.415584e+02
2.620000e-06	-1.390388e-06	-4.299435e-09	-9.978254e+00	-2.834215e+02
2.630000e-06	-1.488238e-06	-4.943161e-09	-1.068048e+01	-3.256321e+02
2.640000e-06	-1.585562e-06	-5.589875e-09	-1.137893e+01	-3.679488e+02
2.650000e-06	-1.682423e-06	-6.233822e-09	-1.207407e+01	-4.100862e+02
2.660000e-06	-1.778743e-06	-6.870386e-09	-1.276532e+01	-4.517349e+02
2.670000e-06	-1.874488e-06	-7.496797e-09	-1.345244e+01	-4.925848e+02
2.680000e-06	-1.969655e-06	-8.105858e-09	-1.413541e+01	-5.323483e+02
2.690000e-06	-2.064013e-06	-8.692274e-09	-1.481259e+01	-5.707814e+02
2.700000e-06	-2.157392e-06	-9.258107e-09	-1.548272e+01	-6.076993e+02
2.710000e-06	-2.249771e-06	-9.803331e-09	-1.614570e+01	-6.429837e+02
2.720000e-06	-2.341321e-06	-1.032241e-08	-1.680271e+01	-6.765826e+02
2.730000e-06	-2.432144e-06	-1.081260e-08	-1.745451e+01	-7.085023e+02
2.740000e-06	-2.522098e-06	-1.127613e-08	-1.810007e+01	-7.387929e+02
2.750000e-06	-2.611144e-06	-1.171391e-08	-1.873912e+01	-7.675325e+02
2.760000e-06	-2.699331e-06	-1.212920e-08	-1.937200e+01	-7.948101e+02
2.770000e-06	-2.786752e-06	-1.252627e-08	-1.999939e+01	-8.207127e+02
2.780000e-06	-2.873205e-06	-1.290546e-08	-2.061983e+01	-8.453168e+02
2.790000e-06	-2.958417e-06	-1.326550e-08	-2.123136e+01	-8.686858e+02
2.800000e-06	-3.042503e-06	-1.360545e-08	-2.183481e+01	-8.908718e+02
2.810000e-06	-3.125589e-06	-1.392593e-08	-2.243108e+01	-9.119208e+02
2.820000e-06	-3.207691e-06	-1.423065e-08	-2.302030e+01	-9.318789e+02
2.830000e-06	-3.288747e-06	-1.452085e-08	-2.360200e+01	-9.507968e+02
2.840000e-06	-3.368738e-06	-1.479562e-08	-2.417607e+01	-9.687325e+02
2.850000e-06	-3.447508e-06	-1.505601e-08	-2.474136e+01	-9.857502e+02
2.860000e-06	-3.524720e-06	-1.530408e-08	-2.529549e+01	-1.001917e+03
2.870000e-06	-3.600438e-06	-1.554139e-08	-2.583888e+01	-1.017297e+03
2.880000e-06	-3.674814e-06	-1.576847e-08	-2.637265e+01	-1.031950e+03
2.890000e-06	-3.747860e-06	-1.598582e-08	-2.689687e+01	-1.045922e+03
2.900000e-06	-3.819667e-06	-1.619247e-08	-2.741220e+01	-1.059251e+03
2.910000e-06	-3.890031e-06	-1.638726e-08	-2.791717e+01	-1.071962e+03
2.920000e-06	-3.958783e-06	-1.657147e-08	-2.841058e+01	-1.084075e+03
2.930000e-06	-4.026139e-06	-1.674609e-08	-2.889397e+01	-1.095606e+03
2.940000e-06	-4.092188e-06	-1.691166e-08	-2.936797e+01	-1.106573e+03
