# Temperatura_=_69.92
# Concentracion g/m^3_=_28200.0
# C_Vs_to_Am_M_A/Vsm_=_65563218390.804596
# pendiente_HvsI_1/m_=_3716.3
# ordenada_HvsI_A/m_=_1297.0
# frecuencia_Hz_=_301768.2173182811

Tiempo_(s)	Campo_(V.s)	Magnetizacion_(V.s)	Campo_(kA/m)	Magnetizacion_(A/m)
0.000000e+00	-5.304846e-06	-2.396912e-08	-3.830028e+01	-1.568122e+03
1.000000e-08	-5.303358e-06	-2.396670e-08	-3.828954e+01	-1.567798e+03
2.000000e-08	-5.300005e-06	-2.395733e-08	-3.826533e+01	-1.567289e+03
3.000000e-08	-5.294994e-06	-2.394362e-08	-3.822915e+01	-1.566589e+03
4.000000e-08	-5.288344e-06	-2.393053e-08	-3.818114e+01	-1.565686e+03
5.000000e-08	-5.280045e-06	-2.391292e-08	-3.812122e+01	-1.564571e+03
6.000000e-08	-5.269798e-06	-2.389026e-08	-3.804724e+01	-1.563235e+03
7.000000e-08	-5.257594e-06	-2.386252e-08	-3.795913e+01	-1.561678e+03
8.000000e-08	-5.243551e-06	-2.383114e-08	-3.785774e+01	-1.559907e+03
9.000000e-08	-5.227374e-06	-2.384993e-08	-3.774095e+01	-1.557940e+03
1.000000e-07	-5.209010e-06	-2.385715e-08	-3.760836e+01	-1.555802e+03
1.100000e-07	-5.188682e-06	-2.377652e-08	-3.746160e+01	-1.553522e+03
1.200000e-07	-5.166519e-06	-2.370840e-08	-3.730158e+01	-1.551127e+03
1.300000e-07	-5.142755e-06	-2.361235e-08	-3.713001e+01	-1.548635e+03
1.400000e-07	-5.117502e-06	-2.352401e-08	-3.694769e+01	-1.546054e+03
1.500000e-07	-5.090575e-06	-2.364283e-08	-3.675328e+01	-1.543380e+03
1.600000e-07	-5.062067e-06	-2.357226e-08	-3.654745e+01	-1.540594e+03
1.700000e-07	-5.032237e-06	-2.344698e-08	-3.633208e+01	-1.537667e+03
1.800000e-07	-5.000771e-06	-2.353952e-08	-3.610490e+01	-1.534563e+03
1.900000e-07	-4.967157e-06	-2.335856e-08	-3.586221e+01	-1.531249e+03
2.000000e-07	-4.931735e-06	-2.320695e-08	-3.560647e+01	-1.527692e+03
2.100000e-07	-4.894781e-06	-2.328632e-08	-3.533967e+01	-1.523868e+03
2.200000e-07	-4.856122e-06	-2.316796e-08	-3.506056e+01	-1.519764e+03
2.300000e-07	-4.815701e-06	-2.307322e-08	-3.476872e+01	-1.515372e+03
2.400000e-07	-4.773340e-06	-2.307391e-08	-3.446288e+01	-1.510690e+03
2.500000e-07	-4.729099e-06	-2.297331e-08	-3.414346e+01	-1.505721e+03
2.600000e-07	-4.683083e-06	-2.289211e-08	-3.381124e+01	-1.500466e+03
2.700000e-07	-4.635195e-06	-2.274575e-08	-3.346549e+01	-1.494923e+03
2.800000e-07	-4.585300e-06	-2.263279e-08	-3.310526e+01	-1.489090e+03
2.900000e-07	-4.533360e-06	-2.258744e-08	-3.273025e+01	-1.482961e+03
3.000000e-07	-4.479624e-06	-2.251275e-08	-3.234229e+01	-1.476530e+03
3.100000e-07	-4.424324e-06	-2.241889e-08	-3.194303e+01	-1.469796e+03
3.200000e-07	-4.367317e-06	-2.227894e-08	-3.153145e+01	-1.462759e+03
3.300000e-07	-4.308511e-06	-2.215581e-08	-3.110688e+01	-1.455424e+03
3.400000e-07	-4.248191e-06	-2.203579e-08	-3.067137e+01	-1.447801e+03
3.500000e-07	-4.186467e-06	-2.190251e-08	-3.022574e+01	-1.439898e+03
3.600000e-07	-4.123373e-06	-2.180911e-08	-2.977021e+01	-1.431722e+03
3.700000e-07	-4.058902e-06	-2.170647e-08	-2.930474e+01	-1.423275e+03
3.800000e-07	-3.992849e-06	-2.156262e-08	-2.882784e+01	-1.414549e+03
3.900000e-07	-3.925186e-06	-2.137918e-08	-2.833932e+01	-1.405531e+03
4.000000e-07	-3.856126e-06	-2.121725e-08	-2.784072e+01	-1.396197e+03
4.100000e-07	-3.785843e-06	-2.110855e-08	-2.733328e+01	-1.386520e+03
4.200000e-07	-3.714414e-06	-2.096647e-08	-2.681758e+01	-1.376473e+03
4.300000e-07	-3.641657e-06	-2.080792e-08	-2.629228e+01	-1.366028e+03
4.400000e-07	-3.567240e-06	-2.063545e-08	-2.575500e+01	-1.355165e+03
4.500000e-07	-3.491283e-06	-2.045533e-08	-2.520660e+01	-1.343868e+03
4.600000e-07	-3.414045e-06	-2.026982e-08	-2.464896e+01	-1.332128e+03
4.700000e-07	-3.335530e-06	-2.007803e-08	-2.408208e+01	-1.319939e+03
4.800000e-07	-3.255640e-06	-1.989705e-08	-2.350529e+01	-1.307298e+03
4.900000e-07	-3.174465e-06	-1.969868e-08	-2.291921e+01	-1.294197e+03
5.000000e-07	-3.092194e-06	-1.949179e-08	-2.232523e+01	-1.280625e+03
5.100000e-07	-3.008928e-06	-1.927251e-08	-2.172406e+01	-1.266562e+03
5.200000e-07	-2.924806e-06	-1.904367e-08	-2.111671e+01	-1.251983e+03
5.300000e-07	-2.839837e-06	-1.881061e-08	-2.050325e+01	-1.236859e+03
5.400000e-07	-2.753885e-06	-1.857128e-08	-1.988268e+01	-1.221156e+03
5.500000e-07	-2.666965e-06	-1.832316e-08	-1.925514e+01	-1.204840e+03
5.600000e-07	-2.579203e-06	-1.806430e-08	-1.862150e+01	-1.187878e+03
5.700000e-07	-2.490478e-06	-1.779989e-08	-1.798092e+01	-1.170238e+03
5.800000e-07	-2.400506e-06	-1.751624e-08	-1.733134e+01	-1.151890e+03
5.900000e-07	-2.309392e-06	-1.721485e-08	-1.667351e+01	-1.132802e+03
6.000000e-07	-2.217542e-06	-1.690732e-08	-1.601036e+01	-1.112939e+03
6.100000e-07	-2.125044e-06	-1.659829e-08	-1.534254e+01	-1.092259e+03
6.200000e-07	-2.031763e-06	-1.627963e-08	-1.466906e+01	-1.070713e+03
6.300000e-07	-1.937733e-06	-1.593849e-08	-1.399018e+01	-1.048243e+03
6.400000e-07	-1.843043e-06	-1.557138e-08	-1.330653e+01	-1.024781e+03
6.500000e-07	-1.747769e-06	-1.518589e-08	-1.261866e+01	-1.000254e+03
6.600000e-07	-1.651959e-06	-1.478936e-08	-1.192693e+01	-9.745828e+02
6.700000e-07	-1.555605e-06	-1.438194e-08	-1.123126e+01	-9.476858e+02
6.800000e-07	-1.458607e-06	-1.395992e-08	-1.053095e+01	-9.194794e+02
6.900000e-07	-1.360847e-06	-1.351235e-08	-9.825136e+00	-8.898794e+02
7.000000e-07	-1.262432e-06	-1.303500e-08	-9.114589e+00	-8.588024e+02
7.100000e-07	-1.163507e-06	-1.252708e-08	-8.400369e+00	-8.261670e+02
7.200000e-07	-1.064176e-06	-1.199758e-08	-7.683210e+00	-7.918963e+02
7.300000e-07	-9.645913e-07	-1.145178e-08	-6.964221e+00	-7.559229e+02
7.400000e-07	-8.648287e-07	-1.088523e-08	-6.243949e+00	-7.181956e+02
7.500000e-07	-7.648549e-07	-1.028984e-08	-5.522151e+00	-6.786884e+02
7.600000e-07	-6.646577e-07	-9.661194e-09	-4.798741e+00	-6.374097e+02
7.700000e-07	-5.642932e-07	-9.002716e-09	-4.074122e+00	-5.944118e+02
7.800000e-07	-4.637537e-07	-8.318865e-09	-3.348240e+00	-5.497964e+02
7.900000e-07	-3.630310e-07	-7.616486e-09	-2.621035e+00	-5.037155e+02
8.000000e-07	-2.621443e-07	-6.897530e-09	-1.892647e+00	-4.563655e+02
8.100000e-07	-1.610979e-07	-6.164386e-09	-1.163106e+00	-4.079743e+02
8.200000e-07	-5.997400e-08	-5.418101e-09	-4.330043e-01	-3.587813e+02
8.300000e-07	4.119607e-08	-4.660177e-09	2.974302e-01	-3.090134e+02
8.400000e-07	1.423914e-07	-3.893650e-09	1.028047e+00	-2.588596e+02
8.500000e-07	2.435391e-07	-3.125783e-09	1.758320e+00	-2.084480e+02
8.600000e-07	3.446027e-07	-2.359748e-09	2.487986e+00	-1.578304e+02
8.700000e-07	4.455448e-07	-1.590785e-09	3.216774e+00	-1.069767e+02
8.800000e-07	5.462898e-07	-8.152381e-10	3.944140e+00	-5.578193e+01
8.900000e-07	6.468446e-07	-2.674060e-11	4.670132e+00	-4.085532e+00
9.000000e-07	7.472151e-07	7.763684e-10	5.394794e+00	4.829826e+01
9.100000e-07	8.473663e-07	1.591655e-09	6.117872e+00	1.015437e+02
9.200000e-07	9.472990e-07	2.418023e-09	6.839373e+00	1.557750e+02
9.300000e-07	1.047020e-06	3.255751e-09	7.559349e+00	2.110320e+02
9.400000e-07	1.146539e-06	4.106428e-09	8.277862e+00	2.672452e+02
9.500000e-07	1.245678e-06	4.969578e-09	8.993630e+00	3.242249e+02
9.600000e-07	1.344199e-06	5.845071e-09	9.704939e+00	3.816646e+02
9.700000e-07	1.442026e-06	6.725483e-09	1.041123e+01	4.391609e+02
9.800000e-07	1.539131e-06	7.598454e-09	1.111232e+01	4.962450e+02
9.900000e-07	1.635522e-06	8.452804e-09	1.180825e+01	5.524223e+02
1.000000e-06	1.731258e-06	9.282720e-09	1.249945e+01	6.072141e+02
1.010000e-06	1.826393e-06	1.008659e-08	1.318632e+01	6.601960e+02
1.020000e-06	1.920907e-06	1.085769e-08	1.386869e+01	7.110272e+02
1.030000e-06	2.014783e-06	1.159089e-08	1.454647e+01	7.594691e+02
1.040000e-06	2.107920e-06	1.228611e-08	1.521891e+01	8.053892e+02
1.050000e-06	2.200352e-06	1.294078e-08	1.588625e+01	8.487544e+02
1.060000e-06	2.292230e-06	1.355726e-08	1.654960e+01	8.896137e+02
1.070000e-06	2.383389e-06	1.413942e-08	1.720775e+01	9.280758e+02
1.080000e-06	2.473539e-06	1.469198e-08	1.785862e+01	9.642845e+02
1.090000e-06	2.562559e-06	1.521407e-08	1.850133e+01	9.983977e+02
1.100000e-06	2.650570e-06	1.570615e-08	1.913677e+01	1.030570e+03
1.110000e-06	2.737668e-06	1.616674e-08	1.976560e+01	1.060943e+03
1.120000e-06	2.823872e-06	1.659819e-08	2.038798e+01	1.089641e+03
1.130000e-06	2.909158e-06	1.700678e-08	2.100373e+01	1.116772e+03
1.140000e-06	2.993552e-06	1.739532e-08	2.161305e+01	1.142433e+03
1.150000e-06	3.077093e-06	1.776483e-08	2.221621e+01	1.166713e+03
1.160000e-06	3.159529e-06	1.811668e-08	2.281138e+01	1.189699e+03
1.170000e-06	3.240749e-06	1.845144e-08	2.339778e+01	1.211476e+03
1.180000e-06	3.320755e-06	1.876804e-08	2.397541e+01	1.232129e+03
1.190000e-06	3.399589e-06	1.906739e-08	2.454458e+01	1.251736e+03
1.200000e-06	3.477336e-06	1.934873e-08	2.510590e+01	1.270372e+03
1.210000e-06	3.553890e-06	1.961495e-08	2.565862e+01	1.288100e+03
1.220000e-06	3.629132e-06	1.986940e-08	2.620185e+01	1.304973e+03
1.230000e-06	3.702836e-06	2.011438e-08	2.673398e+01	1.321037e+03
1.240000e-06	3.774976e-06	2.034610e-08	2.725483e+01	1.336328e+03
1.250000e-06	3.845734e-06	2.056469e-08	2.776569e+01	1.350880e+03
1.260000e-06	3.915058e-06	2.077239e-08	2.826620e+01	1.364727e+03
1.270000e-06	3.983099e-06	2.097142e-08	2.875744e+01	1.377903e+03
1.280000e-06	4.049808e-06	2.116161e-08	2.923907e+01	1.390447e+03
1.290000e-06	4.114841e-06	2.134357e-08	2.970860e+01	1.402396e+03
1.300000e-06	4.178309e-06	2.151828e-08	3.016684e+01	1.413787e+03
1.310000e-06	4.240354e-06	2.168419e-08	3.061479e+01	1.424652e+03
1.320000e-06	4.301000e-06	2.184085e-08	3.105265e+01	1.435013e+03
1.330000e-06	4.360279e-06	2.199032e-08	3.148063e+01	1.444887e+03
1.340000e-06	4.417925e-06	2.213270e-08	3.189683e+01	1.454279e+03
1.350000e-06	4.473786e-06	2.226845e-08	3.230014e+01	1.463191e+03
1.360000e-06	4.528037e-06	2.239904e-08	3.269183e+01	1.471623e+03
1.370000e-06	4.580663e-06	2.252260e-08	3.307178e+01	1.479579e+03
1.380000e-06	4.631358e-06	2.263682e-08	3.343779e+01	1.487071e+03
1.390000e-06	4.679996e-06	2.274262e-08	3.378895e+01	1.494117e+03
1.400000e-06	4.726828e-06	2.284080e-08	3.412707e+01	1.500749e+03
1.410000e-06	4.772097e-06	2.293398e-08	3.445391e+01	1.507002e+03
1.420000e-06	4.815910e-06	2.302412e-08	3.477023e+01	1.512914e+03
1.430000e-06	4.857968e-06	2.310938e-08	3.507388e+01	1.518521e+03
1.440000e-06	4.898132e-06	2.319114e-08	3.536386e+01	1.523850e+03
1.450000e-06	4.936641e-06	2.326828e-08	3.564190e+01	1.528918e+03
1.460000e-06	4.973544e-06	2.334170e-08	3.590833e+01	1.533730e+03
1.470000e-06	5.008839e-06	2.341160e-08	3.616315e+01	1.538279e+03
1.480000e-06	5.042290e-06	2.347692e-08	3.640466e+01	1.542555e+03
1.490000e-06	5.073835e-06	2.353719e-08	3.663241e+01	1.546543e+03
1.500000e-06	5.103694e-06	2.359170e-08	3.684799e+01	1.550232e+03
1.510000e-06	5.131964e-06	2.364230e-08	3.705210e+01	1.553615e+03
1.520000e-06	5.158403e-06	2.368858e-08	3.724298e+01	1.556693e+03
1.530000e-06	5.182736e-06	2.372999e-08	3.741867e+01	1.559476e+03
1.540000e-06	5.205146e-06	2.376830e-08	3.758046e+01	1.561976e+03
1.550000e-06	5.225872e-06	2.380233e-08	3.773010e+01	1.564208e+03
1.560000e-06	5.244888e-06	2.383090e-08	3.786740e+01	1.566186e+03
1.570000e-06	5.261987e-06	2.385595e-08	3.799084e+01	1.567921e+03
1.580000e-06	5.277087e-06	2.387907e-08	3.809987e+01	1.569421e+03
1.590000e-06	5.290205e-06	2.389990e-08	3.819458e+01	1.570691e+03
1.600000e-06	5.301216e-06	2.391618e-08	3.827408e+01	1.571732e+03
1.610000e-06	5.310112e-06	2.392886e-08	3.833830e+01	1.572548e+03
1.620000e-06	5.317093e-06	2.393779e-08	3.838870e+01	1.573146e+03
1.630000e-06	5.322263e-06	2.394350e-08	3.842604e+01	1.573531e+03
1.640000e-06	5.325613e-06	2.394712e-08	3.845022e+01	1.573715e+03
1.650000e-06	5.326968e-06	2.395003e-08	3.846000e+01	1.573706e+03
1.660000e-06	5.326411e-06	2.394877e-08	3.845598e+01	1.573511e+03
1.670000e-06	5.324207e-06	2.393924e-08	3.844006e+01	1.573134e+03
1.680000e-06	5.320424e-06	2.393135e-08	3.841276e+01	1.572570e+03
1.690000e-06	5.314819e-06	2.392227e-08	3.837229e+01	1.571813e+03
1.700000e-06	5.307292e-06	2.390875e-08	3.831794e+01	1.570850e+03
1.710000e-06	5.298140e-06	2.389219e-08	3.825187e+01	1.569672e+03
1.720000e-06	5.287382e-06	2.387515e-08	3.817420e+01	1.568271e+03
1.730000e-06	5.274811e-06	2.386772e-08	3.808343e+01	1.566651e+03
1.740000e-06	5.260277e-06	2.379413e-08	3.797850e+01	1.564821e+03
1.750000e-06	5.243600e-06	2.370395e-08	3.785810e+01	1.562802e+03
1.760000e-06	5.224506e-06	2.371328e-08	3.772024e+01	1.560620e+03
1.770000e-06	5.202847e-06	2.370985e-08	3.756386e+01	1.558304e+03
1.780000e-06	5.179230e-06	2.376219e-08	3.739335e+01	1.555879e+03
1.790000e-06	5.154723e-06	2.371989e-08	3.721642e+01	1.553361e+03
1.800000e-06	5.129390e-06	2.349816e-08	3.703352e+01	1.550754e+03
1.810000e-06	5.102289e-06	2.357468e-08	3.683785e+01	1.548050e+03
1.820000e-06	5.073128e-06	2.354962e-08	3.662731e+01	1.545226e+03
1.830000e-06	5.042253e-06	2.337863e-08	3.640439e+01	1.542251e+03
1.840000e-06	5.009496e-06	2.355518e-08	3.616790e+01	1.539090e+03
1.850000e-06	4.974913e-06	2.348387e-08	3.591821e+01	1.535708e+03
1.860000e-06	4.938752e-06	2.326610e-08	3.565714e+01	1.532077e+03
1.870000e-06	4.900685e-06	2.335415e-08	3.538230e+01	1.528174e+03
1.880000e-06	4.860828e-06	2.323378e-08	3.509453e+01	1.523987e+03
1.890000e-06	4.819320e-06	2.313152e-08	3.479485e+01	1.519511e+03
1.900000e-06	4.776068e-06	2.311288e-08	3.448257e+01	1.514747e+03
1.910000e-06	4.731133e-06	2.297914e-08	3.415815e+01	1.509695e+03
1.920000e-06	4.684328e-06	2.307601e-08	3.382022e+01	1.504357e+03
1.930000e-06	4.635824e-06	2.295297e-08	3.347003e+01	1.498731e+03
1.940000e-06	4.585682e-06	2.273675e-08	3.310802e+01	1.492813e+03
1.950000e-06	4.533591e-06	2.269763e-08	3.273192e+01	1.486598e+03
1.960000e-06	4.479545e-06	2.256164e-08	3.234172e+01	1.480080e+03
1.970000e-06	4.423648e-06	2.251360e-08	3.193815e+01	1.473258e+03
1.980000e-06	4.366072e-06	2.237974e-08	3.152246e+01	1.466135e+03
1.990000e-06	4.307087e-06	2.227685e-08	3.109660e+01	1.458716e+03
2.000000e-06	4.246786e-06	2.225228e-08	3.066123e+01	1.451011e+03
2.010000e-06	4.184936e-06	2.201349e-08	3.021468e+01	1.443029e+03
2.020000e-06	4.121287e-06	2.187562e-08	2.975514e+01	1.434775e+03
2.030000e-06	4.056074e-06	2.177317e-08	2.928432e+01	1.426249e+03
2.040000e-06	3.989524e-06	2.168081e-08	2.880383e+01	1.417441e+03
2.050000e-06	3.921660e-06	2.156370e-08	2.831386e+01	1.408334e+03
2.060000e-06	3.852420e-06	2.134353e-08	2.781396e+01	1.398904e+03
2.070000e-06	3.781578e-06	2.123174e-08	2.730249e+01	1.389124e+03
2.080000e-06	3.709351e-06	2.106340e-08	2.678102e+01	1.378965e+03
2.090000e-06	3.635913e-06	2.089458e-08	2.625081e+01	1.368402e+03
2.100000e-06	3.561162e-06	2.074553e-08	2.571112e+01	1.357415e+03
2.110000e-06	3.485081e-06	2.057916e-08	2.516182e+01	1.345991e+03
2.120000e-06	3.407503e-06	2.042699e-08	2.460172e+01	1.334123e+03
2.130000e-06	3.328442e-06	2.019720e-08	2.403091e+01	1.321805e+03
2.140000e-06	3.248169e-06	1.999685e-08	2.345135e+01	1.309033e+03
2.150000e-06	3.166812e-06	1.979565e-08	2.286396e+01	1.295798e+03
2.160000e-06	3.084362e-06	1.959799e-08	2.226869e+01	1.282087e+03
2.170000e-06	3.000944e-06	1.939459e-08	2.166641e+01	1.267879e+03
2.180000e-06	2.916673e-06	1.916018e-08	2.105799e+01	1.253147e+03
2.190000e-06	2.831291e-06	1.893833e-08	2.044155e+01	1.237861e+03
2.200000e-06	2.744520e-06	1.869514e-08	1.981507e+01	1.221985e+03
2.210000e-06	2.656632e-06	1.844336e-08	1.918053e+01	1.205487e+03
2.220000e-06	2.567935e-06	1.817150e-08	1.854015e+01	1.188334e+03
2.230000e-06	2.478338e-06	1.790552e-08	1.789327e+01	1.170494e+03
2.240000e-06	2.387841e-06	1.763377e-08	1.723990e+01	1.151937e+03
2.250000e-06	2.296616e-06	1.733948e-08	1.658126e+01	1.132631e+03
2.260000e-06	2.204737e-06	1.702694e-08	1.591791e+01	1.112539e+03
2.270000e-06	2.112165e-06	1.669774e-08	1.524955e+01	1.091616e+03
2.280000e-06	2.018696e-06	1.636987e-08	1.457472e+01	1.069812e+03
2.290000e-06	1.924143e-06	1.603069e-08	1.389206e+01	1.047064e+03
2.300000e-06	1.828672e-06	1.567816e-08	1.320277e+01	1.023305e+03
2.310000e-06	1.732624e-06	1.530567e-08	1.250932e+01	9.984587e+02
2.320000e-06	1.636139e-06	1.490775e-08	1.181271e+01	9.724453e+02
2.330000e-06	1.539184e-06	1.448164e-08	1.111270e+01	9.451821e+02
2.340000e-06	1.441705e-06	1.403525e-08	1.040892e+01	9.165854e+02
2.350000e-06	1.343771e-06	1.358158e-08	9.701847e+00	8.865712e+02
2.360000e-06	1.245449e-06	1.311571e-08	8.991978e+00	8.550565e+02
2.370000e-06	1.146763e-06	1.262084e-08	8.279474e+00	8.219607e+02
2.380000e-06	1.047737e-06	1.208622e-08	7.564525e+00	7.872091e+02
2.390000e-06	9.484045e-07	1.152129e-08	6.847355e+00	7.507383e+02
2.400000e-06	8.488491e-07	1.093227e-08	6.128578e+00	7.125031e+02
2.410000e-06	7.490775e-07	1.032061e-08	5.408240e+00	6.724864e+02
2.420000e-06	6.490893e-07	9.685584e-09	4.686339e+00	6.307084e+02
2.430000e-06	5.489550e-07	9.026095e-09	3.963382e+00	5.872351e+02
2.440000e-06	4.486913e-07	8.339977e-09	3.239491e+00	5.421827e+02
2.450000e-06	3.482822e-07	7.626222e-09	2.514551e+00	4.957168e+02
2.460000e-06	2.477225e-07	6.889317e-09	1.788523e+00	4.480445e+02
2.470000e-06	1.470495e-07	6.141186e-09	1.061678e+00	3.993992e+02
2.480000e-06	4.628722e-08	5.391801e-09	3.341876e-01	3.500193e+02
2.490000e-06	-5.448641e-08	4.634978e-09	-3.933846e-01	3.001235e+02
2.500000e-06	-1.552303e-07	3.867122e-09	-1.120742e+00	2.498854e+02
2.510000e-06	-2.559333e-07	3.093278e-09	-1.847804e+00	1.994126e+02
2.520000e-06	-3.565319e-07	2.315679e-09	-2.574113e+00	1.487334e+02
2.530000e-06	-4.570385e-07	1.531551e-09	-3.299757e+00	9.779523e+01
2.540000e-06	-5.574094e-07	7.436955e-10	-4.024422e+00	4.647457e+01
2.550000e-06	-6.576154e-07	-4.724016e-11	-4.747896e+00	-5.399715e+00
2.560000e-06	-7.576284e-07	-8.459045e-10	-5.469976e+00	-5.801406e+01
2.570000e-06	-8.574041e-07	-1.660656e-09	-6.190344e+00	-1.115323e+02
2.580000e-06	-9.569086e-07	-2.496605e-09	-6.908753e+00	-1.660576e+02
2.590000e-06	-1.056089e-06	-3.348608e-09	-7.624823e+00	-2.216008e+02
2.600000e-06	-1.154954e-06	-4.212500e-09	-8.338612e+00	-2.780584e+02
2.610000e-06	-1.253492e-06	-5.083318e-09	-9.050049e+00	-3.352062e+02
2.620000e-06	-1.351573e-06	-5.957980e-09	-9.758175e+00	-3.927074e+02
2.630000e-06	-1.449082e-06	-6.834139e-09	-1.046218e+01	-4.501364e+02
2.640000e-06	-1.546056e-06	-7.706822e-09	-1.116232e+01	-5.070126e+02
2.650000e-06	-1.642539e-06	-8.567674e-09	-1.185892e+01	-5.628418e+02
2.660000e-06	-1.738564e-06	-9.403550e-09	-1.255220e+01	-6.171573e+02
2.670000e-06	-1.834096e-06	-1.020644e-08	-1.324193e+01	-6.695559e+02
2.680000e-06	-1.928902e-06	-1.097220e-08	-1.392641e+01	-7.197248e+02
2.690000e-06	-2.022779e-06	-1.170004e-08	-1.460419e+01	-7.674558e+02
2.700000e-06	-2.115697e-06	-1.239279e-08	-1.527505e+01	-8.126460e+02
2.710000e-06	-2.207746e-06	-1.304967e-08	-1.593963e+01	-8.552878e+02
2.720000e-06	-2.299048e-06	-1.366967e-08	-1.659882e+01	-8.954498e+02
2.730000e-06	-2.389595e-06	-1.425246e-08	-1.725256e+01	-9.332531e+02
2.740000e-06	-2.479277e-06	-1.479909e-08	-1.790005e+01	-9.688476e+02
2.750000e-06	-2.568115e-06	-1.531105e-08	-1.854145e+01	-1.002392e+03
2.760000e-06	-2.656205e-06	-1.579355e-08	-1.917745e+01	-1.034037e+03
2.770000e-06	-2.743485e-06	-1.625127e-08	-1.980760e+01	-1.063920e+03
2.780000e-06	-2.829666e-06	-1.668340e-08	-2.042981e+01	-1.092160e+03
2.790000e-06	-2.914570e-06	-1.709139e-08	-2.104281e+01	-1.118862e+03
2.800000e-06	-2.998432e-06	-1.747819e-08	-2.164828e+01	-1.144120e+03
2.810000e-06	-3.081393e-06	-1.784328e-08	-2.224725e+01	-1.168023e+03
2.820000e-06	-3.163352e-06	-1.818764e-08	-2.283898e+01	-1.190655e+03
2.830000e-06	-3.244227e-06	-1.851448e-08	-2.342289e+01	-1.212104e+03
2.840000e-06	-3.324075e-06	-1.882760e-08	-2.399938e+01	-1.232450e+03
2.850000e-06	-3.402737e-06	-1.912671e-08	-2.456731e+01	-1.251774e+03
2.860000e-06	-3.479895e-06	-1.940861e-08	-2.512438e+01	-1.270145e+03
2.870000e-06	-3.555538e-06	-1.967462e-08	-2.567051e+01	-1.287624e+03
2.880000e-06	-3.629798e-06	-1.992631e-08	-2.620666e+01	-1.304262e+03
2.890000e-06	-3.702748e-06	-2.016750e-08	-2.673335e+01	-1.320102e+03
2.900000e-06	-3.774480e-06	-2.040085e-08	-2.725124e+01	-1.335180e+03
2.910000e-06	-3.844831e-06	-2.062479e-08	-2.775917e+01	-1.349528e+03
2.920000e-06	-3.913607e-06	-2.083813e-08	-2.825572e+01	-1.363180e+03
2.930000e-06	-3.981019e-06	-2.103783e-08	-2.874243e+01	-1.376172e+03
2.940000e-06	-4.047117e-06	-2.122573e-08	-2.921965e+01	-1.388543e+03
