# Temperatura_=_66.25
# Concentracion g/m^3_=_28200.0
# C_Vs_to_Am_M_A/Vsm_=_65563218390.804596
# pendiente_HvsI_1/m_=_3716.3
# ordenada_HvsI_A/m_=_1297.0
# frecuencia_Hz_=_301768.5945348829

Tiempo_(s)	Campo_(V.s)	Magnetizacion_(V.s)	Campo_(kA/m)	Magnetizacion_(A/m)
0.000000e+00	-5.333887e-06	-2.358727e-08	-3.829376e+01	-1.544111e+03
1.000000e-08	-5.331672e-06	-2.358591e-08	-3.827787e+01	-1.543686e+03
2.000000e-08	-5.327618e-06	-2.357561e-08	-3.824876e+01	-1.543082e+03
3.000000e-08	-5.321862e-06	-2.356334e-08	-3.820744e+01	-1.542306e+03
4.000000e-08	-5.314539e-06	-2.354904e-08	-3.815486e+01	-1.541354e+03
5.000000e-08	-5.305485e-06	-2.352731e-08	-3.808986e+01	-1.540216e+03
6.000000e-08	-5.294373e-06	-2.350247e-08	-3.801008e+01	-1.538880e+03
7.000000e-08	-5.281372e-06	-2.346419e-08	-3.791674e+01	-1.537333e+03
8.000000e-08	-5.266374e-06	-2.346054e-08	-3.780907e+01	-1.535566e+03
9.000000e-08	-5.249076e-06	-2.351540e-08	-3.768488e+01	-1.533582e+03
1.000000e-07	-5.229664e-06	-2.347611e-08	-3.754551e+01	-1.531396e+03
1.100000e-07	-5.208412e-06	-2.338547e-08	-3.739294e+01	-1.529031e+03
1.200000e-07	-5.185459e-06	-2.332322e-08	-3.722815e+01	-1.526518e+03
1.300000e-07	-5.160994e-06	-2.316344e-08	-3.705251e+01	-1.523891e+03
1.400000e-07	-5.135011e-06	-2.319988e-08	-3.686597e+01	-1.521174e+03
1.500000e-07	-5.107368e-06	-2.332051e-08	-3.666751e+01	-1.518382e+03
1.600000e-07	-5.078160e-06	-2.310092e-08	-3.645781e+01	-1.515511e+03
1.700000e-07	-5.047458e-06	-2.312182e-08	-3.623740e+01	-1.512539e+03
1.800000e-07	-5.014809e-06	-2.315193e-08	-3.600300e+01	-1.509431e+03
1.900000e-07	-4.980100e-06	-2.287537e-08	-3.575381e+01	-1.506141e+03
2.000000e-07	-4.943840e-06	-2.295239e-08	-3.549349e+01	-1.502620e+03
2.100000e-07	-4.906044e-06	-2.298951e-08	-3.522214e+01	-1.498826e+03
2.200000e-07	-4.866507e-06	-2.278924e-08	-3.493829e+01	-1.494727e+03
2.300000e-07	-4.825081e-06	-2.275775e-08	-3.464088e+01	-1.490306e+03
2.400000e-07	-4.781664e-06	-2.265109e-08	-3.432917e+01	-1.485562e+03
2.500000e-07	-4.736451e-06	-2.254978e-08	-3.400458e+01	-1.480505e+03
2.600000e-07	-4.689479e-06	-2.254277e-08	-3.366735e+01	-1.475151e+03
2.700000e-07	-4.640528e-06	-2.239920e-08	-3.331591e+01	-1.469521e+03
2.800000e-07	-4.589449e-06	-2.228369e-08	-3.294920e+01	-1.463629e+03
2.900000e-07	-4.536379e-06	-2.221606e-08	-3.256819e+01	-1.457484e+03
3.000000e-07	-4.481673e-06	-2.211913e-08	-3.217544e+01	-1.451086e+03
3.100000e-07	-4.425412e-06	-2.200957e-08	-3.177152e+01	-1.444429e+03
3.200000e-07	-4.367361e-06	-2.192499e-08	-3.135475e+01	-1.437503e+03
3.300000e-07	-4.307564e-06	-2.183134e-08	-3.092545e+01	-1.430294e+03
3.400000e-07	-4.246290e-06	-2.167057e-08	-3.048554e+01	-1.422794e+03
3.500000e-07	-4.183631e-06	-2.154861e-08	-3.003570e+01	-1.414996e+03
3.600000e-07	-4.119582e-06	-2.143981e-08	-2.957586e+01	-1.406898e+03
3.700000e-07	-4.054056e-06	-2.133002e-08	-2.910543e+01	-1.398500e+03
3.800000e-07	-3.986938e-06	-2.121730e-08	-2.862357e+01	-1.389801e+03
3.900000e-07	-3.918271e-06	-2.103745e-08	-2.813059e+01	-1.380797e+03
4.000000e-07	-3.848295e-06	-2.088533e-08	-2.762820e+01	-1.371480e+03
4.100000e-07	-3.777154e-06	-2.075968e-08	-2.711746e+01	-1.361833e+03
4.200000e-07	-3.704722e-06	-2.060724e-08	-2.659744e+01	-1.351836e+03
4.300000e-07	-3.630803e-06	-2.044624e-08	-2.606675e+01	-1.341465e+03
4.400000e-07	-3.555350e-06	-2.028200e-08	-2.552505e+01	-1.330696e+03
4.500000e-07	-3.478472e-06	-2.010641e-08	-2.497312e+01	-1.319506e+03
4.600000e-07	-3.400277e-06	-1.991272e-08	-2.441173e+01	-1.307877e+03
4.700000e-07	-3.320713e-06	-1.973420e-08	-2.384051e+01	-1.295795e+03
4.800000e-07	-3.239793e-06	-1.955673e-08	-2.325956e+01	-1.283250e+03
4.900000e-07	-3.157685e-06	-1.935804e-08	-2.267008e+01	-1.270232e+03
5.000000e-07	-3.074531e-06	-1.914755e-08	-2.207309e+01	-1.256732e+03
5.100000e-07	-2.990468e-06	-1.892460e-08	-2.146957e+01	-1.242738e+03
5.200000e-07	-2.905606e-06	-1.869851e-08	-2.086032e+01	-1.228229e+03
5.300000e-07	-2.819817e-06	-1.846910e-08	-2.024441e+01	-1.213181e+03
5.400000e-07	-2.733050e-06	-1.823132e-08	-1.962148e+01	-1.197563e+03
5.500000e-07	-2.645382e-06	-1.798380e-08	-1.899209e+01	-1.181340e+03
5.600000e-07	-2.556704e-06	-1.772209e-08	-1.835544e+01	-1.164472e+03
5.700000e-07	-2.466867e-06	-1.745369e-08	-1.771047e+01	-1.146921e+03
5.800000e-07	-2.375930e-06	-1.717862e-08	-1.705760e+01	-1.128646e+03
5.900000e-07	-2.284127e-06	-1.689200e-08	-1.639851e+01	-1.109605e+03
6.000000e-07	-2.191613e-06	-1.658814e-08	-1.573432e+01	-1.089757e+03
6.100000e-07	-2.098316e-06	-1.627079e-08	-1.506452e+01	-1.069058e+03
6.200000e-07	-2.004183e-06	-1.594002e-08	-1.438870e+01	-1.047458e+03
6.300000e-07	-1.909357e-06	-1.558991e-08	-1.370791e+01	-1.024904e+03
6.400000e-07	-1.813946e-06	-1.522774e-08	-1.302292e+01	-1.001337e+03
6.500000e-07	-1.717907e-06	-1.485257e-08	-1.233343e+01	-9.766898e+02
6.600000e-07	-1.621225e-06	-1.445719e-08	-1.163932e+01	-9.508905e+02
6.700000e-07	-1.523854e-06	-1.404278e-08	-1.094026e+01	-9.238611e+02
6.800000e-07	-1.425771e-06	-1.361116e-08	-1.023609e+01	-8.955189e+02
6.900000e-07	-1.327081e-06	-1.315843e-08	-9.527561e+00	-8.657773e+02
7.000000e-07	-1.227933e-06	-1.268084e-08	-8.815742e+00	-8.345484e+02
7.100000e-07	-1.128434e-06	-1.217715e-08	-8.101408e+00	-8.017458e+02
7.200000e-07	-1.028622e-06	-1.165024e-08	-7.384822e+00	-7.672898e+02
7.300000e-07	-9.285582e-07	-1.109967e-08	-6.666431e+00	-7.311142e+02
7.400000e-07	-8.282661e-07	-1.052249e-08	-5.946401e+00	-6.931748e+02
7.500000e-07	-7.277474e-07	-9.920261e-09	-5.224743e+00	-6.534594e+02
7.600000e-07	-6.269610e-07	-9.290585e-09	-4.501164e+00	-6.119974e+02
7.700000e-07	-5.258940e-07	-8.632330e-09	-3.775570e+00	-5.688665e+02
7.800000e-07	-4.246676e-07	-7.951391e-09	-3.048831e+00	-5.241962e+02
7.900000e-07	-3.232860e-07	-7.250985e-09	-2.320979e+00	-4.781650e+02
8.000000e-07	-2.217443e-07	-6.532732e-09	-1.591977e+00	-4.309897e+02
8.100000e-07	-1.201054e-07	-5.801530e-09	-8.622772e-01	-3.829094e+02
8.200000e-07	-1.839012e-08	-5.060323e-09	-1.320288e-01	-3.341626e+02
8.300000e-07	8.335287e-08	-4.310438e-09	5.984183e-01	-2.849622e+02
8.400000e-07	1.850754e-07	-3.555416e-09	1.328718e+00	-2.354706e+02
8.500000e-07	2.866912e-07	-2.802052e-09	2.058253e+00	-1.857811e+02
8.600000e-07	3.881647e-07	-2.049778e-09	2.786765e+00	-1.359060e+02
8.700000e-07	4.895539e-07	-1.291502e-09	3.514672e+00	-8.577764e+01
8.800000e-07	5.908346e-07	-5.246265e-10	4.241800e+00	-3.526114e+01
8.900000e-07	6.919342e-07	2.565710e-10	4.967628e+00	1.582110e+01
9.000000e-07	7.927857e-07	1.052402e-09	5.691675e+00	6.765612e+01
9.100000e-07	8.933829e-07	1.859549e-09	6.413896e+00	1.204028e+02
9.200000e-07	9.937244e-07	2.678422e-09	7.134282e+00	1.741555e+02
9.300000e-07	1.093759e-06	3.508544e-09	7.852461e+00	2.289136e+02
9.400000e-07	1.193473e-06	4.351328e-09	8.568343e+00	2.845633e+02
9.500000e-07	1.292847e-06	5.205834e-09	9.281781e+00	3.408719e+02
9.600000e-07	1.391810e-06	6.068304e-09	9.992271e+00	3.974992e+02
9.700000e-07	1.490163e-06	6.930417e-09	1.069838e+01	4.540206e+02
9.800000e-07	1.587706e-06	7.781755e-09	1.139868e+01	5.099617e+02
9.900000e-07	1.684385e-06	8.616054e-09	1.209277e+01	5.648381e+02
1.000000e-06	1.780326e-06	9.427648e-09	1.278156e+01	6.181952e+02
1.010000e-06	1.875694e-06	1.020931e-08	1.346623e+01	6.696426e+02
1.020000e-06	1.970452e-06	1.095472e-08	1.414653e+01	7.188791e+02
1.030000e-06	2.064498e-06	1.166258e-08	1.482172e+01	7.657062e+02
1.040000e-06	2.157836e-06	1.233354e-08	1.549183e+01	8.100287e+02
1.050000e-06	2.250484e-06	1.296693e-08	1.615698e+01	8.518443e+02
1.060000e-06	2.342420e-06	1.356309e-08	1.681702e+01	8.912252e+02
1.070000e-06	2.433641e-06	1.412572e-08	1.747193e+01	9.282948e+02
1.080000e-06	2.523981e-06	1.465646e-08	1.812051e+01	9.632043e+02
1.090000e-06	2.613189e-06	1.515667e-08	1.876096e+01	9.961120e+02
1.100000e-06	2.701282e-06	1.562833e-08	1.939341e+01	1.027168e+03
1.110000e-06	2.788520e-06	1.607379e-08	2.001972e+01	1.056506e+03
1.120000e-06	2.874883e-06	1.649372e-08	2.063975e+01	1.084240e+03
1.130000e-06	2.960227e-06	1.689104e-08	2.125246e+01	1.110466e+03
1.140000e-06	3.044645e-06	1.726852e-08	2.185853e+01	1.135272e+03
1.150000e-06	3.128227e-06	1.762536e-08	2.245859e+01	1.158736e+03
1.160000e-06	3.210774e-06	1.796286e-08	2.305122e+01	1.180938e+03
1.170000e-06	3.292045e-06	1.828354e-08	2.363470e+01	1.201961e+03
1.180000e-06	3.372074e-06	1.858859e-08	2.420925e+01	1.221886e+03
1.190000e-06	3.450934e-06	1.887715e-08	2.477541e+01	1.240797e+03
1.200000e-06	3.528564e-06	1.914810e-08	2.533275e+01	1.258771e+03
1.210000e-06	3.604967e-06	1.940410e-08	2.588127e+01	1.275878e+03
1.220000e-06	3.680085e-06	1.965010e-08	2.642057e+01	1.292175e+03
1.230000e-06	3.753607e-06	1.988600e-08	2.694841e+01	1.307709e+03
1.240000e-06	3.825531e-06	2.011093e-08	2.746477e+01	1.322516e+03
1.250000e-06	3.896077e-06	2.032570e-08	2.797125e+01	1.336626e+03
1.260000e-06	3.965261e-06	2.052942e-08	2.846794e+01	1.350062e+03
1.270000e-06	4.033137e-06	2.072155e-08	2.895525e+01	1.362851e+03
1.280000e-06	4.099584e-06	2.090433e-08	2.943229e+01	1.375019e+03
1.290000e-06	4.164373e-06	2.107952e-08	2.989743e+01	1.386597e+03
1.300000e-06	4.227634e-06	2.124752e-08	3.035160e+01	1.397615e+03
1.310000e-06	4.289439e-06	2.140700e-08	3.079532e+01	1.408104e+03
1.320000e-06	4.349840e-06	2.155876e-08	3.122896e+01	1.418089e+03
1.330000e-06	4.408835e-06	2.170383e-08	3.165251e+01	1.427592e+03
1.340000e-06	4.466126e-06	2.184085e-08	3.206382e+01	1.436624e+03
1.350000e-06	4.521686e-06	2.197047e-08	3.246270e+01	1.445193e+03
1.360000e-06	4.575688e-06	2.209555e-08	3.285040e+01	1.453303e+03
1.370000e-06	4.627979e-06	2.221489e-08	3.322581e+01	1.460957e+03
1.380000e-06	4.678210e-06	2.232493e-08	3.358644e+01	1.468167e+03
1.390000e-06	4.726449e-06	2.242522e-08	3.393276e+01	1.474950e+03
1.400000e-06	4.773015e-06	2.251764e-08	3.426708e+01	1.481332e+03
1.410000e-06	4.817992e-06	2.260567e-08	3.458998e+01	1.487348e+03
1.420000e-06	4.861355e-06	2.269155e-08	3.490130e+01	1.493034e+03
1.430000e-06	4.902872e-06	2.277454e-08	3.519937e+01	1.498429e+03
1.440000e-06	4.942558e-06	2.285421e-08	3.548428e+01	1.503560e+03
1.450000e-06	4.980595e-06	2.292950e-08	3.575736e+01	1.508446e+03
1.460000e-06	5.017031e-06	2.299992e-08	3.601895e+01	1.513091e+03
1.470000e-06	5.051791e-06	2.306737e-08	3.626850e+01	1.517489e+03
1.480000e-06	5.084641e-06	2.313113e-08	3.650435e+01	1.521620e+03
1.490000e-06	5.115690e-06	2.318873e-08	3.672726e+01	1.525463e+03
1.500000e-06	5.145080e-06	2.324004e-08	3.693826e+01	1.528997e+03
1.510000e-06	5.172739e-06	2.328535e-08	3.713683e+01	1.532211e+03
1.520000e-06	5.198443e-06	2.332614e-08	3.732137e+01	1.535103e+03
1.530000e-06	5.222118e-06	2.336460e-08	3.749134e+01	1.537682e+03
1.540000e-06	5.243933e-06	2.340062e-08	3.764795e+01	1.539967e+03
1.550000e-06	5.264035e-06	2.343222e-08	3.779227e+01	1.541986e+03
1.560000e-06	5.282310e-06	2.345957e-08	3.792348e+01	1.543764e+03
1.570000e-06	5.298548e-06	2.348427e-08	3.804006e+01	1.545322e+03
1.580000e-06	5.312811e-06	2.350569e-08	3.814246e+01	1.546677e+03
1.590000e-06	5.325125e-06	2.352222e-08	3.823086e+01	1.547832e+03
1.600000e-06	5.335273e-06	2.353566e-08	3.830372e+01	1.548787e+03
1.610000e-06	5.343330e-06	2.354730e-08	3.836156e+01	1.549535e+03
1.620000e-06	5.349498e-06	2.355632e-08	3.840584e+01	1.550069e+03
1.630000e-06	5.353861e-06	2.356201e-08	3.843716e+01	1.550386e+03
1.640000e-06	5.356423e-06	2.356563e-08	3.845556e+01	1.550489e+03
1.650000e-06	5.357041e-06	2.356784e-08	3.846000e+01	1.550384e+03
1.660000e-06	5.355790e-06	2.356110e-08	3.845102e+01	1.550083e+03
1.670000e-06	5.352849e-06	2.355058e-08	3.842990e+01	1.549598e+03
1.680000e-06	5.348204e-06	2.354272e-08	3.839656e+01	1.548937e+03
1.690000e-06	5.341683e-06	2.353223e-08	3.834973e+01	1.548104e+03
1.700000e-06	5.333388e-06	2.351776e-08	3.829018e+01	1.547093e+03
1.710000e-06	5.323518e-06	2.350257e-08	3.821932e+01	1.545892e+03
1.720000e-06	5.311960e-06	2.350071e-08	3.813634e+01	1.544488e+03
1.730000e-06	5.298503e-06	2.346867e-08	3.803974e+01	1.542869e+03
1.740000e-06	5.283077e-06	2.333730e-08	3.792898e+01	1.541031e+03
1.750000e-06	5.265416e-06	2.329687e-08	3.780219e+01	1.538979e+03
1.760000e-06	5.245114e-06	2.331772e-08	3.765644e+01	1.536730e+03
1.770000e-06	5.222386e-06	2.333623e-08	3.749327e+01	1.534313e+03
1.780000e-06	5.198143e-06	2.342558e-08	3.731922e+01	1.531759e+03
1.790000e-06	5.173187e-06	2.321302e-08	3.714005e+01	1.529100e+03
1.800000e-06	5.147082e-06	2.310307e-08	3.695263e+01	1.526357e+03
1.810000e-06	5.118858e-06	2.326639e-08	3.675000e+01	1.523539e+03
1.820000e-06	5.088694e-06	2.306767e-08	3.653344e+01	1.520638e+03
1.830000e-06	5.056878e-06	2.309539e-08	3.630502e+01	1.517625e+03
1.840000e-06	5.023158e-06	2.326885e-08	3.606294e+01	1.514463e+03
1.850000e-06	4.987803e-06	2.297320e-08	3.580911e+01	1.511102e+03
1.860000e-06	4.950777e-06	2.295081e-08	3.554329e+01	1.507497e+03
1.870000e-06	4.911806e-06	2.299874e-08	3.526351e+01	1.503607e+03
1.880000e-06	4.871116e-06	2.284242e-08	3.497138e+01	1.499404e+03
1.890000e-06	4.828692e-06	2.290630e-08	3.466680e+01	1.494878e+03
1.900000e-06	4.784569e-06	2.272575e-08	3.435003e+01	1.490030e+03
1.910000e-06	4.738761e-06	2.263238e-08	3.402116e+01	1.484874e+03
1.920000e-06	4.690987e-06	2.272303e-08	3.367817e+01	1.479429e+03
1.930000e-06	4.641478e-06	2.250525e-08	3.332273e+01	1.473711e+03
1.940000e-06	4.590230e-06	2.242710e-08	3.295480e+01	1.467736e+03
1.950000e-06	4.536942e-06	2.236768e-08	3.257223e+01	1.461510e+03
1.960000e-06	4.481809e-06	2.226321e-08	3.217641e+01	1.455029e+03
1.970000e-06	4.424986e-06	2.215779e-08	3.176846e+01	1.448285e+03
1.980000e-06	4.366587e-06	2.196243e-08	3.134920e+01	1.441268e+03
1.990000e-06	4.306769e-06	2.196453e-08	3.091974e+01	1.433965e+03
2.000000e-06	4.245466e-06	2.186427e-08	3.047963e+01	1.426368e+03
2.010000e-06	4.182511e-06	2.168309e-08	3.002765e+01	1.418473e+03
2.020000e-06	4.117924e-06	2.155408e-08	2.956396e+01	1.410278e+03
2.030000e-06	4.051891e-06	2.140218e-08	2.908988e+01	1.401782e+03
2.040000e-06	3.984501e-06	2.134318e-08	2.860607e+01	1.392984e+03
2.050000e-06	3.915617e-06	2.116357e-08	2.811153e+01	1.383880e+03
2.060000e-06	3.845204e-06	2.100957e-08	2.760601e+01	1.374457e+03
2.070000e-06	3.773439e-06	2.090171e-08	2.709078e+01	1.364699e+03
2.080000e-06	3.700407e-06	2.071531e-08	2.656646e+01	1.354584e+03
2.090000e-06	3.626046e-06	2.055888e-08	2.603260e+01	1.344086e+03
2.100000e-06	3.550299e-06	2.038726e-08	2.548879e+01	1.333183e+03
2.110000e-06	3.472993e-06	2.024956e-08	2.493378e+01	1.321853e+03
2.120000e-06	3.394185e-06	2.006401e-08	2.436799e+01	1.310078e+03
2.130000e-06	3.314168e-06	1.984977e-08	2.379352e+01	1.297847e+03
2.140000e-06	3.233054e-06	1.966100e-08	2.321118e+01	1.285150e+03
2.150000e-06	3.150846e-06	1.946047e-08	2.262098e+01	1.271977e+03
2.160000e-06	3.067617e-06	1.927135e-08	2.202345e+01	1.258319e+03
2.170000e-06	2.983425e-06	1.905092e-08	2.141901e+01	1.244160e+03
2.180000e-06	2.898049e-06	1.882820e-08	2.080607e+01	1.229480e+03
2.190000e-06	2.811364e-06	1.859764e-08	2.018373e+01	1.214251e+03
2.200000e-06	2.723599e-06	1.835620e-08	1.955363e+01	1.198441e+03
2.210000e-06	2.634955e-06	1.811083e-08	1.891723e+01	1.182014e+03
2.220000e-06	2.545377e-06	1.784850e-08	1.827412e+01	1.164930e+03
2.230000e-06	2.454885e-06	1.757828e-08	1.762444e+01	1.147150e+03
2.240000e-06	2.363642e-06	1.729274e-08	1.696938e+01	1.128632e+03
2.250000e-06	2.271730e-06	1.699945e-08	1.630951e+01	1.109335e+03
2.260000e-06	2.179018e-06	1.668802e-08	1.564390e+01	1.089217e+03
2.270000e-06	2.085354e-06	1.636869e-08	1.497146e+01	1.068233e+03
2.280000e-06	1.990750e-06	1.604196e-08	1.429226e+01	1.046331e+03
2.290000e-06	1.895307e-06	1.569529e-08	1.360704e+01	1.023457e+03
2.300000e-06	1.799166e-06	1.533050e-08	1.291681e+01	9.995492e+02
2.310000e-06	1.702503e-06	1.495154e-08	1.222284e+01	9.745387e+02
2.320000e-06	1.605432e-06	1.455796e-08	1.152594e+01	9.483517e+02
2.330000e-06	1.507812e-06	1.414003e-08	1.082509e+01	9.209083e+02
2.340000e-06	1.409611e-06	1.369805e-08	1.012007e+01	8.921247e+02
2.350000e-06	1.311002e-06	1.323639e-08	9.412120e+00	8.619134e+02
2.360000e-06	1.212041e-06	1.275674e-08	8.701646e+00	8.301867e+02
2.370000e-06	1.112793e-06	1.225118e-08	7.989115e+00	7.968598e+02
2.380000e-06	1.013274e-06	1.171829e-08	7.274631e+00	7.618563e+02
2.390000e-06	9.134673e-07	1.115857e-08	6.558089e+00	7.251160e+02
2.400000e-06	8.133885e-07	1.056977e-08	5.839589e+00	6.866041e+02
2.410000e-06	7.130222e-07	9.954139e-09	5.119026e+00	6.463207e+02
2.420000e-06	6.124137e-07	9.311192e-09	4.396724e+00	6.043101e+02
2.430000e-06	5.116123e-07	8.644376e-09	3.673036e+00	5.606666e+02
2.440000e-06	4.106216e-07	7.956179e-09	2.947990e+00	5.155362e+02
2.450000e-06	3.094184e-07	7.244930e-09	2.221419e+00	4.691109e+02
2.460000e-06	2.079825e-07	6.514940e-09	1.493176e+00	4.216171e+02
2.470000e-06	1.063997e-07	5.776496e-09	7.638789e-01	3.732961e+02
2.480000e-06	4.756692e-09	5.033739e-09	3.414989e-02	3.243810e+02
2.490000e-06	-9.687347e-08	4.281935e-09	-6.954872e-01	2.750711e+02
2.500000e-06	-1.984561e-07	3.520891e-09	-1.424783e+00	2.255084e+02
2.510000e-06	-2.999196e-07	2.756580e-09	-2.153223e+00	1.757606e+02
2.520000e-06	-4.012142e-07	1.990130e-09	-2.880451e+00	1.258140e+02
2.530000e-06	-5.023921e-07	1.218543e-09	-3.606841e+00	7.557702e+01
2.540000e-06	-6.033778e-07	4.437869e-10	-4.331852e+00	2.489806e+01
2.550000e-06	-7.040564e-07	-3.371843e-10	-5.054657e+00	-2.640750e+01
2.560000e-06	-8.044261e-07	-1.129752e-09	-5.775245e+00	-7.852182e+01
2.570000e-06	-9.045268e-07	-1.939346e-09	-6.493902e+00	-1.315868e+02
2.580000e-06	-1.004352e-06	-2.766562e-09	-7.210577e+00	-1.856691e+02
2.590000e-06	-1.103879e-06	-3.608693e-09	-7.925120e+00	-2.407331e+02
2.600000e-06	-1.203086e-06	-4.463842e-09	-8.637360e+00	-2.966266e+02
2.610000e-06	-1.301946e-06	-5.325881e-09	-9.347105e+00	-3.530806e+02
2.620000e-06	-1.400343e-06	-6.192441e-09	-1.005354e+01	-4.097245e+02
2.630000e-06	-1.498196e-06	-7.057775e-09	-1.075605e+01	-4.661135e+02
2.640000e-06	-1.595491e-06	-7.912848e-09	-1.145456e+01	-5.217658e+02
2.650000e-06	-1.692207e-06	-8.748407e-09	-1.214892e+01	-5.762021e+02
2.660000e-06	-1.788389e-06	-9.555473e-09	-1.283945e+01	-6.289853e+02
2.670000e-06	-1.884124e-06	-1.033186e-08	-1.352676e+01	-6.797512e+02
2.680000e-06	-1.979299e-06	-1.107383e-08	-1.421005e+01	-7.282310e+02
2.690000e-06	-2.073558e-06	-1.177645e-08	-1.488677e+01	-7.742599e+02
2.700000e-06	-2.166724e-06	-1.244174e-08	-1.555564e+01	-8.177740e+02
2.710000e-06	-2.258947e-06	-1.307334e-08	-1.621774e+01	-8.587974e+02
2.720000e-06	-2.350491e-06	-1.367297e-08	-1.687497e+01	-8.974212e+02
2.730000e-06	-2.441284e-06	-1.423813e-08	-1.752680e+01	-9.337805e+02
2.740000e-06	-2.531123e-06	-1.476547e-08	-1.817178e+01	-9.680306e+02
2.750000e-06	-2.620045e-06	-1.525651e-08	-1.881018e+01	-1.000329e+03
2.760000e-06	-2.708179e-06	-1.571804e-08	-1.944293e+01	-1.030820e+03
2.770000e-06	-2.795553e-06	-1.615437e-08	-2.007021e+01	-1.059632e+03
2.780000e-06	-2.881888e-06	-1.656818e-08	-2.069004e+01	-1.086873e+03
2.790000e-06	-2.966901e-06	-1.696440e-08	-2.130038e+01	-1.112635e+03
2.800000e-06	-3.050775e-06	-1.734279e-08	-2.190254e+01	-1.137001e+03
2.810000e-06	-3.133678e-06	-1.769958e-08	-2.249773e+01	-1.160052e+03
2.820000e-06	-3.215499e-06	-1.803389e-08	-2.308515e+01	-1.181868e+03
2.830000e-06	-3.296292e-06	-1.834884e-08	-2.366519e+01	-1.202530e+03
2.840000e-06	-3.376111e-06	-1.864824e-08	-2.423823e+01	-1.222121e+03
2.850000e-06	-3.454633e-06	-1.893289e-08	-2.480197e+01	-1.240724e+03
2.860000e-06	-3.531634e-06	-1.920189e-08	-2.535478e+01	-1.258414e+03
2.870000e-06	-3.607236e-06	-1.945642e-08	-2.589756e+01	-1.275255e+03
2.880000e-06	-3.681429e-06	-1.970110e-08	-2.643021e+01	-1.291304e+03
2.890000e-06	-3.754245e-06	-1.993847e-08	-2.695299e+01	-1.306602e+03
2.900000e-06	-3.825826e-06	-2.016624e-08	-2.746689e+01	-1.321183e+03
2.910000e-06	-3.895899e-06	-2.038271e-08	-2.796996e+01	-1.335075e+03
2.920000e-06	-3.964370e-06	-2.058854e-08	-2.846154e+01	-1.348301e+03
2.930000e-06	-4.031536e-06	-2.078334e-08	-2.894375e+01	-1.360889e+03
2.940000e-06	-4.097315e-06	-2.096549e-08	-2.941600e+01	-1.372865e+03
