# Temperatura_=_53.18
# Concentracion g/m^3_=_28200.0
# C_Vs_to_Am_M_A/Vsm_=_65563218390.804596
# pendiente_HvsI_1/m_=_3716.3
# ordenada_HvsI_A/m_=_1297.0
# frecuencia_Hz_=_301773.1832174083

Tiempo_(s)	Campo_(V.s)	Magnetizacion_(V.s)	Campo_(kA/m)	Magnetizacion_(A/m)
0.000000e+00	-5.323863e-06	-2.128707e-08	-3.829934e+01	-1.392409e+03
1.000000e-08	-5.322056e-06	-2.128452e-08	-3.828634e+01	-1.392143e+03
2.000000e-08	-5.318360e-06	-2.127525e-08	-3.825975e+01	-1.391725e+03
3.000000e-08	-5.313023e-06	-2.126400e-08	-3.822136e+01	-1.391148e+03
4.000000e-08	-5.306041e-06	-2.125396e-08	-3.817113e+01	-1.390395e+03
5.000000e-08	-5.297375e-06	-2.123931e-08	-3.810879e+01	-1.389450e+03
6.000000e-08	-5.286787e-06	-2.121934e-08	-3.803262e+01	-1.388300e+03
7.000000e-08	-5.274240e-06	-2.119448e-08	-3.794236e+01	-1.386941e+03
8.000000e-08	-5.259818e-06	-2.117132e-08	-3.783861e+01	-1.385380e+03
9.000000e-08	-5.243195e-06	-2.119925e-08	-3.771902e+01	-1.383635e+03
1.000000e-07	-5.224346e-06	-2.119763e-08	-3.758342e+01	-1.381734e+03
1.100000e-07	-5.203568e-06	-2.111395e-08	-3.743395e+01	-1.379708e+03
1.200000e-07	-5.181017e-06	-2.105288e-08	-3.727172e+01	-1.377584e+03
1.300000e-07	-5.156907e-06	-2.095152e-08	-3.709828e+01	-1.375381e+03
1.400000e-07	-5.131272e-06	-2.089251e-08	-3.691386e+01	-1.373105e+03
1.500000e-07	-5.103970e-06	-2.102844e-08	-3.671745e+01	-1.370749e+03
1.600000e-07	-5.075068e-06	-2.093547e-08	-3.650953e+01	-1.368289e+03
1.700000e-07	-5.044725e-06	-2.084051e-08	-3.629125e+01	-1.365696e+03
1.800000e-07	-5.012651e-06	-2.092896e-08	-3.606052e+01	-1.362935e+03
1.900000e-07	-4.978489e-06	-2.071602e-08	-3.581476e+01	-1.359973e+03
2.000000e-07	-4.942660e-06	-2.061492e-08	-3.555701e+01	-1.356786e+03
2.100000e-07	-4.905267e-06	-2.069688e-08	-3.528800e+01	-1.353355e+03
2.200000e-07	-4.866091e-06	-2.054110e-08	-3.500617e+01	-1.349673e+03
2.300000e-07	-4.825162e-06	-2.047546e-08	-3.471174e+01	-1.345741e+03
2.400000e-07	-4.782309e-06	-2.048952e-08	-3.440346e+01	-1.341560e+03
2.500000e-07	-4.737633e-06	-2.039080e-08	-3.408206e+01	-1.337136e+03
2.600000e-07	-4.691156e-06	-2.034222e-08	-3.374771e+01	-1.332469e+03
2.700000e-07	-4.642754e-06	-2.020944e-08	-3.339951e+01	-1.327557e+03
2.800000e-07	-4.592310e-06	-2.009825e-08	-3.303662e+01	-1.322395e+03
2.900000e-07	-4.539808e-06	-2.006785e-08	-3.265893e+01	-1.316976e+03
3.000000e-07	-4.485580e-06	-2.000155e-08	-3.226882e+01	-1.311294e+03
3.100000e-07	-4.429811e-06	-1.990452e-08	-3.186762e+01	-1.305347e+03
3.200000e-07	-4.372327e-06	-1.978749e-08	-3.145409e+01	-1.299134e+03
3.300000e-07	-4.313100e-06	-1.969043e-08	-3.102801e+01	-1.292663e+03
3.400000e-07	-4.252421e-06	-1.957006e-08	-3.059150e+01	-1.285939e+03
3.500000e-07	-4.190309e-06	-1.945336e-08	-3.014467e+01	-1.278972e+03
3.600000e-07	-4.126718e-06	-1.938119e-08	-2.968720e+01	-1.271765e+03
3.700000e-07	-4.061691e-06	-1.928143e-08	-2.921940e+01	-1.264318e+03
3.800000e-07	-3.995073e-06	-1.914723e-08	-2.874016e+01	-1.256625e+03
3.900000e-07	-3.926874e-06	-1.898537e-08	-2.824954e+01	-1.248671e+03
4.000000e-07	-3.857377e-06	-1.884879e-08	-2.774959e+01	-1.240435e+03
4.100000e-07	-3.786666e-06	-1.876020e-08	-2.724090e+01	-1.231897e+03
4.200000e-07	-3.714745e-06	-1.863197e-08	-2.672351e+01	-1.223031e+03
4.300000e-07	-3.641482e-06	-1.848892e-08	-2.619646e+01	-1.213816e+03
4.400000e-07	-3.566604e-06	-1.833645e-08	-2.565780e+01	-1.204234e+03
4.500000e-07	-3.490150e-06	-1.817974e-08	-2.510780e+01	-1.194268e+03
4.600000e-07	-3.412381e-06	-1.801802e-08	-2.454833e+01	-1.183907e+03
4.700000e-07	-3.333293e-06	-1.785030e-08	-2.397938e+01	-1.173141e+03
4.800000e-07	-3.252807e-06	-1.768692e-08	-2.340037e+01	-1.161961e+03
4.900000e-07	-3.171174e-06	-1.750229e-08	-2.281311e+01	-1.150354e+03
5.000000e-07	-3.088512e-06	-1.731508e-08	-2.221845e+01	-1.138310e+03
5.100000e-07	-3.004878e-06	-1.712188e-08	-2.161680e+01	-1.125812e+03
5.200000e-07	-2.920414e-06	-1.692468e-08	-2.100917e+01	-1.112842e+03
5.300000e-07	-2.835028e-06	-1.672361e-08	-2.039491e+01	-1.099378e+03
5.400000e-07	-2.748649e-06	-1.651226e-08	-1.977351e+01	-1.085395e+03
5.500000e-07	-2.661250e-06	-1.628975e-08	-1.914477e+01	-1.070867e+03
5.600000e-07	-2.572942e-06	-1.605527e-08	-1.850949e+01	-1.055762e+03
5.700000e-07	-2.483693e-06	-1.581531e-08	-1.786744e+01	-1.040046e+03
5.800000e-07	-2.393254e-06	-1.556051e-08	-1.721683e+01	-1.023681e+03
5.900000e-07	-2.301741e-06	-1.529143e-08	-1.655850e+01	-1.006627e+03
6.000000e-07	-2.209504e-06	-1.501502e-08	-1.589495e+01	-9.888396e+02
6.100000e-07	-2.116616e-06	-1.473701e-08	-1.522672e+01	-9.702730e+02
6.200000e-07	-2.022943e-06	-1.445091e-08	-1.455285e+01	-9.508805e+02
6.300000e-07	-1.928489e-06	-1.414486e-08	-1.387336e+01	-9.306145e+02
6.400000e-07	-1.833342e-06	-1.381770e-08	-1.318888e+01	-9.094266e+02
6.500000e-07	-1.737548e-06	-1.347310e-08	-1.249975e+01	-8.872658e+02
6.600000e-07	-1.641206e-06	-1.311473e-08	-1.180668e+01	-8.640777e+02
6.700000e-07	-1.544354e-06	-1.274489e-08	-1.110993e+01	-8.398016e+02
6.800000e-07	-1.446862e-06	-1.236086e-08	-1.040858e+01	-8.143695e+02
6.900000e-07	-1.348615e-06	-1.195407e-08	-9.701799e+00	-7.877057e+02
7.000000e-07	-1.249695e-06	-1.152278e-08	-8.990181e+00	-7.597284e+02
7.100000e-07	-1.150321e-06	-1.106718e-08	-8.275296e+00	-7.303538e+02
7.200000e-07	-1.050613e-06	-1.059439e-08	-7.558008e+00	-6.995031e+02
7.300000e-07	-9.506880e-07	-1.010644e-08	-6.839155e+00	-6.671113e+02
7.400000e-07	-8.505810e-07	-9.595358e-09	-6.118995e+00	-6.331369e+02
7.500000e-07	-7.502624e-07	-9.055236e-09	-5.397313e+00	-5.975720e+02
7.600000e-07	-6.497269e-07	-8.486968e-09	-4.674071e+00	-5.604504e+02
7.700000e-07	-5.489727e-07	-7.895373e-09	-3.949255e+00	-5.218515e+02
7.800000e-07	-4.480123e-07	-7.284737e-09	-3.222956e+00	-4.819012e+02
7.900000e-07	-3.468995e-07	-6.659230e-09	-2.495561e+00	-4.407659e+02
8.000000e-07	-2.456766e-07	-6.020840e-09	-1.767373e+00	-3.986428e+02
8.100000e-07	-1.443049e-07	-5.371146e-09	-1.038115e+00	-3.557441e+02
8.200000e-07	-4.276533e-08	-4.709863e-09	-3.076496e-01	-3.122794e+02
8.300000e-07	5.884113e-08	-4.041752e-09	4.232973e-01	-2.684360e+02
8.400000e-07	1.604202e-07	-3.371060e-09	1.154047e+00	-2.243611e+02
8.500000e-07	2.619395e-07	-2.701956e-09	1.884367e+00	-1.801468e+02
8.600000e-07	3.633722e-07	-2.033292e-09	2.614064e+00	-1.358215e+02
8.700000e-07	4.647118e-07	-1.360189e-09	3.343090e+00	-9.134867e+01
8.800000e-07	5.658880e-07	-6.813263e-10	4.070942e+00	-4.663384e+01
8.900000e-07	6.668517e-07	7.130057e-12	4.797265e+00	-1.540031e+00
9.000000e-07	7.675349e-07	7.047914e-10	5.521570e+00	4.408982e+01
9.100000e-07	8.679236e-07	1.410397e-09	6.243756e+00	9.040564e+01
9.200000e-07	9.680803e-07	2.125380e-09	6.964274e+00	1.375214e+02
9.300000e-07	1.068038e-06	2.851459e-09	7.683358e+00	1.854884e+02
9.400000e-07	1.167743e-06	3.591484e-09	8.400629e+00	2.342741e+02
9.500000e-07	1.267103e-06	4.344667e-09	9.115415e+00	2.837505e+02
9.600000e-07	1.365940e-06	5.106818e-09	9.826437e+00	3.336932e+02
9.700000e-07	1.464086e-06	5.872644e-09	1.053249e+01	3.837917e+02
9.800000e-07	1.561448e-06	6.634613e-09	1.123290e+01	4.336718e+02
9.900000e-07	1.658007e-06	7.383648e-09	1.192753e+01	4.829245e+02
1.000000e-06	1.753922e-06	8.112952e-09	1.261754e+01	5.311399e+02
1.010000e-06	1.849257e-06	8.819320e-09	1.330337e+01	5.779404e+02
1.020000e-06	1.943964e-06	9.500480e-09	1.398468e+01	6.230089e+02
1.030000e-06	2.038005e-06	1.015334e-08	1.466120e+01	6.661090e+02
1.040000e-06	2.131335e-06	1.077490e-08	1.533261e+01	7.070937e+02
1.050000e-06	2.223923e-06	1.136169e-08	1.599868e+01	7.459044e+02
1.060000e-06	2.315892e-06	1.191679e-08	1.666030e+01	7.825585e+02
1.070000e-06	2.407286e-06	1.244011e-08	1.731778e+01	8.171322e+02
1.080000e-06	2.497795e-06	1.293415e-08	1.796889e+01	8.497388e+02
1.090000e-06	2.587079e-06	1.340337e-08	1.861119e+01	8.805082e+02
1.100000e-06	2.675208e-06	1.384686e-08	1.924518e+01	9.095700e+02
1.110000e-06	2.762441e-06	1.426348e-08	1.987273e+01	9.370426e+02
1.120000e-06	2.848778e-06	1.465594e-08	2.049383e+01	9.630283e+02
1.130000e-06	2.934159e-06	1.502950e-08	2.110805e+01	9.876139e+02
1.140000e-06	3.018594e-06	1.538532e-08	2.171547e+01	1.010875e+03
1.150000e-06	3.102161e-06	1.572229e-08	2.231664e+01	1.032882e+03
1.160000e-06	3.184745e-06	1.603953e-08	2.291074e+01	1.053705e+03
1.170000e-06	3.266070e-06	1.633909e-08	2.349578e+01	1.073415e+03
1.180000e-06	3.346184e-06	1.662244e-08	2.407211e+01	1.092087e+03
1.190000e-06	3.425141e-06	1.689176e-08	2.464012e+01	1.109796e+03
1.200000e-06	3.502875e-06	1.714592e-08	2.519933e+01	1.126613e+03
1.210000e-06	3.579407e-06	1.738693e-08	2.574990e+01	1.142601e+03
1.220000e-06	3.654671e-06	1.761761e-08	2.629134e+01	1.157817e+03
1.230000e-06	3.728336e-06	1.783820e-08	2.682128e+01	1.172304e+03
1.240000e-06	3.800425e-06	1.804506e-08	2.733988e+01	1.186098e+03
1.250000e-06	3.871131e-06	1.823988e-08	2.784853e+01	1.199229e+03
1.260000e-06	3.940463e-06	1.842685e-08	2.834730e+01	1.211726e+03
1.270000e-06	4.008564e-06	1.860679e-08	2.883721e+01	1.223616e+03
1.280000e-06	4.075268e-06	1.877935e-08	2.931708e+01	1.234928e+03
1.290000e-06	4.140258e-06	1.894393e-08	2.978461e+01	1.245690e+03
1.300000e-06	4.203672e-06	1.910162e-08	3.024080e+01	1.255933e+03
1.310000e-06	4.265649e-06	1.925167e-08	3.068665e+01	1.265678e+03
1.320000e-06	4.326233e-06	1.939391e-08	3.112249e+01	1.274946e+03
1.330000e-06	4.385514e-06	1.952744e-08	3.154895e+01	1.283748e+03
1.340000e-06	4.443127e-06	1.965250e-08	3.196342e+01	1.292090e+03
1.350000e-06	4.498912e-06	1.977000e-08	3.236473e+01	1.299978e+03
1.360000e-06	4.553134e-06	1.988268e-08	3.275479e+01	1.307418e+03
1.370000e-06	4.605737e-06	1.999014e-08	3.313321e+01	1.314423e+03
1.380000e-06	4.656299e-06	2.009016e-08	3.349695e+01	1.321013e+03
1.390000e-06	4.704787e-06	2.018386e-08	3.384577e+01	1.327221e+03
1.400000e-06	4.751581e-06	2.027195e-08	3.418240e+01	1.333082e+03
1.410000e-06	4.796839e-06	2.035598e-08	3.450799e+01	1.338638e+03
1.420000e-06	4.840591e-06	2.043701e-08	3.482273e+01	1.343925e+03
1.430000e-06	4.882525e-06	2.051430e-08	3.512440e+01	1.348971e+03
1.440000e-06	4.922553e-06	2.058826e-08	3.541236e+01	1.353791e+03
1.450000e-06	4.960947e-06	2.065753e-08	3.568856e+01	1.358386e+03
1.460000e-06	4.997761e-06	2.072251e-08	3.595340e+01	1.362746e+03
1.470000e-06	5.032928e-06	2.078445e-08	3.620638e+01	1.366850e+03
1.480000e-06	5.066159e-06	2.084243e-08	3.644545e+01	1.370679e+03
1.490000e-06	5.097512e-06	2.089488e-08	3.667099e+01	1.374214e+03
1.500000e-06	5.127220e-06	2.094206e-08	3.688471e+01	1.377448e+03
1.510000e-06	5.155272e-06	2.098563e-08	3.708652e+01	1.380383e+03
1.520000e-06	5.181446e-06	2.102544e-08	3.727481e+01	1.383036e+03
1.530000e-06	5.205543e-06	2.106210e-08	3.744816e+01	1.385426e+03
1.540000e-06	5.227762e-06	2.109457e-08	3.760800e+01	1.387578e+03
1.550000e-06	5.248278e-06	2.112217e-08	3.775559e+01	1.389514e+03
1.560000e-06	5.267017e-06	2.114676e-08	3.789040e+01	1.391249e+03
1.570000e-06	5.283796e-06	2.116961e-08	3.801111e+01	1.392790e+03
1.580000e-06	5.298584e-06	2.119125e-08	3.811749e+01	1.394137e+03
1.590000e-06	5.311411e-06	2.121049e-08	3.820976e+01	1.395284e+03
1.600000e-06	5.322127e-06	2.122618e-08	3.828685e+01	1.396225e+03
1.610000e-06	5.330708e-06	2.123806e-08	3.834859e+01	1.396958e+03
1.620000e-06	5.337329e-06	2.124641e-08	3.839622e+01	1.397487e+03
1.630000e-06	5.342159e-06	2.125330e-08	3.843096e+01	1.397821e+03
1.640000e-06	5.345180e-06	2.125818e-08	3.845270e+01	1.397974e+03
1.650000e-06	5.346195e-06	2.126082e-08	3.846000e+01	1.397962e+03
1.660000e-06	5.345325e-06	2.125798e-08	3.845374e+01	1.397796e+03
1.670000e-06	5.342764e-06	2.124927e-08	3.843531e+01	1.397481e+03
1.680000e-06	5.338583e-06	2.124541e-08	3.840524e+01	1.397013e+03
1.690000e-06	5.332620e-06	2.123989e-08	3.836234e+01	1.396380e+03
1.700000e-06	5.324784e-06	2.122983e-08	3.830597e+01	1.395567e+03
1.710000e-06	5.315349e-06	2.121640e-08	3.823810e+01	1.394556e+03
1.720000e-06	5.304300e-06	2.120290e-08	3.815861e+01	1.393338e+03
1.730000e-06	5.291427e-06	2.119140e-08	3.806600e+01	1.391912e+03
1.740000e-06	5.276542e-06	2.110933e-08	3.795892e+01	1.390289e+03
1.750000e-06	5.259412e-06	2.103238e-08	3.783569e+01	1.388490e+03
1.760000e-06	5.239804e-06	2.105403e-08	3.769463e+01	1.386545e+03
1.770000e-06	5.217695e-06	2.105864e-08	3.753558e+01	1.384483e+03
1.780000e-06	5.193777e-06	2.112377e-08	3.736352e+01	1.382332e+03
1.790000e-06	5.168986e-06	2.106038e-08	3.718518e+01	1.380105e+03
1.800000e-06	5.143267e-06	2.084949e-08	3.700015e+01	1.377805e+03
1.810000e-06	5.115678e-06	2.094597e-08	3.680168e+01	1.375417e+03
1.820000e-06	5.086063e-06	2.090105e-08	3.658863e+01	1.372918e+03
1.830000e-06	5.054801e-06	2.077159e-08	3.636374e+01	1.370274e+03
1.840000e-06	5.021600e-06	2.096560e-08	3.612489e+01	1.367451e+03
1.850000e-06	4.986569e-06	2.085254e-08	3.587288e+01	1.364418e+03
1.860000e-06	4.949983e-06	2.067954e-08	3.560969e+01	1.361153e+03
1.870000e-06	4.911502e-06	2.080036e-08	3.533286e+01	1.357642e+03
1.880000e-06	4.871275e-06	2.065839e-08	3.504347e+01	1.353879e+03
1.890000e-06	4.829378e-06	2.057765e-08	3.474207e+01	1.349865e+03
1.900000e-06	4.785670e-06	2.055564e-08	3.442763e+01	1.345605e+03
1.910000e-06	4.740285e-06	2.042069e-08	3.410114e+01	1.341102e+03
1.920000e-06	4.693040e-06	2.052111e-08	3.376127e+01	1.336356e+03
1.930000e-06	4.644050e-06	2.038390e-08	3.340883e+01	1.331364e+03
1.940000e-06	4.593369e-06	2.019459e-08	3.304424e+01	1.326120e+03
1.950000e-06	4.540721e-06	2.018275e-08	3.266550e+01	1.320616e+03
1.960000e-06	4.486135e-06	2.006242e-08	3.227281e+01	1.314848e+03
1.970000e-06	4.429755e-06	2.000786e-08	3.186722e+01	1.308815e+03
1.980000e-06	4.371768e-06	1.987828e-08	3.145006e+01	1.302518e+03
1.990000e-06	4.312346e-06	1.981359e-08	3.102259e+01	1.295963e+03
2.000000e-06	4.251569e-06	1.978380e-08	3.058537e+01	1.289160e+03
2.010000e-06	4.189231e-06	1.955258e-08	3.013691e+01	1.282115e+03
2.020000e-06	4.125139e-06	1.945541e-08	2.967584e+01	1.274831e+03
2.030000e-06	4.059516e-06	1.937009e-08	2.920375e+01	1.267305e+03
2.040000e-06	3.992527e-06	1.928722e-08	2.872184e+01	1.259529e+03
2.050000e-06	3.924158e-06	1.917314e-08	2.823000e+01	1.251486e+03
2.060000e-06	3.854342e-06	1.897378e-08	2.772776e+01	1.243156e+03
2.070000e-06	3.783006e-06	1.888863e-08	2.721457e+01	1.234514e+03
2.080000e-06	3.710343e-06	1.873168e-08	2.669184e+01	1.225537e+03
2.090000e-06	3.636448e-06	1.858304e-08	2.616024e+01	1.216206e+03
2.100000e-06	3.561180e-06	1.845237e-08	2.561878e+01	1.206501e+03
2.110000e-06	3.484548e-06	1.830081e-08	2.506749e+01	1.196409e+03
2.120000e-06	3.406357e-06	1.816304e-08	2.450499e+01	1.185918e+03
2.130000e-06	3.326718e-06	1.795941e-08	2.393208e+01	1.175019e+03
2.140000e-06	3.245991e-06	1.779499e-08	2.335134e+01	1.163702e+03
2.150000e-06	3.164209e-06	1.761921e-08	2.276301e+01	1.151956e+03
2.160000e-06	3.081360e-06	1.744204e-08	2.216700e+01	1.139767e+03
2.170000e-06	2.997523e-06	1.725469e-08	2.156388e+01	1.127119e+03
2.180000e-06	2.912709e-06	1.703884e-08	2.095374e+01	1.113992e+03
2.190000e-06	2.826692e-06	1.684205e-08	2.033494e+01	1.100363e+03
2.200000e-06	2.739345e-06	1.662518e-08	1.970658e+01	1.086208e+03
2.210000e-06	2.651000e-06	1.640335e-08	1.907103e+01	1.071497e+03
2.220000e-06	2.561819e-06	1.616332e-08	1.842947e+01	1.056199e+03
2.230000e-06	2.471766e-06	1.592912e-08	1.778164e+01	1.040278e+03
2.240000e-06	2.380894e-06	1.568779e-08	1.712792e+01	1.023696e+03
2.250000e-06	2.289194e-06	1.542390e-08	1.646823e+01	1.006410e+03
2.260000e-06	2.196775e-06	1.514270e-08	1.580338e+01	9.883765e+02
2.270000e-06	2.103644e-06	1.484556e-08	1.513340e+01	9.695488e+02
2.280000e-06	2.009595e-06	1.454908e-08	1.445682e+01	9.498802e+02
2.290000e-06	1.914526e-06	1.423918e-08	1.377291e+01	9.293226e+02
2.300000e-06	1.818665e-06	1.391887e-08	1.308330e+01	9.078270e+02
2.310000e-06	1.722346e-06	1.358228e-08	1.239038e+01	8.853416e+02
2.320000e-06	1.625618e-06	1.322534e-08	1.169454e+01	8.618100e+02
2.330000e-06	1.528312e-06	1.284225e-08	1.099452e+01	8.371695e+02
2.340000e-06	1.430416e-06	1.243958e-08	1.029027e+01	8.113495e+02
2.350000e-06	1.332097e-06	1.203132e-08	9.582973e+00	7.842720e+02
2.360000e-06	1.233407e-06	1.161118e-08	8.873010e+00	7.558539e+02
2.370000e-06	1.134373e-06	1.116409e-08	8.160569e+00	7.260124e+02
2.380000e-06	1.035063e-06	1.068377e-08	7.446138e+00	6.946719e+02
2.390000e-06	9.354314e-07	1.017814e-08	6.729401e+00	6.617738e+02
2.400000e-06	8.354569e-07	9.649523e-09	6.010194e+00	6.272865e+02
2.410000e-06	7.352016e-07	9.099245e-09	5.288967e+00	5.912148e+02
2.420000e-06	6.347356e-07	8.525338e-09	4.566225e+00	5.536068e+02
2.430000e-06	5.341393e-07	7.930338e-09	3.842545e+00	5.145570e+02
2.440000e-06	4.334799e-07	7.316083e-09	3.118411e+00	4.742053e+02
2.450000e-06	3.327212e-07	6.680882e-09	2.393563e+00	4.327293e+02
2.460000e-06	2.318055e-07	6.027033e-09	1.667585e+00	3.903328e+02
2.470000e-06	1.307706e-07	5.365212e-09	9.407510e-01	3.472293e+02
2.480000e-06	2.962850e-08	4.703267e-09	2.131445e-01	3.036234e+02
2.490000e-06	-7.164499e-08	4.034621e-09	-5.154069e-01	2.596914e+02
2.500000e-06	-1.730116e-07	3.358773e-09	-1.244628e+00	2.155639e+02
2.510000e-06	-2.743390e-07	2.679791e-09	-1.973567e+00	1.713134e+02
2.520000e-06	-3.754658e-07	1.997987e-09	-2.701064e+00	1.269470e+02
2.530000e-06	-4.764192e-07	1.310882e-09	-3.427313e+00	8.240844e+01
2.540000e-06	-5.772233e-07	6.218309e-10	-4.152487e+00	3.758756e+01
2.550000e-06	-6.777908e-07	-6.954292e-11	-4.875960e+00	-7.661829e+00
2.560000e-06	-7.781278e-07	-7.683988e-10	-5.597774e+00	-5.349761e+01
2.570000e-06	-8.782168e-07	-1.478745e-09	-6.317804e+00	-1.000613e+02
2.580000e-06	-9.780480e-07	-2.203625e-09	-7.035980e+00	-1.474494e+02
2.590000e-06	-1.077561e-06	-2.941042e-09	-7.751870e+00	-1.956881e+02
2.600000e-06	-1.176662e-06	-3.690327e-09	-8.464791e+00	-2.447152e+02
2.610000e-06	-1.275355e-06	-4.447426e-09	-9.174779e+00	-2.943711e+02
2.620000e-06	-1.373615e-06	-5.210305e-09	-9.881650e+00	-3.444019e+02
2.630000e-06	-1.471366e-06	-5.977022e-09	-1.058486e+01	-3.944741e+02
2.640000e-06	-1.568510e-06	-6.740332e-09	-1.128371e+01	-4.441985e+02
2.650000e-06	-1.665093e-06	-7.492963e-09	-1.197851e+01	-4.931622e+02
2.660000e-06	-1.761281e-06	-8.226717e-09	-1.267048e+01	-5.409622e+02
2.670000e-06	-1.857027e-06	-8.936564e-09	-1.335927e+01	-5.872376e+02
2.680000e-06	-1.952115e-06	-9.617918e-09	-1.404332e+01	-6.316956e+02
2.690000e-06	-2.046272e-06	-1.026647e-08	-1.472068e+01	-6.741281e+02
2.700000e-06	-2.139369e-06	-1.088490e-08	-1.539041e+01	-7.144171e+02
2.710000e-06	-2.231625e-06	-1.147430e-08	-1.605409e+01	-7.525301e+02
2.720000e-06	-2.323193e-06	-1.203262e-08	-1.671282e+01	-7.885056e+02
2.730000e-06	-2.413969e-06	-1.255709e-08	-1.736585e+01	-8.224342e+02
2.740000e-06	-2.503802e-06	-1.304631e-08	-1.801210e+01	-8.544364e+02
2.750000e-06	-2.592713e-06	-1.350550e-08	-1.865172e+01	-8.846438e+02
2.760000e-06	-2.680881e-06	-1.393965e-08	-1.928599e+01	-9.131833e+02
2.770000e-06	-2.768328e-06	-1.435226e-08	-1.991508e+01	-9.401682e+02
2.780000e-06	-2.854735e-06	-1.474519e-08	-2.053668e+01	-9.656957e+02
2.790000e-06	-2.939844e-06	-1.511650e-08	-2.114894e+01	-9.898484e+02
2.800000e-06	-3.023870e-06	-1.546594e-08	-2.175342e+01	-1.012700e+03
2.810000e-06	-3.106967e-06	-1.579481e-08	-2.235121e+01	-1.034319e+03
2.820000e-06	-3.189048e-06	-1.610625e-08	-2.294170e+01	-1.054777e+03
2.830000e-06	-3.270078e-06	-1.640315e-08	-2.352462e+01	-1.074145e+03
2.840000e-06	-3.350072e-06	-1.668641e-08	-2.410009e+01	-1.092500e+03
2.850000e-06	-3.428803e-06	-1.695464e-08	-2.466647e+01	-1.109916e+03
2.860000e-06	-3.505957e-06	-1.720789e-08	-2.522150e+01	-1.126460e+03
2.870000e-06	-3.581616e-06	-1.744863e-08	-2.576579e+01	-1.142196e+03
2.880000e-06	-3.655952e-06	-1.767821e-08	-2.630056e+01	-1.157174e+03
2.890000e-06	-3.728989e-06	-1.789959e-08	-2.682598e+01	-1.171435e+03
2.900000e-06	-3.800789e-06	-1.811253e-08	-2.734250e+01	-1.185013e+03
2.910000e-06	-3.871173e-06	-1.831433e-08	-2.784883e+01	-1.197939e+03
2.920000e-06	-3.939943e-06	-1.850423e-08	-2.834356e+01	-1.210238e+03
2.930000e-06	-4.007290e-06	-1.868240e-08	-2.882805e+01	-1.221939e+03
2.940000e-06	-4.073310e-06	-1.885025e-08	-2.930299e+01	-1.233072e+03
