# Temperatura_=_42.83
# Concentracion g/m^3_=_28200.0
# C_Vs_to_Am_M_A/Vsm_=_65563218390.804596
# pendiente_HvsI_1/m_=_3716.3
# ordenada_HvsI_A/m_=_1297.0
# frecuencia_Hz_=_301765.01545855147

Tiempo_(s)	Campo_(V.s)	Magnetizacion_(V.s)	Campo_(kA/m)	Magnetizacion_(A/m)
0.000000e+00	-5.339997e-06	-2.082157e-08	-3.829768e+01	-1.361003e+03
1.000000e-08	-5.337913e-06	-2.082281e-08	-3.828274e+01	-1.360690e+03
2.000000e-08	-5.333968e-06	-2.081232e-08	-3.825444e+01	-1.360243e+03
3.000000e-08	-5.328405e-06	-2.080029e-08	-3.821455e+01	-1.359659e+03
4.000000e-08	-5.321209e-06	-2.078911e-08	-3.816293e+01	-1.358923e+03
5.000000e-08	-5.312302e-06	-2.077239e-08	-3.809906e+01	-1.358008e+03
6.000000e-08	-5.301418e-06	-2.075064e-08	-3.802099e+01	-1.356890e+03
7.000000e-08	-5.288631e-06	-2.071615e-08	-3.792929e+01	-1.355548e+03
8.000000e-08	-5.273961e-06	-2.068933e-08	-3.782408e+01	-1.353977e+03
9.000000e-08	-5.257046e-06	-2.075856e-08	-3.770277e+01	-1.352191e+03
1.000000e-07	-5.237989e-06	-2.075368e-08	-3.756609e+01	-1.350228e+03
1.100000e-07	-5.217036e-06	-2.064190e-08	-3.741582e+01	-1.348138e+03
1.200000e-07	-5.194256e-06	-2.059283e-08	-3.725245e+01	-1.345983e+03
1.300000e-07	-5.169888e-06	-2.044995e-08	-3.707768e+01	-1.343817e+03
1.400000e-07	-5.143995e-06	-2.040052e-08	-3.689198e+01	-1.341677e+03
1.500000e-07	-5.116504e-06	-2.063240e-08	-3.669482e+01	-1.339575e+03
1.600000e-07	-5.087493e-06	-2.043934e-08	-3.648676e+01	-1.337491e+03
1.700000e-07	-5.057044e-06	-2.035224e-08	-3.626839e+01	-1.335375e+03
1.800000e-07	-5.024678e-06	-2.051394e-08	-3.603625e+01	-1.333157e+03
1.900000e-07	-4.990153e-06	-2.020976e-08	-3.578865e+01	-1.330757e+03
2.000000e-07	-4.954123e-06	-2.021309e-08	-3.553025e+01	-1.328097e+03
2.100000e-07	-4.916541e-06	-2.034656e-08	-3.526072e+01	-1.325119e+03
2.200000e-07	-4.877150e-06	-2.010056e-08	-3.497821e+01	-1.321785e+03
2.300000e-07	-4.835931e-06	-2.005819e-08	-3.468259e+01	-1.318088e+03
2.400000e-07	-4.792716e-06	-2.004116e-08	-3.437266e+01	-1.314041e+03
2.500000e-07	-4.747710e-06	-1.991744e-08	-3.404988e+01	-1.309679e+03
2.600000e-07	-4.700973e-06	-1.994271e-08	-3.371469e+01	-1.305039e+03
2.700000e-07	-4.652246e-06	-1.980428e-08	-3.336523e+01	-1.300158e+03
2.800000e-07	-4.601397e-06	-1.969210e-08	-3.300055e+01	-1.295061e+03
2.900000e-07	-4.548575e-06	-1.964153e-08	-3.262172e+01	-1.289757e+03
3.000000e-07	-4.494074e-06	-1.956539e-08	-3.223084e+01	-1.284241e+03
3.100000e-07	-4.438038e-06	-1.948423e-08	-3.182896e+01	-1.278499e+03
3.200000e-07	-4.380215e-06	-1.937843e-08	-3.141426e+01	-1.272511e+03
3.300000e-07	-4.320638e-06	-1.930665e-08	-3.098699e+01	-1.266259e+03
3.400000e-07	-4.259579e-06	-1.916144e-08	-3.054908e+01	-1.259733e+03
3.500000e-07	-4.197051e-06	-1.904157e-08	-3.010064e+01	-1.252929e+03
3.600000e-07	-4.133136e-06	-1.897387e-08	-2.964225e+01	-1.245854e+03
3.700000e-07	-4.067677e-06	-1.888266e-08	-2.917278e+01	-1.238516e+03
3.800000e-07	-4.000588e-06	-1.877138e-08	-2.869164e+01	-1.230921e+03
3.900000e-07	-3.932042e-06	-1.859384e-08	-2.820004e+01	-1.223070e+03
4.000000e-07	-3.862212e-06	-1.845579e-08	-2.769922e+01	-1.214955e+03
4.100000e-07	-3.791190e-06	-1.837190e-08	-2.718986e+01	-1.206558e+03
4.200000e-07	-3.718940e-06	-1.823738e-08	-2.667169e+01	-1.197854e+03
4.300000e-07	-3.645165e-06	-1.809704e-08	-2.614259e+01	-1.188813e+03
4.400000e-07	-3.569761e-06	-1.794587e-08	-2.560181e+01	-1.179410e+03
4.500000e-07	-3.492983e-06	-1.779101e-08	-2.505117e+01	-1.169621e+03
4.600000e-07	-3.414850e-06	-1.762467e-08	-2.449081e+01	-1.159434e+03
4.700000e-07	-3.335326e-06	-1.746737e-08	-2.392047e+01	-1.148842e+03
4.800000e-07	-3.254520e-06	-1.732123e-08	-2.334094e+01	-1.137843e+03
4.900000e-07	-3.172556e-06	-1.713601e-08	-2.275311e+01	-1.126436e+03
5.000000e-07	-3.089539e-06	-1.694763e-08	-2.215773e+01	-1.114617e+03
5.100000e-07	-3.005626e-06	-1.675071e-08	-2.155591e+01	-1.102374e+03
5.200000e-07	-2.920849e-06	-1.655806e-08	-2.094790e+01	-1.089685e+03
5.300000e-07	-2.835136e-06	-1.636520e-08	-2.033318e+01	-1.076521e+03
5.400000e-07	-2.748460e-06	-1.615925e-08	-1.971155e+01	-1.062844e+03
5.500000e-07	-2.660874e-06	-1.593944e-08	-1.908340e+01	-1.048612e+03
5.600000e-07	-2.572283e-06	-1.570151e-08	-1.844804e+01	-1.033785e+03
5.700000e-07	-2.482455e-06	-1.546693e-08	-1.780381e+01	-1.018324e+03
5.800000e-07	-2.391512e-06	-1.522185e-08	-1.715158e+01	-1.002191e+03
5.900000e-07	-2.299723e-06	-1.496428e-08	-1.649328e+01	-9.853566e+02
6.000000e-07	-2.207196e-06	-1.469190e-08	-1.582969e+01	-9.677882e+02
6.100000e-07	-2.113910e-06	-1.441300e-08	-1.516066e+01	-9.494540e+02
6.200000e-07	-2.019827e-06	-1.412453e-08	-1.448590e+01	-9.303176e+02
6.300000e-07	-1.925036e-06	-1.381891e-08	-1.380608e+01	-9.103362e+02
6.400000e-07	-1.829649e-06	-1.350022e-08	-1.312198e+01	-8.894595e+02
6.500000e-07	-1.733624e-06	-1.316484e-08	-1.243330e+01	-8.676297e+02
6.600000e-07	-1.636866e-06	-1.281135e-08	-1.173937e+01	-8.447822e+02
6.700000e-07	-1.539391e-06	-1.244161e-08	-1.104029e+01	-8.208471e+02
6.800000e-07	-1.441287e-06	-1.206127e-08	-1.033670e+01	-7.957513e+02
6.900000e-07	-1.342599e-06	-1.166037e-08	-9.628921e+00	-7.694196e+02
7.000000e-07	-1.243386e-06	-1.123668e-08	-8.917384e+00	-7.417778e+02
7.100000e-07	-1.143845e-06	-1.078778e-08	-8.203493e+00	-7.127549e+02
7.200000e-07	-1.044030e-06	-1.031902e-08	-7.487632e+00	-6.822874e+02
7.300000e-07	-9.439018e-07	-9.833912e-09	-6.769526e+00	-6.503250e+02
7.400000e-07	-8.434678e-07	-9.327962e-09	-6.049228e+00	-6.168377e+02
7.500000e-07	-7.427784e-07	-8.799118e-09	-5.327098e+00	-5.818237e+02
7.600000e-07	-6.418644e-07	-8.242227e-09	-4.603358e+00	-5.453172e+02
7.700000e-07	-5.406945e-07	-7.661365e-09	-3.877782e+00	-5.073941e+02
7.800000e-07	-4.393792e-07	-7.062643e-09	-3.151163e+00	-4.681745e+02
7.900000e-07	-3.379734e-07	-6.450132e-09	-2.423896e+00	-4.278194e+02
8.000000e-07	-2.364074e-07	-5.823239e-09	-1.695480e+00	-3.865224e+02
8.100000e-07	-1.346850e-07	-5.185439e-09	-9.659410e-01	-3.444949e+02
8.200000e-07	-3.283817e-08	-4.536548e-09	-2.355105e-01	-3.019479e+02
8.300000e-07	6.909251e-08	-3.879270e-09	4.955214e-01	-2.590707e+02
8.400000e-07	1.709514e-07	-3.221860e-09	1.226039e+00	-2.160106e+02
8.500000e-07	2.727362e-07	-2.567534e-09	1.956024e+00	-1.728572e+02
8.600000e-07	3.744897e-07	-1.913893e-09	2.685785e+00	-1.296328e+02
8.700000e-07	4.761130e-07	-1.255182e-09	3.414613e+00	-8.629164e+01
8.800000e-07	5.775617e-07	-5.924830e-10	4.142188e+00	-4.272904e+01
8.900000e-07	6.788062e-07	7.825580e-11	4.868299e+00	1.200975e+00
9.000000e-07	7.798511e-07	7.556540e-10	5.592978e+00	4.566094e+01
9.100000e-07	8.806496e-07	1.441416e-09	6.315890e+00	9.080139e+01
9.200000e-07	9.811575e-07	2.139271e-09	7.036719e+00	1.367322e+02
9.300000e-07	1.081375e-06	2.848863e-09	7.755461e+00	1.834977e+02
9.400000e-07	1.181224e-06	3.573561e-09	8.471567e+00	2.310583e+02
9.500000e-07	1.280673e-06	4.308219e-09	9.184797e+00	2.792819e+02
9.600000e-07	1.379679e-06	5.048394e-09	9.894855e+00	3.279461e+02
9.700000e-07	1.478121e-06	5.790760e-09	1.060087e+01	3.767500e+02
9.800000e-07	1.575886e-06	6.530502e-09	1.130202e+01	4.253354e+02
9.900000e-07	1.672874e-06	7.261541e-09	1.199761e+01	4.733142e+02
1.000000e-06	1.769058e-06	7.976261e-09	1.268743e+01	5.202985e+02
1.010000e-06	1.864553e-06	8.669270e-09	1.337230e+01	5.659295e+02
1.020000e-06	1.959435e-06	9.336693e-09	1.405278e+01	6.099033e+02
1.030000e-06	2.053620e-06	9.976078e-09	1.472826e+01	6.519883e+02
1.040000e-06	2.147072e-06	1.058444e-08	1.539848e+01	6.920346e+02
1.050000e-06	2.239819e-06	1.115929e-08	1.606365e+01	7.299746e+02
1.060000e-06	2.331914e-06	1.170125e-08	1.672415e+01	7.658147e+02
1.070000e-06	2.423359e-06	1.221308e-08	1.737997e+01	7.996203e+02
1.080000e-06	2.513984e-06	1.269657e-08	1.802993e+01	8.314979e+02
1.090000e-06	2.603545e-06	1.315619e-08	1.867225e+01	8.615755e+02
1.100000e-06	2.691938e-06	1.359085e-08	1.930618e+01	8.899857e+02
1.110000e-06	2.779297e-06	1.400118e-08	1.993271e+01	9.168524e+02
1.120000e-06	2.865782e-06	1.438795e-08	2.055297e+01	9.422834e+02
1.130000e-06	2.951345e-06	1.475501e-08	2.116661e+01	9.663680e+02
1.140000e-06	3.035959e-06	1.510383e-08	2.177346e+01	9.891791e+02
1.150000e-06	3.119704e-06	1.543380e-08	2.237406e+01	1.010779e+03
1.160000e-06	3.202459e-06	1.574474e-08	2.296757e+01	1.031225e+03
1.170000e-06	3.284000e-06	1.603740e-08	2.355237e+01	1.050576e+03
1.180000e-06	3.364277e-06	1.631534e-08	2.412810e+01	1.068894e+03
1.190000e-06	3.443359e-06	1.657851e-08	2.469527e+01	1.086246e+03
1.200000e-06	3.521283e-06	1.682857e-08	2.525413e+01	1.102702e+03
1.210000e-06	3.597969e-06	1.706754e-08	2.580411e+01	1.118328e+03
1.220000e-06	3.673314e-06	1.729492e-08	2.634447e+01	1.133189e+03
1.230000e-06	3.747068e-06	1.750988e-08	2.687342e+01	1.147337e+03
1.240000e-06	3.819221e-06	1.771287e-08	2.739090e+01	1.160818e+03
1.250000e-06	3.890007e-06	1.790555e-08	2.789856e+01	1.173663e+03
1.260000e-06	3.959438e-06	1.808992e-08	2.839651e+01	1.185899e+03
1.270000e-06	4.027586e-06	1.826505e-08	2.888526e+01	1.197546e+03
1.280000e-06	4.094332e-06	1.843285e-08	2.936395e+01	1.208623e+03
1.290000e-06	4.159356e-06	1.859325e-08	2.983030e+01	1.219149e+03
1.300000e-06	4.222757e-06	1.874705e-08	3.028500e+01	1.229146e+03
1.310000e-06	4.284775e-06	1.889308e-08	3.072978e+01	1.238634e+03
1.320000e-06	4.345427e-06	1.903231e-08	3.116477e+01	1.247636e+03
1.330000e-06	4.404685e-06	1.916450e-08	3.158976e+01	1.256170e+03
1.340000e-06	4.462245e-06	1.928702e-08	3.200257e+01	1.264255e+03
1.350000e-06	4.518027e-06	1.940016e-08	3.240263e+01	1.271903e+03
1.360000e-06	4.572220e-06	1.950785e-08	3.279129e+01	1.279127e+03
1.370000e-06	4.624712e-06	1.961129e-08	3.316776e+01	1.285942e+03
1.380000e-06	4.675224e-06	1.970861e-08	3.353002e+01	1.292366e+03
1.390000e-06	4.723702e-06	1.980043e-08	3.387770e+01	1.298422e+03
1.400000e-06	4.770440e-06	1.988677e-08	3.421290e+01	1.304140e+03
1.410000e-06	4.815613e-06	1.996903e-08	3.453687e+01	1.309553e+03
1.420000e-06	4.859277e-06	2.004817e-08	3.485002e+01	1.314694e+03
1.430000e-06	4.901200e-06	2.012379e-08	3.515069e+01	1.319593e+03
1.440000e-06	4.941289e-06	2.019561e-08	3.543820e+01	1.324268e+03
1.450000e-06	4.979712e-06	2.026410e-08	3.571377e+01	1.328726e+03
1.460000e-06	5.016475e-06	2.032869e-08	3.597743e+01	1.332959e+03
1.470000e-06	5.051558e-06	2.038869e-08	3.622904e+01	1.336951e+03
1.480000e-06	5.084727e-06	2.044479e-08	3.646692e+01	1.340678e+03
1.490000e-06	5.116010e-06	2.049638e-08	3.669128e+01	1.344115e+03
1.500000e-06	5.145627e-06	2.054255e-08	3.690369e+01	1.347248e+03
1.510000e-06	5.173599e-06	2.058394e-08	3.710430e+01	1.350071e+03
1.520000e-06	5.199688e-06	2.062134e-08	3.729141e+01	1.352594e+03
1.530000e-06	5.223685e-06	2.065518e-08	3.746351e+01	1.354839e+03
1.540000e-06	5.245758e-06	2.068564e-08	3.762181e+01	1.356837e+03
1.550000e-06	5.266103e-06	2.071228e-08	3.776773e+01	1.358620e+03
1.560000e-06	5.284695e-06	2.073554e-08	3.790106e+01	1.360215e+03
1.570000e-06	5.301336e-06	2.075687e-08	3.802041e+01	1.361641e+03
1.580000e-06	5.315986e-06	2.077709e-08	3.812548e+01	1.362901e+03
1.590000e-06	5.328688e-06	2.079487e-08	3.821657e+01	1.363993e+03
1.600000e-06	5.339266e-06	2.081015e-08	3.829244e+01	1.364902e+03
1.610000e-06	5.347689e-06	2.082110e-08	3.835285e+01	1.365616e+03
1.620000e-06	5.354202e-06	2.082765e-08	3.839956e+01	1.366126e+03
1.630000e-06	5.358942e-06	2.083381e-08	3.843355e+01	1.366433e+03
1.640000e-06	5.361813e-06	2.083874e-08	3.845414e+01	1.366547e+03
1.650000e-06	5.362630e-06	2.084328e-08	3.846000e+01	1.366485e+03
1.660000e-06	5.361562e-06	2.084048e-08	3.845234e+01	1.366268e+03
1.670000e-06	5.358842e-06	2.083041e-08	3.843283e+01	1.365912e+03
1.680000e-06	5.354511e-06	2.082548e-08	3.840177e+01	1.365421e+03
1.690000e-06	5.348298e-06	2.081750e-08	3.835722e+01	1.364789e+03
1.700000e-06	5.340227e-06	2.080652e-08	3.829933e+01	1.363997e+03
1.710000e-06	5.330576e-06	2.079572e-08	3.823011e+01	1.363019e+03
1.720000e-06	5.319275e-06	2.079044e-08	3.814907e+01	1.361830e+03
1.730000e-06	5.306124e-06	2.079357e-08	3.805475e+01	1.360413e+03
1.740000e-06	5.290949e-06	2.065842e-08	3.794592e+01	1.358769e+03
1.750000e-06	5.273561e-06	2.058500e-08	3.782121e+01	1.356921e+03
1.760000e-06	5.253623e-06	2.063632e-08	3.767822e+01	1.354910e+03
1.770000e-06	5.231159e-06	2.062811e-08	3.751711e+01	1.352792e+03
1.780000e-06	5.206989e-06	2.077043e-08	3.734377e+01	1.350627e+03
1.790000e-06	5.182083e-06	2.063988e-08	3.716515e+01	1.348466e+03
1.800000e-06	5.156176e-06	2.036600e-08	3.697934e+01	1.346337e+03
1.810000e-06	5.128281e-06	2.058684e-08	3.677928e+01	1.344244e+03
1.820000e-06	5.098370e-06	2.043505e-08	3.656477e+01	1.342155e+03
1.830000e-06	5.066752e-06	2.028851e-08	3.633801e+01	1.340014e+03
1.840000e-06	5.033173e-06	2.058434e-08	3.609719e+01	1.337745e+03
1.850000e-06	4.997933e-06	2.028751e-08	3.584444e+01	1.335268e+03
1.860000e-06	4.961164e-06	2.015679e-08	3.558075e+01	1.332511e+03
1.870000e-06	4.922372e-06	2.036104e-08	3.530254e+01	1.329421e+03
1.880000e-06	4.881849e-06	2.013856e-08	3.501191e+01	1.325969e+03
1.890000e-06	4.839644e-06	2.019054e-08	3.470922e+01	1.322155e+03
1.900000e-06	4.795694e-06	2.010008e-08	3.439402e+01	1.318002e+03
1.910000e-06	4.750122e-06	1.989700e-08	3.406718e+01	1.313546e+03
1.920000e-06	4.702580e-06	2.009484e-08	3.372622e+01	1.308824e+03
1.930000e-06	4.653314e-06	1.986475e-08	3.337289e+01	1.303871e+03
1.940000e-06	4.602401e-06	1.974697e-08	3.300775e+01	1.298706e+03
1.950000e-06	4.549365e-06	1.975490e-08	3.262738e+01	1.293334e+03
1.960000e-06	4.494345e-06	1.960754e-08	3.223279e+01	1.287747e+03
1.970000e-06	4.437623e-06	1.957962e-08	3.182599e+01	1.281927e+03
1.980000e-06	4.379334e-06	1.935852e-08	3.140795e+01	1.275855e+03
1.990000e-06	4.319676e-06	1.937765e-08	3.098009e+01	1.269515e+03
2.000000e-06	4.258538e-06	1.934969e-08	3.054161e+01	1.262898e+03
2.010000e-06	4.195661e-06	1.908656e-08	3.009067e+01	1.256006e+03
2.020000e-06	4.131099e-06	1.901980e-08	2.962764e+01	1.248844e+03
2.030000e-06	4.065125e-06	1.888678e-08	2.915449e+01	1.241422e+03
2.040000e-06	3.997847e-06	1.886068e-08	2.867198e+01	1.233744e+03
2.050000e-06	3.929222e-06	1.870886e-08	2.817981e+01	1.225809e+03
2.060000e-06	3.859055e-06	1.851670e-08	2.767658e+01	1.217605e+03
2.070000e-06	3.787369e-06	1.847650e-08	2.716246e+01	1.209112e+03
2.080000e-06	3.714392e-06	1.828526e-08	2.663907e+01	1.200302e+03
2.090000e-06	3.640125e-06	1.815841e-08	2.610645e+01	1.191146e+03
2.100000e-06	3.564515e-06	1.801112e-08	2.556418e+01	1.181620e+03
2.110000e-06	3.487414e-06	1.788948e-08	2.501123e+01	1.171704e+03
2.120000e-06	3.408765e-06	1.773823e-08	2.444716e+01	1.161386e+03
2.130000e-06	3.328848e-06	1.751387e-08	2.387401e+01	1.150662e+03
2.140000e-06	3.247823e-06	1.737134e-08	2.329291e+01	1.139532e+03
2.150000e-06	3.165689e-06	1.719689e-08	2.270386e+01	1.127992e+03
2.160000e-06	3.082529e-06	1.704143e-08	2.210745e+01	1.116038e+03
2.170000e-06	2.998444e-06	1.684043e-08	2.150440e+01	1.103653e+03
2.180000e-06	2.913252e-06	1.663380e-08	2.089342e+01	1.090814e+03
2.190000e-06	2.826698e-06	1.644259e-08	2.027267e+01	1.077489e+03
2.200000e-06	2.739003e-06	1.622732e-08	1.964373e+01	1.063637e+03
2.210000e-06	2.650404e-06	1.601539e-08	1.900831e+01	1.049218e+03
2.220000e-06	2.560906e-06	1.577549e-08	1.836645e+01	1.034190e+03
2.230000e-06	2.470527e-06	1.554692e-08	1.771826e+01	1.018516e+03
2.240000e-06	2.379350e-06	1.529600e-08	1.706435e+01	1.002160e+03
2.250000e-06	2.287498e-06	1.503823e-08	1.640560e+01	9.850922e+02
2.260000e-06	2.194914e-06	1.476599e-08	1.574160e+01	9.672805e+02
2.270000e-06	2.101361e-06	1.448377e-08	1.507065e+01	9.486918e+02
2.280000e-06	2.006779e-06	1.419406e-08	1.439232e+01	9.292880e+02
2.290000e-06	1.911343e-06	1.387986e-08	1.370787e+01	9.090238e+02
2.300000e-06	1.815257e-06	1.355797e-08	1.301876e+01	8.878466e+02
2.310000e-06	1.718658e-06	1.322415e-08	1.232596e+01	8.656962e+02
2.320000e-06	1.621532e-06	1.287761e-08	1.162939e+01	8.425060e+02
2.330000e-06	1.523847e-06	1.250239e-08	1.092881e+01	8.182051e+02
2.340000e-06	1.425637e-06	1.210875e-08	1.022446e+01	7.927194e+02
2.350000e-06	1.326954e-06	1.170357e-08	9.516719e+00	7.659738e+02
2.360000e-06	1.227909e-06	1.128456e-08	8.806381e+00	7.378947e+02
2.370000e-06	1.128558e-06	1.084077e-08	8.093856e+00	7.084130e+02
2.380000e-06	1.028957e-06	1.036939e-08	7.379531e+00	6.774688e+02
2.390000e-06	9.291197e-07	9.874185e-09	6.663511e+00	6.450175e+02
2.400000e-06	8.290493e-07	9.351455e-09	5.945821e+00	6.110372e+02
2.410000e-06	7.287102e-07	8.805670e-09	5.226203e+00	5.755370e+02
2.420000e-06	6.280794e-07	8.238892e-09	4.504494e+00	5.385639e+02
2.430000e-06	5.271826e-07	7.656217e-09	3.780877e+00	5.002081e+02
2.440000e-06	4.260736e-07	7.054536e-09	3.055738e+00	4.606033e+02
2.450000e-06	3.248007e-07	6.431033e-09	2.329423e+00	4.199223e+02
2.460000e-06	2.233504e-07	5.790700e-09	1.601837e+00	3.783662e+02
2.470000e-06	1.217172e-07	5.146158e-09	8.729378e-01	3.361485e+02
2.480000e-06	1.992697e-08	4.501343e-09	1.429133e-01	2.934755e+02
2.490000e-06	-8.188720e-08	3.847339e-09	-5.872831e-01	2.505250e+02
2.500000e-06	-1.836673e-07	3.185783e-09	-1.317235e+00	2.074275e+02
2.510000e-06	-2.853468e-07	2.524382e-09	-2.046466e+00	1.642513e+02
2.520000e-06	-3.869002e-07	1.863199e-09	-2.774792e+00	1.209966e+02
2.530000e-06	-4.883638e-07	1.196858e-09	-3.502474e+00	7.759730e+01
2.540000e-06	-5.896424e-07	5.298444e-10	-4.228829e+00	3.393301e+01
2.550000e-06	-6.906151e-07	-1.403957e-10	-4.952991e+00	-1.015045e+01
2.560000e-06	-7.912800e-07	-8.227949e-10	-5.674945e+00	-5.481497e+01
2.570000e-06	-8.916044e-07	-1.520489e-09	-6.394456e+00	-1.002010e+02
2.580000e-06	-9.915681e-07	-2.229406e-09	-7.111382e+00	-1.463999e+02
2.590000e-06	-1.091215e-06	-2.946421e-09	-7.826032e+00	-1.934305e+02
2.600000e-06	-1.190537e-06	-3.675636e-09	-8.538359e+00	-2.412239e+02
2.610000e-06	-1.289486e-06	-4.413990e-09	-9.248002e+00	-2.896184e+02
2.620000e-06	-1.387982e-06	-5.158363e-09	-9.954406e+00	-3.383644e+02
2.630000e-06	-1.485981e-06	-5.904564e-09	-1.065724e+01	-3.871400e+02
2.640000e-06	-1.583445e-06	-6.646372e-09	-1.135624e+01	-4.355742e+02
2.650000e-06	-1.680337e-06	-7.377571e-09	-1.205113e+01	-4.832756e+02
2.660000e-06	-1.776692e-06	-8.091890e-09	-1.274218e+01	-5.298627e+02
2.670000e-06	-1.872509e-06	-8.784795e-09	-1.342936e+01	-5.749919e+02
2.680000e-06	-1.967682e-06	-9.449917e-09	-1.411193e+01	-6.183809e+02
2.690000e-06	-2.062061e-06	-1.008421e-08	-1.478880e+01	-6.598237e+02
2.700000e-06	-2.155523e-06	-1.068762e-08	-1.545910e+01	-6.991974e+02
2.710000e-06	-2.248104e-06	-1.126154e-08	-1.612307e+01	-7.364595e+02
2.720000e-06	-2.339860e-06	-1.180448e-08	-1.678114e+01	-7.716370e+02
2.730000e-06	-2.430776e-06	-1.231339e-08	-1.743317e+01	-8.048107e+02
2.740000e-06	-2.520795e-06	-1.279144e-08	-1.807877e+01	-8.360960e+02
2.750000e-06	-2.609887e-06	-1.324231e-08	-1.871773e+01	-8.656242e+02
2.760000e-06	-2.698167e-06	-1.366748e-08	-1.935086e+01	-8.935263e+02
2.770000e-06	-2.785700e-06	-1.407081e-08	-1.997864e+01	-9.199216e+02
2.780000e-06	-2.872290e-06	-1.445526e-08	-2.059965e+01	-9.449118e+02
2.790000e-06	-2.957656e-06	-1.481891e-08	-2.121188e+01	-9.685805e+02
2.800000e-06	-3.041837e-06	-1.516069e-08	-2.181561e+01	-9.909968e+02
2.810000e-06	-3.125031e-06	-1.548201e-08	-2.241227e+01	-1.012221e+03
2.820000e-06	-3.207232e-06	-1.578720e-08	-2.300180e+01	-1.032309e+03
2.830000e-06	-3.288350e-06	-1.607918e-08	-2.358357e+01	-1.051322e+03
2.840000e-06	-3.368368e-06	-1.635662e-08	-2.415744e+01	-1.069323e+03
2.850000e-06	-3.447133e-06	-1.661903e-08	-2.472234e+01	-1.086380e+03
2.860000e-06	-3.524378e-06	-1.686746e-08	-2.527632e+01	-1.102562e+03
2.870000e-06	-3.600172e-06	-1.710339e-08	-2.581991e+01	-1.117937e+03
2.880000e-06	-3.674631e-06	-1.732885e-08	-2.635392e+01	-1.132564e+03
2.890000e-06	-3.747724e-06	-1.754444e-08	-2.687813e+01	-1.146495e+03
2.900000e-06	-3.819565e-06	-1.775051e-08	-2.739336e+01	-1.159768e+03
2.910000e-06	-3.889996e-06	-1.794436e-08	-2.789848e+01	-1.172416e+03
2.920000e-06	-3.958805e-06	-1.812695e-08	-2.839198e+01	-1.184461e+03
2.930000e-06	-4.026194e-06	-1.830052e-08	-2.887528e+01	-1.195924e+03
2.940000e-06	-4.092299e-06	-1.846593e-08	-2.934937e+01	-1.206823e+03
