# Temperatura_=_41.28
# Concentracion g/m^3_=_28200.0
# C_Vs_to_Am_M_A/Vsm_=_65563218390.804596
# pendiente_HvsI_1/m_=_3716.3
# ordenada_HvsI_A/m_=_1297.0
# frecuencia_Hz_=_301766.6042176286

Tiempo_(s)	Campo_(V.s)	Magnetizacion_(V.s)	Campo_(kA/m)	Magnetizacion_(A/m)
0.000000e+00	-5.342145e-06	-2.069968e-08	-3.830090e+01	-1.354411e+03
1.000000e-08	-5.339854e-06	-2.069733e-08	-3.828448e+01	-1.354069e+03
2.000000e-08	-5.335733e-06	-2.068742e-08	-3.825493e+01	-1.353590e+03
3.000000e-08	-5.330007e-06	-2.067582e-08	-3.821388e+01	-1.352964e+03
4.000000e-08	-5.322661e-06	-2.066415e-08	-3.816121e+01	-1.352178e+03
5.000000e-08	-5.313525e-06	-2.064722e-08	-3.809571e+01	-1.351211e+03
6.000000e-08	-5.302380e-06	-2.062544e-08	-3.801581e+01	-1.350045e+03
7.000000e-08	-5.289368e-06	-2.059142e-08	-3.792251e+01	-1.348672e+03
8.000000e-08	-5.274363e-06	-2.058462e-08	-3.781493e+01	-1.347098e+03
9.000000e-08	-5.257101e-06	-2.062883e-08	-3.769117e+01	-1.345342e+03
1.000000e-07	-5.237767e-06	-2.059697e-08	-3.755256e+01	-1.343438e+03
1.100000e-07	-5.216565e-06	-2.052149e-08	-3.740055e+01	-1.341426e+03
1.200000e-07	-5.193617e-06	-2.047456e-08	-3.723602e+01	-1.339341e+03
1.300000e-07	-5.169108e-06	-2.034276e-08	-3.706030e+01	-1.337211e+03
1.400000e-07	-5.143044e-06	-2.035071e-08	-3.687343e+01	-1.335043e+03
1.500000e-07	-5.115325e-06	-2.044056e-08	-3.667470e+01	-1.332823e+03
1.600000e-07	-5.086082e-06	-2.026117e-08	-3.646504e+01	-1.330516e+03
1.700000e-07	-5.055364e-06	-2.028143e-08	-3.624480e+01	-1.328073e+03
1.800000e-07	-5.022746e-06	-2.032883e-08	-3.601095e+01	-1.325438e+03
1.900000e-07	-4.988040e-06	-2.009370e-08	-3.576212e+01	-1.322560e+03
2.000000e-07	-4.951708e-06	-2.010347e-08	-3.550163e+01	-1.319401e+03
2.100000e-07	-4.913825e-06	-2.011730e-08	-3.523003e+01	-1.315942e+03
2.200000e-07	-4.874188e-06	-1.999245e-08	-3.494585e+01	-1.312184e+03
2.300000e-07	-4.832647e-06	-1.998564e-08	-3.464802e+01	-1.308146e+03
2.400000e-07	-4.789129e-06	-1.988982e-08	-3.433601e+01	-1.303859e+03
2.500000e-07	-4.743831e-06	-1.978933e-08	-3.401125e+01	-1.299356e+03
2.600000e-07	-4.696746e-06	-1.974852e-08	-3.367367e+01	-1.294663e+03
2.700000e-07	-4.647606e-06	-1.963301e-08	-3.332136e+01	-1.289796e+03
2.800000e-07	-4.596395e-06	-1.958285e-08	-3.295419e+01	-1.284755e+03
2.900000e-07	-4.543341e-06	-1.951052e-08	-3.257382e+01	-1.279526e+03
3.000000e-07	-4.488613e-06	-1.939061e-08	-3.218144e+01	-1.274085e+03
3.100000e-07	-4.432234e-06	-1.931011e-08	-3.177723e+01	-1.268404e+03
3.200000e-07	-4.374062e-06	-1.924064e-08	-3.136016e+01	-1.262460e+03
3.300000e-07	-4.314255e-06	-1.915340e-08	-3.093137e+01	-1.256235e+03
3.400000e-07	-4.253039e-06	-1.903996e-08	-3.049248e+01	-1.249722e+03
3.500000e-07	-4.190408e-06	-1.894425e-08	-3.004344e+01	-1.242924e+03
3.600000e-07	-4.126380e-06	-1.881636e-08	-2.958438e+01	-1.235850e+03
3.700000e-07	-4.060779e-06	-1.869930e-08	-2.911405e+01	-1.228511e+03
3.800000e-07	-3.993519e-06	-1.862156e-08	-2.863183e+01	-1.220916e+03
3.900000e-07	-3.924829e-06	-1.849084e-08	-2.813935e+01	-1.213067e+03
4.000000e-07	-3.854882e-06	-1.835519e-08	-2.763786e+01	-1.204956e+03
4.100000e-07	-3.783748e-06	-1.822453e-08	-2.712786e+01	-1.196568e+03
4.200000e-07	-3.711308e-06	-1.808283e-08	-2.660850e+01	-1.187880e+03
4.300000e-07	-3.637338e-06	-1.794687e-08	-2.607816e+01	-1.178867e+03
4.400000e-07	-3.561808e-06	-1.781203e-08	-2.553665e+01	-1.169504e+03
4.500000e-07	-3.484896e-06	-1.767340e-08	-2.498522e+01	-1.159769e+03
4.600000e-07	-3.406646e-06	-1.750396e-08	-2.442420e+01	-1.149644e+03
4.700000e-07	-3.326960e-06	-1.732640e-08	-2.385289e+01	-1.139117e+03
4.800000e-07	-3.245926e-06	-1.716050e-08	-2.327190e+01	-1.128177e+03
4.900000e-07	-3.163735e-06	-1.699966e-08	-2.268263e+01	-1.116817e+03
5.000000e-07	-3.080548e-06	-1.683438e-08	-2.208622e+01	-1.105026e+03
5.100000e-07	-2.996511e-06	-1.664735e-08	-2.148370e+01	-1.092790e+03
5.200000e-07	-2.911563e-06	-1.644533e-08	-2.087466e+01	-1.080091e+03
5.300000e-07	-2.825577e-06	-1.623188e-08	-2.025818e+01	-1.066905e+03
5.400000e-07	-2.738652e-06	-1.601496e-08	-1.963497e+01	-1.053206e+03
5.500000e-07	-2.650889e-06	-1.580318e-08	-1.900574e+01	-1.038961e+03
5.600000e-07	-2.562081e-06	-1.558376e-08	-1.836903e+01	-1.024136e+03
5.700000e-07	-2.472022e-06	-1.534857e-08	-1.772334e+01	-1.008695e+03
5.800000e-07	-2.380871e-06	-1.509523e-08	-1.706983e+01	-9.926005e+02
5.900000e-07	-2.288954e-06	-1.483444e-08	-1.641082e+01	-9.758123e+02
6.000000e-07	-2.196360e-06	-1.456893e-08	-1.574697e+01	-9.582894e+02
6.100000e-07	-2.102981e-06	-1.429576e-08	-1.507748e+01	-9.399887e+02
6.200000e-07	-2.008771e-06	-1.400786e-08	-1.440203e+01	-9.208658e+02
6.300000e-07	-1.913860e-06	-1.369744e-08	-1.372156e+01	-9.008745e+02
6.400000e-07	-1.818389e-06	-1.337030e-08	-1.303708e+01	-8.799668e+02
6.500000e-07	-1.722328e-06	-1.303057e-08	-1.234836e+01	-8.580919e+02
6.600000e-07	-1.625575e-06	-1.268004e-08	-1.165468e+01	-8.351954e+02
6.700000e-07	-1.528015e-06	-1.231611e-08	-1.095522e+01	-8.112182e+02
6.800000e-07	-1.429665e-06	-1.193472e-08	-1.025009e+01	-7.860947e+02
6.900000e-07	-1.330708e-06	-1.153141e-08	-9.540612e+00	-7.597535e+02
7.000000e-07	-1.231334e-06	-1.110702e-08	-8.828138e+00	-7.321183e+02
7.100000e-07	-1.131655e-06	-1.066302e-08	-8.113487e+00	-7.031118e+02
7.200000e-07	-1.031749e-06	-1.019998e-08	-7.397201e+00	-6.726622e+02
7.300000e-07	-9.315620e-07	-9.715922e-09	-6.678903e+00	-6.407116e+02
7.400000e-07	-8.311065e-07	-9.207237e-09	-5.958680e+00	-6.072260e+02
7.500000e-07	-7.304240e-07	-8.674813e-09	-5.236829e+00	-5.722055e+02
7.600000e-07	-6.294765e-07	-8.118141e-09	-4.513078e+00	-5.356927e+02
7.700000e-07	-5.283326e-07	-7.540735e-09	-3.787920e+00	-4.977767e+02
7.800000e-07	-4.270018e-07	-6.947006e-09	-3.061421e+00	-4.585937e+02
7.900000e-07	-3.254811e-07	-6.335673e-09	-2.333561e+00	-4.183201e+02
8.000000e-07	-2.237751e-07	-5.707378e-09	-1.604372e+00	-3.771607e+02
8.100000e-07	-1.220169e-07	-5.067201e-09	-8.748089e-01	-3.353317e+02
8.200000e-07	-2.025307e-08	-4.421869e-09	-1.452059e-01	-2.930409e+02
8.300000e-07	8.161369e-08	-3.775627e-09	5.851354e-01	-2.504673e+02
8.400000e-07	1.835368e-07	-3.127133e-09	1.315881e+00	-2.077429e+02
8.500000e-07	2.854066e-07	-2.476651e-09	2.046244e+00	-1.649398e+02
8.600000e-07	3.871593e-07	-1.825686e-09	2.775767e+00	-1.220641e+02
8.700000e-07	4.887683e-07	-1.170934e-09	3.504260e+00	-7.905783e+01
8.800000e-07	5.902050e-07	-5.117655e-10	4.231518e+00	-3.580986e+01
8.900000e-07	6.914604e-07	1.532372e-10	4.957476e+00	7.826020e+00
9.000000e-07	7.924968e-07	8.263813e-10	5.681865e+00	5.200722e+01
9.100000e-07	8.932504e-07	1.510375e-09	6.404225e+00	9.687550e+01
9.200000e-07	9.936996e-07	2.204770e-09	7.124403e+00	1.425304e+02
9.300000e-07	1.093860e-06	2.907534e-09	7.842509e+00	1.890062e+02
9.400000e-07	1.193693e-06	3.622057e-09	8.558270e+00	2.362553e+02
9.500000e-07	1.293187e-06	4.348748e-09	9.271597e+00	2.841400e+02
9.600000e-07	1.392255e-06	5.085523e-09	9.981875e+00	3.324349e+02
9.700000e-07	1.490702e-06	5.826284e-09	1.068769e+01	3.808387e+02
9.800000e-07	1.588379e-06	6.564107e-09	1.138800e+01	4.289948e+02
9.900000e-07	1.685302e-06	7.290654e-09	1.208290e+01	4.765183e+02
1.000000e-06	1.781483e-06	7.995983e-09	1.277247e+01	5.230263e+02
1.010000e-06	1.876960e-06	8.677143e-09	1.345700e+01	5.681667e+02
1.020000e-06	1.971817e-06	9.333881e-09	1.413709e+01	6.116439e+02
1.030000e-06	2.065996e-06	9.963835e-09	1.481231e+01	6.532361e+02
1.040000e-06	2.159409e-06	1.056340e-08	1.548204e+01	6.928043e+02
1.050000e-06	2.252105e-06	1.113243e-08	1.614664e+01	7.302912e+02
1.060000e-06	2.344192e-06	1.166972e-08	1.680685e+01	7.657114e+02
1.070000e-06	2.435612e-06	1.217612e-08	1.746230e+01	7.991358e+02
1.080000e-06	2.526150e-06	1.265501e-08	1.811142e+01	8.306721e+02
1.090000e-06	2.615493e-06	1.310862e-08	1.875197e+01	8.604451e+02
1.100000e-06	2.703648e-06	1.353713e-08	1.938400e+01	8.885802e+02
1.110000e-06	2.790900e-06	1.394132e-08	2.000956e+01	9.151919e+02
1.120000e-06	2.877273e-06	1.432493e-08	2.062882e+01	9.403782e+02
1.130000e-06	2.962685e-06	1.468940e-08	2.124119e+01	9.642204e+02
1.140000e-06	3.047195e-06	1.503394e-08	2.184709e+01	9.867870e+02
1.150000e-06	3.130864e-06	1.535725e-08	2.244696e+01	1.008140e+03
1.160000e-06	3.213521e-06	1.566104e-08	2.303958e+01	1.028340e+03
1.170000e-06	3.294894e-06	1.594907e-08	2.362299e+01	1.047454e+03
1.180000e-06	3.375032e-06	1.622448e-08	2.419754e+01	1.065550e+03
1.190000e-06	3.454006e-06	1.648842e-08	2.476375e+01	1.082702e+03
1.200000e-06	3.531789e-06	1.673898e-08	2.532142e+01	1.098984e+03
1.210000e-06	3.608393e-06	1.697426e-08	2.587064e+01	1.114463e+03
1.220000e-06	3.683655e-06	1.719678e-08	2.641024e+01	1.129200e+03
1.230000e-06	3.757353e-06	1.740718e-08	2.693862e+01	1.143241e+03
1.240000e-06	3.829489e-06	1.760681e-08	2.745580e+01	1.156623e+03
1.250000e-06	3.900230e-06	1.779747e-08	2.796299e+01	1.169372e+03
1.260000e-06	3.969580e-06	1.798075e-08	2.846020e+01	1.181510e+03
1.270000e-06	4.037537e-06	1.815667e-08	2.894742e+01	1.193055e+03
1.280000e-06	4.104044e-06	1.832424e-08	2.942425e+01	1.204027e+03
1.290000e-06	4.168963e-06	1.848405e-08	2.988969e+01	1.214449e+03
1.300000e-06	4.232340e-06	1.863798e-08	3.034408e+01	1.224343e+03
1.310000e-06	4.294229e-06	1.878475e-08	3.078780e+01	1.233737e+03
1.320000e-06	4.354709e-06	1.892137e-08	3.122141e+01	1.242652e+03
1.330000e-06	4.413745e-06	1.904806e-08	3.164467e+01	1.251108e+03
1.340000e-06	4.471059e-06	1.916628e-08	3.205558e+01	1.259121e+03
1.350000e-06	4.526638e-06	1.927777e-08	3.245407e+01	1.266702e+03
1.360000e-06	4.580654e-06	1.938517e-08	3.284134e+01	1.273863e+03
1.370000e-06	4.632931e-06	1.948998e-08	3.321614e+01	1.280615e+03
1.380000e-06	4.683189e-06	1.958916e-08	3.357647e+01	1.286976e+03
1.390000e-06	4.731453e-06	1.968102e-08	3.392250e+01	1.292971e+03
1.400000e-06	4.778018e-06	1.976643e-08	3.425635e+01	1.298631e+03
1.410000e-06	4.823104e-06	1.984722e-08	3.457960e+01	1.303989e+03
1.420000e-06	4.866630e-06	1.992461e-08	3.489166e+01	1.309077e+03
1.430000e-06	4.908300e-06	1.999874e-08	3.519042e+01	1.313925e+03
1.440000e-06	4.948092e-06	2.006876e-08	3.547571e+01	1.318547e+03
1.450000e-06	4.986255e-06	2.013517e-08	3.574933e+01	1.322948e+03
1.460000e-06	5.022891e-06	2.019853e-08	3.601199e+01	1.327120e+03
1.470000e-06	5.057797e-06	2.025853e-08	3.626225e+01	1.331045e+03
1.480000e-06	5.090730e-06	2.031482e-08	3.649836e+01	1.334703e+03
1.490000e-06	5.121819e-06	2.036579e-08	3.672126e+01	1.338076e+03
1.500000e-06	5.151269e-06	2.041213e-08	3.693241e+01	1.341151e+03
1.510000e-06	5.179023e-06	2.045401e-08	3.713139e+01	1.343930e+03
1.520000e-06	5.204754e-06	2.049056e-08	3.731587e+01	1.346426e+03
1.530000e-06	5.228442e-06	2.052288e-08	3.748570e+01	1.348659e+03
1.540000e-06	5.250363e-06	2.055143e-08	3.764287e+01	1.350657e+03
1.550000e-06	5.270579e-06	2.057770e-08	3.778781e+01	1.352445e+03
1.560000e-06	5.288975e-06	2.060184e-08	3.791970e+01	1.354042e+03
1.570000e-06	5.305386e-06	2.062344e-08	3.803736e+01	1.355457e+03
1.580000e-06	5.319767e-06	2.064361e-08	3.814046e+01	1.356692e+03
1.590000e-06	5.332151e-06	2.066165e-08	3.822925e+01	1.357740e+03
1.600000e-06	5.342431e-06	2.067647e-08	3.830295e+01	1.358591e+03
1.610000e-06	5.350578e-06	2.068676e-08	3.836136e+01	1.359240e+03
1.620000e-06	5.356791e-06	2.069370e-08	3.840591e+01	1.359685e+03
1.630000e-06	5.361222e-06	2.069882e-08	3.843768e+01	1.359933e+03
1.640000e-06	5.363775e-06	2.070241e-08	3.845598e+01	1.359998e+03
1.650000e-06	5.364335e-06	2.070477e-08	3.846000e+01	1.359899e+03
1.660000e-06	5.363068e-06	2.069983e-08	3.845092e+01	1.359652e+03
1.670000e-06	5.360192e-06	2.069279e-08	3.843029e+01	1.359265e+03
1.680000e-06	5.355685e-06	2.068799e-08	3.839798e+01	1.358738e+03
1.690000e-06	5.349305e-06	2.068003e-08	3.835224e+01	1.358063e+03
1.700000e-06	5.341091e-06	2.066830e-08	3.829335e+01	1.357219e+03
1.710000e-06	5.331265e-06	2.065593e-08	3.822290e+01	1.356189e+03
1.720000e-06	5.319762e-06	2.065389e-08	3.814043e+01	1.354956e+03
1.730000e-06	5.306328e-06	2.062876e-08	3.804411e+01	1.353516e+03
1.740000e-06	5.290840e-06	2.051993e-08	3.793307e+01	1.351879e+03
1.750000e-06	5.273157e-06	2.048672e-08	3.780629e+01	1.350071e+03
1.760000e-06	5.252928e-06	2.050087e-08	3.766126e+01	1.348127e+03
1.770000e-06	5.230290e-06	2.050212e-08	3.749895e+01	1.346086e+03
1.780000e-06	5.206099e-06	2.057295e-08	3.732552e+01	1.343984e+03
1.790000e-06	5.181089e-06	2.041543e-08	3.714620e+01	1.341841e+03
1.800000e-06	5.154945e-06	2.033782e-08	3.695876e+01	1.339658e+03
1.810000e-06	5.126808e-06	2.047422e-08	3.675703e+01	1.337414e+03
1.820000e-06	5.096665e-06	2.028919e-08	3.654092e+01	1.335068e+03
1.830000e-06	5.064785e-06	2.027723e-08	3.631235e+01	1.332568e+03
1.840000e-06	5.031004e-06	2.041964e-08	3.607015e+01	1.329859e+03
1.850000e-06	4.995591e-06	2.019781e-08	3.581626e+01	1.326893e+03
1.860000e-06	4.958532e-06	2.017281e-08	3.555057e+01	1.323638e+03
1.870000e-06	4.919535e-06	2.017197e-08	3.527097e+01	1.320081e+03
1.880000e-06	4.878865e-06	2.000806e-08	3.497938e+01	1.316229e+03
1.890000e-06	4.836507e-06	2.006031e-08	3.467569e+01	1.312107e+03
1.900000e-06	4.792395e-06	1.993646e-08	3.435943e+01	1.307746e+03
1.910000e-06	4.746473e-06	1.987800e-08	3.403019e+01	1.303178e+03
1.920000e-06	4.698583e-06	1.992189e-08	3.368684e+01	1.298428e+03
1.930000e-06	4.649025e-06	1.970626e-08	3.333153e+01	1.293504e+03
1.940000e-06	4.597754e-06	1.966637e-08	3.296393e+01	1.288404e+03
1.950000e-06	4.544460e-06	1.961421e-08	3.258184e+01	1.283108e+03
1.960000e-06	4.489282e-06	1.950609e-08	3.218624e+01	1.277592e+03
1.970000e-06	4.432413e-06	1.945304e-08	3.177851e+01	1.271829e+03
1.980000e-06	4.374006e-06	1.929319e-08	3.135976e+01	1.265795e+03
1.990000e-06	4.314118e-06	1.924254e-08	3.093039e+01	1.259476e+03
2.000000e-06	4.252647e-06	1.914585e-08	3.048967e+01	1.252870e+03
2.010000e-06	4.189548e-06	1.904145e-08	3.003727e+01	1.245981e+03
2.020000e-06	4.124859e-06	1.894924e-08	2.957348e+01	1.238820e+03
2.030000e-06	4.058759e-06	1.877517e-08	2.909958e+01	1.231397e+03
2.040000e-06	3.991353e-06	1.869821e-08	2.861630e+01	1.223720e+03
2.050000e-06	3.922451e-06	1.855358e-08	2.812230e+01	1.215787e+03
2.060000e-06	3.851996e-06	1.843250e-08	2.761717e+01	1.207588e+03
2.070000e-06	3.780223e-06	1.834329e-08	2.710259e+01	1.199105e+03
2.080000e-06	3.707165e-06	1.819409e-08	2.657879e+01	1.190315e+03
2.090000e-06	3.632706e-06	1.805953e-08	2.604495e+01	1.181191e+03
2.100000e-06	3.556838e-06	1.788312e-08	2.550101e+01	1.171709e+03
2.110000e-06	3.479460e-06	1.775959e-08	2.494624e+01	1.161849e+03
2.120000e-06	3.400609e-06	1.761998e-08	2.438092e+01	1.151595e+03
2.130000e-06	3.320527e-06	1.744367e-08	2.380676e+01	1.140936e+03
2.140000e-06	3.239380e-06	1.726738e-08	2.322497e+01	1.129861e+03
2.150000e-06	3.157152e-06	1.707467e-08	2.263543e+01	1.118362e+03
2.160000e-06	3.073878e-06	1.690214e-08	2.203840e+01	1.106429e+03
2.170000e-06	2.989627e-06	1.671119e-08	2.143435e+01	1.094045e+03
2.180000e-06	2.904116e-06	1.653504e-08	2.082128e+01	1.081192e+03
2.190000e-06	2.817253e-06	1.634646e-08	2.019850e+01	1.067843e+03
2.200000e-06	2.729351e-06	1.612510e-08	1.956828e+01	1.053971e+03
2.210000e-06	2.640564e-06	1.589402e-08	1.893172e+01	1.039543e+03
2.220000e-06	2.550876e-06	1.566078e-08	1.828869e+01	1.024523e+03
2.230000e-06	2.460310e-06	1.543353e-08	1.763937e+01	1.008875e+03
2.240000e-06	2.369016e-06	1.518575e-08	1.698483e+01	9.925612e+02
2.250000e-06	2.277069e-06	1.492603e-08	1.632561e+01	9.755404e+02
2.260000e-06	2.184328e-06	1.465067e-08	1.566070e+01	9.577713e+02
2.270000e-06	2.090565e-06	1.436565e-08	1.498846e+01	9.392103e+02
2.280000e-06	1.995763e-06	1.407619e-08	1.430877e+01	9.198124e+02
2.290000e-06	1.900197e-06	1.377625e-08	1.362360e+01	8.995310e+02
2.300000e-06	1.804082e-06	1.346049e-08	1.293450e+01	8.783171e+02
2.310000e-06	1.707414e-06	1.312195e-08	1.224143e+01	8.561190e+02
2.320000e-06	1.610189e-06	1.276469e-08	1.154437e+01	8.328809e+02
2.330000e-06	1.512451e-06	1.239013e-08	1.084363e+01	8.085417e+02
2.340000e-06	1.414139e-06	1.200079e-08	1.013878e+01	7.830339e+02
2.350000e-06	1.315302e-06	1.159422e-08	9.430155e+00	7.562843e+02
2.360000e-06	1.216120e-06	1.116851e-08	8.719063e+00	7.282157e+02
2.370000e-06	1.116692e-06	1.072003e-08	8.006206e+00	6.987517e+02
2.380000e-06	1.017058e-06	1.025130e-08	7.291870e+00	6.678241e+02
2.390000e-06	9.172094e-07	9.759893e-09	6.576000e+00	6.353813e+02
2.400000e-06	8.171063e-07	9.239976e-09	5.858304e+00	6.013995e+02
2.410000e-06	7.167053e-07	8.694180e-09	5.138471e+00	5.658916e+02
2.420000e-06	6.160038e-07	8.124712e-09	4.416485e+00	5.289147e+02
2.430000e-06	5.150516e-07	7.534073e-09	3.692700e+00	4.905736e+02
2.440000e-06	4.138810e-07	6.927314e-09	2.967351e+00	4.510182e+02
2.450000e-06	3.125124e-07	6.309616e-09	2.240581e+00	4.104356e+02
2.460000e-06	2.109160e-07	5.679348e-09	1.512178e+00	3.690364e+02
2.470000e-06	1.091241e-07	5.038148e-09	7.823733e-01	3.270364e+02
2.480000e-06	7.278237e-09	4.390639e-09	5.218186e-02	2.846361e+02
2.490000e-06	-9.455274e-08	3.740495e-09	-6.779029e-01	2.420013e+02
2.500000e-06	-1.963640e-07	3.089221e-09	-1.407846e+00	1.992459e+02
2.510000e-06	-2.980914e-07	2.434977e-09	-2.137188e+00	1.564211e+02
2.520000e-06	-3.996400e-07	1.776529e-09	-2.865248e+00	1.135116e+02
2.530000e-06	-5.009979e-07	1.113299e-09	-3.591942e+00	7.044090e+01
2.540000e-06	-6.021889e-07	4.470259e-10	-4.317438e+00	2.708429e+01
2.550000e-06	-7.031625e-07	-2.214293e-10	-5.041376e+00	-1.671087e+01
2.560000e-06	-8.038194e-07	-8.971278e-10	-5.763043e+00	-6.109993e+01
2.570000e-06	-9.041135e-07	-1.586737e-09	-6.482108e+00	-1.062139e+02
2.580000e-06	-1.004049e-06	-2.290375e-09	-7.198602e+00	-1.521336e+02
2.590000e-06	-1.103711e-06	-3.006834e-09	-7.913140e+00	-1.988683e+02
2.600000e-06	-1.203120e-06	-3.733788e-09	-8.625861e+00	-2.463420e+02
2.610000e-06	-1.302131e-06	-4.467077e-09	-9.335724e+00	-2.943881e+02
2.620000e-06	-1.400638e-06	-5.203175e-09	-1.004198e+01	-3.427550e+02
2.630000e-06	-1.498573e-06	-5.940446e-09	-1.074413e+01	-3.911210e+02
2.640000e-06	-1.595969e-06	-6.675769e-09	-1.144242e+01	-4.391172e+02
2.650000e-06	-1.692864e-06	-7.401809e-09	-1.213711e+01	-4.863561e+02
2.660000e-06	-1.789180e-06	-8.110215e-09	-1.282766e+01	-5.324616e+02
2.670000e-06	-1.884960e-06	-8.794635e-09	-1.351436e+01	-5.770973e+02
2.680000e-06	-1.980202e-06	-9.450022e-09	-1.419720e+01	-6.199899e+02
2.690000e-06	-2.074629e-06	-1.007582e-08	-1.487421e+01	-6.609437e+02
2.700000e-06	-2.168031e-06	-1.067342e-08	-1.554386e+01	-6.998463e+02
2.710000e-06	-2.260483e-06	-1.124022e-08	-1.620670e+01	-7.366652e+02
2.720000e-06	-2.352127e-06	-1.177670e-08	-1.686375e+01	-7.714350e+02
2.730000e-06	-2.442985e-06	-1.228272e-08	-1.751516e+01	-8.042406e+02
2.740000e-06	-2.532928e-06	-1.275919e-08	-1.816001e+01	-8.351971e+02
2.750000e-06	-2.621928e-06	-1.320603e-08	-1.879811e+01	-8.644312e+02
2.760000e-06	-2.710122e-06	-1.362617e-08	-1.943042e+01	-8.920658e+02
2.770000e-06	-2.797559e-06	-1.402557e-08	-2.005731e+01	-9.182105e+02
2.780000e-06	-2.884000e-06	-1.440509e-08	-2.067705e+01	-9.429576e+02
2.790000e-06	-2.969187e-06	-1.476331e-08	-2.128780e+01	-9.663837e+02
2.800000e-06	-3.053257e-06	-1.510056e-08	-2.189056e+01	-9.885545e+02
2.810000e-06	-3.136360e-06	-1.541985e-08	-2.248636e+01	-1.009531e+03
2.820000e-06	-3.218447e-06	-1.572453e-08	-2.307489e+01	-1.029376e+03
2.830000e-06	-3.299504e-06	-1.601390e-08	-2.365604e+01	-1.048155e+03
2.840000e-06	-3.379500e-06	-1.628683e-08	-2.422957e+01	-1.065941e+03
2.850000e-06	-3.458171e-06	-1.654487e-08	-2.479361e+01	-1.082807e+03
2.860000e-06	-3.535312e-06	-1.679070e-08	-2.534668e+01	-1.098824e+03
2.870000e-06	-3.611007e-06	-1.702551e-08	-2.588938e+01	-1.114060e+03
2.880000e-06	-3.685293e-06	-1.724977e-08	-2.642198e+01	-1.128569e+03
2.890000e-06	-3.758225e-06	-1.746410e-08	-2.694487e+01	-1.142396e+03
2.900000e-06	-3.829927e-06	-1.766721e-08	-2.745894e+01	-1.155573e+03
2.910000e-06	-3.900200e-06	-1.785899e-08	-2.796277e+01	-1.168125e+03
2.920000e-06	-3.968854e-06	-1.804083e-08	-2.845499e+01	-1.180071e+03
2.930000e-06	-4.036052e-06	-1.821387e-08	-2.893677e+01	-1.191431e+03
2.940000e-06	-4.101927e-06	-1.837804e-08	-2.940907e+01	-1.202224e+03
