# Temperatura_=_71.74
# Concentracion g/m^3_=_28200.0
# C_Vs_to_Am_M_A/Vsm_=_65563218390.804596
# pendiente_HvsI_1/m_=_3716.3
# ordenada_HvsI_A/m_=_1297.0
# frecuencia_Hz_=_301766.00530817185

Tiempo_(s)	Campo_(V.s)	Magnetizacion_(V.s)	Campo_(kA/m)	Magnetizacion_(A/m)
0.000000e+00	-5.314106e-06	-2.408170e-08	-3.830087e+01	-1.575023e+03
1.000000e-08	-5.311963e-06	-2.407874e-08	-3.828542e+01	-1.574614e+03
2.000000e-08	-5.307994e-06	-2.406671e-08	-3.825682e+01	-1.574021e+03
3.000000e-08	-5.302386e-06	-2.405207e-08	-3.821640e+01	-1.573238e+03
4.000000e-08	-5.295187e-06	-2.403649e-08	-3.816451e+01	-1.572256e+03
5.000000e-08	-5.286323e-06	-2.401624e-08	-3.810062e+01	-1.571063e+03
6.000000e-08	-5.275482e-06	-2.399329e-08	-3.802249e+01	-1.569650e+03
7.000000e-08	-5.262680e-06	-2.396181e-08	-3.793022e+01	-1.568014e+03
8.000000e-08	-5.247961e-06	-2.393641e-08	-3.782414e+01	-1.566160e+03
9.000000e-08	-5.231024e-06	-2.397206e-08	-3.770207e+01	-1.564106e+03
1.000000e-07	-5.211891e-06	-2.395441e-08	-3.756417e+01	-1.561879e+03
1.100000e-07	-5.190838e-06	-2.385862e-08	-3.741243e+01	-1.559511e+03
1.200000e-07	-5.168062e-06	-2.379632e-08	-3.724827e+01	-1.557032e+03
1.300000e-07	-5.143786e-06	-2.367569e-08	-3.707330e+01	-1.554466e+03
1.400000e-07	-5.118020e-06	-2.363979e-08	-3.688760e+01	-1.551824e+03
1.500000e-07	-5.090562e-06	-2.377504e-08	-3.668970e+01	-1.549099e+03
1.600000e-07	-5.061563e-06	-2.361976e-08	-3.648069e+01	-1.546269e+03
1.700000e-07	-5.031170e-06	-2.355369e-08	-3.626164e+01	-1.543299e+03
1.800000e-07	-4.998930e-06	-2.363019e-08	-3.602927e+01	-1.540145e+03
1.900000e-07	-4.964566e-06	-2.336644e-08	-3.578160e+01	-1.536763e+03
2.000000e-07	-4.928556e-06	-2.331647e-08	-3.552205e+01	-1.533115e+03
2.100000e-07	-4.890977e-06	-2.338194e-08	-3.525121e+01	-1.529172e+03
2.200000e-07	-4.851601e-06	-2.320381e-08	-3.496741e+01	-1.524920e+03
2.300000e-07	-4.810444e-06	-2.317005e-08	-3.467078e+01	-1.520356e+03
2.400000e-07	-4.767364e-06	-2.313808e-08	-3.436028e+01	-1.515488e+03
2.500000e-07	-4.722466e-06	-2.300226e-08	-3.403668e+01	-1.510328e+03
2.600000e-07	-4.675817e-06	-2.295704e-08	-3.370047e+01	-1.504887e+03
2.700000e-07	-4.627226e-06	-2.281434e-08	-3.335025e+01	-1.499172e+03
2.800000e-07	-4.576577e-06	-2.270867e-08	-3.298521e+01	-1.493185e+03
2.900000e-07	-4.523924e-06	-2.265818e-08	-3.260572e+01	-1.486922e+03
3.000000e-07	-4.469522e-06	-2.256074e-08	-3.221362e+01	-1.480374e+03
3.100000e-07	-4.413505e-06	-2.244285e-08	-3.180988e+01	-1.473530e+03
3.200000e-07	-4.355771e-06	-2.232146e-08	-3.139377e+01	-1.466385e+03
3.300000e-07	-4.296375e-06	-2.222189e-08	-3.096568e+01	-1.458934e+03
3.400000e-07	-4.235513e-06	-2.208325e-08	-3.052702e+01	-1.451180e+03
3.500000e-07	-4.173208e-06	-2.196313e-08	-3.007797e+01	-1.443128e+03
3.600000e-07	-4.109527e-06	-2.186133e-08	-2.961899e+01	-1.434784e+03
3.700000e-07	-4.044442e-06	-2.172672e-08	-2.914989e+01	-1.426152e+03
3.800000e-07	-3.977741e-06	-2.158533e-08	-2.866916e+01	-1.417229e+03
3.900000e-07	-3.909470e-06	-2.141119e-08	-2.817710e+01	-1.408006e+03
4.000000e-07	-3.839847e-06	-2.126043e-08	-2.767530e+01	-1.398464e+03
4.100000e-07	-3.769048e-06	-2.114416e-08	-2.716503e+01	-1.388579e+03
4.200000e-07	-3.697073e-06	-2.098648e-08	-2.664627e+01	-1.378323e+03
4.300000e-07	-3.623734e-06	-2.081964e-08	-2.611769e+01	-1.367670e+03
4.400000e-07	-3.548852e-06	-2.064710e-08	-2.557798e+01	-1.356595e+03
4.500000e-07	-3.472469e-06	-2.047128e-08	-2.502746e+01	-1.345080e+03
4.600000e-07	-3.394699e-06	-2.028139e-08	-2.446694e+01	-1.333115e+03
4.700000e-07	-3.315577e-06	-2.008938e-08	-2.389668e+01	-1.320691e+03
4.800000e-07	-3.235141e-06	-1.990254e-08	-2.331694e+01	-1.307805e+03
4.900000e-07	-3.153456e-06	-1.969359e-08	-2.272821e+01	-1.294451e+03
5.000000e-07	-3.070712e-06	-1.948205e-08	-2.213184e+01	-1.280621e+03
5.100000e-07	-2.987038e-06	-1.925893e-08	-2.152877e+01	-1.266300e+03
5.200000e-07	-2.902504e-06	-1.903061e-08	-2.091950e+01	-1.251464e+03
5.300000e-07	-2.817038e-06	-1.879654e-08	-2.030351e+01	-1.236085e+03
5.400000e-07	-2.730615e-06	-1.855185e-08	-1.968063e+01	-1.220131e+03
5.500000e-07	-2.643325e-06	-1.829911e-08	-1.905149e+01	-1.203563e+03
5.600000e-07	-2.555099e-06	-1.803358e-08	-1.841561e+01	-1.186346e+03
5.700000e-07	-2.465811e-06	-1.776084e-08	-1.777208e+01	-1.168441e+03
5.800000e-07	-2.375354e-06	-1.747266e-08	-1.712012e+01	-1.149812e+03
5.900000e-07	-2.283890e-06	-1.717406e-08	-1.646090e+01	-1.130421e+03
6.000000e-07	-2.191668e-06	-1.686653e-08	-1.579622e+01	-1.110226e+03
6.100000e-07	-2.098740e-06	-1.655140e-08	-1.512645e+01	-1.089183e+03
6.200000e-07	-2.005067e-06	-1.622106e-08	-1.445131e+01	-1.067242e+03
6.300000e-07	-1.910633e-06	-1.586658e-08	-1.377069e+01	-1.044344e+03
6.400000e-07	-1.815543e-06	-1.549424e-08	-1.308534e+01	-1.020425e+03
6.500000e-07	-1.719883e-06	-1.510873e-08	-1.239588e+01	-9.954141e+02
6.600000e-07	-1.623636e-06	-1.470912e-08	-1.170219e+01	-9.692367e+02
6.700000e-07	-1.526812e-06	-1.429258e-08	-1.100434e+01	-9.418128e+02
6.800000e-07	-1.429411e-06	-1.385777e-08	-1.030233e+01	-9.130602e+02
6.900000e-07	-1.331335e-06	-1.339744e-08	-9.595462e+00	-8.828941e+02
7.000000e-07	-1.232571e-06	-1.291079e-08	-8.883626e+00	-8.512291e+02
7.100000e-07	-1.133304e-06	-1.239910e-08	-8.168174e+00	-8.179809e+02
7.200000e-07	-1.033725e-06	-1.186659e-08	-7.450469e+00	-7.830702e+02
7.300000e-07	-9.338889e-07	-1.131225e-08	-6.730907e+00	-7.464285e+02
7.400000e-07	-8.338266e-07	-1.073083e-08	-6.009719e+00	-7.080065e+02
7.500000e-07	-7.335583e-07	-1.011919e-08	-5.287045e+00	-6.677837e+02
7.600000e-07	-6.330883e-07	-9.477508e-09	-4.562919e+00	-6.257780e+02
7.700000e-07	-5.324439e-07	-8.808959e-09	-3.837534e+00	-5.820547e+02
7.800000e-07	-4.316588e-07	-8.117064e-09	-3.111136e+00	-5.367301e+02
7.900000e-07	-3.307246e-07	-7.405894e-09	-2.383663e+00	-4.899710e+02
8.000000e-07	-2.296379e-07	-6.676148e-09	-1.655092e+00	-4.419860e+02
8.100000e-07	-1.284149e-07	-5.932423e-09	-9.255369e-01	-3.930104e+02
8.200000e-07	-2.711789e-08	-5.176792e-09	-1.954494e-01	-3.432840e+02
8.300000e-07	7.417022e-08	-4.411838e-09	5.345742e-01	-2.930266e+02
8.400000e-07	1.754771e-07	-3.640079e-09	1.264733e+00	-2.424127e+02
8.500000e-07	2.767362e-07	-2.867719e-09	1.994548e+00	-1.915500e+02
8.600000e-07	3.778453e-07	-2.094451e-09	2.723281e+00	-1.404673e+02
8.700000e-07	4.788339e-07	-1.312959e-09	3.451145e+00	-8.911212e+01
8.800000e-07	5.796759e-07	-5.227987e-10	4.177954e+00	-3.736173e+01
8.900000e-07	6.803548e-07	2.785584e-10	4.903587e+00	1.495357e+01
9.000000e-07	7.808393e-07	1.090363e-09	5.627818e+00	6.801777e+01
9.100000e-07	8.810970e-07	1.913442e-09	6.350415e+00	1.219910e+02
9.200000e-07	9.811708e-07	2.749045e-09	7.071687e+00	1.769714e+02
9.300000e-07	1.081016e-06	3.598260e-09	7.791311e+00	2.329631e+02
9.400000e-07	1.180593e-06	4.462533e-09	8.508999e+00	2.898544e+02
9.500000e-07	1.279804e-06	5.338306e-09	9.224056e+00	3.474117e+02
9.600000e-07	1.378370e-06	6.220751e-09	9.934459e+00	4.052878e+02
9.700000e-07	1.476123e-06	7.102893e-09	1.063901e+01	4.630467e+02
9.800000e-07	1.573141e-06	7.975615e-09	1.133825e+01	5.201979e+02
9.900000e-07	1.669527e-06	8.827990e-09	1.203294e+01	5.762395e+02
1.000000e-06	1.765266e-06	9.654320e-09	1.272297e+01	6.306996e+02
1.010000e-06	1.860320e-06	1.045090e-08	1.340806e+01	6.831743e+02
1.020000e-06	1.954763e-06	1.121076e-08	1.408875e+01	7.333544e+02
1.030000e-06	2.048582e-06	1.193110e-08	1.476494e+01	7.810398e+02
1.040000e-06	2.141645e-06	1.261257e-08	1.543568e+01	8.261402e+02
1.050000e-06	2.234011e-06	1.325363e-08	1.610140e+01	8.686633e+02
1.060000e-06	2.325797e-06	1.385777e-08	1.676294e+01	9.086938e+02
1.070000e-06	2.416786e-06	1.442935e-08	1.741873e+01	9.463682e+02
1.080000e-06	2.506628e-06	1.497116e-08	1.806626e+01	9.818492e+02
1.090000e-06	2.595377e-06	1.548349e-08	1.870591e+01	1.015303e+03
1.100000e-06	2.683272e-06	1.596495e-08	1.933941e+01	1.046885e+03
1.110000e-06	2.770304e-06	1.641679e-08	1.996668e+01	1.076729e+03
1.120000e-06	2.856380e-06	1.684046e-08	2.058707e+01	1.104949e+03
1.130000e-06	2.941493e-06	1.724089e-08	2.120051e+01	1.131641e+03
1.140000e-06	3.025776e-06	1.762295e-08	2.180796e+01	1.156890e+03
1.150000e-06	3.109175e-06	1.798836e-08	2.240905e+01	1.180778e+03
1.160000e-06	3.191384e-06	1.833493e-08	2.300157e+01	1.203386e+03
1.170000e-06	3.272304e-06	1.866284e-08	2.358479e+01	1.224801e+03
1.180000e-06	3.352025e-06	1.897297e-08	2.415937e+01	1.245107e+03
1.190000e-06	3.430609e-06	1.926722e-08	2.472576e+01	1.264390e+03
1.200000e-06	3.508036e-06	1.954666e-08	2.528381e+01	1.282725e+03
1.210000e-06	3.584294e-06	1.980905e-08	2.583343e+01	1.300181e+03
1.220000e-06	3.659173e-06	2.005825e-08	2.637311e+01	1.316810e+03
1.230000e-06	3.732421e-06	2.029792e-08	2.690104e+01	1.332655e+03
1.240000e-06	3.804148e-06	2.052542e-08	2.741800e+01	1.347749e+03
1.250000e-06	3.874516e-06	2.074154e-08	2.792517e+01	1.362121e+03
1.260000e-06	3.943568e-06	2.094717e-08	2.842286e+01	1.375797e+03
1.270000e-06	4.011331e-06	2.114383e-08	2.891125e+01	1.388810e+03
1.280000e-06	4.077628e-06	2.133197e-08	2.938908e+01	1.401194e+03
1.290000e-06	4.142302e-06	2.151157e-08	2.985521e+01	1.412986e+03
1.300000e-06	4.205479e-06	2.168411e-08	3.031055e+01	1.424224e+03
1.310000e-06	4.267209e-06	2.184832e-08	3.075547e+01	1.434944e+03
1.320000e-06	4.327498e-06	2.200454e-08	3.119000e+01	1.445170e+03
1.330000e-06	4.386344e-06	2.215247e-08	3.161412e+01	1.454921e+03
1.340000e-06	4.443483e-06	2.229229e-08	3.202594e+01	1.464203e+03
1.350000e-06	4.498892e-06	2.242542e-08	3.242530e+01	1.473017e+03
1.360000e-06	4.552741e-06	2.255348e-08	3.281341e+01	1.481362e+03
1.370000e-06	4.604844e-06	2.267485e-08	3.318894e+01	1.489238e+03
1.380000e-06	4.654930e-06	2.278836e-08	3.354992e+01	1.496655e+03
1.390000e-06	4.703046e-06	2.289363e-08	3.389672e+01	1.503632e+03
1.400000e-06	4.749490e-06	2.299157e-08	3.423145e+01	1.510198e+03
1.410000e-06	4.794420e-06	2.308395e-08	3.455529e+01	1.516390e+03
1.420000e-06	4.837800e-06	2.317229e-08	3.486794e+01	1.522249e+03
1.430000e-06	4.879342e-06	2.325657e-08	3.516735e+01	1.527812e+03
1.440000e-06	4.919049e-06	2.333579e-08	3.545354e+01	1.533105e+03
1.450000e-06	4.957164e-06	2.341215e-08	3.572825e+01	1.538145e+03
1.460000e-06	4.993734e-06	2.348590e-08	3.599182e+01	1.542931e+03
1.470000e-06	5.028597e-06	2.355509e-08	3.624309e+01	1.547454e+03
1.480000e-06	5.061520e-06	2.361943e-08	3.648038e+01	1.551694e+03
1.490000e-06	5.092635e-06	2.367986e-08	3.670464e+01	1.555633e+03
1.500000e-06	5.122083e-06	2.373583e-08	3.691688e+01	1.559254e+03
1.510000e-06	5.149837e-06	2.378552e-08	3.711692e+01	1.562550e+03
1.520000e-06	5.175661e-06	2.382938e-08	3.730304e+01	1.565524e+03
1.530000e-06	5.199400e-06	2.386953e-08	3.747414e+01	1.568190e+03
1.540000e-06	5.221295e-06	2.390473e-08	3.763194e+01	1.570567e+03
1.550000e-06	5.241512e-06	2.393449e-08	3.777765e+01	1.572678e+03
1.560000e-06	5.259932e-06	2.396089e-08	3.791041e+01	1.574544e+03
1.570000e-06	5.276369e-06	2.398581e-08	3.802889e+01	1.576180e+03
1.580000e-06	5.290845e-06	2.400992e-08	3.813322e+01	1.577596e+03
1.590000e-06	5.303345e-06	2.403051e-08	3.822331e+01	1.578793e+03
1.600000e-06	5.313696e-06	2.404631e-08	3.829791e+01	1.579772e+03
1.610000e-06	5.321934e-06	2.405731e-08	3.835729e+01	1.580529e+03
1.620000e-06	5.328264e-06	2.406418e-08	3.840291e+01	1.581064e+03
1.630000e-06	5.332816e-06	2.406881e-08	3.843572e+01	1.581382e+03
1.640000e-06	5.335509e-06	2.407145e-08	3.845513e+01	1.581490e+03
1.650000e-06	5.336185e-06	2.407341e-08	3.846000e+01	1.581398e+03
1.660000e-06	5.335012e-06	2.406847e-08	3.845155e+01	1.581114e+03
1.670000e-06	5.332231e-06	2.405832e-08	3.843151e+01	1.580645e+03
1.680000e-06	5.327870e-06	2.405248e-08	3.840007e+01	1.579990e+03
1.690000e-06	5.321637e-06	2.404231e-08	3.835515e+01	1.579143e+03
1.700000e-06	5.313523e-06	2.402775e-08	3.829667e+01	1.578094e+03
1.710000e-06	5.303860e-06	2.401233e-08	3.822702e+01	1.576830e+03
1.720000e-06	5.292622e-06	2.399955e-08	3.814602e+01	1.575344e+03
1.730000e-06	5.279518e-06	2.398288e-08	3.805158e+01	1.573636e+03
1.740000e-06	5.264367e-06	2.387611e-08	3.794238e+01	1.571714e+03
1.750000e-06	5.246985e-06	2.381010e-08	3.781710e+01	1.569600e+03
1.760000e-06	5.227040e-06	2.383436e-08	3.767335e+01	1.567323e+03
1.770000e-06	5.204623e-06	2.383051e-08	3.751178e+01	1.564915e+03
1.780000e-06	5.180575e-06	2.390263e-08	3.733845e+01	1.562405e+03
1.790000e-06	5.155684e-06	2.377934e-08	3.715906e+01	1.559813e+03
1.800000e-06	5.129725e-06	2.358777e-08	3.697196e+01	1.557145e+03
1.810000e-06	5.101836e-06	2.372288e-08	3.677096e+01	1.554388e+03
1.820000e-06	5.071967e-06	2.359912e-08	3.655567e+01	1.551517e+03
1.830000e-06	5.040442e-06	2.349820e-08	3.632846e+01	1.548491e+03
1.840000e-06	5.007019e-06	2.370087e-08	3.608757e+01	1.545268e+03
1.850000e-06	4.971886e-06	2.349468e-08	3.583435e+01	1.541803e+03
1.860000e-06	4.935136e-06	2.337236e-08	3.556949e+01	1.538061e+03
1.870000e-06	4.896510e-06	2.347007e-08	3.529109e+01	1.534018e+03
1.880000e-06	4.856188e-06	2.326956e-08	3.500047e+01	1.529665e+03
1.890000e-06	4.814099e-06	2.325571e-08	3.469712e+01	1.525001e+03
1.900000e-06	4.770239e-06	2.318982e-08	3.438100e+01	1.520037e+03
1.910000e-06	4.724723e-06	2.305127e-08	3.405295e+01	1.514784e+03
1.920000e-06	4.677274e-06	2.316359e-08	3.371096e+01	1.509253e+03
1.930000e-06	4.628073e-06	2.295662e-08	3.335636e+01	1.503450e+03
1.940000e-06	4.577208e-06	2.279901e-08	3.298975e+01	1.497374e+03
1.950000e-06	4.524327e-06	2.277859e-08	3.260862e+01	1.491019e+03
1.960000e-06	4.469545e-06	2.264747e-08	3.221378e+01	1.484376e+03
1.970000e-06	4.413074e-06	2.258170e-08	3.180678e+01	1.477435e+03
1.980000e-06	4.355045e-06	2.240440e-08	3.138854e+01	1.470191e+03
1.990000e-06	4.295590e-06	2.235026e-08	3.096002e+01	1.462641e+03
2.000000e-06	4.234643e-06	2.226962e-08	3.052075e+01	1.454789e+03
2.010000e-06	4.172030e-06	2.204098e-08	3.006948e+01	1.446642e+03
2.020000e-06	4.107753e-06	2.195266e-08	2.960621e+01	1.438204e+03
2.030000e-06	4.042063e-06	2.181825e-08	2.913275e+01	1.429478e+03
2.040000e-06	3.975049e-06	2.173185e-08	2.864976e+01	1.420459e+03
2.050000e-06	3.906650e-06	2.157264e-08	2.815677e+01	1.411134e+03
2.060000e-06	3.836718e-06	2.136946e-08	2.765275e+01	1.401484e+03
2.070000e-06	3.765299e-06	2.127299e-08	2.713800e+01	1.391481e+03
2.080000e-06	3.692613e-06	2.108204e-08	2.661413e+01	1.381100e+03
2.090000e-06	3.618617e-06	2.092492e-08	2.608081e+01	1.370312e+03
2.100000e-06	3.543258e-06	2.075808e-08	2.553767e+01	1.359097e+03
2.110000e-06	3.466453e-06	2.059568e-08	2.498410e+01	1.347437e+03
2.120000e-06	3.388123e-06	2.042379e-08	2.441955e+01	1.335323e+03
2.130000e-06	3.308475e-06	2.019184e-08	2.384549e+01	1.322750e+03
2.140000e-06	3.227710e-06	2.000395e-08	2.326339e+01	1.309714e+03
2.150000e-06	3.145885e-06	1.979657e-08	2.267364e+01	1.296207e+03
2.160000e-06	3.063033e-06	1.959999e-08	2.207649e+01	1.282220e+03
2.170000e-06	2.979214e-06	1.937743e-08	2.147238e+01	1.267735e+03
2.180000e-06	2.894318e-06	1.914305e-08	2.086049e+01	1.252727e+03
2.190000e-06	2.808159e-06	1.891742e-08	2.023952e+01	1.237166e+03
2.200000e-06	2.720801e-06	1.866607e-08	1.960989e+01	1.221017e+03
2.210000e-06	2.632533e-06	1.841194e-08	1.897371e+01	1.204244e+03
2.220000e-06	2.543452e-06	1.814126e-08	1.833166e+01	1.186809e+03
2.230000e-06	2.453425e-06	1.787585e-08	1.768281e+01	1.168674e+03
2.240000e-06	2.362559e-06	1.759128e-08	1.702790e+01	1.149803e+03
2.250000e-06	2.271009e-06	1.729021e-08	1.636807e+01	1.130157e+03
2.260000e-06	2.178757e-06	1.697016e-08	1.570317e+01	1.109693e+03
2.270000e-06	2.085682e-06	1.663843e-08	1.503234e+01	1.088367e+03
2.280000e-06	1.991640e-06	1.630535e-08	1.435454e+01	1.066123e+03
2.290000e-06	1.896624e-06	1.595522e-08	1.366972e+01	1.042903e+03
2.300000e-06	1.800852e-06	1.559199e-08	1.297945e+01	1.018640e+03
2.310000e-06	1.704593e-06	1.520886e-08	1.228568e+01	9.932619e+02
2.320000e-06	1.607868e-06	1.480559e-08	1.158854e+01	9.666916e+02
2.330000e-06	1.510600e-06	1.437560e-08	1.088750e+01	9.388486e+02
2.340000e-06	1.412848e-06	1.392503e-08	1.018296e+01	9.096498e+02
2.350000e-06	1.314694e-06	1.346032e-08	9.475523e+00	8.790102e+02
2.360000e-06	1.216108e-06	1.297699e-08	8.764972e+00	8.468443e+02
2.370000e-06	1.117157e-06	1.246355e-08	8.051792e+00	8.130689e+02
2.380000e-06	1.017954e-06	1.191885e-08	7.336801e+00	7.776074e+02
2.390000e-06	9.185044e-07	1.134953e-08	6.620025e+00	7.403965e+02
2.400000e-06	8.187705e-07	1.075466e-08	5.901203e+00	7.013952e+02
2.410000e-06	7.187177e-07	1.013405e-08	5.180083e+00	6.605941e+02
2.420000e-06	6.184734e-07	9.485568e-09	4.457583e+00	6.180258e+02
2.430000e-06	5.181633e-07	8.810460e-09	3.734608e+00	5.737714e+02
2.440000e-06	4.177282e-07	8.109940e-09	3.010733e+00	5.279642e+02
2.450000e-06	3.171068e-07	7.386541e-09	2.285515e+00	4.807856e+02
2.460000e-06	2.163009e-07	6.642130e-09	1.558966e+00	4.324547e+02
2.470000e-06	1.153060e-07	5.887131e-09	8.310558e-01	3.832109e+02
2.480000e-06	1.419340e-08	5.129328e-09	1.022975e-01	3.332905e+02
2.490000e-06	-8.690382e-08	4.362735e-09	-6.263503e-01	2.829012e+02
2.500000e-06	-1.878835e-07	3.587245e-09	-1.354151e+00	2.321981e+02
2.510000e-06	-2.887873e-07	2.807057e-09	-2.081405e+00	1.812645e+02
2.520000e-06	-3.896039e-07	2.024043e-09	-2.808029e+00	1.301025e+02
2.530000e-06	-4.902386e-07	1.235888e-09	-3.533344e+00	7.863541e+01
2.540000e-06	-5.907087e-07	4.423455e-10	-4.257472e+00	2.672227e+01
2.550000e-06	-6.910501e-07	-3.575047e-10	-4.980672e+00	-2.581513e+01
2.560000e-06	-7.911795e-07	-1.168873e-09	-5.702344e+00	-7.915740e+01
2.570000e-06	-8.910471e-07	-1.997232e-09	-6.422130e+00	-1.334487e+02
2.580000e-06	-9.906354e-07	-2.844656e-09	-7.139902e+00	-1.887601e+02
2.590000e-06	-1.089871e-06	-3.706822e-09	-7.855133e+00	-2.450601e+02
2.600000e-06	-1.188762e-06	-4.579680e-09	-8.567881e+00	-3.021978e+02
2.610000e-06	-1.287246e-06	-5.458447e-09	-9.277692e+00	-3.599014e+02
2.620000e-06	-1.385278e-06	-6.340407e-09	-9.984251e+00	-4.177919e+02
2.630000e-06	-1.482841e-06	-7.220841e-09	-1.068743e+01	-4.754115e+02
2.640000e-06	-1.579786e-06	-8.092868e-09	-1.138614e+01	-5.322613e+02
2.650000e-06	-1.676152e-06	-8.947884e-09	-1.208069e+01	-5.878445e+02
2.660000e-06	-1.772134e-06	-9.775078e-09	-1.277247e+01	-6.417075e+02
2.670000e-06	-1.867675e-06	-1.056827e-08	-1.346108e+01	-6.934743e+02
2.680000e-06	-1.962522e-06	-1.132378e-08	-1.414468e+01	-7.428701e+02
2.690000e-06	-2.056388e-06	-1.204045e-08	-1.482121e+01	-7.897305e+02
2.700000e-06	-2.149199e-06	-1.271978e-08	-1.549013e+01	-8.339986e+02
2.710000e-06	-2.241166e-06	-1.336304e-08	-1.615297e+01	-8.757093e+02
2.720000e-06	-2.332413e-06	-1.397104e-08	-1.681062e+01	-9.149670e+02
2.730000e-06	-2.422881e-06	-1.454182e-08	-1.746266e+01	-9.519192e+02
2.740000e-06	-2.512446e-06	-1.507633e-08	-1.810819e+01	-9.867319e+02
2.750000e-06	-2.601051e-06	-1.557766e-08	-1.874681e+01	-1.019569e+03
2.760000e-06	-2.688903e-06	-1.605006e-08	-1.937999e+01	-1.050580e+03
2.770000e-06	-2.775981e-06	-1.649755e-08	-2.000760e+01	-1.079891e+03
2.780000e-06	-2.861965e-06	-1.692082e-08	-2.062732e+01	-1.107611e+03
2.790000e-06	-2.946746e-06	-1.732217e-08	-2.123836e+01	-1.133832e+03
2.800000e-06	-3.030468e-06	-1.770379e-08	-2.184178e+01	-1.158635e+03
2.810000e-06	-3.113234e-06	-1.806433e-08	-2.243831e+01	-1.182104e+03
2.820000e-06	-3.194951e-06	-1.840338e-08	-2.302728e+01	-1.204321e+03
2.830000e-06	-3.275624e-06	-1.872434e-08	-2.360872e+01	-1.225371e+03
2.840000e-06	-3.355307e-06	-1.903037e-08	-2.418303e+01	-1.245340e+03
2.850000e-06	-3.433700e-06	-1.932252e-08	-2.474804e+01	-1.264312e+03
2.860000e-06	-3.510547e-06	-1.959926e-08	-2.530191e+01	-1.282359e+03
2.870000e-06	-3.585966e-06	-1.986083e-08	-2.584548e+01	-1.299544e+03
2.880000e-06	-3.659997e-06	-2.011007e-08	-2.637905e+01	-1.315918e+03
2.890000e-06	-3.732711e-06	-2.035065e-08	-2.690313e+01	-1.331520e+03
2.900000e-06	-3.804191e-06	-2.058213e-08	-2.741831e+01	-1.346380e+03
2.910000e-06	-3.874226e-06	-2.080183e-08	-2.792308e+01	-1.360526e+03
2.920000e-06	-3.942674e-06	-2.100994e-08	-2.841641e+01	-1.373987e+03
2.930000e-06	-4.009691e-06	-2.120726e-08	-2.889943e+01	-1.386795e+03
2.940000e-06	-4.075354e-06	-2.139422e-08	-2.937270e+01	-1.398985e+03
