# Temperatura_=_88.92
# Concentracion g/m^3_=_28200.0
# C_Vs_to_Am_M_A/Vsm_=_65563218390.804596
# pendiente_HvsI_1/m_=_3716.3
# ordenada_HvsI_A/m_=_1297.0
# frecuencia_Hz_=_301765.02288891387

Tiempo_(s)	Campo_(V.s)	Magnetizacion_(V.s)	Campo_(kA/m)	Magnetizacion_(A/m)
0.000000e+00	-5.332995e-06	-2.753001e-08	-3.830247e+01	-1.801604e+03
1.000000e-08	-5.331296e-06	-2.753012e-08	-3.829027e+01	-1.801197e+03
2.000000e-08	-5.327730e-06	-2.751883e-08	-3.826466e+01	-1.800579e+03
3.000000e-08	-5.322558e-06	-2.750118e-08	-3.822751e+01	-1.799747e+03
4.000000e-08	-5.315778e-06	-2.748454e-08	-3.817882e+01	-1.798688e+03
5.000000e-08	-5.307354e-06	-2.746300e-08	-3.811832e+01	-1.797389e+03
6.000000e-08	-5.296963e-06	-2.743579e-08	-3.804369e+01	-1.795834e+03
7.000000e-08	-5.284564e-06	-2.739912e-08	-3.795463e+01	-1.794014e+03
8.000000e-08	-5.270254e-06	-2.735259e-08	-3.785186e+01	-1.791930e+03
9.000000e-08	-5.253788e-06	-2.740002e-08	-3.773360e+01	-1.789597e+03
1.000000e-07	-5.235164e-06	-2.742611e-08	-3.759984e+01	-1.787046e+03
1.100000e-07	-5.214579e-06	-2.731054e-08	-3.745199e+01	-1.784319e+03
1.200000e-07	-5.192148e-06	-2.723960e-08	-3.729089e+01	-1.781460e+03
1.300000e-07	-5.168129e-06	-2.711350e-08	-3.711838e+01	-1.778513e+03
1.400000e-07	-5.142612e-06	-2.696416e-08	-3.693512e+01	-1.775506e+03
1.500000e-07	-5.115426e-06	-2.718553e-08	-3.673986e+01	-1.772447e+03
1.600000e-07	-5.086650e-06	-2.707521e-08	-3.653319e+01	-1.769318e+03
1.700000e-07	-5.056519e-06	-2.686875e-08	-3.631677e+01	-1.766079e+03
1.800000e-07	-5.024655e-06	-2.707315e-08	-3.608793e+01	-1.762671e+03
1.900000e-07	-4.990618e-06	-2.681394e-08	-3.584347e+01	-1.759027e+03
2.000000e-07	-4.954919e-06	-2.664849e-08	-3.558707e+01	-1.755082e+03
2.100000e-07	-4.917737e-06	-2.682737e-08	-3.532002e+01	-1.750781e+03
2.200000e-07	-4.878744e-06	-2.660193e-08	-3.503997e+01	-1.746089e+03
2.300000e-07	-4.837944e-06	-2.647248e-08	-3.474693e+01	-1.740993e+03
2.400000e-07	-4.795165e-06	-2.646875e-08	-3.443969e+01	-1.735502e+03
2.500000e-07	-4.750493e-06	-2.629580e-08	-3.411884e+01	-1.729635e+03
2.600000e-07	-4.704138e-06	-2.631121e-08	-3.378592e+01	-1.723420e+03
2.700000e-07	-4.655878e-06	-2.617927e-08	-3.343930e+01	-1.716883e+03
2.800000e-07	-4.605495e-06	-2.598671e-08	-3.307745e+01	-1.710039e+03
2.900000e-07	-4.553109e-06	-2.591442e-08	-3.270120e+01	-1.702892e+03
3.000000e-07	-4.498990e-06	-2.581557e-08	-3.231251e+01	-1.695434e+03
3.100000e-07	-4.443308e-06	-2.570230e-08	-3.191259e+01	-1.687652e+03
3.200000e-07	-4.385885e-06	-2.557420e-08	-3.150017e+01	-1.679527e+03
3.300000e-07	-4.326667e-06	-2.547411e-08	-3.107485e+01	-1.671047e+03
3.400000e-07	-4.265988e-06	-2.530879e-08	-3.063905e+01	-1.662204e+03
3.500000e-07	-4.203900e-06	-2.512934e-08	-3.019312e+01	-1.653004e+03
3.600000e-07	-4.140385e-06	-2.501218e-08	-2.973695e+01	-1.643454e+03
3.700000e-07	-4.075419e-06	-2.488144e-08	-2.927035e+01	-1.633566e+03
3.800000e-07	-4.008819e-06	-2.475432e-08	-2.879202e+01	-1.623348e+03
3.900000e-07	-3.940636e-06	-2.455982e-08	-2.830231e+01	-1.612800e+03
4.000000e-07	-3.871134e-06	-2.434585e-08	-2.780314e+01	-1.601910e+03
4.100000e-07	-3.800440e-06	-2.421438e-08	-2.729540e+01	-1.590654e+03
4.200000e-07	-3.728562e-06	-2.404094e-08	-2.677917e+01	-1.579002e+03
4.300000e-07	-3.655340e-06	-2.385577e-08	-2.625327e+01	-1.566917e+03
4.400000e-07	-3.580477e-06	-2.365913e-08	-2.571559e+01	-1.554369e+03
4.500000e-07	-3.504082e-06	-2.345637e-08	-2.516691e+01	-1.541330e+03
4.600000e-07	-3.426407e-06	-2.324338e-08	-2.460903e+01	-1.527785e+03
4.700000e-07	-3.347382e-06	-2.302655e-08	-2.404146e+01	-1.513727e+03
4.800000e-07	-3.267034e-06	-2.282695e-08	-2.346440e+01	-1.499153e+03
4.900000e-07	-3.185497e-06	-2.259015e-08	-2.287878e+01	-1.484063e+03
5.000000e-07	-3.102851e-06	-2.234826e-08	-2.228520e+01	-1.468449e+03
5.100000e-07	-3.019235e-06	-2.209364e-08	-2.168466e+01	-1.452295e+03
5.200000e-07	-2.934747e-06	-2.183373e-08	-2.107785e+01	-1.435574e+03
5.300000e-07	-2.849314e-06	-2.157126e-08	-2.046425e+01	-1.418247e+03
5.400000e-07	-2.762906e-06	-2.129923e-08	-1.984366e+01	-1.400269e+03
5.500000e-07	-2.675570e-06	-2.101519e-08	-1.921639e+01	-1.381593e+03
5.600000e-07	-2.587283e-06	-2.071259e-08	-1.858231e+01	-1.362173e+03
5.700000e-07	-2.497919e-06	-2.040644e-08	-1.794048e+01	-1.341969e+03
5.800000e-07	-2.407330e-06	-2.008895e-08	-1.728985e+01	-1.320946e+03
5.900000e-07	-2.315722e-06	-1.975576e-08	-1.663191e+01	-1.299069e+03
6.000000e-07	-2.223397e-06	-1.940096e-08	-1.596881e+01	-1.276305e+03
6.100000e-07	-2.130395e-06	-1.903528e-08	-1.530086e+01	-1.252611e+03
6.200000e-07	-2.036620e-06	-1.866166e-08	-1.462735e+01	-1.227931e+03
6.300000e-07	-1.942104e-06	-1.826965e-08	-1.394852e+01	-1.202197e+03
6.400000e-07	-1.846949e-06	-1.785821e-08	-1.326510e+01	-1.175326e+03
6.500000e-07	-1.751160e-06	-1.742941e-08	-1.257713e+01	-1.147223e+03
6.600000e-07	-1.654736e-06	-1.697846e-08	-1.188460e+01	-1.117788e+03
6.700000e-07	-1.557695e-06	-1.650412e-08	-1.118763e+01	-1.086917e+03
6.800000e-07	-1.459985e-06	-1.601259e-08	-1.048586e+01	-1.054513e+03
6.900000e-07	-1.361586e-06	-1.549807e-08	-9.779141e+00	-1.020479e+03
7.000000e-07	-1.262660e-06	-1.495655e-08	-9.068637e+00	-9.847279e+02
7.100000e-07	-1.163338e-06	-1.438073e-08	-8.355289e+00	-9.471730e+02
7.200000e-07	-1.063650e-06	-1.377474e-08	-7.639312e+00	-9.077329e+02
7.300000e-07	-9.636808e-07	-1.314357e-08	-6.921319e+00	-8.663310e+02
7.400000e-07	-8.634708e-07	-1.248544e-08	-6.201594e+00	-8.229011e+02
7.500000e-07	-7.630203e-07	-1.179596e-08	-5.480141e+00	-7.773976e+02
7.600000e-07	-6.623033e-07	-1.107264e-08	-4.756775e+00	-7.298079e+02
7.700000e-07	-5.613054e-07	-1.031367e-08	-4.031391e+00	-6.801666e+02
7.800000e-07	-4.601612e-07	-9.523304e-09	-3.304956e+00	-6.285677e+02
7.900000e-07	-3.589067e-07	-8.709461e-09	-2.577729e+00	-5.751699e+02
8.000000e-07	-2.575200e-07	-7.870412e-09	-1.849552e+00	-5.201930e+02
8.100000e-07	-1.559803e-07	-7.013483e-09	-1.120277e+00	-4.639040e+02
8.200000e-07	-5.427931e-08	-6.141836e-09	-3.898432e-01	-4.065915e+02
8.300000e-07	4.747591e-08	-5.258011e-09	3.409800e-01	-3.485338e+02
8.400000e-07	1.491851e-07	-4.365935e-09	1.071473e+00	-2.899635e+02
8.500000e-07	2.508284e-07	-3.468975e-09	1.801492e+00	-2.310359e+02
8.600000e-07	3.524152e-07	-2.569183e-09	2.531106e+00	-1.718074e+02
8.700000e-07	4.539108e-07	-1.664119e-09	3.260064e+00	-1.122295e+02
8.800000e-07	5.552208e-07	-7.520304e-10	3.987690e+00	-5.215957e+01
8.900000e-07	6.563186e-07	1.732486e-10	4.713792e+00	8.609806e+00
9.000000e-07	7.572387e-07	1.115160e-09	5.438617e+00	7.030786e+01
9.100000e-07	8.579387e-07	2.074051e-09	6.161861e+00	1.331350e+02
9.200000e-07	9.583748e-07	3.049728e-09	6.883211e+00	1.972122e+02
9.300000e-07	1.058554e-06	4.041651e-09	7.602714e+00	2.625390e+02
9.400000e-07	1.158412e-06	5.048419e-09	8.319911e+00	3.289670e+02
9.500000e-07	1.257904e-06	6.067631e-09	9.034481e+00	3.961931e+02
9.600000e-07	1.357027e-06	7.095657e-09	9.746397e+00	4.637741e+02
9.700000e-07	1.455577e-06	8.123061e-09	1.045420e+01	5.311606e+02
9.800000e-07	1.553333e-06	9.138434e-09	1.115630e+01	5.977441e+02
9.900000e-07	1.650255e-06	1.013096e-08	1.185241e+01	6.629109e+02
1.000000e-06	1.746438e-06	1.109133e-08	1.254321e+01	7.260954e+02
1.010000e-06	1.841998e-06	1.201080e-08	1.322954e+01	7.868236e+02
1.020000e-06	1.936898e-06	1.288765e-08	1.391113e+01	8.447435e+02
1.030000e-06	2.031141e-06	1.372035e-08	1.458800e+01	8.996392e+02
1.040000e-06	2.124743e-06	1.450768e-08	1.526027e+01	9.514266e+02
1.050000e-06	2.217593e-06	1.524517e-08	1.592713e+01	1.000137e+03
1.060000e-06	2.309701e-06	1.593607e-08	1.658866e+01	1.045890e+03
1.070000e-06	2.401163e-06	1.658566e-08	1.724556e+01	1.088861e+03
1.080000e-06	2.491841e-06	1.719904e-08	1.789682e+01	1.129254e+03
1.090000e-06	2.581362e-06	1.777968e-08	1.853978e+01	1.167272e+03
1.100000e-06	2.669686e-06	1.832730e-08	1.917414e+01	1.203104e+03
1.110000e-06	2.757107e-06	1.884254e-08	1.980201e+01	1.236912e+03
1.120000e-06	2.843729e-06	1.932714e-08	2.042415e+01	1.268835e+03
1.130000e-06	2.929435e-06	1.978425e-08	2.103970e+01	1.298988e+03
1.140000e-06	3.014109e-06	2.021579e-08	2.164784e+01	1.327476e+03
1.150000e-06	3.097884e-06	2.062444e-08	2.224953e+01	1.354396e+03
1.160000e-06	3.180805e-06	2.101070e-08	2.284508e+01	1.379846e+03
1.170000e-06	3.262510e-06	2.137710e-08	2.343190e+01	1.403927e+03
1.180000e-06	3.342886e-06	2.172615e-08	2.400918e+01	1.426741e+03
1.190000e-06	3.422055e-06	2.205966e-08	2.457778e+01	1.448390e+03
1.200000e-06	3.500028e-06	2.237397e-08	2.513780e+01	1.468968e+03
1.210000e-06	3.576793e-06	2.267014e-08	2.568914e+01	1.488555e+03
1.220000e-06	3.652328e-06	2.295124e-08	2.623164e+01	1.507219e+03
1.230000e-06	3.726349e-06	2.321900e-08	2.676327e+01	1.525011e+03
1.240000e-06	3.798718e-06	2.347367e-08	2.728304e+01	1.541971e+03
1.250000e-06	3.869730e-06	2.371797e-08	2.779306e+01	1.558128e+03
1.260000e-06	3.939384e-06	2.395202e-08	2.829333e+01	1.573507e+03
1.270000e-06	4.007669e-06	2.417522e-08	2.878376e+01	1.588137e+03
1.280000e-06	4.074668e-06	2.438573e-08	2.926496e+01	1.602051e+03
1.290000e-06	4.139979e-06	2.458488e-08	2.973403e+01	1.615288e+03
1.300000e-06	4.203597e-06	2.477550e-08	3.019095e+01	1.627894e+03
1.310000e-06	4.265847e-06	2.495704e-08	3.063804e+01	1.639915e+03
1.320000e-06	4.326711e-06	2.513073e-08	3.107518e+01	1.651393e+03
1.330000e-06	4.386313e-06	2.529631e-08	3.150325e+01	1.662365e+03
1.340000e-06	4.444294e-06	2.545448e-08	3.191967e+01	1.672853e+03
1.350000e-06	4.500392e-06	2.560609e-08	3.232258e+01	1.682868e+03
1.360000e-06	4.554860e-06	2.575279e-08	3.271377e+01	1.692412e+03
1.370000e-06	4.607693e-06	2.589404e-08	3.309323e+01	1.701478e+03
1.380000e-06	4.658629e-06	2.602767e-08	3.345907e+01	1.710060e+03
1.390000e-06	4.707461e-06	2.615207e-08	3.380978e+01	1.718156e+03
1.400000e-06	4.754445e-06	2.626759e-08	3.414723e+01	1.725773e+03
1.410000e-06	4.799854e-06	2.637589e-08	3.447337e+01	1.732929e+03
1.420000e-06	4.843790e-06	2.647853e-08	3.478892e+01	1.739655e+03
1.430000e-06	4.885991e-06	2.657417e-08	3.509202e+01	1.745986e+03
1.440000e-06	4.926309e-06	2.666351e-08	3.538159e+01	1.751962e+03
1.450000e-06	4.964978e-06	2.674906e-08	3.565932e+01	1.757615e+03
1.460000e-06	5.002032e-06	2.683144e-08	3.592544e+01	1.762972e+03
1.470000e-06	5.037473e-06	2.690886e-08	3.617998e+01	1.768046e+03
1.480000e-06	5.071017e-06	2.698074e-08	3.642090e+01	1.772836e+03
1.490000e-06	5.102641e-06	2.704948e-08	3.664803e+01	1.777335e+03
1.500000e-06	5.132569e-06	2.711390e-08	3.686298e+01	1.781526e+03
1.510000e-06	5.160890e-06	2.717221e-08	3.706639e+01	1.785394e+03
1.520000e-06	5.187344e-06	2.722494e-08	3.725638e+01	1.788928e+03
1.530000e-06	5.211633e-06	2.727363e-08	3.743083e+01	1.792122e+03
1.540000e-06	5.233992e-06	2.731809e-08	3.759142e+01	1.794982e+03
1.550000e-06	5.254660e-06	2.735675e-08	3.773986e+01	1.797519e+03
1.560000e-06	5.273572e-06	2.738976e-08	3.787569e+01	1.799750e+03
1.570000e-06	5.290553e-06	2.741814e-08	3.799765e+01	1.801691e+03
1.580000e-06	5.305580e-06	2.744394e-08	3.810557e+01	1.803360e+03
1.590000e-06	5.318710e-06	2.746644e-08	3.819988e+01	1.804768e+03
1.600000e-06	5.329737e-06	2.748412e-08	3.827908e+01	1.805922e+03
1.610000e-06	5.338504e-06	2.749749e-08	3.834204e+01	1.806827e+03
1.620000e-06	5.345286e-06	2.750774e-08	3.839075e+01	1.807487e+03
1.630000e-06	5.350344e-06	2.751609e-08	3.842708e+01	1.807906e+03
1.640000e-06	5.353644e-06	2.752113e-08	3.845078e+01	1.808092e+03
1.650000e-06	5.354928e-06	2.752586e-08	3.846000e+01	1.808052e+03
1.660000e-06	5.354255e-06	2.752447e-08	3.845517e+01	1.807795e+03
1.670000e-06	5.351892e-06	2.751136e-08	3.843819e+01	1.807327e+03
1.680000e-06	5.347958e-06	2.750264e-08	3.840994e+01	1.806648e+03
1.690000e-06	5.342242e-06	2.749024e-08	3.836889e+01	1.805751e+03
1.700000e-06	5.334602e-06	2.747265e-08	3.831401e+01	1.804625e+03
1.710000e-06	5.325284e-06	2.745368e-08	3.824710e+01	1.803253e+03
1.720000e-06	5.314353e-06	2.743707e-08	3.816858e+01	1.801622e+03
1.730000e-06	5.301612e-06	2.744326e-08	3.807707e+01	1.799725e+03
1.740000e-06	5.286862e-06	2.733092e-08	3.797114e+01	1.797566e+03
1.750000e-06	5.269997e-06	2.720231e-08	3.785002e+01	1.795167e+03
1.760000e-06	5.250700e-06	2.723978e-08	3.771142e+01	1.792560e+03
1.770000e-06	5.228725e-06	2.722368e-08	3.755359e+01	1.789789e+03
1.780000e-06	5.204806e-06	2.732492e-08	3.738180e+01	1.786901e+03
1.790000e-06	5.180049e-06	2.728087e-08	3.720399e+01	1.783934e+03
1.800000e-06	5.154467e-06	2.691990e-08	3.702026e+01	1.780911e+03
1.810000e-06	5.126970e-06	2.710811e-08	3.682277e+01	1.777834e+03
1.820000e-06	5.097377e-06	2.708048e-08	3.661023e+01	1.774677e+03
1.830000e-06	5.066207e-06	2.678381e-08	3.638636e+01	1.771396e+03
1.840000e-06	5.033117e-06	2.711369e-08	3.614870e+01	1.767927e+03
1.850000e-06	4.998246e-06	2.697934e-08	3.589825e+01	1.764203e+03
1.860000e-06	4.961890e-06	2.667300e-08	3.563714e+01	1.760159e+03
1.870000e-06	4.923539e-06	2.688385e-08	3.536169e+01	1.755748e+03
1.880000e-06	4.883362e-06	2.668286e-08	3.507314e+01	1.750940e+03
1.890000e-06	4.841548e-06	2.664735e-08	3.477282e+01	1.745729e+03
1.900000e-06	4.797951e-06	2.664300e-08	3.445970e+01	1.740127e+03
1.910000e-06	4.752751e-06	2.630281e-08	3.413506e+01	1.734157e+03
1.920000e-06	4.705640e-06	2.649456e-08	3.379670e+01	1.727847e+03
1.930000e-06	4.656751e-06	2.637421e-08	3.344558e+01	1.721220e+03
1.940000e-06	4.606282e-06	2.611629e-08	3.308310e+01	1.714289e+03
1.950000e-06	4.553746e-06	2.612879e-08	3.270577e+01	1.707053e+03
1.960000e-06	4.499241e-06	2.593816e-08	3.231431e+01	1.699504e+03
1.970000e-06	4.442993e-06	2.588141e-08	3.191033e+01	1.691624e+03
1.980000e-06	4.385078e-06	2.565622e-08	3.149437e+01	1.683398e+03
1.990000e-06	4.325741e-06	2.554170e-08	3.106821e+01	1.674814e+03
2.000000e-06	4.265014e-06	2.557197e-08	3.063205e+01	1.665868e+03
2.010000e-06	4.202716e-06	2.528695e-08	3.018462e+01	1.656565e+03
2.020000e-06	4.138703e-06	2.515049e-08	2.972487e+01	1.646916e+03
2.030000e-06	4.073199e-06	2.496536e-08	2.925441e+01	1.636933e+03
2.040000e-06	4.006344e-06	2.486462e-08	2.877424e+01	1.626620e+03
2.050000e-06	3.938089e-06	2.475298e-08	2.828403e+01	1.615975e+03
2.060000e-06	3.868346e-06	2.447672e-08	2.778312e+01	1.604983e+03
2.070000e-06	3.797038e-06	2.438821e-08	2.727097e+01	1.593616e+03
2.080000e-06	3.724412e-06	2.417260e-08	2.674936e+01	1.581843e+03
2.090000e-06	3.650506e-06	2.397795e-08	2.621855e+01	1.569628e+03
2.100000e-06	3.575217e-06	2.379241e-08	2.567781e+01	1.556941e+03
2.110000e-06	3.498497e-06	2.358974e-08	2.512680e+01	1.543758e+03
2.120000e-06	3.420291e-06	2.342526e-08	2.456511e+01	1.530066e+03
2.130000e-06	3.340769e-06	2.315245e-08	2.399397e+01	1.515860e+03
2.140000e-06	3.260080e-06	2.294356e-08	2.341445e+01	1.501138e+03
2.150000e-06	3.178254e-06	2.270683e-08	2.282676e+01	1.485898e+03
2.160000e-06	3.095401e-06	2.248338e-08	2.223169e+01	1.470132e+03
2.170000e-06	3.011629e-06	2.224448e-08	2.163003e+01	1.453818e+03
2.180000e-06	2.926745e-06	2.196752e-08	2.102038e+01	1.436927e+03
2.190000e-06	2.840631e-06	2.171147e-08	2.040189e+01	1.419418e+03
2.200000e-06	2.753361e-06	2.142485e-08	1.977510e+01	1.401244e+03
2.210000e-06	2.665052e-06	2.114854e-08	1.914085e+01	1.382359e+03
2.220000e-06	2.575830e-06	2.083845e-08	1.850005e+01	1.362718e+03
2.230000e-06	2.485703e-06	2.053129e-08	1.785274e+01	1.342283e+03
2.240000e-06	2.394819e-06	2.021299e-08	1.719999e+01	1.321018e+03
2.250000e-06	2.303245e-06	1.988173e-08	1.654230e+01	1.298891e+03
2.260000e-06	2.210870e-06	1.953351e-08	1.587884e+01	1.275865e+03
2.270000e-06	2.117636e-06	1.915971e-08	1.520922e+01	1.251894e+03
2.280000e-06	2.023463e-06	1.878178e-08	1.453286e+01	1.226920e+03
2.290000e-06	1.928355e-06	1.837877e-08	1.384977e+01	1.200870e+03
2.300000e-06	1.832508e-06	1.796346e-08	1.316138e+01	1.173656e+03
2.310000e-06	1.736145e-06	1.753415e-08	1.246929e+01	1.145182e+03
2.320000e-06	1.639314e-06	1.709041e-08	1.177383e+01	1.115346e+03
2.330000e-06	1.541952e-06	1.661529e-08	1.107456e+01	1.084046e+03
2.340000e-06	1.444056e-06	1.610495e-08	1.037146e+01	1.051185e+03
2.350000e-06	1.345691e-06	1.557020e-08	9.664980e+00	1.016669e+03
2.360000e-06	1.246903e-06	1.501793e-08	8.955467e+00	9.804095e+02
2.370000e-06	1.147773e-06	1.444162e-08	8.243499e+00	9.423232e+02
2.380000e-06	1.048391e-06	1.383160e-08	7.529722e+00	9.023292e+02
2.390000e-06	9.487370e-07	1.319052e-08	6.813990e+00	8.603530e+02
2.400000e-06	8.487632e-07	1.251645e-08	6.095961e+00	8.163333e+02
2.410000e-06	7.485032e-07	1.181242e-08	5.375877e+00	7.702324e+02
2.420000e-06	6.479248e-07	1.107519e-08	4.653506e+00	7.220496e+02
2.430000e-06	5.470246e-07	1.030878e-08	3.928824e+00	6.718358e+02
2.440000e-06	4.459374e-07	9.517533e-09	3.202798e+00	6.197030e+02
2.450000e-06	3.447943e-07	8.699160e-09	2.476371e+00	5.658282e+02
2.460000e-06	2.435271e-07	7.848568e-09	1.749053e+00	5.104468e+02
2.470000e-06	1.421418e-07	6.977368e-09	1.020886e+00	4.538349e+02
2.480000e-06	4.070696e-08	6.100097e-09	2.923643e-01	3.962815e+02
2.490000e-06	-6.079320e-08	5.213015e-09	-4.366271e-01	3.380556e+02
2.500000e-06	-1.623015e-07	4.315666e-09	-1.165677e+00	2.793705e+02
2.510000e-06	-2.637041e-07	3.414953e-09	-1.893968e+00	2.203549e+02
2.520000e-06	-3.649627e-07	2.512283e-09	-2.621224e+00	1.610352e+02
2.530000e-06	-4.661313e-07	1.597592e-09	-3.347834e+00	1.013339e+02
2.540000e-06	-5.671157e-07	6.716457e-10	-4.073122e+00	4.108620e+01
2.550000e-06	-6.678901e-07	-2.629663e-10	-4.796900e+00	-1.992628e+01
2.560000e-06	-7.683984e-07	-1.210350e-09	-5.518768e+00	-8.192993e+01
2.570000e-06	-8.685982e-07	-2.175896e-09	-6.238420e+00	-1.451074e+02
2.580000e-06	-9.685233e-07	-3.161002e-09	-6.956099e+00	-2.095487e+02
2.590000e-06	-1.068137e-06	-4.163613e-09	-7.671543e+00	-2.752130e+02
2.600000e-06	-1.167440e-06	-5.182763e-09	-8.384752e+00	-3.419074e+02
2.610000e-06	-1.266383e-06	-6.212130e-09	-9.095381e+00	-4.092864e+02
2.620000e-06	-1.364873e-06	-7.244366e-09	-9.802749e+00	-4.768724e+02
2.630000e-06	-1.462847e-06	-8.273719e-09	-1.050641e+01	-5.440937e+02
2.640000e-06	-1.560249e-06	-9.291334e-09	-1.120597e+01	-6.103347e+02
2.650000e-06	-1.657095e-06	-1.028543e-08	-1.190154e+01	-6.749905e+02
2.660000e-06	-1.753462e-06	-1.124393e-08	-1.259366e+01	-7.375175e+02
2.670000e-06	-1.849400e-06	-1.216170e-08	-1.328270e+01	-7.974743e+02
2.680000e-06	-1.944789e-06	-1.303688e-08	-1.396780e+01	-8.545472e+02
2.690000e-06	-2.039283e-06	-1.386338e-08	-1.464648e+01	-9.085587e+02
2.700000e-06	-2.132717e-06	-1.464017e-08	-1.531753e+01	-9.594603e+02
2.710000e-06	-2.225232e-06	-1.537281e-08	-1.598199e+01	-1.007311e+03
2.720000e-06	-2.316998e-06	-1.606463e-08	-1.664107e+01	-1.052251e+03
2.730000e-06	-2.407985e-06	-1.671511e-08	-1.729456e+01	-1.094465e+03
2.740000e-06	-2.498029e-06	-1.732545e-08	-1.794127e+01	-1.134160e+03
2.750000e-06	-2.587135e-06	-1.789902e-08	-1.858124e+01	-1.171536e+03
2.760000e-06	-2.675470e-06	-1.843886e-08	-1.921568e+01	-1.206775e+03
2.770000e-06	-2.763096e-06	-1.894599e-08	-1.984503e+01	-1.240032e+03
2.780000e-06	-2.849734e-06	-1.942400e-08	-2.046727e+01	-1.271439e+03
2.790000e-06	-2.935101e-06	-1.987580e-08	-2.108039e+01	-1.301107e+03
2.800000e-06	-3.019328e-06	-2.030269e-08	-2.168532e+01	-1.329138e+03
2.810000e-06	-3.102633e-06	-2.070683e-08	-2.228364e+01	-1.355629e+03
2.820000e-06	-3.184955e-06	-2.109024e-08	-2.287489e+01	-1.380678e+03
2.830000e-06	-3.266169e-06	-2.145330e-08	-2.345818e+01	-1.404388e+03
2.840000e-06	-3.346363e-06	-2.179764e-08	-2.403415e+01	-1.426860e+03
2.850000e-06	-3.425433e-06	-2.212540e-08	-2.460204e+01	-1.448195e+03
2.860000e-06	-3.503010e-06	-2.243709e-08	-2.515921e+01	-1.468482e+03
2.870000e-06	-3.579058e-06	-2.273476e-08	-2.570540e+01	-1.487800e+03
2.880000e-06	-3.653683e-06	-2.301771e-08	-2.624137e+01	-1.506212e+03
2.890000e-06	-3.726964e-06	-2.328561e-08	-2.676769e+01	-1.523764e+03
2.900000e-06	-3.799052e-06	-2.353940e-08	-2.728543e+01	-1.540492e+03
2.910000e-06	-3.869754e-06	-2.378091e-08	-2.779323e+01	-1.556425e+03
2.920000e-06	-3.938839e-06	-2.401278e-08	-2.828941e+01	-1.571588e+03
2.930000e-06	-4.006427e-06	-2.423650e-08	-2.877484e+01	-1.586010e+03
2.940000e-06	-4.072641e-06	-2.445258e-08	-2.925040e+01	-1.599727e+03
