# Temperatura_=_28.71
# Concentracion g/m^3_=_28200.0
# C_Vs_to_Am_M_A/Vsm_=_65563218390.804596
# pendiente_HvsI_1/m_=_3716.3
# ordenada_HvsI_A/m_=_1297.0
# frecuencia_Hz_=_301761.58644889074

Tiempo_(s)	Campo_(V.s)	Magnetizacion_(V.s)	Campo_(kA/m)	Magnetizacion_(A/m)
0.000000e+00	-5.322146e-06	-1.942281e-08	-3.829592e+01	-1.269728e+03
1.000000e-08	-5.319785e-06	-1.942395e-08	-3.827892e+01	-1.269432e+03
2.000000e-08	-5.315600e-06	-1.941316e-08	-3.824881e+01	-1.269017e+03
3.000000e-08	-5.309774e-06	-1.940413e-08	-3.820689e+01	-1.268470e+03
4.000000e-08	-5.302375e-06	-1.939454e-08	-3.815365e+01	-1.267768e+03
5.000000e-08	-5.293273e-06	-1.937609e-08	-3.808816e+01	-1.266883e+03
6.000000e-08	-5.282113e-06	-1.935198e-08	-3.800785e+01	-1.265790e+03
7.000000e-08	-5.269065e-06	-1.930745e-08	-3.791396e+01	-1.264480e+03
8.000000e-08	-5.254002e-06	-1.929208e-08	-3.780558e+01	-1.262959e+03
9.000000e-08	-5.236666e-06	-1.939038e-08	-3.768084e+01	-1.261254e+03
1.000000e-07	-5.217318e-06	-1.936376e-08	-3.754162e+01	-1.259406e+03
1.100000e-07	-5.196110e-06	-1.925084e-08	-3.738901e+01	-1.257464e+03
1.200000e-07	-5.173163e-06	-1.922167e-08	-3.722390e+01	-1.255472e+03
1.300000e-07	-5.148704e-06	-1.902257e-08	-3.704790e+01	-1.253457e+03
1.400000e-07	-5.122654e-06	-1.902617e-08	-3.686045e+01	-1.251425e+03
1.500000e-07	-5.094914e-06	-1.926685e-08	-3.666084e+01	-1.249355e+03
1.600000e-07	-5.065714e-06	-1.896597e-08	-3.645073e+01	-1.247203e+03
1.700000e-07	-5.035090e-06	-1.899745e-08	-3.623038e+01	-1.244910e+03
1.800000e-07	-5.002488e-06	-1.917599e-08	-3.599579e+01	-1.242417e+03
1.900000e-07	-4.967791e-06	-1.874554e-08	-3.574612e+01	-1.239670e+03
2.000000e-07	-4.931624e-06	-1.878319e-08	-3.548588e+01	-1.236634e+03
2.100000e-07	-4.893823e-06	-1.889517e-08	-3.521388e+01	-1.233301e+03
2.200000e-07	-4.854208e-06	-1.868889e-08	-3.492883e+01	-1.229682e+03
2.300000e-07	-4.812761e-06	-1.875794e-08	-3.463060e+01	-1.225807e+03
2.400000e-07	-4.769375e-06	-1.868560e-08	-3.431840e+01	-1.221710e+03
2.500000e-07	-4.724259e-06	-1.850720e-08	-3.399377e+01	-1.217427e+03
2.600000e-07	-4.677349e-06	-1.849090e-08	-3.365623e+01	-1.212980e+03
2.700000e-07	-4.628478e-06	-1.836234e-08	-3.330457e+01	-1.208373e+03
2.800000e-07	-4.577496e-06	-1.834583e-08	-3.293773e+01	-1.203595e+03
2.900000e-07	-4.524535e-06	-1.829421e-08	-3.255664e+01	-1.198623e+03
3.000000e-07	-4.469963e-06	-1.816680e-08	-3.216397e+01	-1.193427e+03
3.100000e-07	-4.413834e-06	-1.808050e-08	-3.176008e+01	-1.187979e+03
3.200000e-07	-4.355812e-06	-1.799135e-08	-3.134259e+01	-1.182261e+03
3.300000e-07	-4.296121e-06	-1.792347e-08	-3.091307e+01	-1.176265e+03
3.400000e-07	-4.235061e-06	-1.780727e-08	-3.047371e+01	-1.169996e+03
3.500000e-07	-4.172534e-06	-1.774355e-08	-3.002379e+01	-1.163467e+03
3.600000e-07	-4.108644e-06	-1.762627e-08	-2.956406e+01	-1.156691e+03
3.700000e-07	-4.043191e-06	-1.747575e-08	-2.909310e+01	-1.149680e+03
3.800000e-07	-3.976072e-06	-1.741306e-08	-2.861013e+01	-1.142435e+03
3.900000e-07	-3.907504e-06	-1.729268e-08	-2.811675e+01	-1.134947e+03
4.000000e-07	-3.837656e-06	-1.716593e-08	-2.761415e+01	-1.127197e+03
4.100000e-07	-3.766673e-06	-1.704890e-08	-2.710339e+01	-1.119160e+03
4.200000e-07	-3.694556e-06	-1.690885e-08	-2.658446e+01	-1.110810e+03
4.300000e-07	-3.620973e-06	-1.677641e-08	-2.605499e+01	-1.102125e+03
4.400000e-07	-3.545745e-06	-1.663835e-08	-2.551368e+01	-1.093089e+03
4.500000e-07	-3.469053e-06	-1.651171e-08	-2.496184e+01	-1.083692e+03
4.600000e-07	-3.390928e-06	-1.634919e-08	-2.439969e+01	-1.073931e+03
4.700000e-07	-3.311327e-06	-1.617237e-08	-2.382691e+01	-1.063803e+03
4.800000e-07	-3.230447e-06	-1.601261e-08	-2.324493e+01	-1.053304e+03
4.900000e-07	-3.148490e-06	-1.585253e-08	-2.265520e+01	-1.042424e+03
5.000000e-07	-3.065506e-06	-1.569941e-08	-2.205809e+01	-1.031146e+03
5.100000e-07	-2.981698e-06	-1.552102e-08	-2.145504e+01	-1.019444e+03
5.200000e-07	-2.897049e-06	-1.532917e-08	-2.084594e+01	-1.007288e+03
5.300000e-07	-2.811419e-06	-1.512440e-08	-2.022978e+01	-9.946474e+02
5.400000e-07	-2.724759e-06	-1.491198e-08	-1.960622e+01	-9.814901e+02
5.500000e-07	-2.637233e-06	-1.471131e-08	-1.897641e+01	-9.677883e+02
5.600000e-07	-2.548855e-06	-1.450304e-08	-1.834048e+01	-9.535169e+02
5.700000e-07	-2.459233e-06	-1.427789e-08	-1.769560e+01	-9.386525e+02
5.800000e-07	-2.368405e-06	-1.402491e-08	-1.704204e+01	-9.231704e+02
5.900000e-07	-2.276792e-06	-1.376986e-08	-1.638283e+01	-9.070422e+02
6.000000e-07	-2.184468e-06	-1.351904e-08	-1.571851e+01	-8.902333e+02
6.100000e-07	-2.091339e-06	-1.326519e-08	-1.504839e+01	-8.727025e+02
6.200000e-07	-1.997437e-06	-1.299463e-08	-1.437271e+01	-8.544030e+02
6.300000e-07	-1.902818e-06	-1.269555e-08	-1.369188e+01	-8.352845e+02
6.400000e-07	-1.807627e-06	-1.237922e-08	-1.300692e+01	-8.152957e+02
6.500000e-07	-1.711934e-06	-1.205197e-08	-1.231836e+01	-7.943869e+02
6.600000e-07	-1.615593e-06	-1.171824e-08	-1.162512e+01	-7.725103e+02
6.700000e-07	-1.518475e-06	-1.137482e-08	-1.092631e+01	-7.496192e+02
6.800000e-07	-1.420612e-06	-1.101668e-08	-1.022213e+01	-7.256663e+02
6.900000e-07	-1.322122e-06	-1.063037e-08	-9.513434e+00	-7.006013e+02
7.000000e-07	-1.223129e-06	-1.021866e-08	-8.801118e+00	-6.743701e+02
7.100000e-07	-1.123760e-06	-9.792767e-09	-8.086103e+00	-6.469162e+02
7.200000e-07	-1.024083e-06	-9.357838e-09	-7.368869e+00	-6.181858e+02
7.300000e-07	-9.241646e-07	-8.908078e-09	-6.649898e+00	-5.881360e+02
7.400000e-07	-8.240139e-07	-8.431568e-09	-5.929256e+00	-5.567449e+02
7.500000e-07	-7.236325e-07	-7.932724e-09	-5.206954e+00	-5.240226e+02
7.600000e-07	-6.230303e-07	-7.410234e-09	-4.483062e+00	-4.900203e+02
7.700000e-07	-5.221650e-07	-6.868453e-09	-3.757279e+00	-4.548347e+02
7.800000e-07	-4.211133e-07	-6.317894e-09	-3.030153e+00	-4.186076e+02
7.900000e-07	-3.199417e-07	-5.758170e-09	-2.302166e+00	-3.815179e+02
8.000000e-07	-2.186561e-07	-5.185904e-09	-1.573357e+00	-3.437679e+02
8.100000e-07	-1.172993e-07	-4.603564e-09	-8.440361e-01	-3.055658e+02
8.200000e-07	-1.588541e-08	-4.018570e-09	-1.143047e-01	-2.671057e+02
8.300000e-07	8.560102e-08	-3.433027e-09	6.159488e-01	-2.285487e+02
8.400000e-07	1.870852e-07	-2.847884e-09	1.346186e+00	-1.900079e+02
8.500000e-07	2.884789e-07	-2.265057e-09	2.075772e+00	-1.515387e+02
8.600000e-07	3.897824e-07	-1.684906e-09	2.804709e+00	-1.131363e+02
8.700000e-07	4.909663e-07	-1.103776e-09	3.532786e+00	-7.473979e+01
8.800000e-07	5.920328e-07	-5.217015e-10	4.260018e+00	-3.624287e+01
8.900000e-07	6.929670e-07	6.578686e-11	4.986298e+00	2.491189e+00
9.000000e-07	7.936692e-07	6.600877e-10	5.710908e+00	4.161109e+01
9.100000e-07	8.940421e-07	1.265075e-09	6.433149e+00	8.125787e+01
9.200000e-07	9.941220e-07	1.880773e-09	7.153282e+00	1.215456e+02
9.300000e-07	1.093939e-06	2.503420e-09	7.871524e+00	1.625443e+02
9.400000e-07	1.193453e-06	3.136411e-09	8.587587e+00	2.042653e+02
9.500000e-07	1.292651e-06	3.779907e-09	9.301367e+00	2.466524e+02
9.600000e-07	1.391410e-06	4.433050e-09	1.001200e+01	2.895775e+02
9.700000e-07	1.489556e-06	5.094092e-09	1.071822e+01	3.328433e+02
9.800000e-07	1.586900e-06	5.759900e-09	1.141866e+01	3.761924e+02
9.900000e-07	1.683403e-06	6.419724e-09	1.211306e+01	4.193230e+02
1.000000e-06	1.779188e-06	7.065143e-09	1.280228e+01	4.619094e+02
1.010000e-06	1.874340e-06	7.696487e-09	1.348696e+01	5.036262e+02
1.020000e-06	1.968885e-06	8.312087e-09	1.416726e+01	5.441726e+02
1.030000e-06	2.062723e-06	8.907526e-09	1.484248e+01	5.832938e+02
1.040000e-06	2.155779e-06	9.477532e-09	1.551208e+01	6.207975e+02
1.050000e-06	2.248158e-06	1.001907e-08	1.617680e+01	6.565627e+02
1.060000e-06	2.339940e-06	1.053112e-08	1.683722e+01	6.905392e+02
1.070000e-06	2.430991e-06	1.101794e-08	1.749238e+01	7.227400e+02
1.080000e-06	2.520967e-06	1.148051e-08	1.813982e+01	7.532268e+02
1.090000e-06	2.609721e-06	1.192051e-08	1.877845e+01	7.820919e+02
1.100000e-06	2.697453e-06	1.233623e-08	1.940973e+01	8.094406e+02
1.110000e-06	2.784350e-06	1.273062e-08	2.003501e+01	8.353759e+02
1.120000e-06	2.870406e-06	1.310511e-08	2.065423e+01	8.599883e+02
1.130000e-06	2.955555e-06	1.346041e-08	2.126692e+01	8.833517e+02
1.140000e-06	3.039818e-06	1.379826e-08	2.187324e+01	9.055248e+02
1.150000e-06	3.123192e-06	1.411849e-08	2.247317e+01	9.265564e+02
1.160000e-06	3.205501e-06	1.442095e-08	2.306543e+01	9.464922e+02
1.170000e-06	3.286573e-06	1.470601e-08	2.364879e+01	9.653810e+02
1.180000e-06	3.366394e-06	1.497680e-08	2.422315e+01	9.832781e+02
1.190000e-06	3.445050e-06	1.523386e-08	2.478912e+01	1.000246e+03
1.200000e-06	3.522537e-06	1.547848e-08	2.534669e+01	1.016353e+03
1.210000e-06	3.598811e-06	1.571224e-08	2.589552e+01	1.031664e+03
1.220000e-06	3.673692e-06	1.593543e-08	2.643434e+01	1.046240e+03
1.230000e-06	3.746920e-06	1.614605e-08	2.696125e+01	1.060132e+03
1.240000e-06	3.818601e-06	1.634477e-08	2.747704e+01	1.073379e+03
1.250000e-06	3.888892e-06	1.653130e-08	2.798282e+01	1.086008e+03
1.260000e-06	3.957864e-06	1.671079e-08	2.847912e+01	1.098038e+03
1.270000e-06	4.025631e-06	1.688324e-08	2.896674e+01	1.109485e+03
1.280000e-06	4.091919e-06	1.704846e-08	2.944372e+01	1.120365e+03
1.290000e-06	4.156442e-06	1.720635e-08	2.990800e+01	1.130695e+03
1.300000e-06	4.219409e-06	1.735775e-08	3.036109e+01	1.140495e+03
1.310000e-06	4.280985e-06	1.750159e-08	3.080416e+01	1.149791e+03
1.320000e-06	4.341247e-06	1.763716e-08	3.123777e+01	1.158604e+03
1.330000e-06	4.400105e-06	1.776377e-08	3.166130e+01	1.166956e+03
1.340000e-06	4.457196e-06	1.788290e-08	3.207209e+01	1.174864e+03
1.350000e-06	4.512555e-06	1.799536e-08	3.247044e+01	1.182344e+03
1.360000e-06	4.566371e-06	1.810087e-08	3.285768e+01	1.189407e+03
1.370000e-06	4.618418e-06	1.820061e-08	3.323218e+01	1.196068e+03
1.380000e-06	4.668421e-06	1.829408e-08	3.359198e+01	1.202347e+03
1.390000e-06	4.716429e-06	1.838305e-08	3.393743e+01	1.208268e+03
1.400000e-06	4.762767e-06	1.846722e-08	3.427086e+01	1.213863e+03
1.410000e-06	4.807632e-06	1.854758e-08	3.459369e+01	1.219167e+03
1.420000e-06	4.850924e-06	1.862564e-08	3.490520e+01	1.224213e+03
1.430000e-06	4.892330e-06	1.870084e-08	3.520314e+01	1.229027e+03
1.440000e-06	4.931876e-06	1.877151e-08	3.548770e+01	1.233626e+03
1.450000e-06	4.969812e-06	1.883683e-08	3.576066e+01	1.238009e+03
1.460000e-06	5.006223e-06	1.889912e-08	3.602266e+01	1.242167e+03
1.470000e-06	5.040943e-06	1.895780e-08	3.627250e+01	1.246077e+03
1.480000e-06	5.073729e-06	1.901148e-08	3.650841e+01	1.249715e+03
1.490000e-06	5.104688e-06	1.906015e-08	3.673118e+01	1.253061e+03
1.500000e-06	5.133944e-06	1.910330e-08	3.694169e+01	1.256106e+03
1.510000e-06	5.161507e-06	1.914236e-08	3.714002e+01	1.258852e+03
1.520000e-06	5.187080e-06	1.917912e-08	3.732404e+01	1.261316e+03
1.530000e-06	5.210570e-06	1.921386e-08	3.749306e+01	1.263525e+03
1.540000e-06	5.232261e-06	1.924498e-08	3.764914e+01	1.265509e+03
1.550000e-06	5.252279e-06	1.927160e-08	3.779318e+01	1.267295e+03
1.560000e-06	5.270509e-06	1.929461e-08	3.792436e+01	1.268903e+03
1.570000e-06	5.286749e-06	1.931553e-08	3.804121e+01	1.270338e+03
1.580000e-06	5.301015e-06	1.933445e-08	3.814386e+01	1.271596e+03
1.590000e-06	5.313310e-06	1.935012e-08	3.823233e+01	1.272664e+03
1.600000e-06	5.323453e-06	1.936221e-08	3.830532e+01	1.273530e+03
1.610000e-06	5.331448e-06	1.937076e-08	3.836285e+01	1.274183e+03
1.620000e-06	5.337558e-06	1.937710e-08	3.840681e+01	1.274627e+03
1.630000e-06	5.341947e-06	1.938332e-08	3.843839e+01	1.274872e+03
1.640000e-06	5.344472e-06	1.938986e-08	3.845656e+01	1.274940e+03
1.650000e-06	5.344950e-06	1.939577e-08	3.846000e+01	1.274856e+03
1.660000e-06	5.343603e-06	1.938902e-08	3.845031e+01	1.274642e+03
1.670000e-06	5.340651e-06	1.937821e-08	3.842906e+01	1.274307e+03
1.680000e-06	5.336053e-06	1.937402e-08	3.839598e+01	1.273851e+03
1.690000e-06	5.329585e-06	1.936559e-08	3.834944e+01	1.273256e+03
1.700000e-06	5.321282e-06	1.935452e-08	3.828970e+01	1.272498e+03
1.710000e-06	5.311427e-06	1.934633e-08	3.821878e+01	1.271547e+03
1.720000e-06	5.299909e-06	1.935591e-08	3.813591e+01	1.270384e+03
1.730000e-06	5.286453e-06	1.935681e-08	3.803908e+01	1.269004e+03
1.740000e-06	5.270964e-06	1.918300e-08	3.792763e+01	1.267419e+03
1.750000e-06	5.253228e-06	1.914229e-08	3.780001e+01	1.265662e+03
1.760000e-06	5.232873e-06	1.919968e-08	3.765354e+01	1.263778e+03
1.770000e-06	5.210048e-06	1.918816e-08	3.748931e+01	1.261814e+03
1.780000e-06	5.185724e-06	1.936717e-08	3.731427e+01	1.259812e+03
1.790000e-06	5.160764e-06	1.912709e-08	3.713467e+01	1.257791e+03
1.800000e-06	5.134710e-06	1.894553e-08	3.694720e+01	1.255750e+03
1.810000e-06	5.106616e-06	1.926937e-08	3.674505e+01	1.253658e+03
1.820000e-06	5.076565e-06	1.896188e-08	3.652881e+01	1.251467e+03
1.830000e-06	5.044736e-06	1.890805e-08	3.629979e+01	1.249116e+03
1.840000e-06	5.010916e-06	1.928083e-08	3.605643e+01	1.246545e+03
1.850000e-06	4.975561e-06	1.889617e-08	3.580203e+01	1.243707e+03
1.860000e-06	4.938609e-06	1.887664e-08	3.553614e+01	1.240575e+03
1.870000e-06	4.899626e-06	1.898778e-08	3.525563e+01	1.237147e+03
1.880000e-06	4.858973e-06	1.865028e-08	3.496312e+01	1.233441e+03
1.890000e-06	4.816565e-06	1.880595e-08	3.465797e+01	1.229489e+03
1.900000e-06	4.772467e-06	1.869006e-08	3.434066e+01	1.225329e+03
1.910000e-06	4.726676e-06	1.859273e-08	3.401116e+01	1.220990e+03
1.920000e-06	4.678864e-06	1.876067e-08	3.366713e+01	1.216491e+03
1.930000e-06	4.629426e-06	1.840508e-08	3.331140e+01	1.211830e+03
1.940000e-06	4.578312e-06	1.841397e-08	3.294360e+01	1.206992e+03
1.950000e-06	4.525104e-06	1.838560e-08	3.256073e+01	1.201950e+03
1.960000e-06	4.469946e-06	1.822953e-08	3.216384e+01	1.196675e+03
1.970000e-06	4.413078e-06	1.828325e-08	3.175464e+01	1.191141e+03
1.980000e-06	4.354714e-06	1.805790e-08	3.133468e+01	1.185333e+03
1.990000e-06	4.294975e-06	1.803547e-08	3.090483e+01	1.179248e+03
2.000000e-06	4.233773e-06	1.791428e-08	3.046444e+01	1.172893e+03
2.010000e-06	4.170868e-06	1.778447e-08	3.001180e+01	1.166282e+03
2.020000e-06	4.106272e-06	1.777906e-08	2.954700e+01	1.159429e+03
2.030000e-06	4.040308e-06	1.754576e-08	2.907235e+01	1.152342e+03
2.040000e-06	3.973055e-06	1.752250e-08	2.858843e+01	1.145020e+03
2.050000e-06	3.904426e-06	1.736768e-08	2.809460e+01	1.137449e+03
2.060000e-06	3.834232e-06	1.722147e-08	2.758951e+01	1.129608e+03
2.070000e-06	3.762559e-06	1.716848e-08	2.707379e+01	1.121473e+03
2.080000e-06	3.689666e-06	1.699328e-08	2.654927e+01	1.113017e+03
2.090000e-06	3.615418e-06	1.690311e-08	2.601502e+01	1.104220e+03
2.100000e-06	3.539782e-06	1.670110e-08	2.547078e+01	1.095067e+03
2.110000e-06	3.462697e-06	1.659272e-08	2.491610e+01	1.085553e+03
2.120000e-06	3.384065e-06	1.647224e-08	2.435030e+01	1.075673e+03
2.130000e-06	3.304166e-06	1.628902e-08	2.377538e+01	1.065426e+03
2.140000e-06	3.223188e-06	1.613708e-08	2.319270e+01	1.054805e+03
2.150000e-06	3.141101e-06	1.593416e-08	2.260204e+01	1.043799e+03
2.160000e-06	3.057959e-06	1.578627e-08	2.200378e+01	1.032386e+03
2.170000e-06	2.973916e-06	1.558742e-08	2.139905e+01	1.020541e+03
2.180000e-06	2.888765e-06	1.541808e-08	2.078633e+01	1.008232e+03
2.190000e-06	2.802234e-06	1.524797e-08	2.016369e+01	9.954277e+02
2.200000e-06	2.714558e-06	1.503084e-08	1.953281e+01	9.820975e+02
2.210000e-06	2.625956e-06	1.480709e-08	1.889527e+01	9.682144e+02
2.220000e-06	2.536463e-06	1.457406e-08	1.825132e+01	9.537541e+02
2.230000e-06	2.446163e-06	1.437385e-08	1.760156e+01	9.386931e+02
2.240000e-06	2.355118e-06	1.413617e-08	1.694644e+01	9.230059e+02
2.250000e-06	2.263414e-06	1.388465e-08	1.628657e+01	9.066621e+02
2.260000e-06	2.171030e-06	1.361354e-08	1.562181e+01	8.896252e+02
2.270000e-06	2.077715e-06	1.333680e-08	1.495036e+01	8.718518e+02
2.280000e-06	1.983293e-06	1.305884e-08	1.427094e+01	8.532938e+02
2.290000e-06	1.887940e-06	1.276900e-08	1.358482e+01	8.339002e+02
2.300000e-06	1.791982e-06	1.247394e-08	1.289435e+01	8.136202e+02
2.310000e-06	1.695574e-06	1.215360e-08	1.220063e+01	7.924046e+02
2.320000e-06	1.598701e-06	1.180921e-08	1.150358e+01	7.702062e+02
2.330000e-06	1.501277e-06	1.144351e-08	1.080255e+01	7.469782e+02
2.340000e-06	1.403288e-06	1.107753e-08	1.009747e+01	7.226727e+02
2.350000e-06	1.304814e-06	1.069979e-08	9.388893e+00	6.972380e+02
2.360000e-06	1.205915e-06	1.029919e-08	8.677257e+00	6.706191e+02
2.370000e-06	1.106715e-06	9.871314e-09	7.963452e+00	6.427596e+02
2.380000e-06	1.007292e-06	9.425054e-09	7.248047e+00	6.136083e+02
2.390000e-06	9.076585e-07	8.961152e-09	6.531127e+00	5.831275e+02
2.400000e-06	8.077940e-07	8.474660e-09	5.812544e+00	5.513048e+02
2.410000e-06	7.077055e-07	7.974142e-09	5.092350e+00	5.181625e+02
2.420000e-06	6.073964e-07	7.453054e-09	4.370567e+00	4.837662e+02
2.430000e-06	5.069146e-07	6.907241e-09	3.647543e+00	4.482276e+02
2.440000e-06	4.062606e-07	6.343739e-09	2.923280e+00	4.117014e+02
2.450000e-06	3.054280e-07	5.773267e-09	2.197731e+00	3.743758e+02
2.460000e-06	2.044601e-07	5.193995e-09	1.471209e+00	3.364573e+02
2.470000e-06	1.033538e-07	4.606871e-09	7.436900e-01	2.981515e+02
2.480000e-06	2.157398e-09	4.018265e-09	1.552372e-02	2.596439e+02
2.490000e-06	-9.907375e-08	3.430937e-09	-7.128928e-01	2.210816e+02
2.500000e-06	-2.002791e-07	2.842203e-09	-1.441124e+00	1.825598e+02
2.510000e-06	-3.013849e-07	2.250359e-09	-2.168639e+00	1.441146e+02
2.520000e-06	-4.023012e-07	1.659021e-09	-2.894789e+00	1.057223e+02
2.530000e-06	-5.030476e-07	1.066900e-09	-3.619718e+00	6.730612e+01
2.540000e-06	-6.036743e-07	4.745859e-10	-4.343785e+00	2.874801e+01
2.550000e-06	-7.041012e-07	-1.209384e-10	-5.066414e+00	-1.009466e+01
2.560000e-06	-8.042862e-07	-7.205275e-10	-5.787303e+00	-4.937028e+01
2.570000e-06	-9.042142e-07	-1.329306e-09	-6.506343e+00	-8.921329e+01
2.580000e-06	-1.003845e-06	-1.950990e-09	-7.223248e+00	-1.297253e+02
2.590000e-06	-1.103192e-06	-2.582482e-09	-7.938104e+00	-1.709588e+02
2.600000e-06	-1.202225e-06	-3.224215e-09	-8.650705e+00	-2.129043e+02
2.610000e-06	-1.300825e-06	-3.871181e-09	-9.360185e+00	-2.554826e+02
2.620000e-06	-1.398899e-06	-4.524831e-09	-1.006589e+01	-2.985427e+02
2.630000e-06	-1.496429e-06	-5.184711e-09	-1.076767e+01	-3.418667e+02
2.640000e-06	-1.593438e-06	-5.846890e-09	-1.146570e+01	-3.851809e+02
2.650000e-06	-1.689953e-06	-6.506745e-09	-1.216018e+01	-4.281734e+02
2.660000e-06	-1.785976e-06	-7.156440e-09	-1.285113e+01	-4.705160e+02
2.670000e-06	-1.881545e-06	-7.792110e-09	-1.353880e+01	-5.118884e+02
2.680000e-06	-1.976486e-06	-8.405641e-09	-1.422196e+01	-5.520026e+02
2.690000e-06	-2.070460e-06	-8.993725e-09	-1.489815e+01	-5.906224e+02
2.700000e-06	-2.163372e-06	-9.560097e-09	-1.556671e+01	-6.275778e+02
2.710000e-06	-2.255389e-06	-1.010422e-08	-1.622882e+01	-6.627711e+02
2.720000e-06	-2.346700e-06	-1.062075e-08	-1.688586e+01	-6.961736e+02
2.730000e-06	-2.437236e-06	-1.110656e-08	-1.753732e+01	-7.278158e+02
2.740000e-06	-2.526845e-06	-1.156537e-08	-1.818211e+01	-7.577710e+02
2.750000e-06	-2.615548e-06	-1.199914e-08	-1.882038e+01	-7.861379e+02
2.760000e-06	-2.703447e-06	-1.241019e-08	-1.945286e+01	-8.130224e+02
2.770000e-06	-2.790522e-06	-1.280237e-08	-2.007942e+01	-8.385242e+02
2.780000e-06	-2.876524e-06	-1.317619e-08	-2.069825e+01	-8.627287e+02
2.790000e-06	-2.961305e-06	-1.352796e-08	-2.130830e+01	-8.857046e+02
2.800000e-06	-3.045025e-06	-1.385957e-08	-2.191071e+01	-9.075066e+02
2.810000e-06	-3.127802e-06	-1.417475e-08	-2.250634e+01	-9.281818e+02
2.820000e-06	-3.209554e-06	-1.447487e-08	-2.309459e+01	-9.477763e+02
2.830000e-06	-3.290245e-06	-1.476005e-08	-2.367521e+01	-9.663407e+02
2.840000e-06	-3.369856e-06	-1.502914e-08	-2.424806e+01	-9.839330e+02
2.850000e-06	-3.448120e-06	-1.528392e-08	-2.481121e+01	-1.000618e+03
2.860000e-06	-3.524862e-06	-1.552586e-08	-2.536342e+01	-1.016462e+03
2.870000e-06	-3.600210e-06	-1.575784e-08	-2.590559e+01	-1.031532e+03
2.880000e-06	-3.674212e-06	-1.598185e-08	-2.643807e+01	-1.045884e+03
2.890000e-06	-3.746904e-06	-1.619696e-08	-2.696114e+01	-1.059566e+03
2.900000e-06	-3.818305e-06	-1.640043e-08	-2.747491e+01	-1.072612e+03
2.910000e-06	-3.888191e-06	-1.659023e-08	-2.797778e+01	-1.085048e+03
2.920000e-06	-3.956556e-06	-1.676932e-08	-2.846970e+01	-1.096890e+03
2.930000e-06	-4.023558e-06	-1.693951e-08	-2.895182e+01	-1.108154e+03
2.940000e-06	-4.089171e-06	-1.710114e-08	-2.942395e+01	-1.118855e+03
