# Temperatura_=_86.85
# Concentracion g/m^3_=_28200.0
# C_Vs_to_Am_M_A/Vsm_=_65563218390.804596
# pendiente_HvsI_1/m_=_3716.3
# ordenada_HvsI_A/m_=_1297.0
# frecuencia_Hz_=_301764.4612666829

Tiempo_(s)	Campo_(V.s)	Magnetizacion_(V.s)	Campo_(kA/m)	Magnetizacion_(A/m)
0.000000e+00	-5.326668e-06	-2.704686e-08	-3.830484e+01	-1.769935e+03
1.000000e-08	-5.325091e-06	-2.704284e-08	-3.829350e+01	-1.769555e+03
2.000000e-08	-5.321583e-06	-2.703123e-08	-3.826828e+01	-1.768972e+03
3.000000e-08	-5.316480e-06	-2.701530e-08	-3.823158e+01	-1.768179e+03
4.000000e-08	-5.309848e-06	-2.699976e-08	-3.818389e+01	-1.767163e+03
5.000000e-08	-5.301511e-06	-2.698066e-08	-3.812393e+01	-1.765909e+03
6.000000e-08	-5.291164e-06	-2.695689e-08	-3.804953e+01	-1.764398e+03
7.000000e-08	-5.278878e-06	-2.692333e-08	-3.796118e+01	-1.762620e+03
8.000000e-08	-5.264726e-06	-2.688300e-08	-3.785941e+01	-1.760575e+03
9.000000e-08	-5.248417e-06	-2.691000e-08	-3.774212e+01	-1.758281e+03
1.000000e-07	-5.229903e-06	-2.692252e-08	-3.760899e+01	-1.755767e+03
1.100000e-07	-5.209437e-06	-2.682898e-08	-3.746181e+01	-1.753077e+03
1.200000e-07	-5.187175e-06	-2.675351e-08	-3.730172e+01	-1.750257e+03
1.300000e-07	-5.163310e-06	-2.663849e-08	-3.713011e+01	-1.747348e+03
1.400000e-07	-5.137901e-06	-2.653584e-08	-3.694739e+01	-1.744380e+03
1.500000e-07	-5.110789e-06	-2.666924e-08	-3.675242e+01	-1.741359e+03
1.600000e-07	-5.082104e-06	-2.658503e-08	-3.654614e+01	-1.738267e+03
1.700000e-07	-5.052049e-06	-2.644463e-08	-3.633001e+01	-1.735064e+03
1.800000e-07	-5.020304e-06	-2.654840e-08	-3.610173e+01	-1.731691e+03
1.900000e-07	-4.986393e-06	-2.634968e-08	-3.585787e+01	-1.728082e+03
2.000000e-07	-4.950733e-06	-2.619964e-08	-3.560144e+01	-1.724172e+03
2.100000e-07	-4.913584e-06	-2.628967e-08	-3.533429e+01	-1.719909e+03
2.200000e-07	-4.874699e-06	-2.614989e-08	-3.505467e+01	-1.715259e+03
2.300000e-07	-4.834011e-06	-2.603606e-08	-3.476207e+01	-1.710213e+03
2.400000e-07	-4.791360e-06	-2.599878e-08	-3.445536e+01	-1.704776e+03
2.500000e-07	-4.746898e-06	-2.587544e-08	-3.413563e+01	-1.698970e+03
2.600000e-07	-4.700709e-06	-2.582452e-08	-3.380347e+01	-1.692824e+03
2.700000e-07	-4.652573e-06	-2.567816e-08	-3.345732e+01	-1.686361e+03
2.800000e-07	-4.602298e-06	-2.553371e-08	-3.309579e+01	-1.679598e+03
2.900000e-07	-4.549971e-06	-2.546655e-08	-3.271950e+01	-1.672540e+03
3.000000e-07	-4.495973e-06	-2.536504e-08	-3.233119e+01	-1.665179e+03
3.100000e-07	-4.440463e-06	-2.525481e-08	-3.193201e+01	-1.657503e+03
3.200000e-07	-4.383174e-06	-2.511362e-08	-3.152004e+01	-1.649494e+03
3.300000e-07	-4.324117e-06	-2.498706e-08	-3.109535e+01	-1.641140e+03
3.400000e-07	-4.263614e-06	-2.484751e-08	-3.066026e+01	-1.632435e+03
3.500000e-07	-4.201681e-06	-2.469012e-08	-3.021489e+01	-1.623381e+03
3.600000e-07	-4.138336e-06	-2.456684e-08	-2.975937e+01	-1.613986e+03
3.700000e-07	-4.073518e-06	-2.444449e-08	-2.929326e+01	-1.604260e+03
3.800000e-07	-4.007042e-06	-2.430097e-08	-2.881522e+01	-1.594211e+03
3.900000e-07	-3.939010e-06	-2.410047e-08	-2.832599e+01	-1.583837e+03
4.000000e-07	-3.869669e-06	-2.391016e-08	-2.782735e+01	-1.573128e+03
4.100000e-07	-3.799132e-06	-2.377766e-08	-2.732011e+01	-1.562061e+03
4.200000e-07	-3.727432e-06	-2.361033e-08	-2.680450e+01	-1.550607e+03
4.300000e-07	-3.654327e-06	-2.342746e-08	-2.627879e+01	-1.538733e+03
4.400000e-07	-3.579564e-06	-2.323476e-08	-2.574117e+01	-1.526406e+03
4.500000e-07	-3.503317e-06	-2.303332e-08	-2.519286e+01	-1.513601e+03
4.600000e-07	-3.425754e-06	-2.282599e-08	-2.463509e+01	-1.500300e+03
4.700000e-07	-3.346890e-06	-2.261370e-08	-2.406797e+01	-1.486494e+03
4.800000e-07	-3.266705e-06	-2.241022e-08	-2.349135e+01	-1.472178e+03
4.900000e-07	-3.185260e-06	-2.218314e-08	-2.290567e+01	-1.457348e+03
5.000000e-07	-3.102697e-06	-2.194605e-08	-2.231194e+01	-1.441996e+03
5.100000e-07	-3.019200e-06	-2.169756e-08	-2.171151e+01	-1.426106e+03
5.200000e-07	-2.934859e-06	-2.144135e-08	-2.110500e+01	-1.409652e+03
5.300000e-07	-2.849546e-06	-2.118068e-08	-2.049150e+01	-1.392601e+03
5.400000e-07	-2.763239e-06	-2.091148e-08	-1.987085e+01	-1.374911e+03
5.500000e-07	-2.676059e-06	-2.063190e-08	-1.924393e+01	-1.356540e+03
5.600000e-07	-2.588011e-06	-2.033655e-08	-1.861076e+01	-1.337449e+03
5.700000e-07	-2.498806e-06	-2.003635e-08	-1.796927e+01	-1.317600e+03
5.800000e-07	-2.408360e-06	-1.972154e-08	-1.731887e+01	-1.296960e+03
5.900000e-07	-2.316944e-06	-1.938959e-08	-1.666148e+01	-1.275497e+03
6.000000e-07	-2.224791e-06	-1.904505e-08	-1.599879e+01	-1.253175e+03
6.100000e-07	-2.131930e-06	-1.869244e-08	-1.533102e+01	-1.229952e+03
6.200000e-07	-2.038253e-06	-1.832907e-08	-1.465737e+01	-1.205771e+03
6.300000e-07	-1.943803e-06	-1.794463e-08	-1.397817e+01	-1.180562e+03
6.400000e-07	-1.848728e-06	-1.753920e-08	-1.329447e+01	-1.154243e+03
6.500000e-07	-1.753106e-06	-1.711591e-08	-1.260684e+01	-1.126719e+03
6.600000e-07	-1.656909e-06	-1.667477e-08	-1.191507e+01	-1.097892e+03
6.700000e-07	-1.560043e-06	-1.621472e-08	-1.121850e+01	-1.067660e+03
6.800000e-07	-1.462444e-06	-1.573444e-08	-1.051664e+01	-1.035927e+03
6.900000e-07	-1.364137e-06	-1.522811e-08	-9.809707e+00	-1.002599e+03
7.000000e-07	-1.265257e-06	-1.469366e-08	-9.098649e+00	-9.675888e+02
7.100000e-07	-1.165957e-06	-1.412876e-08	-8.384565e+00	-9.308112e+02
7.200000e-07	-1.066364e-06	-1.353701e-08	-7.668375e+00	-8.921852e+02
7.300000e-07	-9.665156e-07	-1.292164e-08	-6.950353e+00	-8.516343e+02
7.400000e-07	-8.664115e-07	-1.227904e-08	-6.230491e+00	-8.090918e+02
7.500000e-07	-7.660949e-07	-1.160372e-08	-5.509099e+00	-7.645107e+02
7.600000e-07	-6.655204e-07	-1.089093e-08	-4.785853e+00	-7.178759e+02
7.700000e-07	-5.647298e-07	-1.014431e-08	-4.061054e+00	-6.692189e+02
7.800000e-07	-4.637885e-07	-9.371022e-09	-3.335170e+00	-6.186291e+02
7.900000e-07	-3.626868e-07	-8.573301e-09	-2.608133e+00	-5.662601e+02
8.000000e-07	-2.613784e-07	-7.751963e-09	-1.879610e+00	-5.123271e+02
8.100000e-07	-1.598944e-07	-6.913905e-09	-1.149824e+00	-4.570930e+02
8.200000e-07	-5.833854e-08	-6.060019e-09	-4.195209e-01	-4.008447e+02
8.300000e-07	4.328264e-08	-5.192064e-09	3.112517e-01	-3.438618e+02
8.400000e-07	1.449005e-07	-4.315958e-09	1.042001e+00	-2.863810e+02
8.500000e-07	2.464885e-07	-3.436114e-09	1.772535e+00	-2.285656e+02
8.600000e-07	3.480085e-07	-2.553455e-09	2.502579e+00	-1.704818e+02
8.700000e-07	4.493618e-07	-1.665356e-09	3.231425e+00	-1.120918e+02
8.800000e-07	5.505882e-07	-7.695339e-10	3.959359e+00	-5.326249e+01
8.900000e-07	6.516350e-07	1.379343e-10	4.686001e+00	6.206950e+00
9.000000e-07	7.524349e-07	1.059521e-09	5.410868e+00	6.654417e+01
9.100000e-07	8.530171e-07	1.997628e-09	6.134169e+00	1.279538e+02
9.200000e-07	9.533345e-07	2.952388e-09	6.855566e+00	1.905672e+02
9.300000e-07	1.053377e-06	3.922219e-09	7.574986e+00	2.543997e+02
9.400000e-07	1.153132e-06	4.906165e-09	8.292336e+00	3.193227e+02
9.500000e-07	1.252565e-06	5.902655e-09	9.007375e+00	3.850547e+02
9.600000e-07	1.351590e-06	6.908100e-09	9.719476e+00	4.511743e+02
9.700000e-07	1.450005e-06	7.914238e-09	1.042719e+01	5.171516e+02
9.800000e-07	1.547629e-06	8.909602e-09	1.112923e+01	5.823940e+02
9.900000e-07	1.644528e-06	9.882392e-09	1.182604e+01	6.463000e+02
1.000000e-06	1.740800e-06	1.082231e-08	1.251834e+01	7.083111e+02
1.010000e-06	1.836378e-06	1.172540e-08	1.320566e+01	7.679567e+02
1.020000e-06	1.931261e-06	1.258954e-08	1.388797e+01	8.248847e+02
1.030000e-06	2.025484e-06	1.340808e-08	1.456555e+01	8.788761e+02
1.040000e-06	2.118993e-06	1.417986e-08	1.523798e+01	9.298423e+02
1.050000e-06	2.211743e-06	1.490417e-08	1.590496e+01	9.778082e+02
1.060000e-06	2.303812e-06	1.558494e-08	1.656705e+01	1.022885e+03
1.070000e-06	2.395187e-06	1.622678e-08	1.722414e+01	1.065242e+03
1.080000e-06	2.485653e-06	1.683302e-08	1.787469e+01	1.105072e+03
1.090000e-06	2.575035e-06	1.740664e-08	1.851745e+01	1.142570e+03
1.100000e-06	2.663384e-06	1.794769e-08	1.915278e+01	1.177916e+03
1.110000e-06	2.750807e-06	1.845506e-08	1.978145e+01	1.211267e+03
1.120000e-06	2.837310e-06	1.893033e-08	2.040351e+01	1.242754e+03
1.130000e-06	2.922873e-06	1.937895e-08	2.101880e+01	1.272493e+03
1.140000e-06	3.007499e-06	1.980465e-08	2.162736e+01	1.300585e+03
1.150000e-06	3.091263e-06	2.020817e-08	2.222972e+01	1.327132e+03
1.160000e-06	3.174061e-06	2.058993e-08	2.282513e+01	1.352234e+03
1.170000e-06	3.255654e-06	2.095314e-08	2.341188e+01	1.375994e+03
1.180000e-06	3.335996e-06	2.129819e-08	2.398963e+01	1.398519e+03
1.190000e-06	3.415136e-06	2.162623e-08	2.455874e+01	1.419909e+03
1.200000e-06	3.493064e-06	2.193700e-08	2.511913e+01	1.440256e+03
1.210000e-06	3.569789e-06	2.223024e-08	2.567087e+01	1.459638e+03
1.220000e-06	3.645210e-06	2.250874e-08	2.621323e+01	1.478117e+03
1.230000e-06	3.719128e-06	2.277393e-08	2.674478e+01	1.495739e+03
1.240000e-06	3.791506e-06	2.302679e-08	2.726527e+01	1.512537e+03
1.250000e-06	3.862474e-06	2.326814e-08	2.777561e+01	1.528536e+03
1.260000e-06	3.932130e-06	2.349767e-08	2.827651e+01	1.543761e+03
1.270000e-06	4.000487e-06	2.371750e-08	2.876808e+01	1.558239e+03
1.280000e-06	4.067413e-06	2.392636e-08	2.924935e+01	1.572005e+03
1.290000e-06	4.132674e-06	2.412414e-08	2.971866e+01	1.585100e+03
1.300000e-06	4.196324e-06	2.431386e-08	3.017637e+01	1.597570e+03
1.310000e-06	4.258565e-06	2.449434e-08	3.062396e+01	1.609462e+03
1.320000e-06	4.319442e-06	2.466567e-08	3.106173e+01	1.620819e+03
1.330000e-06	4.378954e-06	2.482919e-08	3.148969e+01	1.631672e+03
1.340000e-06	4.436818e-06	2.498659e-08	3.190580e+01	1.642045e+03
1.350000e-06	4.492871e-06	2.513761e-08	3.230889e+01	1.651947e+03
1.360000e-06	4.547328e-06	2.528182e-08	3.270049e+01	1.661377e+03
1.370000e-06	4.600139e-06	2.541988e-08	3.308027e+01	1.670332e+03
1.380000e-06	4.651036e-06	2.555007e-08	3.344627e+01	1.678808e+03
1.390000e-06	4.699916e-06	2.567192e-08	3.379778e+01	1.686806e+03
1.400000e-06	4.746967e-06	2.578569e-08	3.413612e+01	1.694338e+03
1.410000e-06	4.792401e-06	2.589325e-08	3.446285e+01	1.701426e+03
1.420000e-06	4.836336e-06	2.599567e-08	3.477879e+01	1.708100e+03
1.430000e-06	4.878547e-06	2.609093e-08	3.508234e+01	1.714395e+03
1.440000e-06	4.918854e-06	2.617908e-08	3.537219e+01	1.720344e+03
1.450000e-06	4.957459e-06	2.626313e-08	3.564980e+01	1.725976e+03
1.460000e-06	4.994476e-06	2.634485e-08	3.591600e+01	1.731311e+03
1.470000e-06	5.029826e-06	2.642280e-08	3.617021e+01	1.736355e+03
1.480000e-06	5.063328e-06	2.649600e-08	3.641112e+01	1.741107e+03
1.490000e-06	5.094989e-06	2.656430e-08	3.663880e+01	1.745556e+03
1.500000e-06	5.124941e-06	2.662724e-08	3.685419e+01	1.749691e+03
1.510000e-06	5.153262e-06	2.668597e-08	3.705785e+01	1.753500e+03
1.520000e-06	5.179750e-06	2.673950e-08	3.724833e+01	1.756979e+03
1.530000e-06	5.204151e-06	2.678685e-08	3.742381e+01	1.760129e+03
1.540000e-06	5.226611e-06	2.682927e-08	3.758532e+01	1.762960e+03
1.550000e-06	5.247349e-06	2.686684e-08	3.773445e+01	1.765486e+03
1.560000e-06	5.266365e-06	2.689997e-08	3.787119e+01	1.767723e+03
1.570000e-06	5.283390e-06	2.692977e-08	3.799362e+01	1.769685e+03
1.580000e-06	5.298389e-06	2.695707e-08	3.810148e+01	1.771382e+03
1.590000e-06	5.311484e-06	2.698044e-08	3.819565e+01	1.772823e+03
1.600000e-06	5.322511e-06	2.699910e-08	3.827495e+01	1.774009e+03
1.610000e-06	5.331415e-06	2.701396e-08	3.833898e+01	1.774942e+03
1.620000e-06	5.338401e-06	2.702516e-08	3.838921e+01	1.775626e+03
1.630000e-06	5.343571e-06	2.703306e-08	3.842639e+01	1.776065e+03
1.640000e-06	5.346899e-06	2.703657e-08	3.845033e+01	1.776269e+03
1.650000e-06	5.348245e-06	2.703870e-08	3.846000e+01	1.776250e+03
1.660000e-06	5.347646e-06	2.703658e-08	3.845570e+01	1.776017e+03
1.670000e-06	5.345349e-06	2.702667e-08	3.843918e+01	1.775579e+03
1.680000e-06	5.341489e-06	2.701942e-08	3.841142e+01	1.774935e+03
1.690000e-06	5.335837e-06	2.700969e-08	3.837077e+01	1.774079e+03
1.700000e-06	5.328232e-06	2.699337e-08	3.831608e+01	1.772997e+03
1.710000e-06	5.318989e-06	2.697387e-08	3.824962e+01	1.771669e+03
1.720000e-06	5.308172e-06	2.695653e-08	3.817183e+01	1.770082e+03
1.730000e-06	5.295538e-06	2.695448e-08	3.808098e+01	1.768227e+03
1.740000e-06	5.280919e-06	2.685929e-08	3.797585e+01	1.766108e+03
1.750000e-06	5.264179e-06	2.675164e-08	3.785547e+01	1.763746e+03
1.760000e-06	5.244999e-06	2.676341e-08	3.771755e+01	1.761177e+03
1.770000e-06	5.223211e-06	2.675317e-08	3.756086e+01	1.758443e+03
1.780000e-06	5.199484e-06	2.682496e-08	3.739024e+01	1.755593e+03
1.790000e-06	5.174857e-06	2.676864e-08	3.721314e+01	1.752665e+03
1.800000e-06	5.149363e-06	2.651112e-08	3.702982e+01	1.749681e+03
1.810000e-06	5.122064e-06	2.660869e-08	3.683350e+01	1.746642e+03
1.820000e-06	5.092780e-06	2.657397e-08	3.662292e+01	1.743523e+03
1.830000e-06	5.061825e-06	2.638983e-08	3.640031e+01	1.740277e+03
1.840000e-06	5.028889e-06	2.660176e-08	3.616347e+01	1.736842e+03
1.850000e-06	4.994100e-06	2.650044e-08	3.591330e+01	1.733152e+03
1.860000e-06	4.957751e-06	2.626715e-08	3.565190e+01	1.729145e+03
1.870000e-06	4.919466e-06	2.636002e-08	3.537659e+01	1.724773e+03
1.880000e-06	4.879410e-06	2.621568e-08	3.508854e+01	1.720010e+03
1.890000e-06	4.837711e-06	2.615468e-08	3.478868e+01	1.714850e+03
1.900000e-06	4.794256e-06	2.611009e-08	3.447618e+01	1.709304e+03
1.910000e-06	4.749171e-06	2.591366e-08	3.415197e+01	1.703398e+03
1.920000e-06	4.702155e-06	2.602872e-08	3.381388e+01	1.697158e+03
1.930000e-06	4.653332e-06	2.588087e-08	3.346279e+01	1.690607e+03
1.940000e-06	4.602915e-06	2.565788e-08	3.310023e+01	1.683759e+03
1.950000e-06	4.550543e-06	2.563358e-08	3.272361e+01	1.676614e+03
1.960000e-06	4.496247e-06	2.547184e-08	3.233316e+01	1.669165e+03
1.970000e-06	4.440179e-06	2.540462e-08	3.192997e+01	1.661394e+03
1.980000e-06	4.382392e-06	2.522681e-08	3.151441e+01	1.653287e+03
1.990000e-06	4.323198e-06	2.511091e-08	3.108875e+01	1.644832e+03
2.000000e-06	4.262710e-06	2.508982e-08	3.065377e+01	1.636026e+03
2.010000e-06	4.200584e-06	2.483816e-08	3.020701e+01	1.626873e+03
2.020000e-06	4.136667e-06	2.468234e-08	2.974737e+01	1.617381e+03
2.030000e-06	4.071266e-06	2.453710e-08	2.927706e+01	1.607562e+03
2.040000e-06	4.004499e-06	2.443483e-08	2.879693e+01	1.597419e+03
2.050000e-06	3.936401e-06	2.429557e-08	2.830723e+01	1.586951e+03
2.060000e-06	3.866838e-06	2.404940e-08	2.780699e+01	1.576141e+03
2.070000e-06	3.795675e-06	2.393355e-08	2.729524e+01	1.564966e+03
2.080000e-06	3.723214e-06	2.373582e-08	2.677417e+01	1.553395e+03
2.090000e-06	3.649496e-06	2.354568e-08	2.624405e+01	1.541394e+03
2.100000e-06	3.574388e-06	2.336645e-08	2.570394e+01	1.528932e+03
2.110000e-06	3.497893e-06	2.317538e-08	2.515385e+01	1.515986e+03
2.120000e-06	3.419871e-06	2.300078e-08	2.459278e+01	1.502540e+03
2.130000e-06	3.340459e-06	2.274211e-08	2.402172e+01	1.488588e+03
2.140000e-06	3.259892e-06	2.252471e-08	2.344235e+01	1.474125e+03
2.150000e-06	3.178222e-06	2.229706e-08	2.285505e+01	1.459146e+03
2.160000e-06	3.095469e-06	2.207367e-08	2.225996e+01	1.443641e+03
2.170000e-06	3.011742e-06	2.183693e-08	2.165787e+01	1.427592e+03
2.180000e-06	2.927052e-06	2.157135e-08	2.104885e+01	1.410971e+03
2.190000e-06	2.841087e-06	2.131834e-08	2.043066e+01	1.393741e+03
2.200000e-06	2.753837e-06	2.104156e-08	1.980324e+01	1.375860e+03
2.210000e-06	2.665605e-06	2.076483e-08	1.916875e+01	1.357287e+03
2.220000e-06	2.576508e-06	2.046234e-08	1.852804e+01	1.337982e+03
2.230000e-06	2.486493e-06	2.016202e-08	1.788073e+01	1.317909e+03
2.240000e-06	2.395680e-06	1.985163e-08	1.722768e+01	1.297037e+03
2.250000e-06	2.304163e-06	1.952129e-08	1.656957e+01	1.275331e+03
2.260000e-06	2.211990e-06	1.917275e-08	1.590674e+01	1.252756e+03
2.270000e-06	2.119069e-06	1.880633e-08	1.523853e+01	1.229264e+03
2.280000e-06	2.025053e-06	1.843787e-08	1.456245e+01	1.204796e+03
2.290000e-06	1.929951e-06	1.804961e-08	1.387856e+01	1.179279e+03
2.300000e-06	1.834114e-06	1.764728e-08	1.318938e+01	1.152624e+03
2.310000e-06	1.737796e-06	1.722604e-08	1.249674e+01	1.124738e+03
2.320000e-06	1.641047e-06	1.678432e-08	1.180101e+01	1.095519e+03
2.330000e-06	1.543846e-06	1.631266e-08	1.110202e+01	1.064867e+03
2.340000e-06	1.446087e-06	1.581249e-08	1.039902e+01	1.032687e+03
2.350000e-06	1.347773e-06	1.529457e-08	9.692028e+00	9.988862e+02
2.360000e-06	1.249020e-06	1.475874e-08	8.981884e+00	9.633785e+02
2.370000e-06	1.149938e-06	1.419565e-08	8.269368e+00	9.260801e+02
2.380000e-06	1.050610e-06	1.359601e-08	7.555087e+00	8.869108e+02
2.390000e-06	9.510054e-07	1.296521e-08	6.838817e+00	8.457962e+02
2.400000e-06	8.511449e-07	1.230488e-08	6.120706e+00	8.026741e+02
2.410000e-06	7.510568e-07	1.161570e-08	5.400958e+00	7.575052e+02
2.420000e-06	6.506851e-07	1.089470e-08	4.679171e+00	7.102863e+02
2.430000e-06	5.500742e-07	1.014438e-08	3.955663e+00	6.610643e+02
2.440000e-06	4.493248e-07	9.366911e-09	3.231160e+00	6.099469e+02
2.450000e-06	3.483996e-07	8.560931e-09	2.505392e+00	5.571059e+02
2.460000e-06	2.473353e-07	7.726151e-09	1.778624e+00	5.027719e+02
2.470000e-06	1.461389e-07	6.872956e-09	1.050906e+00	4.472176e+02
2.480000e-06	4.482644e-08	6.011614e-09	3.223534e-01	3.907314e+02
2.490000e-06	-5.652666e-08	5.139653e-09	-4.064914e-01	3.335839e+02
2.500000e-06	-1.578727e-07	4.259503e-09	-1.135285e+00	2.759940e+02
2.510000e-06	-2.590939e-07	3.376162e-09	-1.863182e+00	2.180988e+02
2.520000e-06	-3.601761e-07	2.489753e-09	-2.590079e+00	1.599351e+02
2.530000e-06	-4.611760e-07	1.593258e-09	-3.316383e+00	1.014360e+02
2.540000e-06	-5.620524e-07	6.886541e-10	-4.041800e+00	4.244553e+01
2.550000e-06	-6.626976e-07	-2.221463e-10	-4.765554e+00	-1.724946e+01
2.560000e-06	-7.630721e-07	-1.146046e-09	-5.487362e+00	-7.787530e+01
2.570000e-06	-8.632163e-07	-2.088753e-09	-6.207513e+00	-1.396206e+02
2.580000e-06	-9.631090e-07	-3.051083e-09	-6.925856e+00	-2.025875e+02
2.590000e-06	-1.062669e-06	-4.030155e-09	-7.641806e+00	-2.667522e+02
2.600000e-06	-1.161860e-06	-5.026915e-09	-8.355101e+00	-3.319424e+02
2.610000e-06	-1.260684e-06	-6.034057e-09	-9.065760e+00	-3.978344e+02
2.620000e-06	-1.359083e-06	-7.044383e-09	-9.773360e+00	-4.639719e+02
2.630000e-06	-1.456973e-06	-8.052308e-09	-1.047730e+01	-5.298019e+02
2.640000e-06	-1.554362e-06	-9.048294e-09	-1.117764e+01	-5.947238e+02
2.650000e-06	-1.651230e-06	-1.002374e-08	-1.187424e+01	-6.581431e+02
2.660000e-06	-1.747556e-06	-1.096608e-08	-1.256693e+01	-7.195224e+02
2.670000e-06	-1.843356e-06	-1.186902e-08	-1.325584e+01	-7.784226e+02
2.680000e-06	-1.938527e-06	-1.272931e-08	-1.394023e+01	-8.345288e+02
2.690000e-06	-2.032842e-06	-1.354249e-08	-1.461846e+01	-8.876604e+02
2.700000e-06	-2.126206e-06	-1.430896e-08	-1.528986e+01	-9.377632e+02
2.710000e-06	-2.218674e-06	-1.503095e-08	-1.595480e+01	-9.848901e+02
2.720000e-06	-2.310320e-06	-1.571128e-08	-1.661384e+01	-1.029172e+03
2.730000e-06	-2.401210e-06	-1.635065e-08	-1.726744e+01	-1.070787e+03
2.740000e-06	-2.491269e-06	-1.695224e-08	-1.791508e+01	-1.109932e+03
2.750000e-06	-2.580428e-06	-1.751963e-08	-1.855623e+01	-1.146799e+03
2.760000e-06	-2.668755e-06	-1.805305e-08	-1.919140e+01	-1.181561e+03
2.770000e-06	-2.756280e-06	-1.855390e-08	-1.982081e+01	-1.214367e+03
2.780000e-06	-2.842805e-06	-1.902649e-08	-2.044302e+01	-1.245345e+03
2.790000e-06	-2.928164e-06	-1.947284e-08	-2.105685e+01	-1.274604e+03
2.800000e-06	-3.012413e-06	-1.989219e-08	-2.166270e+01	-1.302245e+03
2.810000e-06	-3.095663e-06	-2.028981e-08	-2.226136e+01	-1.328369e+03
2.820000e-06	-3.177915e-06	-2.066898e-08	-2.285285e+01	-1.353078e+03
2.830000e-06	-3.259110e-06	-2.102862e-08	-2.343673e+01	-1.376476e+03
2.840000e-06	-3.339213e-06	-2.136862e-08	-2.401276e+01	-1.398667e+03
2.850000e-06	-3.418056e-06	-2.169128e-08	-2.457974e+01	-1.419751e+03
2.860000e-06	-3.495505e-06	-2.199929e-08	-2.513668e+01	-1.439816e+03
2.870000e-06	-3.571528e-06	-2.229388e-08	-2.568338e+01	-1.458935e+03
2.880000e-06	-3.646148e-06	-2.257389e-08	-2.621998e+01	-1.477166e+03
2.890000e-06	-3.719472e-06	-2.283853e-08	-2.674726e+01	-1.494550e+03
2.900000e-06	-3.791517e-06	-2.309039e-08	-2.726534e+01	-1.511119e+03
2.910000e-06	-3.862114e-06	-2.333138e-08	-2.777302e+01	-1.526895e+03
2.920000e-06	-3.931176e-06	-2.356270e-08	-2.826966e+01	-1.541904e+03
2.930000e-06	-3.998796e-06	-2.378457e-08	-2.875592e+01	-1.556176e+03
2.940000e-06	-4.065059e-06	-2.399659e-08	-2.923243e+01	-1.569746e+03
