# Temperatura_=_68.2
# Concentracion g/m^3_=_41000.0
# C_Vs_to_Am_M_A/Vsm_=_65563218390.804596
# pendiente_HvsI_1/m_=_3716.3
# ordenada_HvsI_A/m_=_1297.0
# frecuencia_Hz_=_301606.5672526308

Tiempo_(s)	Campo_(V.s)	Magnetizacion_(V.s)	Campo_(kA/m)	Magnetizacion_(A/m)
0.000000e+00	-5.345160e-06	-2.403061e-08	-3.834105e+01	-1.571313e+03
1.000000e-08	-5.342564e-06	-2.402333e-08	-3.832243e+01	-1.571102e+03
2.000000e-08	-5.338194e-06	-2.401691e-08	-3.829108e+01	-1.570986e+03
3.000000e-08	-5.332238e-06	-2.400941e-08	-3.824836e+01	-1.570877e+03
4.000000e-08	-5.324672e-06	-2.399720e-08	-3.819409e+01	-1.570651e+03
5.000000e-08	-5.315302e-06	-2.398290e-08	-3.812688e+01	-1.570186e+03
6.000000e-08	-5.303902e-06	-2.396712e-08	-3.804510e+01	-1.569399e+03
7.000000e-08	-5.290616e-06	-2.394732e-08	-3.794980e+01	-1.568275e+03
8.000000e-08	-5.275147e-06	-2.395339e-08	-3.783884e+01	-1.566866e+03
9.000000e-08	-5.257324e-06	-2.395490e-08	-3.771100e+01	-1.565284e+03
1.000000e-07	-5.237536e-06	-2.391646e-08	-3.756906e+01	-1.563658e+03
1.100000e-07	-5.215889e-06	-2.388732e-08	-3.741378e+01	-1.562105e+03
1.200000e-07	-5.192595e-06	-2.383322e-08	-3.724669e+01	-1.560686e+03
1.300000e-07	-5.167905e-06	-2.376789e-08	-3.706959e+01	-1.559398e+03
1.400000e-07	-5.141604e-06	-2.383789e-08	-3.688094e+01	-1.558168e+03
1.500000e-07	-5.113565e-06	-2.377971e-08	-3.667981e+01	-1.556883e+03
1.600000e-07	-5.084088e-06	-2.369711e-08	-3.646837e+01	-1.555422e+03
1.700000e-07	-5.053120e-06	-2.376506e-08	-3.624623e+01	-1.553692e+03
1.800000e-07	-5.020048e-06	-2.365628e-08	-3.600901e+01	-1.551658e+03
1.900000e-07	-4.985021e-06	-2.360597e-08	-3.575776e+01	-1.549348e+03
2.000000e-07	-4.948489e-06	-2.367034e-08	-3.549571e+01	-1.546840e+03
2.100000e-07	-4.910233e-06	-2.355862e-08	-3.522130e+01	-1.544237e+03
2.200000e-07	-4.870208e-06	-2.350037e-08	-3.493420e+01	-1.541629e+03
2.300000e-07	-4.828287e-06	-2.349630e-08	-3.463350e+01	-1.539060e+03
2.400000e-07	-4.784433e-06	-2.340924e-08	-3.431893e+01	-1.536513e+03
2.500000e-07	-4.738869e-06	-2.339636e-08	-3.399210e+01	-1.533915e+03
2.600000e-07	-4.691534e-06	-2.334142e-08	-3.365256e+01	-1.531155e+03
2.700000e-07	-4.642178e-06	-2.326473e-08	-3.329853e+01	-1.528120e+03
2.800000e-07	-4.590687e-06	-2.322050e-08	-3.292919e+01	-1.524732e+03
2.900000e-07	-4.537333e-06	-2.317266e-08	-3.254647e+01	-1.520972e+03
3.000000e-07	-4.482426e-06	-2.312340e-08	-3.215262e+01	-1.516885e+03
3.100000e-07	-4.425818e-06	-2.306320e-08	-3.174657e+01	-1.512572e+03
3.200000e-07	-4.367300e-06	-2.300388e-08	-3.132682e+01	-1.508154e+03
3.300000e-07	-4.307209e-06	-2.291910e-08	-3.089579e+01	-1.503734e+03
3.400000e-07	-4.245671e-06	-2.284415e-08	-3.045437e+01	-1.499367e+03
3.500000e-07	-4.182732e-06	-2.278956e-08	-3.000291e+01	-1.495041e+03
3.600000e-07	-4.118494e-06	-2.271534e-08	-2.954212e+01	-1.490674e+03
3.700000e-07	-4.052598e-06	-2.264995e-08	-2.906945e+01	-1.486146e+03
3.800000e-07	-3.985007e-06	-2.257235e-08	-2.858462e+01	-1.481330e+03
3.900000e-07	-3.916036e-06	-2.247381e-08	-2.808989e+01	-1.476133e+03
4.000000e-07	-3.845859e-06	-2.239580e-08	-2.758650e+01	-1.470525e+03
4.100000e-07	-3.774544e-06	-2.230901e-08	-2.707495e+01	-1.464547e+03
4.200000e-07	-3.701952e-06	-2.222356e-08	-2.655425e+01	-1.458303e+03
4.300000e-07	-3.627711e-06	-2.213083e-08	-2.602172e+01	-1.451919e+03
4.400000e-07	-3.551794e-06	-2.203471e-08	-2.547716e+01	-1.445509e+03
4.500000e-07	-3.474553e-06	-2.193102e-08	-2.492311e+01	-1.439135e+03
4.600000e-07	-3.395868e-06	-2.182810e-08	-2.435870e+01	-1.432781e+03
4.700000e-07	-3.315724e-06	-2.173344e-08	-2.378382e+01	-1.426361e+03
4.800000e-07	-3.234433e-06	-2.161947e-08	-2.320072e+01	-1.419737e+03
4.900000e-07	-3.152068e-06	-2.150651e-08	-2.260991e+01	-1.412763e+03
5.000000e-07	-3.068709e-06	-2.139254e-08	-2.201197e+01	-1.405324e+03
5.100000e-07	-2.984525e-06	-2.127353e-08	-2.140812e+01	-1.397378e+03
5.200000e-07	-2.899484e-06	-2.114504e-08	-2.079811e+01	-1.388960e+03
5.300000e-07	-2.813435e-06	-2.101484e-08	-2.018089e+01	-1.380173e+03
5.400000e-07	-2.726461e-06	-2.088676e-08	-1.955702e+01	-1.371155e+03
5.500000e-07	-2.638687e-06	-2.075099e-08	-1.892741e+01	-1.362028e+03
5.600000e-07	-2.549809e-06	-2.060572e-08	-1.828988e+01	-1.352857e+03
5.700000e-07	-2.459597e-06	-2.045671e-08	-1.764279e+01	-1.343620e+03
5.800000e-07	-2.368418e-06	-2.030956e-08	-1.698876e+01	-1.334215e+03
5.900000e-07	-2.276490e-06	-2.015294e-08	-1.632935e+01	-1.324476e+03
6.000000e-07	-2.183766e-06	-1.998805e-08	-1.566424e+01	-1.314227e+03
6.100000e-07	-2.090254e-06	-1.981722e-08	-1.499348e+01	-1.303332e+03
6.200000e-07	-1.995993e-06	-1.964210e-08	-1.431734e+01	-1.291732e+03
6.300000e-07	-1.901083e-06	-1.946058e-08	-1.363654e+01	-1.279466e+03
6.400000e-07	-1.805619e-06	-1.927136e-08	-1.295178e+01	-1.266654e+03
6.500000e-07	-1.709518e-06	-1.907471e-08	-1.226244e+01	-1.253454e+03
6.600000e-07	-1.612641e-06	-1.887040e-08	-1.156754e+01	-1.240009e+03
6.700000e-07	-1.514950e-06	-1.866123e-08	-1.086680e+01	-1.226387e+03
6.800000e-07	-1.416581e-06	-1.844402e-08	-1.016119e+01	-1.212551e+03
6.900000e-07	-1.317733e-06	-1.821857e-08	-9.452152e+00	-1.198353e+03
7.000000e-07	-1.218477e-06	-1.798316e-08	-8.740187e+00	-1.183567e+03
7.100000e-07	-1.118883e-06	-1.773692e-08	-8.025795e+00	-1.167949e+03
7.200000e-07	-1.019011e-06	-1.748003e-08	-7.309405e+00	-1.151298e+03
7.300000e-07	-9.188533e-07	-1.721336e-08	-6.590972e+00	-1.133518e+03
7.400000e-07	-8.183723e-07	-1.693681e-08	-5.870217e+00	-1.114631e+03
7.500000e-07	-7.176468e-07	-1.664802e-08	-5.147709e+00	-1.094762e+03
7.600000e-07	-6.167245e-07	-1.634100e-08	-4.423790e+00	-1.074084e+03
7.700000e-07	-5.155631e-07	-1.601487e-08	-3.698155e+00	-1.052733e+03
7.800000e-07	-4.142115e-07	-1.567349e-08	-2.971156e+00	-1.030731e+03
7.900000e-07	-3.127185e-07	-1.531542e-08	-2.243143e+00	-1.007938e+03
8.000000e-07	-2.111195e-07	-1.493742e-08	-1.514368e+00	-9.840425e+02
8.100000e-07	-1.094077e-07	-1.453499e-08	-7.847862e-01	-9.586076e+02
8.200000e-07	-7.608363e-09	-1.410780e-08	-5.457510e-02	-9.311617e+02
8.300000e-07	9.416081e-08	-1.365318e-08	6.754193e-01	-9.012982e+02
8.400000e-07	1.959101e-07	-1.316734e-08	1.405271e+00	-8.687606e+02
8.500000e-07	2.976336e-07	-1.264496e-08	2.134938e+00	-8.334741e+02
8.600000e-07	3.992631e-07	-1.208273e-08	2.863931e+00	-7.955062e+02
8.700000e-07	5.007696e-07	-1.147880e-08	3.592041e+00	-7.549533e+02
8.800000e-07	6.020722e-07	-1.082413e-08	4.318688e+00	-7.117755e+02
8.900000e-07	7.031931e-07	-1.010894e-08	5.044033e+00	-6.656221e+02
9.000000e-07	8.041145e-07	-9.322560e-09	5.767946e+00	-6.156995e+02
9.100000e-07	9.047843e-07	-8.455620e-09	6.490055e+00	-5.607310e+02
9.200000e-07	1.005153e-06	-7.493406e-09	7.210004e+00	-4.990421e+02
9.300000e-07	1.105170e-06	-6.415624e-09	7.927426e+00	-4.287780e+02
9.400000e-07	1.204841e-06	-5.199347e-09	8.642372e+00	-3.482256e+02
9.500000e-07	1.304131e-06	-3.821361e-09	9.354588e+00	-2.561853e+02
9.600000e-07	1.403022e-06	-2.264319e-09	1.006393e+01	-1.523190e+02
9.700000e-07	1.501359e-06	-5.248511e-10	1.076931e+01	-3.739650e+01
9.800000e-07	1.598932e-06	1.375215e-09	1.146921e+01	8.661982e+01
9.900000e-07	1.695719e-06	3.388597e-09	1.216346e+01	2.166848e+02
1.000000e-06	1.791756e-06	5.442137e-09	1.285234e+01	3.489659e+02
1.010000e-06	1.887103e-06	7.453063e-09	1.353626e+01	4.792792e+02
1.020000e-06	1.981851e-06	9.347286e-09	1.421590e+01	6.035891e+02
1.030000e-06	2.075875e-06	1.107150e-08	1.489033e+01	7.184833e+02
1.040000e-06	2.169141e-06	1.259876e-08	1.555933e+01	8.215380e+02
1.050000e-06	2.261765e-06	1.392614e-08	1.622373e+01	9.115135e+02
1.060000e-06	2.353750e-06	1.506654e-08	1.688355e+01	9.883550e+02
1.070000e-06	2.444996e-06	1.604097e-08	1.753805e+01	1.053013e+03
1.080000e-06	2.535307e-06	1.687131e-08	1.818586e+01	1.107133e+03
1.090000e-06	2.624522e-06	1.757893e-08	1.882580e+01	1.152686e+03
1.100000e-06	2.712591e-06	1.818709e-08	1.945753e+01	1.191617e+03
1.110000e-06	2.799669e-06	1.871254e-08	2.008214e+01	1.225573e+03
1.120000e-06	2.885842e-06	1.916746e-08	2.070026e+01	1.255754e+03
1.130000e-06	2.971155e-06	1.956807e-08	2.131222e+01	1.282895e+03
1.140000e-06	3.055601e-06	1.992334e-08	2.191795e+01	1.307349e+03
1.150000e-06	3.139088e-06	2.023855e-08	2.251681e+01	1.329240e+03
1.160000e-06	3.221532e-06	2.052085e-08	2.310818e+01	1.348629e+03
1.170000e-06	3.302735e-06	2.077580e-08	2.369065e+01	1.365641e+03
1.180000e-06	3.382693e-06	2.100672e-08	2.426420e+01	1.380538e+03
1.190000e-06	3.461473e-06	2.121618e-08	2.482929e+01	1.393710e+03
1.200000e-06	3.539043e-06	2.140883e-08	2.538570e+01	1.405619e+03
1.210000e-06	3.615346e-06	2.158773e-08	2.593302e+01	1.416705e+03
1.220000e-06	3.690222e-06	2.175583e-08	2.647011e+01	1.427300e+03
1.230000e-06	3.763530e-06	2.191138e-08	2.699595e+01	1.437572e+03
1.240000e-06	3.835376e-06	2.205410e-08	2.751131e+01	1.447519e+03
1.250000e-06	3.905823e-06	2.218699e-08	2.801663e+01	1.457008e+03
1.260000e-06	3.974856e-06	2.231041e-08	2.851180e+01	1.465849e+03
1.270000e-06	4.042571e-06	2.242487e-08	2.899753e+01	1.473877e+03
1.280000e-06	4.108805e-06	2.253210e-08	2.947262e+01	1.481024e+03
1.290000e-06	4.173393e-06	2.263343e-08	2.993592e+01	1.487343e+03
1.300000e-06	4.236497e-06	2.272821e-08	3.038856e+01	1.493004e+03
1.310000e-06	4.298216e-06	2.281628e-08	3.083128e+01	1.498249e+03
1.320000e-06	4.358563e-06	2.290047e-08	3.126415e+01	1.503320e+03
1.330000e-06	4.417456e-06	2.298209e-08	3.168659e+01	1.508396e+03
1.340000e-06	4.474608e-06	2.306047e-08	3.209654e+01	1.513555e+03
1.350000e-06	4.529979e-06	2.313474e-08	3.249372e+01	1.518752e+03
1.360000e-06	4.583743e-06	2.320381e-08	3.287937e+01	1.523854e+03
1.370000e-06	4.635758e-06	2.326825e-08	3.325248e+01	1.528685e+03
1.380000e-06	4.685725e-06	2.332878e-08	3.361090e+01	1.533087e+03
1.390000e-06	4.733781e-06	2.338525e-08	3.395560e+01	1.536971e+03
1.400000e-06	4.780168e-06	2.343889e-08	3.428834e+01	1.540345e+03
1.410000e-06	4.824978e-06	2.348982e-08	3.460976e+01	1.543307e+03
1.420000e-06	4.868249e-06	2.353696e-08	3.492015e+01	1.546015e+03
1.430000e-06	4.909663e-06	2.358133e-08	3.521721e+01	1.548636e+03
1.440000e-06	4.949194e-06	2.362513e-08	3.550077e+01	1.551297e+03
1.450000e-06	4.987144e-06	2.366779e-08	3.577299e+01	1.554046e+03
1.460000e-06	5.023549e-06	2.370554e-08	3.603412e+01	1.556845e+03
1.470000e-06	5.058203e-06	2.373779e-08	3.628270e+01	1.559583e+03
1.480000e-06	5.090919e-06	2.376697e-08	3.651737e+01	1.562119e+03
1.490000e-06	5.121813e-06	2.379289e-08	3.673898e+01	1.564326e+03
1.500000e-06	5.151036e-06	2.381697e-08	3.694859e+01	1.566132e+03
1.510000e-06	5.178628e-06	2.384091e-08	3.714651e+01	1.567544e+03
1.520000e-06	5.204259e-06	2.386413e-08	3.733036e+01	1.568646e+03
1.530000e-06	5.227780e-06	2.388567e-08	3.749908e+01	1.569571e+03
1.540000e-06	5.249470e-06	2.390468e-08	3.765466e+01	1.570458e+03
1.550000e-06	5.269482e-06	2.392238e-08	3.779821e+01	1.571414e+03
1.560000e-06	5.287703e-06	2.393843e-08	3.792891e+01	1.572477e+03
1.570000e-06	5.303947e-06	2.395167e-08	3.804542e+01	1.573611e+03
1.580000e-06	5.318237e-06	2.396258e-08	3.814793e+01	1.574717e+03
1.590000e-06	5.330528e-06	2.397154e-08	3.823610e+01	1.575668e+03
1.600000e-06	5.340577e-06	2.397936e-08	3.830817e+01	1.576348e+03
1.610000e-06	5.348526e-06	2.398553e-08	3.836519e+01	1.576693e+03
1.620000e-06	5.354599e-06	2.398963e-08	3.840875e+01	1.576707e+03
1.630000e-06	5.358910e-06	2.399363e-08	3.843968e+01	1.576464e+03
1.640000e-06	5.361353e-06	2.399693e-08	3.845720e+01	1.576083e+03
1.650000e-06	5.361743e-06	2.399796e-08	3.846000e+01	1.575692e+03
1.660000e-06	5.360261e-06	2.399488e-08	3.844937e+01	1.575386e+03
1.670000e-06	5.357136e-06	2.399146e-08	3.842696e+01	1.575199e+03
1.680000e-06	5.352403e-06	2.398537e-08	3.839300e+01	1.575093e+03
1.690000e-06	5.345789e-06	2.397745e-08	3.834556e+01	1.574969e+03
1.700000e-06	5.337384e-06	2.396979e-08	3.828527e+01	1.574700e+03
1.710000e-06	5.327426e-06	2.396230e-08	3.821384e+01	1.574171e+03
1.720000e-06	5.315806e-06	2.395826e-08	3.813049e+01	1.573310e+03
1.730000e-06	5.302282e-06	2.392791e-08	3.803348e+01	1.572117e+03
1.740000e-06	5.286669e-06	2.387548e-08	3.792149e+01	1.570660e+03
1.750000e-06	5.268744e-06	2.387275e-08	3.779291e+01	1.569056e+03
1.760000e-06	5.248198e-06	2.386291e-08	3.764554e+01	1.567437e+03
1.770000e-06	5.225287e-06	2.388403e-08	3.748120e+01	1.565908e+03
1.780000e-06	5.201034e-06	2.388822e-08	3.730723e+01	1.564520e+03
1.790000e-06	5.176096e-06	2.376202e-08	3.712835e+01	1.563251e+03
1.800000e-06	5.149771e-06	2.379760e-08	3.693951e+01	1.562019e+03
1.810000e-06	5.121443e-06	2.379023e-08	3.673632e+01	1.560705e+03
1.820000e-06	5.091370e-06	2.368190e-08	3.652060e+01	1.559192e+03
1.830000e-06	5.059435e-06	2.376230e-08	3.629153e+01	1.557397e+03
1.840000e-06	5.025527e-06	2.370029e-08	3.604831e+01	1.555299e+03
1.850000e-06	4.990036e-06	2.359206e-08	3.579373e+01	1.552937e+03
1.860000e-06	4.952715e-06	2.368406e-08	3.552603e+01	1.550399e+03
1.870000e-06	4.913448e-06	2.360653e-08	3.524436e+01	1.547788e+03
1.880000e-06	4.872617e-06	2.354501e-08	3.495148e+01	1.545185e+03
1.890000e-06	4.830035e-06	2.355484e-08	3.464604e+01	1.542624e+03
1.900000e-06	4.785817e-06	2.343485e-08	3.432886e+01	1.540073e+03
1.910000e-06	4.739797e-06	2.346876e-08	3.399875e+01	1.537450e+03
1.920000e-06	4.691815e-06	2.343037e-08	3.365458e+01	1.534639e+03
1.930000e-06	4.642262e-06	2.333257e-08	3.329913e+01	1.531532e+03
1.940000e-06	4.590910e-06	2.332239e-08	3.293078e+01	1.528063e+03
1.950000e-06	4.537483e-06	2.322327e-08	3.254755e+01	1.524226e+03
1.960000e-06	4.482143e-06	2.318208e-08	3.215059e+01	1.520081e+03
1.970000e-06	4.425109e-06	2.312483e-08	3.174149e+01	1.515734e+03
1.980000e-06	4.366542e-06	2.305750e-08	3.132138e+01	1.511307e+03
1.990000e-06	4.306557e-06	2.302326e-08	3.089111e+01	1.506895e+03
2.000000e-06	4.245105e-06	2.291108e-08	3.045031e+01	1.502540e+03
2.010000e-06	4.181923e-06	2.287051e-08	2.999710e+01	1.498212e+03
2.020000e-06	4.117091e-06	2.278800e-08	2.953206e+01	1.493822e+03
2.030000e-06	4.050893e-06	2.270302e-08	2.905722e+01	1.489241e+03
2.040000e-06	3.983405e-06	2.265278e-08	2.857313e+01	1.484349e+03
2.050000e-06	3.914522e-06	2.254688e-08	2.807902e+01	1.479063e+03
2.060000e-06	3.843951e-06	2.248720e-08	2.757281e+01	1.473369e+03
2.070000e-06	3.771956e-06	2.238606e-08	2.705639e+01	1.467323e+03
2.080000e-06	3.698782e-06	2.229483e-08	2.653151e+01	1.461037e+03
2.090000e-06	3.624216e-06	2.221528e-08	2.599664e+01	1.454638e+03
2.100000e-06	3.548289e-06	2.211121e-08	2.545202e+01	1.448233e+03
2.110000e-06	3.470878e-06	2.201876e-08	2.489675e+01	1.441866e+03
2.120000e-06	3.391941e-06	2.190625e-08	2.433053e+01	1.435507e+03
2.130000e-06	3.311750e-06	2.181853e-08	2.375531e+01	1.429055e+03
2.140000e-06	3.230472e-06	2.170576e-08	2.317231e+01	1.422367e+03
2.150000e-06	3.148109e-06	2.158529e-08	2.258151e+01	1.415300e+03
2.160000e-06	3.064712e-06	2.147832e-08	2.198330e+01	1.407753e+03
2.170000e-06	2.980414e-06	2.136757e-08	2.137863e+01	1.399699e+03
2.180000e-06	2.894849e-06	2.124966e-08	2.076487e+01	1.391190e+03
2.190000e-06	2.807887e-06	2.110885e-08	2.014109e+01	1.382342e+03
2.200000e-06	2.719927e-06	2.097849e-08	1.951015e+01	1.373291e+03
2.210000e-06	2.631087e-06	2.084726e-08	1.887290e+01	1.364150e+03
2.220000e-06	2.541315e-06	2.070716e-08	1.822895e+01	1.354969e+03
2.230000e-06	2.450643e-06	2.055547e-08	1.757856e+01	1.345707e+03
2.240000e-06	2.359229e-06	2.040572e-08	1.692285e+01	1.336244e+03
2.250000e-06	2.267178e-06	2.025475e-08	1.626256e+01	1.326409e+03
2.260000e-06	2.174408e-06	2.009060e-08	1.559712e+01	1.316030e+03
2.270000e-06	2.080635e-06	1.992302e-08	1.492448e+01	1.304985e+03
2.280000e-06	1.985818e-06	1.975185e-08	1.424436e+01	1.293235e+03
2.290000e-06	1.890268e-06	1.957611e-08	1.355897e+01	1.280839e+03
2.300000e-06	1.794113e-06	1.938912e-08	1.286925e+01	1.267929e+03
2.310000e-06	1.697430e-06	1.919169e-08	1.217573e+01	1.254666e+03
2.320000e-06	1.600263e-06	1.898828e-08	1.147875e+01	1.241180e+03
2.330000e-06	1.502554e-06	1.877941e-08	1.077788e+01	1.227519e+03
2.340000e-06	1.404312e-06	1.855986e-08	1.007319e+01	1.213620e+03
2.350000e-06	1.305620e-06	1.833058e-08	9.365267e+00	1.199316e+03
2.360000e-06	1.206521e-06	1.809560e-08	8.654427e+00	1.184371e+03
2.370000e-06	1.107119e-06	1.785265e-08	7.941410e+00	1.168544e+03
2.380000e-06	1.007539e-06	1.759684e-08	7.227116e+00	1.151655e+03
2.390000e-06	9.077237e-07	1.732469e-08	6.511139e+00	1.133631e+03
2.400000e-06	8.076173e-07	1.704089e-08	5.793072e+00	1.114519e+03
2.410000e-06	7.072307e-07	1.674736e-08	5.072995e+00	1.094462e+03
2.420000e-06	6.065703e-07	1.643983e-08	4.350954e+00	1.073630e+03
2.430000e-06	5.057026e-07	1.611665e-08	3.627425e+00	1.052141e+03
2.440000e-06	4.046285e-07	1.577573e-08	2.902417e+00	1.029988e+03
2.450000e-06	3.033243e-07	1.541345e-08	2.175758e+00	1.006989e+03
2.460000e-06	2.018763e-07	1.503056e-08	1.448067e+00	9.828022e+02
2.470000e-06	1.002186e-07	1.462687e-08	7.188721e-01	9.569747e+02
2.480000e-06	-1.634911e-09	1.419924e-08	-1.172728e-02	9.290400e+02
2.490000e-06	-1.034599e-07	1.374128e-08	-7.421222e-01	8.986182e+02
2.500000e-06	-2.051435e-07	1.324611e-08	-1.471503e+00	8.654910e+02
2.510000e-06	-3.067234e-07	1.271133e-08	-2.200139e+00	8.296203e+02
2.520000e-06	-4.081481e-07	1.213658e-08	-2.927663e+00	7.910915e+02
2.530000e-06	-5.093886e-07	1.152068e-08	-3.653865e+00	7.499867e+02
2.540000e-06	-6.104608e-07	1.085569e-08	-4.378860e+00	7.062135e+02
2.550000e-06	-7.112081e-07	1.012974e-08	-5.101524e+00	6.593351e+02
2.560000e-06	-8.116304e-07	9.331109e-09	-5.821858e+00	6.084537e+02
2.570000e-06	-9.118093e-07	8.448968e-09	-6.540445e+00	5.521955e+02
2.580000e-06	-1.011763e-06	7.469431e-09	-7.257421e+00	4.888250e+02
2.590000e-06	-1.111414e-06	6.370726e-09	-7.972220e+00	4.164880e+02
2.600000e-06	-1.210682e-06	5.129900e-09	-8.684274e+00	3.335495e+02
2.610000e-06	-1.309556e-06	3.726246e-09	-9.393497e+00	2.389678e+02
2.620000e-06	-1.407912e-06	2.144049e-09	-1.009901e+01	1.326261e+02
2.630000e-06	-1.505761e-06	3.823758e-10	-1.080088e+01	1.554901e+01
2.640000e-06	-1.603152e-06	-1.537578e-09	-1.149947e+01	-1.100531e+02
2.650000e-06	-1.699985e-06	-3.566560e-09	-1.219406e+01	-2.409356e+02
2.660000e-06	-1.796264e-06	-5.629654e-09	-1.288467e+01	-3.731508e+02
2.670000e-06	-1.892064e-06	-7.640677e-09	-1.357185e+01	-5.025036e+02
2.680000e-06	-1.987245e-06	-9.522597e-09	-1.425459e+01	-6.250549e+02
2.690000e-06	-2.081554e-06	-1.122817e-08	-1.493107e+01	-7.375782e+02
2.700000e-06	-2.174886e-06	-1.273821e-08	-1.560055e+01	-8.378937e+02
2.710000e-06	-2.267287e-06	-1.405090e-08	-1.626334e+01	-9.250221e+02
2.720000e-06	-2.358915e-06	-1.517974e-08	-1.692059e+01	-9.991446e+02
2.730000e-06	-2.449766e-06	-1.614463e-08	-1.757227e+01	-1.061390e+03
2.740000e-06	-2.539694e-06	-1.696781e-08	-1.821733e+01	-1.113505e+03
2.750000e-06	-2.628710e-06	-1.767119e-08	-1.885584e+01	-1.157483e+03
2.760000e-06	-2.716908e-06	-1.827543e-08	-1.948849e+01	-1.195224e+03
2.770000e-06	-2.804306e-06	-1.879633e-08	-2.011540e+01	-1.228287e+03
2.780000e-06	-2.890683e-06	-1.924673e-08	-2.073499e+01	-1.257771e+03
2.790000e-06	-2.975852e-06	-1.964144e-08	-2.134591e+01	-1.284317e+03
2.800000e-06	-3.059913e-06	-1.999113e-08	-2.194888e+01	-1.308217e+03
2.810000e-06	-3.142910e-06	-2.030483e-08	-2.254422e+01	-1.329567e+03
2.820000e-06	-3.224874e-06	-2.058605e-08	-2.313216e+01	-1.348432e+03
2.830000e-06	-3.305833e-06	-2.083793e-08	-2.371287e+01	-1.364965e+03
2.840000e-06	-3.385712e-06	-2.106681e-08	-2.428585e+01	-1.379457e+03
2.850000e-06	-3.464266e-06	-2.127725e-08	-2.484932e+01	-1.392320e+03
2.860000e-06	-3.541252e-06	-2.147027e-08	-2.540155e+01	-1.404018e+03
2.870000e-06	-3.616809e-06	-2.164671e-08	-2.594352e+01	-1.414977e+03
2.880000e-06	-3.691063e-06	-2.180918e-08	-2.647615e+01	-1.425496e+03
2.890000e-06	-3.763977e-06	-2.196221e-08	-2.699916e+01	-1.435705e+03
2.900000e-06	-3.835634e-06	-2.210628e-08	-2.751316e+01	-1.445569e+03
2.910000e-06	-3.905848e-06	-2.224059e-08	-2.801680e+01	-1.454936e+03
2.920000e-06	-3.974419e-06	-2.236712e-08	-2.850867e+01	-1.463614e+03
2.930000e-06	-4.041529e-06	-2.248432e-08	-2.899005e+01	-1.471457e+03
2.940000e-06	-4.107286e-06	-2.259128e-08	-2.946173e+01	-1.478417e+03
