# Temperatura_=_46.31
# Concentracion g/m^3_=_41000.0
# C_Vs_to_Am_M_A/Vsm_=_65563218390.804596
# pendiente_HvsI_1/m_=_3716.3
# ordenada_HvsI_A/m_=_1297.0
# frecuencia_Hz_=_301609.8905394059

Tiempo_(s)	Campo_(V.s)	Magnetizacion_(V.s)	Campo_(kA/m)	Magnetizacion_(A/m)
0.000000e+00	-5.343428e-06	-2.379295e-08	-3.834140e+01	-1.556532e+03
1.000000e-08	-5.341253e-06	-2.378814e-08	-3.832579e+01	-1.556115e+03
2.000000e-08	-5.337212e-06	-2.378183e-08	-3.829680e+01	-1.555770e+03
3.000000e-08	-5.331557e-06	-2.377606e-08	-3.825622e+01	-1.555504e+03
4.000000e-08	-5.324288e-06	-2.376783e-08	-3.820407e+01	-1.555262e+03
5.000000e-08	-5.315317e-06	-2.375565e-08	-3.813969e+01	-1.554946e+03
6.000000e-08	-5.304328e-06	-2.374181e-08	-3.806084e+01	-1.554449e+03
7.000000e-08	-5.291387e-06	-2.372168e-08	-3.796799e+01	-1.553686e+03
8.000000e-08	-5.276435e-06	-2.370878e-08	-3.786069e+01	-1.552623e+03
9.000000e-08	-5.259127e-06	-2.373117e-08	-3.773650e+01	-1.551288e+03
1.000000e-07	-5.239696e-06	-2.371724e-08	-3.759708e+01	-1.549760e+03
1.100000e-07	-5.218443e-06	-2.366897e-08	-3.744458e+01	-1.548152e+03
1.200000e-07	-5.195498e-06	-2.363482e-08	-3.727994e+01	-1.546570e+03
1.300000e-07	-5.171158e-06	-2.355137e-08	-3.710529e+01	-1.545084e+03
1.400000e-07	-5.145259e-06	-2.355847e-08	-3.691946e+01	-1.543706e+03
1.500000e-07	-5.117572e-06	-2.361984e-08	-3.672079e+01	-1.542387e+03
1.600000e-07	-5.088423e-06	-2.350487e-08	-3.651163e+01	-1.541032e+03
1.700000e-07	-5.057897e-06	-2.350193e-08	-3.629259e+01	-1.539528e+03
1.800000e-07	-5.025365e-06	-2.352148e-08	-3.605916e+01	-1.537782e+03
1.900000e-07	-4.990715e-06	-2.337239e-08	-3.581053e+01	-1.535742e+03
2.000000e-07	-4.954552e-06	-2.338727e-08	-3.555105e+01	-1.533418e+03
2.100000e-07	-4.916723e-06	-2.339119e-08	-3.527961e+01	-1.530874e+03
2.200000e-07	-4.877122e-06	-2.328446e-08	-3.499545e+01	-1.528203e+03
2.300000e-07	-4.835652e-06	-2.328764e-08	-3.469789e+01	-1.525499e+03
2.400000e-07	-4.792198e-06	-2.325631e-08	-3.438608e+01	-1.522825e+03
2.500000e-07	-4.747013e-06	-2.318470e-08	-3.406187e+01	-1.520187e+03
2.600000e-07	-4.700102e-06	-2.315095e-08	-3.372526e+01	-1.517536e+03
2.700000e-07	-4.651232e-06	-2.308175e-08	-3.337460e+01	-1.514777e+03
2.800000e-07	-4.600183e-06	-2.303380e-08	-3.300829e+01	-1.511798e+03
2.900000e-07	-4.547153e-06	-2.298893e-08	-3.262779e+01	-1.508508e+03
3.000000e-07	-4.492468e-06	-2.294102e-08	-3.223540e+01	-1.504862e+03
3.100000e-07	-4.436222e-06	-2.289243e-08	-3.183181e+01	-1.500876e+03
3.200000e-07	-4.378155e-06	-2.282183e-08	-3.141515e+01	-1.496625e+03
3.300000e-07	-4.318398e-06	-2.275434e-08	-3.098636e+01	-1.492218e+03
3.400000e-07	-4.257189e-06	-2.267928e-08	-3.054717e+01	-1.487763e+03
3.500000e-07	-4.194535e-06	-2.262256e-08	-3.009760e+01	-1.483338e+03
3.600000e-07	-4.130566e-06	-2.255540e-08	-2.963859e+01	-1.478960e+03
3.700000e-07	-4.065039e-06	-2.247563e-08	-2.916841e+01	-1.474585e+03
3.800000e-07	-3.997850e-06	-2.240824e-08	-2.868630e+01	-1.470114e+03
3.900000e-07	-3.929210e-06	-2.232102e-08	-2.819378e+01	-1.465428e+03
4.000000e-07	-3.859273e-06	-2.224220e-08	-2.769194e+01	-1.460422e+03
4.100000e-07	-3.788156e-06	-2.216879e-08	-2.718165e+01	-1.455037e+03
4.200000e-07	-3.715879e-06	-2.208762e-08	-2.666303e+01	-1.449278e+03
4.300000e-07	-3.642083e-06	-2.200298e-08	-2.613352e+01	-1.443211e+03
4.400000e-07	-3.566571e-06	-2.191204e-08	-2.559169e+01	-1.436944e+03
4.500000e-07	-3.489646e-06	-2.181654e-08	-2.503971e+01	-1.430586e+03
4.600000e-07	-3.411384e-06	-2.171321e-08	-2.447815e+01	-1.424216e+03
4.700000e-07	-3.331659e-06	-2.161289e-08	-2.390609e+01	-1.417854e+03
4.800000e-07	-3.250646e-06	-2.150998e-08	-2.332479e+01	-1.411449e+03
4.900000e-07	-3.168493e-06	-2.140048e-08	-2.273530e+01	-1.404897e+03
5.000000e-07	-3.085260e-06	-2.129504e-08	-2.213807e+01	-1.398063e+03
5.100000e-07	-3.001186e-06	-2.118429e-08	-2.153480e+01	-1.390830e+03
5.200000e-07	-2.916287e-06	-2.106355e-08	-2.092561e+01	-1.383127e+03
5.300000e-07	-2.830417e-06	-2.093970e-08	-2.030946e+01	-1.374950e+03
5.400000e-07	-2.743604e-06	-2.081478e-08	-1.968654e+01	-1.366367e+03
5.500000e-07	-2.655987e-06	-2.068506e-08	-1.905785e+01	-1.357488e+03
5.600000e-07	-2.567340e-06	-2.054438e-08	-1.842177e+01	-1.348430e+03
5.700000e-07	-2.477412e-06	-2.040041e-08	-1.777650e+01	-1.339275e+03
5.800000e-07	-2.386422e-06	-2.025442e-08	-1.712360e+01	-1.330039e+03
5.900000e-07	-2.294626e-06	-2.010540e-08	-1.646493e+01	-1.320659e+03
6.000000e-07	-2.202074e-06	-1.995038e-08	-1.580083e+01	-1.311008e+03
6.100000e-07	-2.108723e-06	-1.978922e-08	-1.513099e+01	-1.300929e+03
6.200000e-07	-2.014548e-06	-1.962373e-08	-1.445525e+01	-1.290280e+03
6.300000e-07	-1.919657e-06	-1.945088e-08	-1.377437e+01	-1.278975e+03
6.400000e-07	-1.824248e-06	-1.927061e-08	-1.308977e+01	-1.267011e+03
6.500000e-07	-1.728303e-06	-1.908333e-08	-1.240132e+01	-1.254463e+03
6.600000e-07	-1.631688e-06	-1.889010e-08	-1.170807e+01	-1.241459e+03
6.700000e-07	-1.534254e-06	-1.869008e-08	-1.100893e+01	-1.228133e+03
6.800000e-07	-1.436065e-06	-1.848308e-08	-1.030439e+01	-1.214573e+03
6.900000e-07	-1.337324e-06	-1.826761e-08	-9.595879e+00	-1.200781e+03
7.000000e-07	-1.238102e-06	-1.804510e-08	-8.883913e+00	-1.186659e+03
7.100000e-07	-1.138560e-06	-1.781348e-08	-8.169659e+00	-1.172025e+03
7.200000e-07	-1.038817e-06	-1.757074e-08	-7.453957e+00	-1.156654e+03
7.300000e-07	-9.388043e-07	-1.731951e-08	-6.736326e+00	-1.140342e+03
7.400000e-07	-8.384367e-07	-1.705905e-08	-6.016145e+00	-1.122955e+03
7.500000e-07	-7.377740e-07	-1.678755e-08	-5.293846e+00	-1.104466e+03
7.600000e-07	-6.368546e-07	-1.649885e-08	-4.569707e+00	-1.084954e+03
7.700000e-07	-5.357318e-07	-1.619399e-08	-3.844107e+00	-1.064561e+03
7.800000e-07	-4.344908e-07	-1.587530e-08	-3.117659e+00	-1.043431e+03
7.900000e-07	-3.331304e-07	-1.554073e-08	-2.390354e+00	-1.021634e+03
8.000000e-07	-2.316312e-07	-1.519126e-08	-1.662054e+00	-9.991061e+02
8.100000e-07	-1.299841e-07	-1.482396e-08	-9.326918e-01	-9.756273e+02
8.200000e-07	-2.822437e-08	-1.443321e-08	-2.025220e-01	-9.508412e+02
8.300000e-07	7.356468e-08	-1.401812e-08	5.278583e-01	-9.243205e+02
8.400000e-07	1.752726e-07	-1.357866e-08	1.257657e+00	-8.956565e+02
8.500000e-07	2.768846e-07	-1.311077e-08	1.986767e+00	-8.645452e+02
8.600000e-07	3.784429e-07	-1.261128e-08	2.715491e+00	-8.308389e+02
8.700000e-07	4.799064e-07	-1.207493e-08	3.443536e+00	-7.945393e+02
8.800000e-07	5.812305e-07	-1.149825e-08	4.170580e+00	-7.557224e+02
8.900000e-07	6.823716e-07	-1.087684e-08	4.896310e+00	-7.144065e+02
9.000000e-07	7.833061e-07	-1.020204e-08	5.620559e+00	-6.703932e+02
9.100000e-07	8.839815e-07	-9.464986e-09	6.342949e+00	-6.231257e+02
9.200000e-07	9.843488e-07	-8.653573e-09	7.063127e+00	-5.716122e+02
9.300000e-07	1.084441e-06	-7.759158e-09	7.781334e+00	-5.144516e+02
9.400000e-07	1.184211e-06	-6.766663e-09	8.497221e+00	-4.499793e+02
9.500000e-07	1.283622e-06	-5.652759e-09	9.210541e+00	-3.765217e+02
9.600000e-07	1.382635e-06	-4.393352e-09	9.921000e+00	-2.927211e+02
9.700000e-07	1.481102e-06	-2.969585e-09	1.062754e+01	-1.978695e+02
9.800000e-07	1.578793e-06	-1.375296e-09	1.132852e+01	-9.218192e+01
9.900000e-07	1.675585e-06	3.800772e-10	1.202304e+01	2.305444e+01
1.000000e-06	1.771629e-06	2.265677e-09	1.271220e+01	1.454962e+02
1.010000e-06	1.867115e-06	4.224901e-09	1.339736e+01	2.719354e+02
1.020000e-06	1.962028e-06	6.184223e-09	1.407839e+01	3.986406e+02
1.030000e-06	2.056222e-06	8.071669e-09	1.475428e+01	5.217892e+02
1.040000e-06	2.149670e-06	9.828069e-09	1.542481e+01	6.379156e+02
1.050000e-06	2.242395e-06	1.141531e-08	1.609015e+01	7.442953e+02
1.060000e-06	2.334441e-06	1.282103e-08	1.675062e+01	8.391992e+02
1.070000e-06	2.425828e-06	1.405038e-08	1.740636e+01	9.219807e+02
1.080000e-06	2.516325e-06	1.511505e-08	1.805572e+01	9.929911e+02
1.090000e-06	2.605598e-06	1.603229e-08	1.869629e+01	1.053356e+03
1.100000e-06	2.693685e-06	1.682414e-08	1.932835e+01	1.104665e+03
1.110000e-06	2.780918e-06	1.750895e-08	1.995429e+01	1.148649e+03
1.120000e-06	2.867346e-06	1.810072e-08	2.057444e+01	1.186900e+03
1.130000e-06	2.952812e-06	1.861631e-08	2.118770e+01	1.220683e+03
1.140000e-06	3.037319e-06	1.906841e-08	2.179407e+01	1.250870e+03
1.150000e-06	3.121001e-06	1.946616e-08	2.239453e+01	1.277964e+03
1.160000e-06	3.203714e-06	1.981892e-08	2.298803e+01	1.302217e+03
1.170000e-06	3.285158e-06	2.013435e-08	2.357243e+01	1.323761e+03
1.180000e-06	3.365359e-06	2.041658e-08	2.414790e+01	1.342739e+03
1.190000e-06	3.444355e-06	2.066911e-08	2.471473e+01	1.359391e+03
1.200000e-06	3.522082e-06	2.089599e-08	2.527246e+01	1.374068e+03
1.210000e-06	3.598616e-06	2.110454e-08	2.582162e+01	1.387205e+03
1.220000e-06	3.673869e-06	2.129879e-08	2.636159e+01	1.399243e+03
1.230000e-06	3.747510e-06	2.147733e-08	2.689000e+01	1.410551e+03
1.240000e-06	3.819528e-06	2.164245e-08	2.740676e+01	1.421362e+03
1.250000e-06	3.890148e-06	2.179675e-08	2.791349e+01	1.431751e+03
1.260000e-06	3.959463e-06	2.194092e-08	2.841086e+01	1.441654e+03
1.270000e-06	4.027523e-06	2.207335e-08	2.889922e+01	1.450925e+03
1.280000e-06	4.094154e-06	2.219403e-08	2.937732e+01	1.459408e+03
1.290000e-06	4.159075e-06	2.230484e-08	2.984316e+01	1.467010e+03
1.300000e-06	4.222409e-06	2.240819e-08	3.029761e+01	1.473743e+03
1.310000e-06	4.284324e-06	2.250458e-08	3.074187e+01	1.479727e+03
1.320000e-06	4.344879e-06	2.259500e-08	3.117638e+01	1.485169e+03
1.330000e-06	4.404014e-06	2.268116e-08	3.160070e+01	1.490301e+03
1.340000e-06	4.461450e-06	2.276343e-08	3.201283e+01	1.495327e+03
1.350000e-06	4.517148e-06	2.284137e-08	3.241249e+01	1.500366e+03
1.360000e-06	4.571282e-06	2.291564e-08	3.280092e+01	1.505433e+03
1.370000e-06	4.623754e-06	2.298640e-08	3.317743e+01	1.510446e+03
1.380000e-06	4.674255e-06	2.305214e-08	3.353980e+01	1.515261e+03
1.390000e-06	4.722727e-06	2.311303e-08	3.388760e+01	1.519725e+03
1.400000e-06	4.769434e-06	2.316975e-08	3.422275e+01	1.523726e+03
1.410000e-06	4.814567e-06	2.322395e-08	3.454659e+01	1.527230e+03
1.420000e-06	4.858231e-06	2.327478e-08	3.485990e+01	1.530285e+03
1.430000e-06	4.900069e-06	2.332199e-08	3.516011e+01	1.533012e+03
1.440000e-06	4.939982e-06	2.336683e-08	3.544650e+01	1.535557e+03
1.450000e-06	4.978239e-06	2.340922e-08	3.572101e+01	1.538053e+03
1.460000e-06	5.014907e-06	2.344855e-08	3.598412e+01	1.540577e+03
1.470000e-06	5.049940e-06	2.348187e-08	3.623550e+01	1.543132e+03
1.480000e-06	5.083021e-06	2.351033e-08	3.647286e+01	1.545652e+03
1.490000e-06	5.114238e-06	2.353585e-08	3.669686e+01	1.548023e+03
1.500000e-06	5.143806e-06	2.355963e-08	3.690903e+01	1.550130e+03
1.510000e-06	5.171774e-06	2.358377e-08	3.710971e+01	1.551890e+03
1.520000e-06	5.197780e-06	2.360667e-08	3.729631e+01	1.553284e+03
1.530000e-06	5.221631e-06	2.362877e-08	3.746746e+01	1.554359e+03
1.540000e-06	5.243615e-06	2.364909e-08	3.762520e+01	1.555218e+03
1.550000e-06	5.263958e-06	2.366568e-08	3.777117e+01	1.555988e+03
1.560000e-06	5.282603e-06	2.367920e-08	3.790495e+01	1.556778e+03
1.570000e-06	5.299253e-06	2.369266e-08	3.802443e+01	1.557650e+03
1.580000e-06	5.313852e-06	2.370626e-08	3.812918e+01	1.558598e+03
1.590000e-06	5.326471e-06	2.371635e-08	3.821973e+01	1.559558e+03
1.600000e-06	5.336953e-06	2.372364e-08	3.829494e+01	1.560425e+03
1.610000e-06	5.345271e-06	2.372994e-08	3.835462e+01	1.561089e+03
1.620000e-06	5.351704e-06	2.373533e-08	3.840078e+01	1.561471e+03
1.630000e-06	5.356366e-06	2.373972e-08	3.843423e+01	1.561548e+03
1.640000e-06	5.359148e-06	2.374294e-08	3.845420e+01	1.561360e+03
1.650000e-06	5.359957e-06	2.374574e-08	3.846000e+01	1.560993e+03
1.660000e-06	5.358954e-06	2.374471e-08	3.845281e+01	1.560559e+03
1.670000e-06	5.356277e-06	2.374008e-08	3.843359e+01	1.560153e+03
1.680000e-06	5.351927e-06	2.373683e-08	3.840239e+01	1.559826e+03
1.690000e-06	5.345711e-06	2.373219e-08	3.835778e+01	1.559570e+03
1.700000e-06	5.337677e-06	2.372482e-08	3.830013e+01	1.559319e+03
1.710000e-06	5.328104e-06	2.371688e-08	3.823144e+01	1.558972e+03
1.720000e-06	5.316917e-06	2.371145e-08	3.815117e+01	1.558423e+03
1.730000e-06	5.303801e-06	2.370751e-08	3.805706e+01	1.557596e+03
1.740000e-06	5.288620e-06	2.364164e-08	3.794813e+01	1.556469e+03
1.750000e-06	5.271215e-06	2.360416e-08	3.782324e+01	1.555082e+03
1.760000e-06	5.251244e-06	2.361775e-08	3.767994e+01	1.553527e+03
1.770000e-06	5.228807e-06	2.361672e-08	3.751894e+01	1.551915e+03
1.780000e-06	5.204758e-06	2.367370e-08	3.734639e+01	1.550348e+03
1.790000e-06	5.179964e-06	2.358777e-08	3.716848e+01	1.548885e+03
1.800000e-06	5.153995e-06	2.348696e-08	3.698214e+01	1.547525e+03
1.810000e-06	5.125934e-06	2.357028e-08	3.678078e+01	1.546206e+03
1.820000e-06	5.096023e-06	2.349111e-08	3.656616e+01	1.544827e+03
1.830000e-06	5.064436e-06	2.345757e-08	3.633952e+01	1.543277e+03
1.840000e-06	5.030861e-06	2.355381e-08	3.609860e+01	1.541469e+03
1.850000e-06	4.995716e-06	2.342895e-08	3.584642e+01	1.539365e+03
1.860000e-06	4.958862e-06	2.341419e-08	3.558197e+01	1.536986e+03
1.870000e-06	4.919976e-06	2.345893e-08	3.530295e+01	1.534404e+03
1.880000e-06	4.879487e-06	2.332543e-08	3.501243e+01	1.531718e+03
1.890000e-06	4.837254e-06	2.333898e-08	3.470939e+01	1.529016e+03
1.900000e-06	4.793316e-06	2.330130e-08	3.439411e+01	1.526349e+03
1.910000e-06	4.747691e-06	2.322678e-08	3.406673e+01	1.523714e+03
1.920000e-06	4.700043e-06	2.325825e-08	3.372484e+01	1.521048e+03
1.930000e-06	4.650772e-06	2.315103e-08	3.337129e+01	1.518249e+03
1.940000e-06	4.599775e-06	2.312004e-08	3.300537e+01	1.515209e+03
1.950000e-06	4.546679e-06	2.306644e-08	3.262438e+01	1.511843e+03
1.960000e-06	4.491706e-06	2.297373e-08	3.222993e+01	1.508120e+03
1.970000e-06	4.435023e-06	2.297940e-08	3.182320e+01	1.504068e+03
1.980000e-06	4.376773e-06	2.288182e-08	3.140523e+01	1.499773e+03
1.990000e-06	4.317140e-06	2.283418e-08	3.097734e+01	1.495346e+03
2.000000e-06	4.256058e-06	2.277536e-08	3.053905e+01	1.490891e+03
2.010000e-06	4.193270e-06	2.269114e-08	3.008852e+01	1.486476e+03
2.020000e-06	4.128797e-06	2.265499e-08	2.962590e+01	1.482104e+03
2.030000e-06	4.062909e-06	2.254472e-08	2.915313e+01	1.477716e+03
2.040000e-06	3.995700e-06	2.249885e-08	2.867087e+01	1.473208e+03
2.050000e-06	3.927076e-06	2.242523e-08	2.817847e+01	1.468460e+03
2.060000e-06	3.856833e-06	2.232961e-08	2.767444e+01	1.463374e+03
2.070000e-06	3.785143e-06	2.226411e-08	2.716003e+01	1.457905e+03
2.080000e-06	3.712257e-06	2.215866e-08	2.663704e+01	1.452072e+03
2.090000e-06	3.638023e-06	2.209065e-08	2.610439e+01	1.445951e+03
2.100000e-06	3.562469e-06	2.199047e-08	2.556225e+01	1.439654e+03
2.110000e-06	3.485376e-06	2.189812e-08	2.500907e+01	1.433288e+03
2.120000e-06	3.406696e-06	2.180846e-08	2.444451e+01	1.426919e+03
2.130000e-06	3.326838e-06	2.170505e-08	2.387150e+01	1.420553e+03
2.140000e-06	3.245890e-06	2.161135e-08	2.329066e+01	1.414126e+03
2.150000e-06	3.163840e-06	2.148640e-08	2.270192e+01	1.407524e+03
2.160000e-06	3.080722e-06	2.138205e-08	2.210551e+01	1.400612e+03
2.170000e-06	2.996638e-06	2.127709e-08	2.150217e+01	1.393281e+03
2.180000e-06	2.911306e-06	2.116717e-08	2.088988e+01	1.385473e+03
2.190000e-06	2.824598e-06	2.104463e-08	2.026771e+01	1.377201e+03
2.200000e-06	2.736885e-06	2.091272e-08	1.963833e+01	1.368543e+03
2.210000e-06	2.648262e-06	2.078939e-08	1.900242e+01	1.359615e+03
2.220000e-06	2.558767e-06	2.065483e-08	1.836026e+01	1.350530e+03
2.230000e-06	2.468343e-06	2.051797e-08	1.771143e+01	1.341358e+03
2.240000e-06	2.377116e-06	2.037309e-08	1.705684e+01	1.332097e+03
2.250000e-06	2.285314e-06	2.022828e-08	1.639812e+01	1.322670e+03
2.260000e-06	2.192782e-06	2.007344e-08	1.573416e+01	1.312940e+03
2.270000e-06	2.099150e-06	1.991108e-08	1.506230e+01	1.302748e+03
2.280000e-06	2.004478e-06	1.975023e-08	1.438300e+01	1.291962e+03
2.290000e-06	1.909142e-06	1.958451e-08	1.369891e+01	1.280512e+03
2.300000e-06	1.813258e-06	1.940946e-08	1.301091e+01	1.268413e+03
2.310000e-06	1.716806e-06	1.922132e-08	1.231882e+01	1.255754e+03
2.320000e-06	1.619763e-06	1.902814e-08	1.162250e+01	1.242670e+03
2.330000e-06	1.522194e-06	1.882929e-08	1.092240e+01	1.229287e+03
2.340000e-06	1.424105e-06	1.862302e-08	1.021857e+01	1.215680e+03
2.350000e-06	1.325506e-06	1.840567e-08	9.511080e+00	1.201828e+03
2.360000e-06	1.226479e-06	1.818040e-08	8.800514e+00	1.187613e+03
2.370000e-06	1.127183e-06	1.794854e-08	8.088026e+00	1.172838e+03
2.380000e-06	1.027718e-06	1.770677e-08	7.374319e+00	1.157280e+03
2.390000e-06	9.280725e-07	1.745142e-08	6.659321e+00	1.140744e+03
2.400000e-06	8.281904e-07	1.718265e-08	5.942623e+00	1.123119e+03
2.410000e-06	7.280077e-07	1.690452e-08	5.223769e+00	1.104400e+03
2.420000e-06	6.275201e-07	1.661373e-08	4.502728e+00	1.084685e+03
2.430000e-06	5.267598e-07	1.630986e-08	3.779729e+00	1.064122e+03
2.440000e-06	4.257535e-07	1.599302e-08	3.054965e+00	1.042846e+03
2.450000e-06	3.244706e-07	1.565879e-08	2.328216e+00	1.020901e+03
2.460000e-06	2.229212e-07	1.530349e-08	1.599555e+00	9.981926e+02
2.470000e-06	1.211860e-07	1.492887e-08	8.695615e-01	9.744661e+02
2.480000e-06	1.936054e-08	1.453641e-08	1.389202e-01	9.493439e+02
2.490000e-06	-8.249211e-08	1.411995e-08	-5.919164e-01	9.223947e+02
2.500000e-06	-1.842516e-07	1.367418e-08	-1.322085e+00	8.932259e+02
2.510000e-06	-2.858624e-07	1.319675e-08	-2.051186e+00	8.615642e+02
2.520000e-06	-3.873759e-07	1.268390e-08	-2.779589e+00	8.272967e+02
2.530000e-06	-4.887371e-07	1.213444e-08	-3.506899e+00	7.904498e+02
2.540000e-06	-5.898577e-07	1.154561e-08	-4.232483e+00	7.510996e+02
2.550000e-06	-6.906748e-07	1.091022e-08	-4.955890e+00	7.092316e+02
2.560000e-06	-7.911771e-07	1.022281e-08	-5.677037e+00	6.645809e+02
2.570000e-06	-8.913633e-07	9.474147e-09	-6.395916e+00	6.165011e+02
2.580000e-06	-9.912450e-07	8.651767e-09	-7.112611e+00	5.639063e+02
2.590000e-06	-1.090862e-06	7.742376e-09	-7.827404e+00	5.053226e+02
2.600000e-06	-1.190203e-06	6.728029e-09	-8.540218e+00	4.390590e+02
2.610000e-06	-1.289176e-06	5.588867e-09	-9.250396e+00	3.634810e+02
2.620000e-06	-1.387665e-06	4.303992e-09	-9.957097e+00	2.773428e+02
2.630000e-06	-1.485592e-06	2.856425e-09	-1.065976e+01	1.801147e+02
2.640000e-06	-1.582967e-06	1.239113e-09	-1.135847e+01	7.223395e+01
2.650000e-06	-1.679860e-06	-5.379652e-10	-1.205372e+01	-4.477837e+01
2.660000e-06	-1.776275e-06	-2.442192e-09	-1.274554e+01	-1.683718e+02
2.670000e-06	-1.872123e-06	-4.414585e-09	-1.343329e+01	-2.951934e+02
2.680000e-06	-1.967372e-06	-6.377296e-09	-1.411674e+01	-4.214539e+02
2.690000e-06	-2.061903e-06	-8.256424e-09	-1.479504e+01	-5.433705e+02
2.700000e-06	-2.155467e-06	-9.999096e-09	-1.546641e+01	-6.576077e+02
2.710000e-06	-2.248001e-06	-1.157347e-08	-1.613038e+01	-7.616382e+02
2.720000e-06	-2.339691e-06	-1.296671e-08	-1.678829e+01	-8.539637e+02
2.730000e-06	-2.430661e-06	-1.418372e-08	-1.744104e+01	-9.341638e+02
2.740000e-06	-2.520757e-06	-1.523784e-08	-1.808752e+01	-1.002779e+03
2.750000e-06	-2.609931e-06	-1.614689e-08	-1.872738e+01	-1.061061e+03
2.760000e-06	-2.698251e-06	-1.692999e-08	-1.936112e+01	-1.110657e+03
2.770000e-06	-2.785753e-06	-1.760748e-08	-1.998898e+01	-1.153289e+03
2.780000e-06	-2.872280e-06	-1.819598e-08	-2.060985e+01	-1.190490e+03
2.790000e-06	-2.957605e-06	-1.870665e-08	-2.122209e+01	-1.223444e+03
2.800000e-06	-3.041797e-06	-1.915197e-08	-2.182621e+01	-1.252937e+03
2.810000e-06	-3.124989e-06	-1.954598e-08	-2.242315e+01	-1.279409e+03
2.820000e-06	-3.207145e-06	-1.989574e-08	-2.301265e+01	-1.303072e+03
2.830000e-06	-3.288227e-06	-2.020630e-08	-2.359445e+01	-1.324053e+03
2.840000e-06	-3.368286e-06	-2.048607e-08	-2.416890e+01	-1.342510e+03
2.850000e-06	-3.447146e-06	-2.073889e-08	-2.473476e+01	-1.358706e+03
2.860000e-06	-3.524490e-06	-2.096858e-08	-2.528974e+01	-1.373016e+03
2.870000e-06	-3.600331e-06	-2.117859e-08	-2.583393e+01	-1.385883e+03
2.880000e-06	-3.674808e-06	-2.137029e-08	-2.636833e+01	-1.397739e+03
2.890000e-06	-3.747930e-06	-2.154590e-08	-2.689302e+01	-1.408927e+03
2.900000e-06	-3.819800e-06	-2.170894e-08	-2.740872e+01	-1.419648e+03
2.910000e-06	-3.890269e-06	-2.186253e-08	-2.791435e+01	-1.429944e+03
2.920000e-06	-3.959126e-06	-2.200655e-08	-2.840843e+01	-1.439726e+03
2.930000e-06	-4.026590e-06	-2.213862e-08	-2.889252e+01	-1.448841e+03
2.940000e-06	-4.092716e-06	-2.225825e-08	-2.936701e+01	-1.457141e+03
