# Temperatura_=_69.47
# Concentracion g/m^3_=_41000.0
# C_Vs_to_Am_M_A/Vsm_=_65563218390.804596
# pendiente_HvsI_1/m_=_3716.3
# ordenada_HvsI_A/m_=_1297.0
# frecuencia_Hz_=_301608.4210120077

Tiempo_(s)	Campo_(V.s)	Magnetizacion_(V.s)	Campo_(kA/m)	Magnetizacion_(A/m)
0.000000e+00	-5.325739e-06	-2.161817e-08	-3.834345e+01	-1.413568e+03
1.000000e-08	-5.323308e-06	-2.160963e-08	-3.832594e+01	-1.413409e+03
2.000000e-08	-5.319096e-06	-2.160142e-08	-3.829562e+01	-1.413317e+03
3.000000e-08	-5.313256e-06	-2.159307e-08	-3.825357e+01	-1.413203e+03
4.000000e-08	-5.305839e-06	-2.158253e-08	-3.820017e+01	-1.412950e+03
5.000000e-08	-5.296632e-06	-2.157187e-08	-3.813389e+01	-1.412453e+03
6.000000e-08	-5.285381e-06	-2.156048e-08	-3.805288e+01	-1.411652e+03
7.000000e-08	-5.272245e-06	-2.154771e-08	-3.795831e+01	-1.410547e+03
8.000000e-08	-5.257031e-06	-2.154550e-08	-3.784877e+01	-1.409201e+03
9.000000e-08	-5.239483e-06	-2.153566e-08	-3.772243e+01	-1.407722e+03
1.000000e-07	-5.219883e-06	-2.151424e-08	-3.758132e+01	-1.406225e+03
1.100000e-07	-5.198461e-06	-2.148721e-08	-3.742709e+01	-1.404804e+03
1.200000e-07	-5.175376e-06	-2.142904e-08	-3.726089e+01	-1.403502e+03
1.300000e-07	-5.150887e-06	-2.138936e-08	-3.708457e+01	-1.402297e+03
1.400000e-07	-5.124841e-06	-2.141660e-08	-3.689705e+01	-1.401113e+03
1.500000e-07	-5.097030e-06	-2.136953e-08	-3.669683e+01	-1.399842e+03
1.600000e-07	-5.067733e-06	-2.133403e-08	-3.648590e+01	-1.398379e+03
1.700000e-07	-5.036988e-06	-2.135175e-08	-3.626454e+01	-1.396649e+03
1.800000e-07	-5.004305e-06	-2.127577e-08	-3.602924e+01	-1.394632e+03
1.900000e-07	-4.969636e-06	-2.123989e-08	-3.577963e+01	-1.392363e+03
2.000000e-07	-4.933390e-06	-2.122806e-08	-3.551867e+01	-1.389918e+03
2.100000e-07	-4.895521e-06	-2.113046e-08	-3.524603e+01	-1.387389e+03
2.200000e-07	-4.855879e-06	-2.107357e-08	-3.496062e+01	-1.384850e+03
2.300000e-07	-4.814331e-06	-2.107045e-08	-3.466149e+01	-1.382331e+03
2.400000e-07	-4.770836e-06	-2.103541e-08	-3.434834e+01	-1.379812e+03
2.500000e-07	-4.725549e-06	-2.100563e-08	-3.402229e+01	-1.377221e+03
2.600000e-07	-4.678479e-06	-2.095670e-08	-3.368340e+01	-1.374464e+03
2.700000e-07	-4.629516e-06	-2.087736e-08	-3.333089e+01	-1.371452e+03
2.800000e-07	-4.578446e-06	-2.082015e-08	-3.296320e+01	-1.368127e+03
2.900000e-07	-4.525399e-06	-2.080419e-08	-3.258128e+01	-1.364485e+03
3.000000e-07	-4.470740e-06	-2.075664e-08	-3.218776e+01	-1.360578e+03
3.100000e-07	-4.414489e-06	-2.068958e-08	-3.178277e+01	-1.356494e+03
3.200000e-07	-4.356408e-06	-2.063095e-08	-3.136460e+01	-1.352335e+03
3.300000e-07	-4.296671e-06	-2.053873e-08	-3.093452e+01	-1.348181e+03
3.400000e-07	-4.235544e-06	-2.046906e-08	-3.049442e+01	-1.344065e+03
3.500000e-07	-4.172974e-06	-2.042650e-08	-3.004394e+01	-1.339964e+03
3.600000e-07	-4.109056e-06	-2.036395e-08	-2.958376e+01	-1.335803e+03
3.700000e-07	-4.043665e-06	-2.028953e-08	-2.911296e+01	-1.331477e+03
3.800000e-07	-3.976551e-06	-2.021193e-08	-2.862977e+01	-1.326886e+03
3.900000e-07	-3.907886e-06	-2.012498e-08	-2.813540e+01	-1.321966e+03
4.000000e-07	-3.837964e-06	-2.004396e-08	-2.763199e+01	-1.316705e+03
4.100000e-07	-3.766864e-06	-1.997218e-08	-2.712010e+01	-1.311149e+03
4.200000e-07	-3.694562e-06	-1.989306e-08	-2.659955e+01	-1.305388e+03
4.300000e-07	-3.620813e-06	-1.980827e-08	-2.606858e+01	-1.299523e+03
4.400000e-07	-3.545391e-06	-1.972269e-08	-2.552557e+01	-1.293633e+03
4.500000e-07	-3.468521e-06	-1.962747e-08	-2.497213e+01	-1.287749e+03
4.600000e-07	-3.390367e-06	-1.953128e-08	-2.440945e+01	-1.281840e+03
4.700000e-07	-3.310787e-06	-1.943699e-08	-2.383650e+01	-1.275821e+03
4.800000e-07	-3.229869e-06	-1.933217e-08	-2.325392e+01	-1.269576e+03
4.900000e-07	-3.147856e-06	-1.922776e-08	-2.266346e+01	-1.262994e+03
5.000000e-07	-3.064802e-06	-1.912560e-08	-2.206550e+01	-1.256003e+03
5.100000e-07	-2.980862e-06	-1.901568e-08	-2.146116e+01	-1.248590e+03
5.200000e-07	-2.896118e-06	-1.889451e-08	-2.085103e+01	-1.240809e+03
5.300000e-07	-2.810433e-06	-1.877215e-08	-2.023413e+01	-1.232756e+03
5.400000e-07	-2.723728e-06	-1.865480e-08	-1.960988e+01	-1.224541e+03
5.500000e-07	-2.636093e-06	-1.853414e-08	-1.897894e+01	-1.216248e+03
5.600000e-07	-2.547585e-06	-1.840317e-08	-1.834171e+01	-1.207903e+03
5.700000e-07	-2.457963e-06	-1.826710e-08	-1.769647e+01	-1.199459e+03
5.800000e-07	-2.367202e-06	-1.812946e-08	-1.704302e+01	-1.190806e+03
5.900000e-07	-2.275587e-06	-1.798056e-08	-1.638343e+01	-1.181799e+03
6.000000e-07	-2.183208e-06	-1.782486e-08	-1.571833e+01	-1.172301e+03
6.100000e-07	-2.090058e-06	-1.766924e-08	-1.504768e+01	-1.162220e+03
6.200000e-07	-1.996168e-06	-1.751225e-08	-1.437171e+01	-1.151542e+03
6.300000e-07	-1.901631e-06	-1.734839e-08	-1.369107e+01	-1.140328e+03
6.400000e-07	-1.806439e-06	-1.717683e-08	-1.300573e+01	-1.128696e+03
6.500000e-07	-1.710619e-06	-1.699950e-08	-1.231585e+01	-1.116779e+03
6.600000e-07	-1.614268e-06	-1.681590e-08	-1.162216e+01	-1.104670e+03
6.700000e-07	-1.517284e-06	-1.662560e-08	-1.092391e+01	-1.092390e+03
6.800000e-07	-1.419557e-06	-1.642591e-08	-1.022031e+01	-1.079862e+03
6.900000e-07	-1.321186e-06	-1.621785e-08	-9.512076e+00	-1.066926e+03
7.000000e-07	-1.222326e-06	-1.600191e-08	-8.800318e+00	-1.053375e+03
7.100000e-07	-1.123034e-06	-1.577673e-08	-8.085451e+00	-1.039009e+03
7.200000e-07	-1.023382e-06	-1.554217e-08	-7.367993e+00	-1.023688e+03
7.300000e-07	-9.235083e-07	-1.530034e-08	-6.648935e+00	-1.007371e+03
7.400000e-07	-8.234444e-07	-1.505070e-08	-5.928510e+00	-9.901213e+02
7.500000e-07	-7.231385e-07	-1.478673e-08	-5.206343e+00	-9.720693e+02
7.600000e-07	-6.225544e-07	-1.450459e-08	-4.482173e+00	-9.533583e+02
7.700000e-07	-5.217607e-07	-1.420783e-08	-3.756494e+00	-9.340708e+02
7.800000e-07	-4.208471e-07	-1.389707e-08	-3.029951e+00	-9.141674e+02
7.900000e-07	-3.198177e-07	-1.356969e-08	-2.302575e+00	-8.934572e+02
8.000000e-07	-2.186612e-07	-1.322520e-08	-1.574284e+00	-8.716107e+02
8.100000e-07	-1.173572e-07	-1.286047e-08	-8.449303e-01	-8.482166e+02
8.200000e-07	-1.594869e-08	-1.247128e-08	-1.148249e-01	-8.228653e+02
8.300000e-07	8.546233e-08	-1.205452e-08	6.152987e-01	-7.952345e+02
8.400000e-07	1.868229e-07	-1.160709e-08	1.345059e+00	-7.651469e+02
8.500000e-07	2.881690e-07	-1.112510e-08	2.074715e+00	-7.325738e+02
8.600000e-07	3.894567e-07	-1.060570e-08	2.803951e+00	-6.975734e+02
8.700000e-07	4.905952e-07	-1.004483e-08	3.532113e+00	-6.601704e+02
8.800000e-07	5.915919e-07	-9.433747e-09	4.259254e+00	-6.202050e+02
8.900000e-07	6.923886e-07	-8.764845e-09	4.984955e+00	-5.771903e+02
9.000000e-07	7.929450e-07	-8.027427e-09	5.708925e+00	-5.302269e+02
9.100000e-07	8.932768e-07	-7.208611e-09	6.431279e+00	-4.780123e+02
9.200000e-07	9.933982e-07	-6.293857e-09	7.152117e+00	-4.189661e+02
9.300000e-07	1.093271e-06	-5.265173e-09	7.871168e+00	-3.514651e+02
9.400000e-07	1.192782e-06	-4.103047e-09	8.587609e+00	-2.741540e+02
9.500000e-07	1.291803e-06	-2.787124e-09	9.300530e+00	-1.862742e+02
9.600000e-07	1.390277e-06	-1.305424e-09	1.000950e+01	-8.794342e+01
9.700000e-07	1.488132e-06	3.330523e-10	1.071403e+01	1.967873e+01
9.800000e-07	1.585235e-06	2.097047e-09	1.141314e+01	1.343850e+02
9.900000e-07	1.681622e-06	3.934496e-09	1.210709e+01	2.530885e+02
1.000000e-06	1.777377e-06	5.776979e-09	1.279649e+01	3.721444e+02
1.010000e-06	1.872503e-06	7.552745e-09	1.348136e+01	4.877725e+02
1.020000e-06	1.967004e-06	9.199358e-09	1.416173e+01	5.965068e+02
1.030000e-06	2.060853e-06	1.067805e-08	1.483742e+01	6.955915e+02
1.040000e-06	2.153972e-06	1.197313e-08	1.550784e+01	7.832553e+02
1.050000e-06	2.246355e-06	1.308838e-08	1.617296e+01	8.588208e+02
1.060000e-06	2.338065e-06	1.403923e-08	1.683325e+01	9.226390e+02
1.070000e-06	2.429107e-06	1.484561e-08	1.748871e+01	9.758768e+02
1.080000e-06	2.519195e-06	1.552886e-08	1.813732e+01	1.020208e+03
1.090000e-06	2.608012e-06	1.611090e-08	1.877677e+01	1.057478e+03
1.100000e-06	2.695702e-06	1.661054e-08	1.940810e+01	1.089404e+03
1.110000e-06	2.782587e-06	1.703995e-08	2.003365e+01	1.117369e+03
1.120000e-06	2.868645e-06	1.741364e-08	2.065323e+01	1.142327e+03
1.130000e-06	2.953762e-06	1.774428e-08	2.126605e+01	1.164822e+03
1.140000e-06	3.038008e-06	1.803780e-08	2.187259e+01	1.185090e+03
1.150000e-06	3.121335e-06	1.829737e-08	2.247251e+01	1.203206e+03
1.160000e-06	3.203505e-06	1.853025e-08	2.306411e+01	1.219227e+03
1.170000e-06	3.284413e-06	1.874297e-08	2.364661e+01	1.233290e+03
1.180000e-06	3.364160e-06	1.893749e-08	2.422077e+01	1.245655e+03
1.190000e-06	3.442709e-06	1.911537e-08	2.478629e+01	1.256686e+03
1.200000e-06	3.520002e-06	1.927957e-08	2.534278e+01	1.266783e+03
1.210000e-06	3.596079e-06	1.943354e-08	2.589050e+01	1.276300e+03
1.220000e-06	3.670832e-06	1.957668e-08	2.642870e+01	1.285478e+03
1.230000e-06	3.743987e-06	1.970853e-08	2.695539e+01	1.294409e+03
1.240000e-06	3.815629e-06	1.982953e-08	2.747119e+01	1.303044e+03
1.250000e-06	3.885926e-06	1.994296e-08	2.797730e+01	1.311238e+03
1.260000e-06	3.954890e-06	2.005067e-08	2.847381e+01	1.318827e+03
1.270000e-06	4.022573e-06	2.015005e-08	2.896111e+01	1.325689e+03
1.280000e-06	4.088720e-06	2.024305e-08	2.943734e+01	1.331803e+03
1.290000e-06	4.153160e-06	2.033200e-08	2.990129e+01	1.337256e+03
1.300000e-06	4.216111e-06	2.041654e-08	3.035452e+01	1.342228e+03
1.310000e-06	4.277669e-06	2.049705e-08	3.079771e+01	1.346937e+03
1.320000e-06	4.337853e-06	2.057292e-08	3.123102e+01	1.351581e+03
1.330000e-06	4.396617e-06	2.064478e-08	3.165410e+01	1.356287e+03
1.340000e-06	4.453659e-06	2.071471e-08	3.206477e+01	1.361077e+03
1.350000e-06	4.508959e-06	2.078206e-08	3.246291e+01	1.365874e+03
1.360000e-06	4.562676e-06	2.084561e-08	3.284966e+01	1.370533e+03
1.370000e-06	4.614698e-06	2.090531e-08	3.322420e+01	1.374889e+03
1.380000e-06	4.664716e-06	2.096117e-08	3.358431e+01	1.378815e+03
1.390000e-06	4.712750e-06	2.101151e-08	3.393014e+01	1.382256e+03
1.400000e-06	4.759098e-06	2.105786e-08	3.426383e+01	1.385247e+03
1.410000e-06	4.803892e-06	2.110270e-08	3.458633e+01	1.387902e+03
1.420000e-06	4.847128e-06	2.114568e-08	3.489762e+01	1.390370e+03
1.430000e-06	4.888551e-06	2.118755e-08	3.519585e+01	1.392798e+03
1.440000e-06	4.928131e-06	2.122725e-08	3.548081e+01	1.395279e+03
1.450000e-06	4.966028e-06	2.126524e-08	3.575365e+01	1.397835e+03
1.460000e-06	5.002345e-06	2.129996e-08	3.601513e+01	1.400407e+03
1.470000e-06	5.037000e-06	2.133009e-08	3.626463e+01	1.402886e+03
1.480000e-06	5.069725e-06	2.135470e-08	3.650024e+01	1.405143e+03
1.490000e-06	5.100618e-06	2.137576e-08	3.672265e+01	1.407078e+03
1.500000e-06	5.129862e-06	2.139791e-08	3.693320e+01	1.408649e+03
1.510000e-06	5.157451e-06	2.142183e-08	3.713183e+01	1.409886e+03
1.520000e-06	5.183074e-06	2.144566e-08	3.731631e+01	1.410882e+03
1.530000e-06	5.206662e-06	2.146716e-08	3.748613e+01	1.411762e+03
1.540000e-06	5.228464e-06	2.148615e-08	3.764310e+01	1.412645e+03
1.550000e-06	5.248594e-06	2.150124e-08	3.778803e+01	1.413609e+03
1.560000e-06	5.266950e-06	2.151338e-08	3.792019e+01	1.414666e+03
1.570000e-06	5.283272e-06	2.152523e-08	3.803770e+01	1.415760e+03
1.580000e-06	5.297592e-06	2.153695e-08	3.814079e+01	1.416789e+03
1.590000e-06	5.309965e-06	2.154550e-08	3.822988e+01	1.417635e+03
1.600000e-06	5.320151e-06	2.155091e-08	3.830321e+01	1.418204e+03
1.610000e-06	5.328213e-06	2.155521e-08	3.836126e+01	1.418455e+03
1.620000e-06	5.334421e-06	2.156007e-08	3.840596e+01	1.418412e+03
1.630000e-06	5.338837e-06	2.156633e-08	3.843774e+01	1.418158e+03
1.640000e-06	5.341369e-06	2.157046e-08	3.845597e+01	1.417809e+03
1.650000e-06	5.341928e-06	2.157055e-08	3.846000e+01	1.417475e+03
1.660000e-06	5.340677e-06	2.156764e-08	3.845099e+01	1.417232e+03
1.670000e-06	5.337813e-06	2.156245e-08	3.843038e+01	1.417092e+03
1.680000e-06	5.333338e-06	2.155540e-08	3.839816e+01	1.417004e+03
1.690000e-06	5.326966e-06	2.154832e-08	3.835228e+01	1.416869e+03
1.700000e-06	5.318759e-06	2.154070e-08	3.829319e+01	1.416571e+03
1.710000e-06	5.308977e-06	2.153304e-08	3.822277e+01	1.416011e+03
1.720000e-06	5.297532e-06	2.152603e-08	3.814037e+01	1.415142e+03
1.730000e-06	5.284171e-06	2.150204e-08	3.804417e+01	1.413978e+03
1.740000e-06	5.268746e-06	2.147211e-08	3.793312e+01	1.412593e+03
1.750000e-06	5.251088e-06	2.144566e-08	3.780599e+01	1.411099e+03
1.760000e-06	5.230889e-06	2.142943e-08	3.766056e+01	1.409612e+03
1.770000e-06	5.208274e-06	2.145148e-08	3.749774e+01	1.408215e+03
1.780000e-06	5.184166e-06	2.144236e-08	3.732417e+01	1.406936e+03
1.790000e-06	5.159328e-06	2.138331e-08	3.714535e+01	1.405743e+03
1.800000e-06	5.133240e-06	2.136932e-08	3.695752e+01	1.404549e+03
1.810000e-06	5.105215e-06	2.133761e-08	3.675575e+01	1.403245e+03
1.820000e-06	5.075386e-06	2.131928e-08	3.654099e+01	1.401729e+03
1.830000e-06	5.043714e-06	2.133581e-08	3.631297e+01	1.399936e+03
1.840000e-06	5.010078e-06	2.129181e-08	3.607080e+01	1.397860e+03
1.850000e-06	4.974837e-06	2.128661e-08	3.581708e+01	1.395545e+03
1.860000e-06	4.937811e-06	2.131472e-08	3.555050e+01	1.393075e+03
1.870000e-06	4.898800e-06	2.126595e-08	3.526964e+01	1.390538e+03
1.880000e-06	4.858158e-06	2.119565e-08	3.497703e+01	1.388001e+03
1.890000e-06	4.815785e-06	2.113661e-08	3.467195e+01	1.385485e+03
1.900000e-06	4.771749e-06	2.109831e-08	3.435491e+01	1.382957e+03
1.910000e-06	4.726056e-06	2.108494e-08	3.402594e+01	1.380338e+03
1.920000e-06	4.678530e-06	2.105104e-08	3.368377e+01	1.377533e+03
1.930000e-06	4.629327e-06	2.100409e-08	3.332952e+01	1.374456e+03
1.940000e-06	4.578298e-06	2.092888e-08	3.296213e+01	1.371061e+03
1.950000e-06	4.525288e-06	2.086771e-08	3.258048e+01	1.367356e+03
1.960000e-06	4.470391e-06	2.080794e-08	3.218524e+01	1.363402e+03
1.970000e-06	4.413717e-06	2.075200e-08	3.177721e+01	1.359293e+03
1.980000e-06	4.355486e-06	2.072669e-08	3.135796e+01	1.355129e+03
1.990000e-06	4.295878e-06	2.065110e-08	3.092881e+01	1.350981e+03
2.000000e-06	4.234825e-06	2.056950e-08	3.048925e+01	1.346872e+03
2.010000e-06	4.172081e-06	2.050883e-08	3.003752e+01	1.342765e+03
2.020000e-06	4.107572e-06	2.044043e-08	2.957307e+01	1.338577e+03
2.030000e-06	4.041632e-06	2.037737e-08	2.909833e+01	1.334202e+03
2.040000e-06	3.974395e-06	2.030959e-08	2.861425e+01	1.329544e+03
2.050000e-06	3.905832e-06	2.024836e-08	2.812062e+01	1.324549e+03
2.060000e-06	3.835740e-06	2.016483e-08	2.761598e+01	1.319218e+03
2.070000e-06	3.764138e-06	2.006925e-08	2.710047e+01	1.313609e+03
2.080000e-06	3.691298e-06	1.997897e-08	2.657605e+01	1.307817e+03
2.090000e-06	3.617131e-06	1.989394e-08	2.604207e+01	1.301940e+03
2.100000e-06	3.541598e-06	1.981595e-08	2.549826e+01	1.296051e+03
2.110000e-06	3.464628e-06	1.971505e-08	2.494410e+01	1.290165e+03
2.120000e-06	3.386112e-06	1.962444e-08	2.437882e+01	1.284241e+03
2.130000e-06	3.306300e-06	1.953595e-08	2.380420e+01	1.278183e+03
2.140000e-06	3.225432e-06	1.943172e-08	2.322198e+01	1.271874e+03
2.150000e-06	3.143509e-06	1.931910e-08	2.263216e+01	1.265208e+03
2.160000e-06	3.060514e-06	1.921250e-08	2.203462e+01	1.258124e+03
2.170000e-06	2.976536e-06	1.911757e-08	2.143001e+01	1.250626e+03
2.180000e-06	2.891496e-06	1.900339e-08	2.081775e+01	1.242776e+03
2.190000e-06	2.805109e-06	1.887680e-08	2.019580e+01	1.234678e+03
2.200000e-06	2.717535e-06	1.875034e-08	1.956530e+01	1.226441e+03
2.210000e-06	2.629084e-06	1.863086e-08	1.892848e+01	1.218137e+03
2.220000e-06	2.539738e-06	1.850492e-08	1.828522e+01	1.209776e+03
2.230000e-06	2.449499e-06	1.836837e-08	1.763553e+01	1.201298e+03
2.240000e-06	2.358442e-06	1.823632e-08	1.697995e+01	1.192581e+03
2.250000e-06	2.266681e-06	1.809878e-08	1.631930e+01	1.183479e+03
2.260000e-06	2.174217e-06	1.794830e-08	1.565360e+01	1.173860e+03
2.270000e-06	2.080884e-06	1.778885e-08	1.498163e+01	1.163649e+03
2.280000e-06	1.986615e-06	1.763098e-08	1.430293e+01	1.152848e+03
2.290000e-06	1.891479e-06	1.746951e-08	1.361799e+01	1.141533e+03
2.300000e-06	1.795694e-06	1.729884e-08	1.292837e+01	1.129829e+03
2.310000e-06	1.699418e-06	1.712046e-08	1.223521e+01	1.117863e+03
2.320000e-06	1.602594e-06	1.693739e-08	1.153811e+01	1.105719e+03
2.330000e-06	1.505226e-06	1.674854e-08	1.083710e+01	1.093394e+03
2.340000e-06	1.407382e-06	1.654914e-08	1.013265e+01	1.080795e+03
2.350000e-06	1.309145e-06	1.634199e-08	9.425381e+00	1.067745e+03
2.360000e-06	1.210481e-06	1.612778e-08	8.715038e+00	1.054034e+03
2.370000e-06	1.111425e-06	1.590569e-08	8.001867e+00	1.039471e+03
2.380000e-06	1.012072e-06	1.567211e-08	7.286562e+00	1.023936e+03
2.390000e-06	9.124081e-07	1.542341e-08	6.569017e+00	1.007410e+03
2.400000e-06	8.124508e-07	1.516416e-08	5.849360e+00	9.899751e+02
2.410000e-06	7.122528e-07	1.489833e-08	5.127970e+00	9.717702e+02
2.420000e-06	6.118423e-07	1.461942e-08	4.405049e+00	9.529315e+02
2.430000e-06	5.112680e-07	1.432497e-08	3.680950e+00	9.335197e+02
2.440000e-06	4.105724e-07	1.401415e-08	2.955977e+00	9.134641e+02
2.450000e-06	3.097166e-07	1.368346e-08	2.229850e+00	8.925414e+02
2.460000e-06	2.087235e-07	1.333116e-08	1.502736e+00	8.703986e+02
2.470000e-06	1.076029e-07	1.295733e-08	7.747027e-01	8.466172e+02
2.480000e-06	6.382370e-09	1.256250e-08	4.595082e-02	8.207995e+02
2.490000e-06	-9.485918e-08	1.214127e-08	-6.829527e-01	7.926511e+02
2.500000e-06	-1.960700e-07	1.168682e-08	-1.411635e+00	7.620284e+02
2.510000e-06	-2.971930e-07	1.119467e-08	-2.139685e+00	7.289286e+02
2.520000e-06	-3.981950e-07	1.066324e-08	-2.866864e+00	6.934145e+02
2.530000e-06	-4.990408e-07	1.008913e-08	-3.592918e+00	6.554845e+02
2.540000e-06	-5.997153e-07	9.465922e-09	-4.317739e+00	6.149193e+02
2.550000e-06	-7.002119e-07	8.784440e-09	-5.041279e+00	5.711481e+02
2.560000e-06	-8.004753e-07	8.032515e-09	-5.763140e+00	5.231807e+02
2.570000e-06	-9.004572e-07	7.197199e-09	-6.482975e+00	4.696403e+02
2.580000e-06	-1.000109e-06	6.263540e-09	-7.200434e+00	4.089143e+02
2.590000e-06	-1.099416e-06	5.214396e-09	-7.915406e+00	3.394091e+02
2.600000e-06	-1.198369e-06	4.028876e-09	-8.627836e+00	2.598703e+02
2.610000e-06	-1.296929e-06	2.689077e-09	-9.337432e+00	1.697065e+02
2.620000e-06	-1.395023e-06	1.187193e-09	-1.004367e+01	6.924973e+01
2.630000e-06	-1.492589e-06	-4.696052e-10	-1.074612e+01	-4.011058e+01
2.640000e-06	-1.589651e-06	-2.250599e-09	-1.144493e+01	-1.559587e+02
2.650000e-06	-1.686225e-06	-4.101070e-09	-1.214023e+01	-2.750567e+02
2.660000e-06	-1.782301e-06	-5.949448e-09	-1.283194e+01	-3.936929e+02
2.670000e-06	-1.877818e-06	-7.722636e-09	-1.351963e+01	-5.081174e+02
2.680000e-06	-1.972636e-06	-9.360258e-09	-1.420228e+01	-6.149861e+02
2.690000e-06	-2.066495e-06	-1.082645e-08	-1.487804e+01	-7.117364e+02
2.700000e-06	-2.159344e-06	-1.211039e-08	-1.554651e+01	-7.968283e+02
2.710000e-06	-2.251373e-06	-1.321480e-08	-1.620909e+01	-8.698156e+02
2.720000e-06	-2.342678e-06	-1.415488e-08	-1.686646e+01	-9.312466e+02
2.730000e-06	-2.433292e-06	-1.495304e-08	-1.751885e+01	-9.824247e+02
2.740000e-06	-2.523042e-06	-1.563123e-08	-1.816502e+01	-1.025089e+03
2.750000e-06	-2.611825e-06	-1.620768e-08	-1.880422e+01	-1.061078e+03
2.760000e-06	-2.699817e-06	-1.669902e-08	-1.943773e+01	-1.092054e+03
2.770000e-06	-2.787056e-06	-1.712377e-08	-2.006582e+01	-1.119310e+03
2.780000e-06	-2.873217e-06	-1.749461e-08	-2.068615e+01	-1.143707e+03
2.790000e-06	-2.958085e-06	-1.782157e-08	-2.129717e+01	-1.165714e+03
2.800000e-06	-3.041906e-06	-1.811200e-08	-2.190065e+01	-1.185517e+03
2.810000e-06	-3.124814e-06	-1.837077e-08	-2.249756e+01	-1.203179e+03
2.820000e-06	-3.206660e-06	-1.860335e-08	-2.308683e+01	-1.218765e+03
2.830000e-06	-3.287410e-06	-1.881377e-08	-2.366820e+01	-1.232439e+03
2.840000e-06	-3.367134e-06	-1.900607e-08	-2.424218e+01	-1.244486e+03
2.850000e-06	-3.445567e-06	-1.918350e-08	-2.480687e+01	-1.255284e+03
2.860000e-06	-3.522413e-06	-1.934749e-08	-2.536014e+01	-1.265230e+03
2.870000e-06	-3.597831e-06	-1.949904e-08	-2.590311e+01	-1.274659e+03
2.880000e-06	-3.671920e-06	-1.964020e-08	-2.643653e+01	-1.283783e+03
2.890000e-06	-3.744643e-06	-1.977205e-08	-2.696011e+01	-1.292660e+03
2.900000e-06	-3.816131e-06	-1.989560e-08	-2.747480e+01	-1.301214e+03
2.910000e-06	-3.886167e-06	-2.001131e-08	-2.797904e+01	-1.309293e+03
2.920000e-06	-3.954578e-06	-2.011940e-08	-2.847157e+01	-1.316734e+03
2.930000e-06	-4.021619e-06	-2.021881e-08	-2.895424e+01	-1.323435e+03
2.940000e-06	-4.087280e-06	-2.030996e-08	-2.942698e+01	-1.329396e+03
