# Temperatura_=_68.22
# Concentracion g/m^3_=_41000.0
# C_Vs_to_Am_M_A/Vsm_=_65563218390.804596
# pendiente_HvsI_1/m_=_3716.3
# ordenada_HvsI_A/m_=_1297.0
# frecuencia_Hz_=_301609.6975541868

Tiempo_(s)	Campo_(V.s)	Magnetizacion_(V.s)	Campo_(kA/m)	Magnetizacion_(A/m)
0.000000e+00	-5.357382e-06	-2.342552e-08	-3.834247e+01	-1.531764e+03
1.000000e-08	-5.354943e-06	-2.341933e-08	-3.832501e+01	-1.531590e+03
2.000000e-08	-5.350691e-06	-2.341388e-08	-3.829457e+01	-1.531506e+03
3.000000e-08	-5.344816e-06	-2.340656e-08	-3.825253e+01	-1.531428e+03
4.000000e-08	-5.337378e-06	-2.339575e-08	-3.819930e+01	-1.531235e+03
5.000000e-08	-5.328181e-06	-2.338427e-08	-3.813347e+01	-1.530810e+03
6.000000e-08	-5.316869e-06	-2.337178e-08	-3.805252e+01	-1.530071e+03
7.000000e-08	-5.303596e-06	-2.335966e-08	-3.795752e+01	-1.529003e+03
8.000000e-08	-5.288234e-06	-2.335257e-08	-3.784758e+01	-1.527659e+03
9.000000e-08	-5.270570e-06	-2.334277e-08	-3.772116e+01	-1.526145e+03
1.000000e-07	-5.250874e-06	-2.332269e-08	-3.758019e+01	-1.524586e+03
1.100000e-07	-5.229289e-06	-2.329167e-08	-3.742571e+01	-1.523093e+03
1.200000e-07	-5.206006e-06	-2.324817e-08	-3.725908e+01	-1.521725e+03
1.300000e-07	-5.181350e-06	-2.321667e-08	-3.708262e+01	-1.520476e+03
1.400000e-07	-5.155158e-06	-2.321283e-08	-3.689516e+01	-1.519280e+03
1.500000e-07	-5.127256e-06	-2.318518e-08	-3.669546e+01	-1.518028e+03
1.600000e-07	-5.097860e-06	-2.315075e-08	-3.648508e+01	-1.516607e+03
1.700000e-07	-5.066948e-06	-2.312542e-08	-3.626385e+01	-1.514932e+03
1.800000e-07	-5.033985e-06	-2.307686e-08	-3.602793e+01	-1.512972e+03
1.900000e-07	-4.999049e-06	-2.304845e-08	-3.577789e+01	-1.510757e+03
2.000000e-07	-4.962640e-06	-2.303668e-08	-3.551732e+01	-1.508363e+03
2.100000e-07	-4.924521e-06	-2.299325e-08	-3.524450e+01	-1.505888e+03
2.200000e-07	-4.884596e-06	-2.294359e-08	-3.495877e+01	-1.503412e+03
2.300000e-07	-4.842786e-06	-2.290194e-08	-3.465953e+01	-1.500971e+03
2.400000e-07	-4.799040e-06	-2.285249e-08	-3.434644e+01	-1.498544e+03
2.500000e-07	-4.753559e-06	-2.279790e-08	-3.402094e+01	-1.496052e+03
2.600000e-07	-4.706281e-06	-2.274550e-08	-3.368257e+01	-1.493384e+03
2.700000e-07	-4.656975e-06	-2.270869e-08	-3.332969e+01	-1.490430e+03
2.800000e-07	-4.605550e-06	-2.265739e-08	-3.296165e+01	-1.487115e+03
2.900000e-07	-4.552232e-06	-2.259883e-08	-3.258005e+01	-1.483423e+03
3.000000e-07	-4.497299e-06	-2.254999e-08	-3.218690e+01	-1.479404e+03
3.100000e-07	-4.440715e-06	-2.249499e-08	-3.178193e+01	-1.475159e+03
3.200000e-07	-4.382289e-06	-2.242708e-08	-3.136378e+01	-1.470807e+03
3.300000e-07	-4.322213e-06	-2.235157e-08	-3.093382e+01	-1.466454e+03
3.400000e-07	-4.260680e-06	-2.228100e-08	-3.049344e+01	-1.462153e+03
3.500000e-07	-4.197785e-06	-2.221497e-08	-3.004330e+01	-1.457891e+03
3.600000e-07	-4.133496e-06	-2.214607e-08	-2.958319e+01	-1.453594e+03
3.700000e-07	-4.067512e-06	-2.207536e-08	-2.911094e+01	-1.449144e+03
3.800000e-07	-3.999929e-06	-2.200272e-08	-2.862725e+01	-1.444419e+03
3.900000e-07	-3.930985e-06	-2.192467e-08	-2.813382e+01	-1.439331e+03
4.000000e-07	-3.860748e-06	-2.184161e-08	-2.763114e+01	-1.433850e+03
4.100000e-07	-3.789306e-06	-2.175440e-08	-2.711984e+01	-1.428017e+03
4.200000e-07	-3.716541e-06	-2.166775e-08	-2.659906e+01	-1.421928e+03
4.300000e-07	-3.642213e-06	-2.157541e-08	-2.606710e+01	-1.415702e+03
4.400000e-07	-3.566321e-06	-2.147957e-08	-2.552395e+01	-1.409447e+03
4.500000e-07	-3.489050e-06	-2.137894e-08	-2.497092e+01	-1.403218e+03
4.600000e-07	-3.410276e-06	-2.127908e-08	-2.440714e+01	-1.397000e+03
4.700000e-07	-3.330038e-06	-2.118245e-08	-2.383288e+01	-1.390710e+03
4.800000e-07	-3.248651e-06	-2.107755e-08	-2.325040e+01	-1.384219e+03
4.900000e-07	-3.166220e-06	-2.096867e-08	-2.266045e+01	-1.377391e+03
5.000000e-07	-3.082837e-06	-2.085885e-08	-2.206368e+01	-1.370125e+03
5.100000e-07	-2.998573e-06	-2.074362e-08	-2.146061e+01	-1.362381e+03
5.200000e-07	-2.913383e-06	-2.061745e-08	-2.085091e+01	-1.354198e+03
5.300000e-07	-2.827224e-06	-2.048871e-08	-2.023427e+01	-1.345673e+03
5.400000e-07	-2.740150e-06	-2.036221e-08	-1.961109e+01	-1.336932e+03
5.500000e-07	-2.652178e-06	-2.023068e-08	-1.898148e+01	-1.328084e+03
5.600000e-07	-2.563082e-06	-2.009042e-08	-1.834382e+01	-1.319183e+03
5.700000e-07	-2.472761e-06	-1.994664e-08	-1.769740e+01	-1.310201e+03
5.800000e-07	-2.381485e-06	-1.980321e-08	-1.704414e+01	-1.301033e+03
5.900000e-07	-2.289459e-06	-1.965332e-08	-1.638552e+01	-1.291524e+03
6.000000e-07	-2.196624e-06	-1.949262e-08	-1.572111e+01	-1.281510e+03
6.100000e-07	-2.102937e-06	-1.932426e-08	-1.505060e+01	-1.270870e+03
6.200000e-07	-2.008548e-06	-1.915223e-08	-1.437506e+01	-1.259559e+03
6.300000e-07	-1.913548e-06	-1.897376e-08	-1.369515e+01	-1.247623e+03
6.400000e-07	-1.817987e-06	-1.878912e-08	-1.301123e+01	-1.235180e+03
6.500000e-07	-1.721734e-06	-1.859964e-08	-1.232235e+01	-1.222380e+03
6.600000e-07	-1.624610e-06	-1.840414e-08	-1.162724e+01	-1.209348e+03
6.700000e-07	-1.526703e-06	-1.820018e-08	-1.092652e+01	-1.196135e+03
6.800000e-07	-1.428170e-06	-1.798671e-08	-1.022133e+01	-1.182688e+03
6.900000e-07	-1.329154e-06	-1.776533e-08	-9.512673e+00	-1.168853e+03
7.000000e-07	-1.229724e-06	-1.753585e-08	-8.801064e+00	-1.154407e+03
7.100000e-07	-1.130011e-06	-1.729664e-08	-8.087420e+00	-1.139116e+03
7.200000e-07	-1.030048e-06	-1.704648e-08	-7.371991e+00	-1.122798e+03
7.300000e-07	-9.297517e-07	-1.678669e-08	-6.654178e+00	-1.105374e+03
7.400000e-07	-8.291086e-07	-1.651637e-08	-5.933881e+00	-1.086881e+03
7.500000e-07	-7.281492e-07	-1.623383e-08	-5.211320e+00	-1.067451e+03
7.600000e-07	-6.269366e-07	-1.593328e-08	-4.486948e+00	-1.047251e+03
7.700000e-07	-5.255305e-07	-1.561489e-08	-3.761191e+00	-1.026403e+03
7.800000e-07	-4.240011e-07	-1.528019e-08	-3.034550e+00	-1.004914e+03
7.900000e-07	-3.223727e-07	-1.492811e-08	-2.307202e+00	-9.826266e+02
8.000000e-07	-2.205604e-07	-1.455874e-08	-1.578538e+00	-9.592192e+02
8.100000e-07	-1.186191e-07	-1.416585e-08	-8.489497e-01	-9.342589e+02
8.200000e-07	-1.664004e-08	-1.374742e-08	-1.190918e-01	-9.072874e+02
8.300000e-07	8.539749e-08	-1.330180e-08	6.111847e-01	-8.779206e+02
8.400000e-07	1.874258e-07	-1.282320e-08	1.341395e+00	-8.459259e+02
8.500000e-07	2.893572e-07	-1.230989e-08	2.070912e+00	-8.112467e+02
8.600000e-07	3.911997e-07	-1.175910e-08	2.799793e+00	-7.739553e+02
8.700000e-07	4.929557e-07	-1.116581e-08	3.528055e+00	-7.341360e+02
8.800000e-07	5.945513e-07	-1.052110e-08	4.255168e+00	-6.917213e+02
8.900000e-07	6.959425e-07	-9.815503e-09	4.980819e+00	-6.463240e+02
9.000000e-07	7.971154e-07	-9.040848e-09	5.704907e+00	-5.971158e+02
9.100000e-07	8.980216e-07	-8.185764e-09	6.427087e+00	-5.428006e+02
9.200000e-07	9.986122e-07	-7.235946e-09	7.147008e+00	-4.817119e+02
9.300000e-07	1.098858e-06	-6.170484e-09	7.864460e+00	-4.120375e+02
9.400000e-07	1.198746e-06	-4.965911e-09	8.579352e+00	-3.321421e+02
9.500000e-07	1.298290e-06	-3.599892e-09	9.291783e+00	-2.409316e+02
9.600000e-07	1.397487e-06	-2.057634e-09	1.000173e+01	-1.381859e+02
9.700000e-07	1.496222e-06	-3.401058e-10	1.070837e+01	-2.478570e+01
9.800000e-07	1.594201e-06	1.530545e-09	1.140960e+01	9.722435e+01
9.900000e-07	1.691290e-06	3.505420e-09	1.210446e+01	2.247628e+02
1.000000e-06	1.787551e-06	5.510985e-09	1.279340e+01	3.540178e+02
1.010000e-06	1.883123e-06	7.466161e-09	1.347740e+01	4.808839e+02
1.020000e-06	1.978104e-06	9.299504e-09	1.415718e+01	6.014535e+02
1.030000e-06	2.072428e-06	1.096170e-08	1.483224e+01	7.124743e+02
1.040000e-06	2.166036e-06	1.243038e-08	1.550219e+01	8.116919e+02
1.050000e-06	2.258938e-06	1.370545e-08	1.616708e+01	8.980227e+02
1.060000e-06	2.351144e-06	1.479942e-08	1.682700e+01	9.715344e+02
1.070000e-06	2.442600e-06	1.573358e-08	1.748154e+01	1.033254e+03
1.080000e-06	2.533229e-06	1.652786e-08	1.813017e+01	1.084855e+03
1.090000e-06	2.622847e-06	1.720411e-08	1.877156e+01	1.128288e+03
1.100000e-06	2.711279e-06	1.778527e-08	1.940446e+01	1.165448e+03
1.110000e-06	2.798673e-06	1.828604e-08	2.002994e+01	1.197912e+03
1.120000e-06	2.885158e-06	1.872040e-08	2.064890e+01	1.226810e+03
1.130000e-06	2.970704e-06	1.910332e-08	2.126115e+01	1.252815e+03
1.140000e-06	3.055328e-06	1.944332e-08	2.186680e+01	1.276239e+03
1.150000e-06	3.139020e-06	1.974668e-08	2.246578e+01	1.297187e+03
1.160000e-06	3.221755e-06	2.001994e-08	2.305791e+01	1.315715e+03
1.170000e-06	3.303322e-06	2.026671e-08	2.364168e+01	1.331955e+03
1.180000e-06	3.383600e-06	2.048812e-08	2.421622e+01	1.346177e+03
1.190000e-06	3.462679e-06	2.068771e-08	2.478218e+01	1.358775e+03
1.200000e-06	3.540537e-06	2.087245e-08	2.533941e+01	1.370206e+03
1.210000e-06	3.617134e-06	2.104594e-08	2.588761e+01	1.380898e+03
1.220000e-06	3.692363e-06	2.120837e-08	2.642602e+01	1.391161e+03
1.230000e-06	3.766022e-06	2.135846e-08	2.695319e+01	1.401142e+03
1.240000e-06	3.838108e-06	2.149739e-08	2.746911e+01	1.410819e+03
1.250000e-06	3.908782e-06	2.162681e-08	2.797492e+01	1.420045e+03
1.260000e-06	3.978092e-06	2.174808e-08	2.847097e+01	1.428627e+03
1.270000e-06	4.046069e-06	2.186004e-08	2.895747e+01	1.436401e+03
1.280000e-06	4.112685e-06	2.196385e-08	2.943424e+01	1.443306e+03
1.290000e-06	4.177677e-06	2.206048e-08	2.989939e+01	1.449404e+03
1.300000e-06	4.241034e-06	2.215113e-08	3.035283e+01	1.454873e+03
1.310000e-06	4.302938e-06	2.223628e-08	3.079587e+01	1.459954e+03
1.320000e-06	4.363446e-06	2.231615e-08	3.122892e+01	1.464887e+03
1.330000e-06	4.422559e-06	2.239390e-08	3.165199e+01	1.469845e+03
1.340000e-06	4.480037e-06	2.247038e-08	3.206335e+01	1.474895e+03
1.350000e-06	4.535719e-06	2.254504e-08	3.246187e+01	1.479985e+03
1.360000e-06	4.589678e-06	2.261580e-08	3.284805e+01	1.484976e+03
1.370000e-06	4.641916e-06	2.268008e-08	3.322191e+01	1.489691e+03
1.380000e-06	4.692221e-06	2.273827e-08	3.358195e+01	1.493974e+03
1.390000e-06	4.740564e-06	2.279324e-08	3.392794e+01	1.497741e+03
1.400000e-06	4.787231e-06	2.284491e-08	3.426193e+01	1.501006e+03
1.410000e-06	4.832359e-06	2.289382e-08	3.458491e+01	1.503872e+03
1.420000e-06	4.875895e-06	2.293996e-08	3.489649e+01	1.506500e+03
1.430000e-06	4.917600e-06	2.298397e-08	3.519497e+01	1.509054e+03
1.440000e-06	4.957442e-06	2.302692e-08	3.548011e+01	1.511659e+03
1.450000e-06	4.995594e-06	2.306736e-08	3.575317e+01	1.514359e+03
1.460000e-06	5.032138e-06	2.310520e-08	3.601471e+01	1.517109e+03
1.470000e-06	5.066995e-06	2.313919e-08	3.626418e+01	1.519798e+03
1.480000e-06	5.099924e-06	2.316760e-08	3.649985e+01	1.522284e+03
1.490000e-06	5.130989e-06	2.319054e-08	3.672218e+01	1.524440e+03
1.500000e-06	5.160376e-06	2.321313e-08	3.693251e+01	1.526199e+03
1.510000e-06	5.188133e-06	2.323714e-08	3.713116e+01	1.527572e+03
1.520000e-06	5.213997e-06	2.326029e-08	3.731627e+01	1.528645e+03
1.530000e-06	5.237767e-06	2.328237e-08	3.748639e+01	1.529552e+03
1.540000e-06	5.259638e-06	2.330272e-08	3.764292e+01	1.530434e+03
1.550000e-06	5.279824e-06	2.331994e-08	3.778739e+01	1.531394e+03
1.560000e-06	5.298257e-06	2.333339e-08	3.791931e+01	1.532470e+03
1.570000e-06	5.314727e-06	2.334550e-08	3.803718e+01	1.533623e+03
1.580000e-06	5.329196e-06	2.335816e-08	3.814074e+01	1.534753e+03
1.590000e-06	5.341650e-06	2.336875e-08	3.822987e+01	1.535731e+03
1.600000e-06	5.351859e-06	2.337688e-08	3.830294e+01	1.536444e+03
1.610000e-06	5.359910e-06	2.338343e-08	3.836056e+01	1.536826e+03
1.620000e-06	5.366158e-06	2.338870e-08	3.840527e+01	1.536881e+03
1.630000e-06	5.370647e-06	2.339301e-08	3.843740e+01	1.536683e+03
1.640000e-06	5.373235e-06	2.339514e-08	3.845592e+01	1.536348e+03
1.650000e-06	5.373805e-06	2.339504e-08	3.846000e+01	1.536001e+03
1.660000e-06	5.372550e-06	2.339427e-08	3.845102e+01	1.535735e+03
1.670000e-06	5.369651e-06	2.339299e-08	3.843027e+01	1.535583e+03
1.680000e-06	5.365099e-06	2.338974e-08	3.839770e+01	1.535509e+03
1.690000e-06	5.358671e-06	2.338470e-08	3.835169e+01	1.535416e+03
1.700000e-06	5.350351e-06	2.337599e-08	3.829215e+01	1.535182e+03
1.710000e-06	5.340449e-06	2.336469e-08	3.822128e+01	1.534693e+03
1.720000e-06	5.328927e-06	2.335034e-08	3.813882e+01	1.533882e+03
1.730000e-06	5.315477e-06	2.333176e-08	3.804255e+01	1.532748e+03
1.740000e-06	5.299977e-06	2.330651e-08	3.793162e+01	1.531357e+03
1.750000e-06	5.282260e-06	2.328390e-08	3.780482e+01	1.529822e+03
1.760000e-06	5.262021e-06	2.327422e-08	3.765997e+01	1.528268e+03
1.770000e-06	5.239346e-06	2.327376e-08	3.749768e+01	1.526798e+03
1.780000e-06	5.215099e-06	2.326172e-08	3.732415e+01	1.525458e+03
1.790000e-06	5.190130e-06	2.322613e-08	3.714545e+01	1.524228e+03
1.800000e-06	5.163894e-06	2.319428e-08	3.695768e+01	1.523028e+03
1.810000e-06	5.135581e-06	2.316576e-08	3.675505e+01	1.521748e+03
1.820000e-06	5.105437e-06	2.315873e-08	3.653931e+01	1.520278e+03
1.830000e-06	5.073543e-06	2.314389e-08	3.631104e+01	1.518541e+03
1.840000e-06	5.039711e-06	2.308677e-08	3.606891e+01	1.516522e+03
1.850000e-06	5.004283e-06	2.305756e-08	3.581535e+01	1.514260e+03
1.860000e-06	4.967092e-06	2.305663e-08	3.554918e+01	1.511840e+03
1.870000e-06	4.927934e-06	2.302163e-08	3.526893e+01	1.509358e+03
1.880000e-06	4.887151e-06	2.296791e-08	3.497705e+01	1.506888e+03
1.890000e-06	4.844615e-06	2.293362e-08	3.467262e+01	1.504454e+03
1.900000e-06	4.800396e-06	2.291537e-08	3.435615e+01	1.502020e+03
1.910000e-06	4.754478e-06	2.287855e-08	3.402752e+01	1.499499e+03
1.920000e-06	4.706618e-06	2.281602e-08	3.368498e+01	1.496778e+03
1.930000e-06	4.657082e-06	2.277413e-08	3.333046e+01	1.493750e+03
1.940000e-06	4.605749e-06	2.273370e-08	3.296307e+01	1.490353e+03
1.950000e-06	4.552305e-06	2.266565e-08	3.258058e+01	1.486584e+03
1.960000e-06	4.497004e-06	2.260249e-08	3.218479e+01	1.482506e+03
1.970000e-06	4.440047e-06	2.255815e-08	3.177715e+01	1.478227e+03
1.980000e-06	4.381484e-06	2.250637e-08	3.135802e+01	1.473867e+03
1.990000e-06	4.321505e-06	2.243082e-08	3.092875e+01	1.469522e+03
2.000000e-06	4.260069e-06	2.235491e-08	3.048906e+01	1.465232e+03
2.010000e-06	4.196889e-06	2.229781e-08	3.003688e+01	1.460970e+03
2.020000e-06	4.132033e-06	2.223061e-08	2.957271e+01	1.456650e+03
2.030000e-06	4.065807e-06	2.214350e-08	2.909873e+01	1.452150e+03
2.040000e-06	3.998275e-06	2.206508e-08	2.861542e+01	1.447352e+03
2.050000e-06	3.929291e-06	2.199948e-08	2.812170e+01	1.442179e+03
2.060000e-06	3.858656e-06	2.192257e-08	2.761617e+01	1.436617e+03
2.070000e-06	3.786599e-06	2.182798e-08	2.710046e+01	1.430719e+03
2.080000e-06	3.713366e-06	2.173962e-08	2.657634e+01	1.424589e+03
2.090000e-06	3.638793e-06	2.166005e-08	2.604262e+01	1.418349e+03
2.100000e-06	3.562809e-06	2.157044e-08	2.549881e+01	1.412097e+03
2.110000e-06	3.485311e-06	2.146405e-08	2.494416e+01	1.405873e+03
2.120000e-06	3.406307e-06	2.136105e-08	2.437873e+01	1.399648e+03
2.130000e-06	3.326086e-06	2.126822e-08	2.380460e+01	1.393326e+03
2.140000e-06	3.244804e-06	2.116390e-08	2.322287e+01	1.386773e+03
2.150000e-06	3.162407e-06	2.104587e-08	2.263316e+01	1.379857e+03
2.160000e-06	3.078939e-06	2.093315e-08	2.203578e+01	1.372488e+03
2.170000e-06	2.994532e-06	2.083025e-08	2.143169e+01	1.364644e+03
2.180000e-06	2.908898e-06	2.071511e-08	2.081881e+01	1.356377e+03
2.190000e-06	2.821904e-06	2.058436e-08	2.019620e+01	1.347794e+03
2.200000e-06	2.733890e-06	2.045383e-08	1.956629e+01	1.339022e+03
2.210000e-06	2.644972e-06	2.032715e-08	1.892991e+01	1.330160e+03
2.220000e-06	2.555104e-06	2.019095e-08	1.828672e+01	1.321246e+03
2.230000e-06	2.464351e-06	2.004244e-08	1.763721e+01	1.312235e+03
2.240000e-06	2.372877e-06	1.989528e-08	1.698254e+01	1.303007e+03
2.250000e-06	2.280782e-06	1.974702e-08	1.632342e+01	1.293402e+03
2.260000e-06	2.187854e-06	1.959099e-08	1.565834e+01	1.283261e+03
2.270000e-06	2.093814e-06	1.942868e-08	1.498530e+01	1.272477e+03
2.280000e-06	1.998797e-06	1.926380e-08	1.430527e+01	1.261025e+03
2.290000e-06	1.903110e-06	1.909335e-08	1.362045e+01	1.248968e+03
2.300000e-06	1.806850e-06	1.891096e-08	1.293152e+01	1.236436e+03
2.310000e-06	1.710021e-06	1.871696e-08	1.223852e+01	1.223576e+03
2.320000e-06	1.612638e-06	1.851798e-08	1.154155e+01	1.210503e+03
2.330000e-06	1.514721e-06	1.831551e-08	1.084077e+01	1.197248e+03
2.340000e-06	1.416314e-06	1.810474e-08	1.013647e+01	1.183733e+03
2.350000e-06	1.317433e-06	1.788444e-08	9.428790e+00	1.169787e+03
2.360000e-06	1.218154e-06	1.765359e-08	8.718253e+00	1.155178e+03
2.370000e-06	1.118630e-06	1.741284e-08	8.005970e+00	1.139678e+03
2.380000e-06	1.018931e-06	1.716198e-08	7.292429e+00	1.123125e+03
2.390000e-06	9.190371e-07	1.689730e-08	6.577494e+00	1.105465e+03
2.400000e-06	8.188192e-07	1.662028e-08	5.860241e+00	1.086757e+03
2.410000e-06	7.183009e-07	1.633318e-08	5.140837e+00	1.067147e+03
2.420000e-06	6.175049e-07	1.603209e-08	4.419446e+00	1.046800e+03
2.430000e-06	5.163866e-07	1.571380e-08	3.695748e+00	1.025819e+03
2.440000e-06	4.150452e-07	1.537740e-08	2.970454e+00	1.004178e+03
2.450000e-06	3.134462e-07	1.502289e-08	2.243316e+00	9.816810e+02
2.460000e-06	2.115846e-07	1.464981e-08	1.514298e+00	9.579790e+02
2.470000e-06	1.095429e-07	1.425407e-08	7.839917e-01	9.326245e+02
2.480000e-06	7.373914e-09	1.383406e-08	5.277466e-02	9.051671e+02
2.490000e-06	-9.478576e-08	1.338506e-08	-6.783760e-01	8.752500e+02
2.500000e-06	-1.968125e-07	1.289955e-08	-1.408575e+00	8.426785e+02
2.510000e-06	-2.987437e-07	1.237417e-08	-2.138091e+00	8.074302e+02
2.520000e-06	-4.005494e-07	1.180854e-08	-2.866708e+00	7.695918e+02
2.530000e-06	-5.021940e-07	1.120212e-08	-3.594173e+00	7.292298e+02
2.540000e-06	-6.036372e-07	1.054772e-08	-4.320196e+00	6.862216e+02
2.550000e-06	-7.047534e-07	9.832241e-09	-5.043878e+00	6.400929e+02
2.560000e-06	-8.055105e-07	9.045528e-09	-5.764990e+00	5.899138e+02
2.570000e-06	-9.059518e-07	8.176222e-09	-6.483843e+00	5.342959e+02
2.580000e-06	-1.006097e-06	7.206953e-09	-7.200577e+00	4.715186e+02
2.590000e-06	-1.105942e-06	6.118626e-09	-7.915164e+00	3.997781e+02
2.600000e-06	-1.205461e-06	4.889254e-09	-8.627411e+00	3.175242e+02
2.610000e-06	-1.304592e-06	3.497061e-09	-9.336884e+00	2.238247e+02
2.620000e-06	-1.403231e-06	1.928972e-09	-1.004284e+01	1.186811e+02
2.630000e-06	-1.501382e-06	1.872822e-10	-1.074530e+01	3.224576e+00
2.640000e-06	-1.599077e-06	-1.703883e-09	-1.144450e+01	-1.202609e+02
2.650000e-06	-1.696218e-06	-3.692920e-09	-1.213973e+01	-2.485060e+02
2.660000e-06	-1.792718e-06	-5.706924e-09	-1.283037e+01	-3.775962e+02
2.670000e-06	-1.888653e-06	-7.662130e-09	-1.351698e+01	-5.034268e+02
2.680000e-06	-1.984086e-06	-9.484484e-09	-1.419998e+01	-6.221950e+02
2.690000e-06	-2.078803e-06	-1.113071e-08	-1.487787e+01	-7.308384e+02
2.700000e-06	-2.172468e-06	-1.258377e-08	-1.554823e+01	-8.273456e+02
2.710000e-06	-2.265047e-06	-1.384224e-08	-1.621081e+01	-9.108878e+02
2.720000e-06	-2.356814e-06	-1.492135e-08	-1.686758e+01	-9.817597e+02
2.730000e-06	-2.447880e-06	-1.584338e-08	-1.751933e+01	-1.041156e+03
2.740000e-06	-2.538098e-06	-1.662888e-08	-1.816501e+01	-1.090840e+03
2.750000e-06	-2.627365e-06	-1.729961e-08	-1.880389e+01	-1.132778e+03
2.760000e-06	-2.715766e-06	-1.787646e-08	-1.943657e+01	-1.168814e+03
2.770000e-06	-2.803425e-06	-1.837408e-08	-2.006395e+01	-1.200435e+03
2.780000e-06	-2.890170e-06	-1.880411e-08	-2.068478e+01	-1.228671e+03
2.790000e-06	-2.975658e-06	-1.918080e-08	-2.129661e+01	-1.254107e+03
2.800000e-06	-3.059921e-06	-1.951447e-08	-2.189967e+01	-1.276997e+03
2.810000e-06	-3.143175e-06	-1.981357e-08	-2.249552e+01	-1.297421e+03
2.820000e-06	-3.225468e-06	-2.008213e-08	-2.308448e+01	-1.315444e+03
2.830000e-06	-3.306721e-06	-2.032426e-08	-2.366601e+01	-1.331225e+03
2.840000e-06	-3.386871e-06	-2.054545e-08	-2.423964e+01	-1.345063e+03
2.850000e-06	-3.465762e-06	-2.074722e-08	-2.480425e+01	-1.357372e+03
2.860000e-06	-3.543138e-06	-2.093197e-08	-2.535803e+01	-1.368613e+03
2.870000e-06	-3.619010e-06	-2.110231e-08	-2.590104e+01	-1.379192e+03
2.880000e-06	-3.693477e-06	-2.125937e-08	-2.643400e+01	-1.389389e+03
2.890000e-06	-3.766612e-06	-2.140573e-08	-2.695742e+01	-1.399313e+03
2.900000e-06	-3.838523e-06	-2.154310e-08	-2.747208e+01	-1.408909e+03
2.910000e-06	-3.909018e-06	-2.167330e-08	-2.797661e+01	-1.418015e+03
2.920000e-06	-3.977878e-06	-2.179702e-08	-2.846944e+01	-1.426435e+03
2.930000e-06	-4.045302e-06	-2.191084e-08	-2.895199e+01	-1.434025e+03
2.940000e-06	-4.111404e-06	-2.201447e-08	-2.942507e+01	-1.440748e+03
