# Temperatura_=_40.87
# Concentracion g/m^3_=_41000.0
# C_Vs_to_Am_M_A/Vsm_=_65563218390.804596
# pendiente_HvsI_1/m_=_3716.3
# ordenada_HvsI_A/m_=_1297.0
# frecuencia_Hz_=_301611.5939158347

Tiempo_(s)	Campo_(V.s)	Magnetizacion_(V.s)	Campo_(kA/m)	Magnetizacion_(A/m)
0.000000e+00	-5.314978e-06	-2.369824e-08	-3.834392e+01	-1.550144e+03
1.000000e-08	-5.312381e-06	-2.369419e-08	-3.832518e+01	-1.549717e+03
2.000000e-08	-5.308051e-06	-2.368895e-08	-3.829394e+01	-1.549341e+03
3.000000e-08	-5.302131e-06	-2.368208e-08	-3.825123e+01	-1.549025e+03
4.000000e-08	-5.294635e-06	-2.367097e-08	-3.819715e+01	-1.548721e+03
5.000000e-08	-5.285338e-06	-2.365611e-08	-3.813008e+01	-1.548342e+03
6.000000e-08	-5.273974e-06	-2.364052e-08	-3.804810e+01	-1.547789e+03
7.000000e-08	-5.260741e-06	-2.362152e-08	-3.795263e+01	-1.546984e+03
8.000000e-08	-5.245368e-06	-2.361973e-08	-3.784173e+01	-1.545891e+03
9.000000e-08	-5.227670e-06	-2.363160e-08	-3.771405e+01	-1.544536e+03
1.000000e-07	-5.208026e-06	-2.360301e-08	-3.757233e+01	-1.542994e+03
1.100000e-07	-5.186550e-06	-2.356304e-08	-3.741739e+01	-1.541372e+03
1.200000e-07	-5.163408e-06	-2.351429e-08	-3.725044e+01	-1.539775e+03
1.300000e-07	-5.138971e-06	-2.344391e-08	-3.707415e+01	-1.538272e+03
1.400000e-07	-5.112971e-06	-2.349690e-08	-3.688657e+01	-1.536881e+03
1.500000e-07	-5.085168e-06	-2.348680e-08	-3.668599e+01	-1.535557e+03
1.600000e-07	-5.055898e-06	-2.338620e-08	-3.647483e+01	-1.534206e+03
1.700000e-07	-5.025150e-06	-2.344077e-08	-3.625301e+01	-1.532717e+03
1.800000e-07	-4.992356e-06	-2.338633e-08	-3.601642e+01	-1.530987e+03
1.900000e-07	-4.957555e-06	-2.326950e-08	-3.576536e+01	-1.528955e+03
2.000000e-07	-4.921288e-06	-2.330720e-08	-3.550371e+01	-1.526618e+03
2.100000e-07	-4.883338e-06	-2.324420e-08	-3.522993e+01	-1.524026e+03
2.200000e-07	-4.843631e-06	-2.316190e-08	-3.494347e+01	-1.521266e+03
2.300000e-07	-4.802035e-06	-2.318356e-08	-3.464338e+01	-1.518434e+03
2.400000e-07	-4.758426e-06	-2.314187e-08	-3.432877e+01	-1.515600e+03
2.500000e-07	-4.713125e-06	-2.308921e-08	-3.400196e+01	-1.512788e+03
2.600000e-07	-4.666083e-06	-2.302406e-08	-3.366258e+01	-1.509969e+03
2.700000e-07	-4.617053e-06	-2.294832e-08	-3.330887e+01	-1.507066e+03
2.800000e-07	-4.565885e-06	-2.291441e-08	-3.293973e+01	-1.503984e+03
2.900000e-07	-4.512804e-06	-2.288518e-08	-3.255678e+01	-1.500634e+03
3.000000e-07	-4.458163e-06	-2.284476e-08	-3.216258e+01	-1.496967e+03
3.100000e-07	-4.401882e-06	-2.277580e-08	-3.175655e+01	-1.492989e+03
3.200000e-07	-4.343776e-06	-2.269480e-08	-3.133736e+01	-1.488756e+03
3.300000e-07	-4.284115e-06	-2.262214e-08	-3.090695e+01	-1.484360e+03
3.400000e-07	-4.223024e-06	-2.255345e-08	-3.046622e+01	-1.479900e+03
3.500000e-07	-4.160462e-06	-2.250353e-08	-3.001487e+01	-1.475447e+03
3.600000e-07	-4.096590e-06	-2.244086e-08	-2.955408e+01	-1.471024e+03
3.700000e-07	-4.031188e-06	-2.236299e-08	-2.908225e+01	-1.466596e+03
3.800000e-07	-3.964044e-06	-2.228066e-08	-2.859785e+01	-1.462079e+03
3.900000e-07	-3.895468e-06	-2.219007e-08	-2.810313e+01	-1.457364e+03
4.000000e-07	-3.825689e-06	-2.212107e-08	-2.759972e+01	-1.452354e+03
4.100000e-07	-3.754688e-06	-2.204719e-08	-2.708749e+01	-1.446987e+03
4.200000e-07	-3.682516e-06	-2.196648e-08	-2.656683e+01	-1.441262e+03
4.300000e-07	-3.608862e-06	-2.187936e-08	-2.603546e+01	-1.435231e+03
4.400000e-07	-3.533491e-06	-2.178702e-08	-2.549171e+01	-1.428987e+03
4.500000e-07	-3.456725e-06	-2.168984e-08	-2.493789e+01	-1.422630e+03
4.600000e-07	-3.378625e-06	-2.158834e-08	-2.437446e+01	-1.416234e+03
4.700000e-07	-3.299102e-06	-2.149301e-08	-2.380075e+01	-1.409820e+03
4.800000e-07	-3.218299e-06	-2.139030e-08	-2.321782e+01	-1.403347e+03
4.900000e-07	-3.136388e-06	-2.128472e-08	-2.262688e+01	-1.396720e+03
5.000000e-07	-3.053448e-06	-2.117814e-08	-2.202853e+01	-1.389818e+03
5.100000e-07	-2.969635e-06	-2.106118e-08	-2.142388e+01	-1.382528e+03
5.200000e-07	-2.884968e-06	-2.093316e-08	-2.081306e+01	-1.374781e+03
5.300000e-07	-2.799338e-06	-2.080806e-08	-2.019530e+01	-1.366572e+03
5.400000e-07	-2.712780e-06	-2.068643e-08	-1.957084e+01	-1.357959e+03
5.500000e-07	-2.625382e-06	-2.055783e-08	-1.894033e+01	-1.349044e+03
5.600000e-07	-2.537012e-06	-2.041728e-08	-1.830280e+01	-1.339940e+03
5.700000e-07	-2.447484e-06	-2.027152e-08	-1.765692e+01	-1.330728e+03
5.800000e-07	-2.356884e-06	-2.012470e-08	-1.700330e+01	-1.321429e+03
5.900000e-07	-2.265407e-06	-1.997424e-08	-1.634336e+01	-1.311988e+03
6.000000e-07	-2.173184e-06	-1.982039e-08	-1.567803e+01	-1.302288e+03
6.100000e-07	-2.080234e-06	-1.966229e-08	-1.500746e+01	-1.292176e+03
6.200000e-07	-1.986461e-06	-1.949821e-08	-1.433095e+01	-1.281511e+03
6.300000e-07	-1.891938e-06	-1.932276e-08	-1.364904e+01	-1.270201e+03
6.400000e-07	-1.796909e-06	-1.913815e-08	-1.296346e+01	-1.258231e+03
6.500000e-07	-1.701362e-06	-1.894852e-08	-1.227416e+01	-1.245665e+03
6.600000e-07	-1.605197e-06	-1.875413e-08	-1.158040e+01	-1.232621e+03
6.700000e-07	-1.508352e-06	-1.855619e-08	-1.088172e+01	-1.219233e+03
6.800000e-07	-1.410774e-06	-1.835170e-08	-1.017776e+01	-1.205594e+03
6.900000e-07	-1.312496e-06	-1.813802e-08	-9.468759e+00	-1.191723e+03
7.000000e-07	-1.213665e-06	-1.791449e-08	-8.755762e+00	-1.177542e+03
7.100000e-07	-1.114466e-06	-1.768026e-08	-8.040106e+00	-1.162886e+03
7.200000e-07	-1.015004e-06	-1.743622e-08	-7.322559e+00	-1.147544e+03
7.300000e-07	-9.153054e-07	-1.718577e-08	-6.603300e+00	-1.131311e+03
7.400000e-07	-8.153411e-07	-1.692706e-08	-5.882126e+00	-1.114044e+03
7.500000e-07	-7.151313e-07	-1.665467e-08	-5.159181e+00	-1.095693e+03
7.600000e-07	-6.147593e-07	-1.636353e-08	-4.435066e+00	-1.076311e+03
7.700000e-07	-5.142491e-07	-1.605734e-08	-3.709954e+00	-1.056019e+03
7.800000e-07	-4.135423e-07	-1.574039e-08	-2.983423e+00	-1.034953e+03
7.900000e-07	-3.126692e-07	-1.541055e-08	-2.255694e+00	-1.013187e+03
8.000000e-07	-2.116877e-07	-1.506607e-08	-1.527181e+00	-9.906824e+02
8.100000e-07	-1.106233e-07	-1.470025e-08	-7.980708e-01	-9.672518e+02
8.200000e-07	-9.533289e-09	-1.430995e-08	-6.877613e-02	-9.425771e+02
8.300000e-07	9.159966e-08	-1.389573e-08	6.608287e-01	-9.162617e+02
8.400000e-07	1.927145e-07	-1.345998e-08	1.390303e+00	-8.879120e+02
8.500000e-07	2.937626e-07	-1.299860e-08	2.119296e+00	-8.572192e+02
8.600000e-07	3.947816e-07	-1.250492e-08	2.848078e+00	-8.240135e+02
8.700000e-07	4.956736e-07	-1.197540e-08	3.575945e+00	-7.882662e+02
8.800000e-07	5.963884e-07	-1.140511e-08	4.302532e+00	-7.500279e+02
8.900000e-07	6.969413e-07	-1.079075e-08	5.027953e+00	-7.093119e+02
9.000000e-07	7.972971e-07	-1.012532e-08	5.751951e+00	-6.659469e+02
9.100000e-07	8.974156e-07	-9.402585e-09	6.474237e+00	-6.194396e+02
9.200000e-07	9.972948e-07	-8.610211e-09	7.194797e+00	-5.688934e+02
9.300000e-07	1.096919e-06	-7.734965e-09	7.913516e+00	-5.130179e+02
9.400000e-07	1.196233e-06	-6.764251e-09	8.629997e+00	-4.502513e+02
9.500000e-07	1.295111e-06	-5.678719e-09	9.343336e+00	-3.789880e+02
9.600000e-07	1.393376e-06	-4.455636e-09	1.005225e+01	-2.978792e+02
9.700000e-07	1.490915e-06	-3.076624e-09	1.075592e+01	-2.061511e+02
9.800000e-07	1.587717e-06	-1.534967e-09	1.145429e+01	-1.038761e+02
9.900000e-07	1.683878e-06	1.636319e-10	1.214802e+01	7.865267e+00
1.000000e-06	1.779446e-06	1.994259e-09	1.283748e+01	1.269739e+02
1.010000e-06	1.874394e-06	3.907667e-09	1.352247e+01	2.504888e+02
1.020000e-06	1.968704e-06	5.833312e-09	1.420285e+01	3.748899e+02
1.030000e-06	2.062333e-06	7.699486e-09	1.487832e+01	4.964990e+02
1.040000e-06	2.155226e-06	9.447973e-09	1.554848e+01	6.119065e+02
1.050000e-06	2.247416e-06	1.104023e-08	1.621356e+01	7.183509e+02
1.060000e-06	2.339023e-06	1.245994e-08	1.687445e+01	8.139841e+02
1.070000e-06	2.429832e-06	1.370787e-08	1.752957e+01	8.979834e+02
1.080000e-06	2.519467e-06	1.479394e-08	1.817622e+01	9.704995e+02
1.090000e-06	2.607970e-06	1.573389e-08	1.881471e+01	1.032466e+03
1.100000e-06	2.695621e-06	1.654792e-08	1.944705e+01	1.085319e+03
1.110000e-06	2.782434e-06	1.725148e-08	2.007335e+01	1.130689e+03
1.120000e-06	2.868305e-06	1.786065e-08	2.069285e+01	1.170125e+03
1.130000e-06	2.953180e-06	1.839279e-08	2.130516e+01	1.204902e+03
1.140000e-06	3.037146e-06	1.885923e-08	2.191093e+01	1.235932e+03
1.150000e-06	3.120276e-06	1.926968e-08	2.251065e+01	1.263776e+03
1.160000e-06	3.202313e-06	1.963437e-08	2.310249e+01	1.288731e+03
1.170000e-06	3.283065e-06	1.996157e-08	2.368506e+01	1.310960e+03
1.180000e-06	3.362523e-06	2.025253e-08	2.425829e+01	1.330611e+03
1.190000e-06	3.440767e-06	2.051182e-08	2.482277e+01	1.347907e+03
1.200000e-06	3.517840e-06	2.074692e-08	2.537880e+01	1.363175e+03
1.210000e-06	3.593724e-06	2.096484e-08	2.592625e+01	1.376822e+03
1.220000e-06	3.668246e-06	2.116728e-08	2.646388e+01	1.389273e+03
1.230000e-06	3.741156e-06	2.135149e-08	2.698987e+01	1.400898e+03
1.240000e-06	3.812564e-06	2.151958e-08	2.750503e+01	1.411948e+03
1.250000e-06	3.882604e-06	2.167559e-08	2.801032e+01	1.422529e+03
1.260000e-06	3.951303e-06	2.182146e-08	2.850594e+01	1.432609e+03
1.270000e-06	4.018719e-06	2.195668e-08	2.899230e+01	1.442071e+03
1.280000e-06	4.084567e-06	2.208179e-08	2.946735e+01	1.450776e+03
1.290000e-06	4.148714e-06	2.219951e-08	2.993012e+01	1.458628e+03
1.300000e-06	4.211447e-06	2.230936e-08	3.038270e+01	1.465624e+03
1.310000e-06	4.272848e-06	2.240851e-08	3.082566e+01	1.471862e+03
1.320000e-06	4.332909e-06	2.250029e-08	3.125897e+01	1.477524e+03
1.330000e-06	4.391513e-06	2.258696e-08	3.168175e+01	1.482825e+03
1.340000e-06	4.448357e-06	2.266873e-08	3.209184e+01	1.487963e+03
1.350000e-06	4.503500e-06	2.274677e-08	3.248966e+01	1.493067e+03
1.360000e-06	4.557051e-06	2.282055e-08	3.287599e+01	1.498168e+03
1.370000e-06	4.608832e-06	2.289046e-08	3.324955e+01	1.503209e+03
1.380000e-06	4.658577e-06	2.295693e-08	3.360844e+01	1.508067e+03
1.390000e-06	4.706381e-06	2.301934e-08	3.395331e+01	1.512603e+03
1.400000e-06	4.752530e-06	2.307878e-08	3.428624e+01	1.516707e+03
1.410000e-06	4.797160e-06	2.313600e-08	3.460821e+01	1.520337e+03
1.420000e-06	4.840248e-06	2.318977e-08	3.491906e+01	1.523526e+03
1.430000e-06	4.881483e-06	2.323875e-08	3.521655e+01	1.526375e+03
1.440000e-06	4.920884e-06	2.328262e-08	3.550080e+01	1.529017e+03
1.450000e-06	4.958692e-06	2.332281e-08	3.577355e+01	1.531576e+03
1.460000e-06	4.994898e-06	2.336022e-08	3.603476e+01	1.534133e+03
1.470000e-06	5.029325e-06	2.339436e-08	3.628312e+01	1.536701e+03
1.480000e-06	5.061830e-06	2.342544e-08	3.651763e+01	1.539228e+03
1.490000e-06	5.092565e-06	2.345453e-08	3.673936e+01	1.541617e+03
1.500000e-06	5.121661e-06	2.348240e-08	3.694927e+01	1.543759e+03
1.510000e-06	5.149110e-06	2.350956e-08	3.714729e+01	1.545574e+03
1.520000e-06	5.174586e-06	2.353446e-08	3.733108e+01	1.547033e+03
1.530000e-06	5.197992e-06	2.355497e-08	3.749994e+01	1.548171e+03
1.540000e-06	5.219613e-06	2.357211e-08	3.765592e+01	1.549078e+03
1.550000e-06	5.239582e-06	2.358638e-08	3.779999e+01	1.549866e+03
1.560000e-06	5.257783e-06	2.359866e-08	3.793130e+01	1.550640e+03
1.570000e-06	5.273931e-06	2.361155e-08	3.804779e+01	1.551463e+03
1.580000e-06	5.288059e-06	2.362447e-08	3.814972e+01	1.552344e+03
1.590000e-06	5.300256e-06	2.363600e-08	3.823770e+01	1.553230e+03
1.600000e-06	5.310232e-06	2.364529e-08	3.830967e+01	1.554033e+03
1.610000e-06	5.318022e-06	2.365316e-08	3.836588e+01	1.554654e+03
1.620000e-06	5.323996e-06	2.365836e-08	3.840898e+01	1.555019e+03
1.630000e-06	5.328271e-06	2.366001e-08	3.843982e+01	1.555101e+03
1.640000e-06	5.330666e-06	2.365944e-08	3.845710e+01	1.554930e+03
1.650000e-06	5.331069e-06	2.365859e-08	3.846000e+01	1.554581e+03
1.660000e-06	5.329665e-06	2.365708e-08	3.844987e+01	1.554152e+03
1.670000e-06	5.326596e-06	2.365555e-08	3.842773e+01	1.553732e+03
1.680000e-06	5.321952e-06	2.365443e-08	3.839423e+01	1.553369e+03
1.690000e-06	5.315467e-06	2.365060e-08	3.834744e+01	1.553060e+03
1.700000e-06	5.307155e-06	2.364259e-08	3.828748e+01	1.552747e+03
1.710000e-06	5.297315e-06	2.363271e-08	3.821649e+01	1.552338e+03
1.720000e-06	5.285812e-06	2.362614e-08	3.813350e+01	1.551735e+03
1.730000e-06	5.272451e-06	2.360840e-08	3.803711e+01	1.550868e+03
1.740000e-06	5.257064e-06	2.355097e-08	3.792611e+01	1.549714e+03
1.750000e-06	5.239330e-06	2.353198e-08	3.779817e+01	1.548310e+03
1.760000e-06	5.218996e-06	2.353360e-08	3.765147e+01	1.546740e+03
1.770000e-06	5.196259e-06	2.354990e-08	3.748744e+01	1.545114e+03
1.780000e-06	5.172055e-06	2.357442e-08	3.731282e+01	1.543531e+03
1.790000e-06	5.147207e-06	2.346435e-08	3.713357e+01	1.542053e+03
1.800000e-06	5.121081e-06	2.344613e-08	3.694508e+01	1.540680e+03
1.810000e-06	5.092961e-06	2.347373e-08	3.674222e+01	1.539358e+03
1.820000e-06	5.063104e-06	2.337212e-08	3.652682e+01	1.537987e+03
1.830000e-06	5.031404e-06	2.340237e-08	3.629813e+01	1.536452e+03
1.840000e-06	4.997707e-06	2.342116e-08	3.605502e+01	1.534660e+03
1.850000e-06	4.962456e-06	2.331270e-08	3.580071e+01	1.532560e+03
1.860000e-06	4.925396e-06	2.335256e-08	3.553335e+01	1.530161e+03
1.870000e-06	4.886310e-06	2.333891e-08	3.525137e+01	1.527523e+03
1.880000e-06	4.845647e-06	2.322263e-08	3.495802e+01	1.524739e+03
1.890000e-06	4.803226e-06	2.320503e-08	3.465198e+01	1.521901e+03
1.900000e-06	4.759142e-06	2.314667e-08	3.433394e+01	1.519070e+03
1.910000e-06	4.713448e-06	2.314369e-08	3.400429e+01	1.516260e+03
1.920000e-06	4.665870e-06	2.312845e-08	3.366105e+01	1.513430e+03
1.930000e-06	4.616632e-06	2.301823e-08	3.330583e+01	1.510495e+03
1.940000e-06	4.565582e-06	2.297933e-08	3.293754e+01	1.507361e+03
1.950000e-06	4.512568e-06	2.289390e-08	3.255508e+01	1.503944e+03
1.960000e-06	4.457667e-06	2.284464e-08	3.215901e+01	1.500208e+03
1.970000e-06	4.400961e-06	2.283423e-08	3.174991e+01	1.496167e+03
1.980000e-06	4.342722e-06	2.275014e-08	3.132976e+01	1.491890e+03
1.990000e-06	4.283123e-06	2.271160e-08	3.089979e+01	1.487471e+03
2.000000e-06	4.222125e-06	2.262061e-08	3.045973e+01	1.483007e+03
2.010000e-06	4.159398e-06	2.253865e-08	3.000720e+01	1.478559e+03
2.020000e-06	4.094926e-06	2.249393e-08	2.954208e+01	1.474139e+03
2.030000e-06	4.029058e-06	2.241412e-08	2.906689e+01	1.469699e+03
2.040000e-06	3.961872e-06	2.236691e-08	2.858218e+01	1.465148e+03
2.050000e-06	3.893385e-06	2.227811e-08	2.808810e+01	1.460376e+03
2.060000e-06	3.823351e-06	2.219384e-08	2.758285e+01	1.455291e+03
2.070000e-06	3.751779e-06	2.211221e-08	2.706651e+01	1.449845e+03
2.080000e-06	3.678960e-06	2.201376e-08	2.654117e+01	1.444046e+03
2.090000e-06	3.604841e-06	2.194332e-08	2.600645e+01	1.437960e+03
2.100000e-06	3.529435e-06	2.184750e-08	2.546245e+01	1.431683e+03
2.110000e-06	3.452608e-06	2.175875e-08	2.490820e+01	1.425312e+03
2.120000e-06	3.374229e-06	2.165965e-08	2.434275e+01	1.418911e+03
2.130000e-06	3.294526e-06	2.155752e-08	2.376775e+01	1.412489e+03
2.140000e-06	3.213709e-06	2.145431e-08	2.318471e+01	1.405991e+03
2.150000e-06	3.131779e-06	2.133419e-08	2.259364e+01	1.399315e+03
2.160000e-06	3.048771e-06	2.123687e-08	2.199479e+01	1.392337e+03
2.170000e-06	2.964848e-06	2.113420e-08	2.138934e+01	1.384951e+03
2.180000e-06	2.879856e-06	2.101843e-08	2.077619e+01	1.377102e+03
2.190000e-06	2.793592e-06	2.088879e-08	2.015385e+01	1.368799e+03
2.200000e-06	2.706199e-06	2.075803e-08	1.952337e+01	1.360110e+03
2.210000e-06	2.617858e-06	2.063346e-08	1.888604e+01	1.351145e+03
2.220000e-06	2.528658e-06	2.050127e-08	1.824253e+01	1.342011e+03
2.230000e-06	2.438569e-06	2.036516e-08	1.759260e+01	1.332781e+03
2.240000e-06	2.347681e-06	2.022118e-08	1.693690e+01	1.323457e+03
2.250000e-06	2.256126e-06	2.007355e-08	1.627640e+01	1.313971e+03
2.260000e-06	2.163870e-06	1.991700e-08	1.561084e+01	1.304194e+03
2.270000e-06	2.070738e-06	1.975595e-08	1.493895e+01	1.293973e+03
2.280000e-06	1.976653e-06	1.959549e-08	1.426019e+01	1.283174e+03
2.290000e-06	1.881721e-06	1.942888e-08	1.357532e+01	1.271720e+03
2.300000e-06	1.786080e-06	1.925230e-08	1.288534e+01	1.259614e+03
2.310000e-06	1.689841e-06	1.906247e-08	1.219104e+01	1.246933e+03
2.320000e-06	1.593123e-06	1.886688e-08	1.149329e+01	1.233804e+03
2.330000e-06	1.495957e-06	1.866586e-08	1.079230e+01	1.220355e+03
2.340000e-06	1.398256e-06	1.845834e-08	1.008746e+01	1.206667e+03
2.350000e-06	1.300105e-06	1.824547e-08	9.379363e+00	1.192738e+03
2.360000e-06	1.201567e-06	1.802568e-08	8.668482e+00	1.178470e+03
2.370000e-06	1.102635e-06	1.779479e-08	7.954753e+00	1.163684e+03
2.380000e-06	1.003446e-06	1.754957e-08	7.239170e+00	1.148166e+03
2.390000e-06	9.040393e-07	1.729205e-08	6.522023e+00	1.131720e+03
2.400000e-06	8.043617e-07	1.702584e-08	5.802917e+00	1.114220e+03
2.410000e-06	7.044364e-07	1.675242e-08	5.082025e+00	1.095639e+03
2.420000e-06	6.043050e-07	1.646556e-08	4.359646e+00	1.076049e+03
2.430000e-06	5.040269e-07	1.616295e-08	3.636208e+00	1.055580e+03
2.440000e-06	4.036145e-07	1.584483e-08	2.911801e+00	1.034360e+03
2.450000e-06	3.030448e-07	1.551045e-08	2.186260e+00	1.012443e+03
2.460000e-06	2.023304e-07	1.515934e-08	1.459675e+00	9.897591e+02
2.470000e-06	1.014472e-07	1.478962e-08	7.318721e-01	9.660913e+02
2.480000e-06	4.318854e-10	1.440010e-08	3.115757e-03	9.410985e+02
2.490000e-06	-1.005884e-07	1.398495e-08	-7.256762e-01	9.143775e+02
2.500000e-06	-2.015102e-07	1.353993e-08	-1.453758e+00	8.855463e+02
2.510000e-06	-3.022797e-07	1.306559e-08	-2.180740e+00	8.543230e+02
2.520000e-06	-4.029594e-07	1.256007e-08	-2.907075e+00	8.205699e+02
2.530000e-06	-5.035485e-07	1.202068e-08	-3.632756e+00	7.842825e+02
2.540000e-06	-6.039890e-07	1.144274e-08	-4.357366e+00	7.455150e+02
2.550000e-06	-7.042422e-07	1.082027e-08	-5.080624e+00	7.042538e+02
2.560000e-06	-8.042716e-07	1.014768e-08	-5.802267e+00	6.602688e+02
2.570000e-06	-9.040341e-07	9.413923e-09	-6.521985e+00	6.129847e+02
2.580000e-06	-1.003453e-06	8.607769e-09	-7.239222e+00	5.614159e+02
2.590000e-06	-1.102578e-06	7.717342e-09	-7.954345e+00	5.041996e+02
2.600000e-06	-1.201417e-06	6.728016e-09	-8.667399e+00	4.397425e+02
2.610000e-06	-1.299816e-06	5.622545e-09	-9.377283e+00	3.664670e+02
2.620000e-06	-1.397680e-06	4.379403e-09	-1.008330e+01	2.831214e+02
2.630000e-06	-1.494998e-06	2.979946e-09	-1.078538e+01	1.890932e+02
2.640000e-06	-1.591821e-06	1.414189e-09	-1.148389e+01	8.466183e+01
2.650000e-06	-1.688224e-06	-3.085102e-10	-1.217938e+01	-2.886892e+01
2.660000e-06	-1.784271e-06	-2.158034e-09	-1.287229e+01	-1.491967e+02
2.670000e-06	-1.879779e-06	-4.081059e-09	-1.356132e+01	-2.732108e+02
2.680000e-06	-1.974388e-06	-6.005864e-09	-1.424386e+01	-3.973217e+02
2.690000e-06	-2.067969e-06	-7.865952e-09	-1.491898e+01	-5.178732e+02
2.700000e-06	-2.160667e-06	-9.606574e-09	-1.558773e+01	-6.315656e+02
2.710000e-06	-2.252598e-06	-1.118959e-08	-1.625095e+01	-7.358156e+02
2.720000e-06	-2.343739e-06	-1.259801e-08	-1.690847e+01	-8.289913e+02
2.730000e-06	-2.434039e-06	-1.383191e-08	-1.755992e+01	-9.104880e+02
2.740000e-06	-2.523388e-06	-1.490432e-08	-1.820451e+01	-9.806442e+02
2.750000e-06	-2.611946e-06	-1.583307e-08	-1.884340e+01	-1.040527e+03
2.760000e-06	-2.699863e-06	-1.663806e-08	-1.947765e+01	-1.091639e+03
2.770000e-06	-2.786852e-06	-1.733710e-08	-2.010522e+01	-1.135615e+03
2.780000e-06	-2.872632e-06	-1.794411e-08	-2.072407e+01	-1.173959e+03
2.790000e-06	-2.957273e-06	-1.847137e-08	-2.133469e+01	-1.207870e+03
2.800000e-06	-3.040918e-06	-1.893083e-08	-2.193814e+01	-1.238182e+03
2.810000e-06	-3.123581e-06	-1.933764e-08	-2.253449e+01	-1.265389e+03
2.820000e-06	-3.205198e-06	-1.969830e-08	-2.312330e+01	-1.289750e+03
2.830000e-06	-3.285768e-06	-2.001868e-08	-2.370456e+01	-1.311413e+03
2.840000e-06	-3.365197e-06	-2.030761e-08	-2.427758e+01	-1.330539e+03
2.850000e-06	-3.443212e-06	-2.056715e-08	-2.484041e+01	-1.347371e+03
2.860000e-06	-3.519776e-06	-2.080235e-08	-2.539277e+01	-1.362257e+03
2.870000e-06	-3.594968e-06	-2.101918e-08	-2.593522e+01	-1.375613e+03
2.880000e-06	-3.668788e-06	-2.121823e-08	-2.646779e+01	-1.387860e+03
2.890000e-06	-3.741348e-06	-2.140042e-08	-2.699125e+01	-1.399347e+03
2.900000e-06	-3.812584e-06	-2.156778e-08	-2.750518e+01	-1.410294e+03
2.910000e-06	-3.882234e-06	-2.172315e-08	-2.800765e+01	-1.420775e+03
2.920000e-06	-3.950382e-06	-2.186873e-08	-2.849929e+01	-1.430736e+03
2.930000e-06	-4.017227e-06	-2.200334e-08	-2.898153e+01	-1.440048e+03
2.940000e-06	-4.082732e-06	-2.212611e-08	-2.945411e+01	-1.448576e+03
