# Temperatura_=_83.58
# Concentracion g/m^3_=_41000.0
# C_Vs_to_Am_M_A/Vsm_=_65563218390.804596
# pendiente_HvsI_1/m_=_3716.3
# ordenada_HvsI_A/m_=_1297.0
# frecuencia_Hz_=_301610.49231456773

Tiempo_(s)	Campo_(V.s)	Magnetizacion_(V.s)	Campo_(kA/m)	Magnetizacion_(A/m)
0.000000e+00	-5.332791e-06	-2.408232e-08	-3.834549e+01	-1.575103e+03
1.000000e-08	-5.330169e-06	-2.407512e-08	-3.832663e+01	-1.574910e+03
2.000000e-08	-5.325758e-06	-2.406775e-08	-3.829491e+01	-1.574810e+03
3.000000e-08	-5.319780e-06	-2.406122e-08	-3.825193e+01	-1.574697e+03
4.000000e-08	-5.312285e-06	-2.405072e-08	-3.819803e+01	-1.574433e+03
5.000000e-08	-5.303010e-06	-2.403731e-08	-3.813134e+01	-1.573890e+03
6.000000e-08	-5.291690e-06	-2.402206e-08	-3.804994e+01	-1.572993e+03
7.000000e-08	-5.278501e-06	-2.399953e-08	-3.795511e+01	-1.571742e+03
8.000000e-08	-5.263199e-06	-2.400254e-08	-3.784508e+01	-1.570213e+03
9.000000e-08	-5.245536e-06	-2.401185e-08	-3.771808e+01	-1.568533e+03
1.000000e-07	-5.225823e-06	-2.397202e-08	-3.757633e+01	-1.566845e+03
1.100000e-07	-5.204281e-06	-2.393494e-08	-3.742143e+01	-1.565258e+03
1.200000e-07	-5.181083e-06	-2.388013e-08	-3.725463e+01	-1.563818e+03
1.300000e-07	-5.156478e-06	-2.380151e-08	-3.707770e+01	-1.562494e+03
1.400000e-07	-5.130298e-06	-2.387594e-08	-3.688946e+01	-1.561183e+03
1.500000e-07	-5.102391e-06	-2.384314e-08	-3.668879e+01	-1.559750e+03
1.600000e-07	-5.073004e-06	-2.373404e-08	-3.647749e+01	-1.558063e+03
1.700000e-07	-5.042185e-06	-2.380181e-08	-3.625588e+01	-1.556038e+03
1.800000e-07	-5.009330e-06	-2.370760e-08	-3.601963e+01	-1.553662e+03
1.900000e-07	-4.974420e-06	-2.360972e-08	-3.576862e+01	-1.550996e+03
2.000000e-07	-4.937993e-06	-2.367558e-08	-3.550669e+01	-1.548157e+03
2.100000e-07	-4.899897e-06	-2.358135e-08	-3.523275e+01	-1.545274e+03
2.200000e-07	-4.860073e-06	-2.350616e-08	-3.494640e+01	-1.542452e+03
2.300000e-07	-4.818344e-06	-2.351514e-08	-3.464635e+01	-1.539729e+03
2.400000e-07	-4.774674e-06	-2.343337e-08	-3.433234e+01	-1.537070e+03
2.500000e-07	-4.729328e-06	-2.339830e-08	-3.400627e+01	-1.534368e+03
2.600000e-07	-4.682200e-06	-2.334198e-08	-3.366741e+01	-1.531477e+03
2.700000e-07	-4.633092e-06	-2.327178e-08	-3.331429e+01	-1.528259e+03
2.800000e-07	-4.581800e-06	-2.322762e-08	-3.294548e+01	-1.524622e+03
2.900000e-07	-4.528549e-06	-2.317888e-08	-3.256257e+01	-1.520550e+03
3.000000e-07	-4.473764e-06	-2.312834e-08	-3.216865e+01	-1.516108e+03
3.100000e-07	-4.417360e-06	-2.304877e-08	-3.176307e+01	-1.511422e+03
3.200000e-07	-4.359103e-06	-2.297401e-08	-3.134417e+01	-1.506642e+03
3.300000e-07	-4.299191e-06	-2.289404e-08	-3.091337e+01	-1.501894e+03
3.400000e-07	-4.237873e-06	-2.281596e-08	-3.047246e+01	-1.497241e+03
3.500000e-07	-4.175196e-06	-2.276422e-08	-3.002179e+01	-1.492665e+03
3.600000e-07	-4.111122e-06	-2.268884e-08	-2.956106e+01	-1.488073e+03
3.700000e-07	-4.045417e-06	-2.260961e-08	-2.908861e+01	-1.483322e+03
3.800000e-07	-3.978081e-06	-2.252666e-08	-2.860443e+01	-1.478266e+03
3.900000e-07	-3.909323e-06	-2.242625e-08	-2.811002e+01	-1.472801e+03
4.000000e-07	-3.839317e-06	-2.234551e-08	-2.760664e+01	-1.466897e+03
4.100000e-07	-3.768210e-06	-2.225564e-08	-2.709535e+01	-1.460604e+03
4.200000e-07	-3.695887e-06	-2.216955e-08	-2.657531e+01	-1.454040e+03
4.300000e-07	-3.621934e-06	-2.207352e-08	-2.604355e+01	-1.447349e+03
4.400000e-07	-3.546250e-06	-2.197460e-08	-2.549935e+01	-1.440655e+03
4.500000e-07	-3.469232e-06	-2.186756e-08	-2.494554e+01	-1.434023e+03
4.600000e-07	-3.390906e-06	-2.175516e-08	-2.438234e+01	-1.427431e+03
4.700000e-07	-3.311194e-06	-2.165376e-08	-2.380917e+01	-1.420779e+03
4.800000e-07	-3.230216e-06	-2.153649e-08	-2.322690e+01	-1.413916e+03
4.900000e-07	-3.148031e-06	-2.142050e-08	-2.263595e+01	-1.406682e+03
5.000000e-07	-3.064799e-06	-2.130404e-08	-2.203747e+01	-1.398963e+03
5.100000e-07	-2.980735e-06	-2.118275e-08	-2.143300e+01	-1.390719e+03
5.200000e-07	-2.895857e-06	-2.105048e-08	-2.082269e+01	-1.382002e+03
5.300000e-07	-2.810030e-06	-2.091684e-08	-2.020555e+01	-1.372931e+03
5.400000e-07	-2.723246e-06	-2.078728e-08	-1.958153e+01	-1.363657e+03
5.500000e-07	-2.635600e-06	-2.065014e-08	-1.895131e+01	-1.354307e+03
5.600000e-07	-2.546948e-06	-2.050027e-08	-1.831385e+01	-1.344944e+03
5.700000e-07	-2.457118e-06	-2.034286e-08	-1.766793e+01	-1.335534e+03
5.800000e-07	-2.366217e-06	-2.018662e-08	-1.701430e+01	-1.325956e+03
5.900000e-07	-2.274506e-06	-2.002547e-08	-1.635486e+01	-1.316032e+03
6.000000e-07	-2.182046e-06	-1.985799e-08	-1.569002e+01	-1.305579e+03
6.100000e-07	-2.088770e-06	-1.968531e-08	-1.501932e+01	-1.294465e+03
6.200000e-07	-1.994757e-06	-1.951043e-08	-1.434332e+01	-1.282652e+03
6.300000e-07	-1.900046e-06	-1.932864e-08	-1.366230e+01	-1.270202e+03
6.400000e-07	-1.804702e-06	-1.913934e-08	-1.297673e+01	-1.257262e+03
6.500000e-07	-1.708807e-06	-1.894291e-08	-1.228719e+01	-1.244007e+03
6.600000e-07	-1.612332e-06	-1.873978e-08	-1.159349e+01	-1.230582e+03
6.700000e-07	-1.515157e-06	-1.853163e-08	-1.089475e+01	-1.217042e+03
6.800000e-07	-1.417235e-06	-1.831364e-08	-1.019064e+01	-1.203320e+03
6.900000e-07	-1.318701e-06	-1.808458e-08	-9.482134e+00	-1.189230e+03
7.000000e-07	-1.219649e-06	-1.784636e-08	-8.769894e+00	-1.174517e+03
7.100000e-07	-1.120183e-06	-1.760143e-08	-8.054687e+00	-1.158916e+03
7.200000e-07	-1.020436e-06	-1.734774e-08	-7.337453e+00	-1.142231e+03
7.300000e-07	-9.204731e-07	-1.708541e-08	-6.618671e+00	-1.124388e+03
7.400000e-07	-8.202787e-07	-1.681067e-08	-5.898222e+00	-1.105448e+03
7.500000e-07	-7.197840e-07	-1.652088e-08	-5.175613e+00	-1.085580e+03
7.600000e-07	-6.190591e-07	-1.621258e-08	-4.451351e+00	-1.064989e+03
7.700000e-07	-5.181586e-07	-1.588592e-08	-3.725825e+00	-1.043823e+03
7.800000e-07	-4.170996e-07	-1.554612e-08	-2.999158e+00	-1.022086e+03
7.900000e-07	-3.159564e-07	-1.519159e-08	-2.271887e+00	-9.995936e+02
8.000000e-07	-2.146289e-07	-1.481687e-08	-1.543291e+00	-9.759752e+02
8.100000e-07	-1.130978e-07	-1.441659e-08	-8.132308e-01	-9.507352e+02
8.200000e-07	-1.151412e-08	-1.399073e-08	-8.279238e-02	-9.233581e+02
8.300000e-07	9.006589e-08	-1.353583e-08	6.476196e-01	-8.934239e+02
8.400000e-07	1.915812e-07	-1.304878e-08	1.377566e+00	-8.606943e+02
8.500000e-07	2.930128e-07	-1.252584e-08	2.106911e+00	-8.251373e+02
8.600000e-07	3.944134e-07	-1.196240e-08	2.836033e+00	-7.868682e+02
8.700000e-07	4.957221e-07	-1.135349e-08	3.564494e+00	-7.460107e+02
8.800000e-07	5.968263e-07	-1.069065e-08	4.291485e+00	-7.025076e+02
8.900000e-07	6.977253e-07	-9.964179e-09	5.017000e+00	-6.559293e+02
9.000000e-07	7.984007e-07	-9.163990e-09	5.740908e+00	-6.053401e+02
9.100000e-07	8.988014e-07	-8.278707e-09	6.462840e+00	-5.492749e+02
9.200000e-07	9.989659e-07	-7.290298e-09	7.183074e+00	-4.858589e+02
9.300000e-07	1.098857e-06	-6.177074e-09	7.901343e+00	-4.130704e+02
9.400000e-07	1.198402e-06	-4.914657e-09	8.617121e+00	-3.291112e+02
9.500000e-07	1.297585e-06	-3.478039e-09	9.330296e+00	-2.328173e+02
9.600000e-07	1.396252e-06	-1.849332e-09	1.003976e+01	-1.240268e+02
9.700000e-07	1.494177e-06	-2.810114e-11	1.074389e+01	-3.820904e+00
9.800000e-07	1.591330e-06	1.957281e-09	1.144247e+01	1.254247e+02
9.900000e-07	1.687804e-06	4.048750e-09	1.213617e+01	2.602042e+02
1.000000e-06	1.783673e-06	6.163469e-09	1.282552e+01	3.962453e+02
1.010000e-06	1.878937e-06	8.210105e-09	1.351051e+01	5.290123e+02
1.020000e-06	1.973516e-06	1.011146e-08	1.419059e+01	6.542599e+02
1.030000e-06	2.067396e-06	1.181839e-08	1.486563e+01	7.685377e+02
1.040000e-06	2.160545e-06	1.330979e-08	1.553542e+01	8.695555e+02
1.050000e-06	2.252984e-06	1.458662e-08	1.620010e+01	9.563503e+02
1.060000e-06	2.344794e-06	1.566727e-08	1.686026e+01	1.029235e+03
1.070000e-06	2.435856e-06	1.658048e-08	1.751505e+01	1.089558e+03
1.080000e-06	2.525940e-06	1.735041e-08	1.816280e+01	1.139328e+03
1.090000e-06	2.614901e-06	1.800205e-08	1.880247e+01	1.180803e+03
1.100000e-06	2.702775e-06	1.855829e-08	1.943433e+01	1.216103e+03
1.110000e-06	2.789752e-06	1.903442e-08	2.005974e+01	1.246944e+03
1.120000e-06	2.875898e-06	1.944536e-08	2.067917e+01	1.274502e+03
1.130000e-06	2.961121e-06	1.980906e-08	2.129197e+01	1.299426e+03
1.140000e-06	3.045386e-06	2.013233e-08	2.189788e+01	1.321964e+03
1.150000e-06	3.128755e-06	2.042001e-08	2.249734e+01	1.342145e+03
1.160000e-06	3.211092e-06	2.067941e-08	2.308939e+01	1.359969e+03
1.170000e-06	3.292150e-06	2.091536e-08	2.367223e+01	1.375538e+03
1.180000e-06	3.371926e-06	2.113000e-08	2.424586e+01	1.389128e+03
1.190000e-06	3.450489e-06	2.132418e-08	2.481077e+01	1.401159e+03
1.200000e-06	3.527831e-06	2.150336e-08	2.536690e+01	1.412124e+03
1.210000e-06	3.603980e-06	2.167194e-08	2.591445e+01	1.422475e+03
1.220000e-06	3.678781e-06	2.183128e-08	2.645231e+01	1.432532e+03
1.230000e-06	3.751937e-06	2.197921e-08	2.697834e+01	1.442425e+03
1.240000e-06	3.823551e-06	2.211668e-08	2.749328e+01	1.452098e+03
1.250000e-06	3.893833e-06	2.224502e-08	2.799864e+01	1.461359e+03
1.260000e-06	3.962782e-06	2.236567e-08	2.849442e+01	1.469975e+03
1.270000e-06	4.030504e-06	2.247707e-08	2.898138e+01	1.477756e+03
1.280000e-06	4.096785e-06	2.258064e-08	2.945797e+01	1.484633e+03
1.290000e-06	4.161343e-06	2.267824e-08	2.992217e+01	1.490682e+03
1.300000e-06	4.224366e-06	2.277080e-08	3.037534e+01	1.496104e+03
1.310000e-06	4.285961e-06	2.285751e-08	3.081824e+01	1.501169e+03
1.320000e-06	4.346175e-06	2.293942e-08	3.125121e+01	1.506139e+03
1.330000e-06	4.404974e-06	2.301860e-08	3.167401e+01	1.511195e+03
1.340000e-06	4.461996e-06	2.309569e-08	3.208402e+01	1.516395e+03
1.350000e-06	4.517271e-06	2.316936e-08	3.248148e+01	1.521670e+03
1.360000e-06	4.570978e-06	2.323883e-08	3.286766e+01	1.526851e+03
1.370000e-06	4.622910e-06	2.330601e-08	3.324108e+01	1.531738e+03
1.380000e-06	4.672820e-06	2.336848e-08	3.359995e+01	1.536162e+03
1.390000e-06	4.720830e-06	2.342656e-08	3.394517e+01	1.540037e+03
1.400000e-06	4.767192e-06	2.348177e-08	3.427854e+01	1.543387e+03
1.410000e-06	4.811970e-06	2.353388e-08	3.460052e+01	1.546336e+03
1.420000e-06	4.855121e-06	2.358253e-08	3.491079e+01	1.549063e+03
1.430000e-06	4.896432e-06	2.362857e-08	3.520784e+01	1.551746e+03
1.440000e-06	4.935964e-06	2.367360e-08	3.549209e+01	1.554510e+03
1.450000e-06	4.973904e-06	2.371598e-08	3.576490e+01	1.557389e+03
1.460000e-06	5.010238e-06	2.375389e-08	3.602617e+01	1.560319e+03
1.470000e-06	5.044810e-06	2.378758e-08	3.627475e+01	1.563165e+03
1.480000e-06	5.077499e-06	2.381717e-08	3.650981e+01	1.565766e+03
1.490000e-06	5.108395e-06	2.384296e-08	3.673196e+01	1.567989e+03
1.500000e-06	5.137631e-06	2.386745e-08	3.694219e+01	1.569770e+03
1.510000e-06	5.165225e-06	2.389200e-08	3.714060e+01	1.571135e+03
1.520000e-06	5.190845e-06	2.391706e-08	3.732482e+01	1.572194e+03
1.530000e-06	5.214374e-06	2.394051e-08	3.749400e+01	1.573101e+03
1.540000e-06	5.236074e-06	2.396129e-08	3.765004e+01	1.574011e+03
1.550000e-06	5.256145e-06	2.397864e-08	3.779436e+01	1.575031e+03
1.560000e-06	5.274464e-06	2.399148e-08	3.792609e+01	1.576188e+03
1.570000e-06	5.290737e-06	2.400305e-08	3.804309e+01	1.577424e+03
1.580000e-06	5.305004e-06	2.401413e-08	3.814568e+01	1.578619e+03
1.590000e-06	5.317297e-06	2.402376e-08	3.823407e+01	1.579625e+03
1.600000e-06	5.327358e-06	2.403239e-08	3.830641e+01	1.580319e+03
1.610000e-06	5.335272e-06	2.403873e-08	3.836332e+01	1.580640e+03
1.620000e-06	5.341352e-06	2.404305e-08	3.840704e+01	1.580607e+03
1.630000e-06	5.345738e-06	2.404711e-08	3.843858e+01	1.580312e+03
1.640000e-06	5.348239e-06	2.404963e-08	3.845657e+01	1.579893e+03
1.650000e-06	5.348717e-06	2.404943e-08	3.846000e+01	1.579486e+03
1.660000e-06	5.347407e-06	2.404479e-08	3.845058e+01	1.579187e+03
1.670000e-06	5.344443e-06	2.404007e-08	3.842926e+01	1.579019e+03
1.680000e-06	5.339820e-06	2.403376e-08	3.839603e+01	1.578927e+03
1.690000e-06	5.333311e-06	2.402594e-08	3.834922e+01	1.578792e+03
1.700000e-06	5.324964e-06	2.401651e-08	3.828920e+01	1.578477e+03
1.710000e-06	5.315041e-06	2.400718e-08	3.821785e+01	1.577862e+03
1.720000e-06	5.303490e-06	2.400256e-08	3.813480e+01	1.576885e+03
1.730000e-06	5.290010e-06	2.397739e-08	3.803787e+01	1.575565e+03
1.740000e-06	5.274468e-06	2.391193e-08	3.792611e+01	1.573991e+03
1.750000e-06	5.256684e-06	2.390241e-08	3.779824e+01	1.572297e+03
1.760000e-06	5.236299e-06	2.389817e-08	3.765166e+01	1.570622e+03
1.770000e-06	5.213555e-06	2.391529e-08	3.748812e+01	1.569065e+03
1.780000e-06	5.189404e-06	2.393821e-08	3.731446e+01	1.567655e+03
1.790000e-06	5.164547e-06	2.380008e-08	3.713572e+01	1.566342e+03
1.800000e-06	5.138332e-06	2.381135e-08	3.694723e+01	1.565017e+03
1.810000e-06	5.110073e-06	2.382705e-08	3.674403e+01	1.563538e+03
1.820000e-06	5.080063e-06	2.369909e-08	3.652824e+01	1.561783e+03
1.830000e-06	5.048291e-06	2.377245e-08	3.629979e+01	1.559680e+03
1.840000e-06	5.014550e-06	2.375290e-08	3.605717e+01	1.557234e+03
1.850000e-06	4.979226e-06	2.362088e-08	3.580317e+01	1.554519e+03
1.860000e-06	4.942127e-06	2.370496e-08	3.553641e+01	1.551659e+03
1.870000e-06	4.903034e-06	2.364396e-08	3.525531e+01	1.548782e+03
1.880000e-06	4.862365e-06	2.355301e-08	3.496288e+01	1.545979e+03
1.890000e-06	4.819928e-06	2.357548e-08	3.465774e+01	1.543276e+03
1.900000e-06	4.775797e-06	2.346721e-08	3.434041e+01	1.540617e+03
1.910000e-06	4.729945e-06	2.348316e-08	3.401072e+01	1.537886e+03
1.920000e-06	4.682176e-06	2.344546e-08	3.366723e+01	1.534936e+03
1.930000e-06	4.632830e-06	2.333283e-08	3.331241e+01	1.531633e+03
1.940000e-06	4.581664e-06	2.331617e-08	3.294450e+01	1.527900e+03
1.950000e-06	4.528383e-06	2.320594e-08	3.256138e+01	1.523740e+03
1.960000e-06	4.473234e-06	2.317443e-08	3.216483e+01	1.519233e+03
1.970000e-06	4.416382e-06	2.313239e-08	3.175604e+01	1.514513e+03
1.980000e-06	4.358005e-06	2.303844e-08	3.133627e+01	1.509730e+03
1.990000e-06	4.298283e-06	2.300677e-08	3.090685e+01	1.504999e+03
2.000000e-06	4.237085e-06	2.288454e-08	3.046680e+01	1.500366e+03
2.010000e-06	4.174166e-06	2.282909e-08	3.001438e+01	1.495796e+03
2.020000e-06	4.109576e-06	2.275683e-08	2.954995e+01	1.491182e+03
2.030000e-06	4.043543e-06	2.266528e-08	2.907513e+01	1.486376e+03
2.040000e-06	3.976186e-06	2.261905e-08	2.859081e+01	1.481238e+03
2.050000e-06	3.907422e-06	2.250487e-08	2.809635e+01	1.475678e+03
2.060000e-06	3.837032e-06	2.243440e-08	2.759021e+01	1.469683e+03
2.070000e-06	3.765222e-06	2.232917e-08	2.707387e+01	1.463320e+03
2.080000e-06	3.692228e-06	2.222957e-08	2.654900e+01	1.456716e+03
2.090000e-06	3.617911e-06	2.214875e-08	2.601463e+01	1.450014e+03
2.100000e-06	3.542268e-06	2.203881e-08	2.547071e+01	1.443331e+03
2.110000e-06	3.465092e-06	2.194755e-08	2.491578e+01	1.436711e+03
2.120000e-06	3.386381e-06	2.182935e-08	2.434980e+01	1.430116e+03
2.130000e-06	3.306493e-06	2.173454e-08	2.377537e+01	1.423432e+03
2.140000e-06	3.225515e-06	2.161984e-08	2.319310e+01	1.416500e+03
2.150000e-06	3.143411e-06	2.149489e-08	2.260273e+01	1.409169e+03
2.160000e-06	3.060294e-06	2.138479e-08	2.200508e+01	1.401337e+03
2.170000e-06	2.976236e-06	2.126748e-08	2.140065e+01	1.392985e+03
2.180000e-06	2.890944e-06	2.114536e-08	2.078736e+01	1.384179e+03
2.190000e-06	2.804320e-06	2.100069e-08	2.016449e+01	1.375051e+03
2.200000e-06	2.716611e-06	2.086431e-08	1.953382e+01	1.365751e+03
2.210000e-06	2.628003e-06	2.072919e-08	1.889668e+01	1.356395e+03
2.220000e-06	2.538485e-06	2.059194e-08	1.825300e+01	1.347027e+03
2.230000e-06	2.448048e-06	2.044452e-08	1.760271e+01	1.337593e+03
2.240000e-06	2.356879e-06	2.029137e-08	1.694716e+01	1.327957e+03
2.250000e-06	2.265057e-06	2.013523e-08	1.628691e+01	1.317932e+03
2.260000e-06	2.172502e-06	1.996521e-08	1.562139e+01	1.307345e+03
2.270000e-06	2.079004e-06	1.979155e-08	1.494910e+01	1.296081e+03
2.280000e-06	1.984482e-06	1.961849e-08	1.426944e+01	1.284122e+03
2.290000e-06	1.889164e-06	1.944384e-08	1.358405e+01	1.271552e+03
2.300000e-06	1.793244e-06	1.925727e-08	1.289434e+01	1.258529e+03
2.310000e-06	1.696817e-06	1.905834e-08	1.220098e+01	1.245227e+03
2.320000e-06	1.599898e-06	1.885429e-08	1.150408e+01	1.231776e+03
2.330000e-06	1.502457e-06	1.864589e-08	1.080343e+01	1.218206e+03
2.340000e-06	1.404545e-06	1.842822e-08	1.009939e+01	1.204423e+03
2.350000e-06	1.306157e-06	1.820043e-08	9.391933e+00	1.190222e+03
2.360000e-06	1.207328e-06	1.796367e-08	8.681306e+00	1.175339e+03
2.370000e-06	1.108171e-06	1.771792e-08	7.968315e+00	1.159518e+03
2.380000e-06	1.008747e-06	1.746055e-08	7.253404e+00	1.142585e+03
2.390000e-06	9.090571e-07	1.719097e-08	6.536584e+00	1.124496e+03
2.400000e-06	8.090705e-07	1.691200e-08	5.817629e+00	1.105340e+03
2.410000e-06	7.088667e-07	1.662457e-08	5.097113e+00	1.085300e+03
2.420000e-06	6.084629e-07	1.632147e-08	4.375158e+00	1.064576e+03
2.430000e-06	5.078575e-07	1.599776e-08	3.651754e+00	1.043292e+03
2.440000e-06	4.070815e-07	1.565511e-08	2.927123e+00	1.021415e+03
2.450000e-06	3.061224e-07	1.529140e-08	2.201176e+00	9.987177e+02
2.460000e-06	2.049829e-07	1.490949e-08	1.473932e+00	9.747952e+02
2.470000e-06	1.037241e-07	1.450890e-08	7.458294e-01	9.491383e+02
2.480000e-06	2.408987e-09	1.408482e-08	1.732184e-02	9.212427e+02
2.490000e-06	-9.895104e-08	1.363044e-08	-7.115084e-01	8.907215e+02
2.500000e-06	-2.002631e-07	1.313748e-08	-1.439994e+00	8.573815e+02
2.510000e-06	-3.014162e-07	1.260252e-08	-2.167336e+00	8.212299e+02
2.520000e-06	-4.024328e-07	1.202565e-08	-2.893697e+00	7.823980e+02
2.530000e-06	-5.033298e-07	1.140395e-08	-3.619198e+00	7.409877e+02
2.540000e-06	-6.040837e-07	1.072858e-08	-4.343669e+00	6.968768e+02
2.550000e-06	-7.046558e-07	9.989111e-09	-5.066834e+00	6.495356e+02
2.560000e-06	-8.049994e-07	9.176128e-09	-5.788356e+00	5.979123e+02
2.570000e-06	-9.051083e-07	8.275784e-09	-6.508190e+00	5.404389e+02
2.580000e-06	-1.004949e-06	7.268810e-09	-7.226095e+00	4.751824e+02
2.590000e-06	-1.104398e-06	6.132203e-09	-7.941185e+00	4.001355e+02
2.600000e-06	-1.203433e-06	4.842396e-09	-8.653298e+00	3.136012e+02
2.610000e-06	-1.302123e-06	3.378055e-09	-9.362931e+00	2.146025e+02
2.620000e-06	-1.400370e-06	1.721955e-09	-1.006937e+01	1.032293e+02
2.630000e-06	-1.498102e-06	-1.244915e-10	-1.077212e+01	-1.915699e+01
2.640000e-06	-1.595329e-06	-2.132588e-09	-1.147123e+01	-1.499172e+02
2.650000e-06	-1.691993e-06	-4.240574e-09	-1.216629e+01	-2.853447e+02
2.660000e-06	-1.788093e-06	-6.362451e-09	-1.285730e+01	-4.210653e+02
2.670000e-06	-1.883728e-06	-8.406130e-09	-1.354497e+01	-5.525591e+02
2.680000e-06	-1.978726e-06	-1.029301e-08	-1.422805e+01	-6.757121e+02
2.690000e-06	-2.072776e-06	-1.198018e-08	-1.490431e+01	-7.872979e+02
2.700000e-06	-2.165839e-06	-1.345182e-08	-1.557348e+01	-8.853041e+02
2.710000e-06	-2.258035e-06	-1.471024e-08	-1.623642e+01	-9.690526e+02
2.720000e-06	-2.349451e-06	-1.577684e-08	-1.689375e+01	-1.039104e+03
2.730000e-06	-2.440086e-06	-1.667912e-08	-1.754546e+01	-1.096982e+03
2.740000e-06	-2.529847e-06	-1.744217e-08	-1.819089e+01	-1.144785e+03
2.750000e-06	-2.618689e-06	-1.808904e-08	-1.882971e+01	-1.184769e+03
2.760000e-06	-2.706738e-06	-1.863977e-08	-1.946282e+01	-1.218988e+03
2.770000e-06	-2.793970e-06	-1.911137e-08	-2.009006e+01	-1.249047e+03
2.780000e-06	-2.880167e-06	-1.951963e-08	-2.070986e+01	-1.276002e+03
2.790000e-06	-2.965179e-06	-1.987848e-08	-2.132115e+01	-1.300405e+03
2.800000e-06	-3.049029e-06	-2.019844e-08	-2.192408e+01	-1.322440e+03
2.810000e-06	-3.131881e-06	-2.048505e-08	-2.251982e+01	-1.342115e+03
2.820000e-06	-3.213760e-06	-2.074020e-08	-2.310858e+01	-1.359442e+03
2.830000e-06	-3.294606e-06	-2.097158e-08	-2.368990e+01	-1.374559e+03
2.840000e-06	-3.374362e-06	-2.118474e-08	-2.426338e+01	-1.387776e+03
2.850000e-06	-3.452808e-06	-2.138114e-08	-2.482745e+01	-1.399538e+03
2.860000e-06	-3.529713e-06	-2.156203e-08	-2.538043e+01	-1.410337e+03
2.870000e-06	-3.605127e-06	-2.172820e-08	-2.592270e+01	-1.420606e+03
2.880000e-06	-3.679182e-06	-2.188254e-08	-2.645519e+01	-1.430624e+03
2.890000e-06	-3.751929e-06	-2.202718e-08	-2.697828e+01	-1.440481e+03
2.900000e-06	-3.823418e-06	-2.216464e-08	-2.749232e+01	-1.450085e+03
2.910000e-06	-3.893462e-06	-2.229498e-08	-2.799597e+01	-1.459229e+03
2.920000e-06	-3.961914e-06	-2.241713e-08	-2.848818e+01	-1.467679e+03
2.930000e-06	-4.028968e-06	-2.252941e-08	-2.897034e+01	-1.475268e+03
2.940000e-06	-4.094705e-06	-2.263121e-08	-2.944302e+01	-1.481958e+03
