# Temperatura_=_68.89
# Concentracion g/m^3_=_41000.0
# C_Vs_to_Am_M_A/Vsm_=_65563218390.804596
# pendiente_HvsI_1/m_=_3716.3
# ordenada_HvsI_A/m_=_1297.0
# frecuencia_Hz_=_301610.3227647484

Tiempo_(s)	Campo_(V.s)	Magnetizacion_(V.s)	Campo_(kA/m)	Magnetizacion_(A/m)
0.000000e+00	-5.324627e-06	-2.245825e-08	-3.834512e+01	-1.468600e+03
1.000000e-08	-5.322158e-06	-2.245358e-08	-3.832734e+01	-1.468433e+03
2.000000e-08	-5.317876e-06	-2.244941e-08	-3.829651e+01	-1.468326e+03
3.000000e-08	-5.311980e-06	-2.244211e-08	-3.825405e+01	-1.468188e+03
4.000000e-08	-5.304525e-06	-2.242887e-08	-3.820036e+01	-1.467900e+03
5.000000e-08	-5.295286e-06	-2.241350e-08	-3.813383e+01	-1.467358e+03
6.000000e-08	-5.283970e-06	-2.239849e-08	-3.805234e+01	-1.466505e+03
7.000000e-08	-5.270706e-06	-2.238502e-08	-3.795682e+01	-1.465346e+03
8.000000e-08	-5.255342e-06	-2.238744e-08	-3.784617e+01	-1.463951e+03
9.000000e-08	-5.237729e-06	-2.237888e-08	-3.771933e+01	-1.462432e+03
1.000000e-07	-5.218108e-06	-2.234867e-08	-3.757803e+01	-1.460908e+03
1.100000e-07	-5.196620e-06	-2.232038e-08	-3.742329e+01	-1.459471e+03
1.200000e-07	-5.173511e-06	-2.226176e-08	-3.725687e+01	-1.458159e+03
1.300000e-07	-5.149007e-06	-2.221399e-08	-3.708040e+01	-1.456942e+03
1.400000e-07	-5.122906e-06	-2.226214e-08	-3.689244e+01	-1.455736e+03
1.500000e-07	-5.095047e-06	-2.221028e-08	-3.669181e+01	-1.454425e+03
1.600000e-07	-5.065726e-06	-2.216256e-08	-3.648066e+01	-1.452902e+03
1.700000e-07	-5.034941e-06	-2.219865e-08	-3.625896e+01	-1.451096e+03
1.800000e-07	-5.002140e-06	-2.210455e-08	-3.602274e+01	-1.448998e+03
1.900000e-07	-4.967351e-06	-2.205441e-08	-3.577222e+01	-1.446656e+03
2.000000e-07	-4.931041e-06	-2.206322e-08	-3.551073e+01	-1.444163e+03
2.100000e-07	-4.893105e-06	-2.197761e-08	-3.523753e+01	-1.441622e+03
2.200000e-07	-4.853434e-06	-2.192818e-08	-3.495185e+01	-1.439113e+03
2.300000e-07	-4.811871e-06	-2.192417e-08	-3.465253e+01	-1.436665e+03
2.400000e-07	-4.768304e-06	-2.188980e-08	-3.433879e+01	-1.434245e+03
2.500000e-07	-4.722998e-06	-2.185094e-08	-3.401252e+01	-1.431764e+03
2.600000e-07	-4.675909e-06	-2.176270e-08	-3.367340e+01	-1.429108e+03
2.700000e-07	-4.626819e-06	-2.170310e-08	-3.331988e+01	-1.426168e+03
2.800000e-07	-4.575635e-06	-2.167401e-08	-3.295128e+01	-1.422874e+03
2.900000e-07	-4.522494e-06	-2.164426e-08	-3.256859e+01	-1.419221e+03
3.000000e-07	-4.467722e-06	-2.160261e-08	-3.217415e+01	-1.415264e+03
3.100000e-07	-4.411382e-06	-2.152578e-08	-3.176842e+01	-1.411107e+03
3.200000e-07	-4.353281e-06	-2.144494e-08	-3.135001e+01	-1.406870e+03
3.300000e-07	-4.293557e-06	-2.136939e-08	-3.091991e+01	-1.402648e+03
3.400000e-07	-4.232425e-06	-2.131033e-08	-3.047967e+01	-1.398487e+03
3.500000e-07	-4.169866e-06	-2.125949e-08	-3.002915e+01	-1.394364e+03
3.600000e-07	-4.105871e-06	-2.120050e-08	-2.956830e+01	-1.390196e+03
3.700000e-07	-4.040300e-06	-2.112426e-08	-2.909609e+01	-1.385868e+03
3.800000e-07	-3.973087e-06	-2.103125e-08	-2.861205e+01	-1.381262e+03
3.900000e-07	-3.904406e-06	-2.094996e-08	-2.811745e+01	-1.376298e+03
4.000000e-07	-3.834455e-06	-2.088371e-08	-2.761370e+01	-1.370958e+03
4.100000e-07	-3.763344e-06	-2.080535e-08	-2.710160e+01	-1.365288e+03
4.200000e-07	-3.691038e-06	-2.072437e-08	-2.658089e+01	-1.359383e+03
4.300000e-07	-3.617191e-06	-2.063441e-08	-2.604908e+01	-1.353360e+03
4.400000e-07	-3.541662e-06	-2.054093e-08	-2.550516e+01	-1.347312e+03
4.500000e-07	-3.464737e-06	-2.044338e-08	-2.495119e+01	-1.341282e+03
4.600000e-07	-3.386487e-06	-2.034416e-08	-2.438767e+01	-1.335244e+03
4.700000e-07	-3.306916e-06	-2.024863e-08	-2.381465e+01	-1.329109e+03
4.800000e-07	-3.226044e-06	-2.014454e-08	-2.323225e+01	-1.322750e+03
4.900000e-07	-3.143966e-06	-2.004164e-08	-2.264117e+01	-1.316040e+03
5.000000e-07	-3.060914e-06	-1.993574e-08	-2.204307e+01	-1.308891e+03
5.100000e-07	-2.977002e-06	-1.982113e-08	-2.143878e+01	-1.301282e+03
5.200000e-07	-2.892258e-06	-1.969342e-08	-2.082850e+01	-1.293261e+03
5.300000e-07	-2.806573e-06	-1.956673e-08	-2.021144e+01	-1.284931e+03
5.400000e-07	-2.719891e-06	-1.944498e-08	-1.958721e+01	-1.276416e+03
5.500000e-07	-2.632309e-06	-1.931665e-08	-1.895649e+01	-1.267813e+03
5.600000e-07	-2.543744e-06	-1.918117e-08	-1.831869e+01	-1.259164e+03
5.700000e-07	-2.454103e-06	-1.903900e-08	-1.767314e+01	-1.250428e+03
5.800000e-07	-2.363398e-06	-1.889443e-08	-1.701993e+01	-1.241495e+03
5.900000e-07	-2.271795e-06	-1.874465e-08	-1.636026e+01	-1.232211e+03
6.000000e-07	-2.179482e-06	-1.859213e-08	-1.569547e+01	-1.222421e+03
6.100000e-07	-2.086409e-06	-1.843513e-08	-1.502521e+01	-1.212019e+03
6.200000e-07	-1.992554e-06	-1.827094e-08	-1.434931e+01	-1.200975e+03
6.300000e-07	-1.897995e-06	-1.809623e-08	-1.366835e+01	-1.189345e+03
6.400000e-07	-1.802796e-06	-1.791174e-08	-1.298277e+01	-1.177251e+03
6.500000e-07	-1.706962e-06	-1.772414e-08	-1.229263e+01	-1.164834e+03
6.600000e-07	-1.610459e-06	-1.753423e-08	-1.159766e+01	-1.152206e+03
6.700000e-07	-1.513312e-06	-1.733964e-08	-1.089806e+01	-1.139402e+03
6.800000e-07	-1.415525e-06	-1.713485e-08	-1.019386e+01	-1.126356e+03
6.900000e-07	-1.317179e-06	-1.691939e-08	-9.485620e+00	-1.112906e+03
7.000000e-07	-1.218357e-06	-1.669339e-08	-8.773958e+00	-1.098836e+03
7.100000e-07	-1.119124e-06	-1.645746e-08	-8.059337e+00	-1.083928e+03
7.200000e-07	-1.019565e-06	-1.621399e-08	-7.342361e+00	-1.068022e+03
7.300000e-07	-9.197017e-07	-1.596456e-08	-6.623201e+00	-1.051059e+03
7.400000e-07	-8.195723e-07	-1.570582e-08	-5.902123e+00	-1.033094e+03
7.500000e-07	-7.192055e-07	-1.543127e-08	-5.179335e+00	-1.014260e+03
7.600000e-07	-6.186087e-07	-1.513757e-08	-4.454890e+00	-9.947139e+02
7.700000e-07	-5.178006e-07	-1.482793e-08	-3.728924e+00	-9.745604e+02
7.800000e-07	-4.168380e-07	-1.450377e-08	-3.001845e+00	-9.537823e+02
7.900000e-07	-3.157392e-07	-1.416429e-08	-2.273785e+00	-9.322051e+02
8.000000e-07	-2.144919e-07	-1.380830e-08	-1.544656e+00	-9.095042e+02
8.100000e-07	-1.131655e-07	-1.342840e-08	-8.149574e-01	-8.852598e+02
8.200000e-07	-1.181632e-08	-1.302189e-08	-8.509481e-02	-8.590423e+02
8.300000e-07	8.956286e-08	-1.258785e-08	6.449840e-01	-8.305046e+02
8.400000e-07	1.909155e-07	-1.212444e-08	1.374872e+00	-7.994486e+02
8.500000e-07	2.922331e-07	-1.162928e-08	2.104507e+00	-7.658371e+02
8.600000e-07	3.934852e-07	-1.109766e-08	2.833671e+00	-7.297385e+02
8.700000e-07	4.945821e-07	-1.052365e-08	3.561717e+00	-6.912073e+02
8.800000e-07	5.955125e-07	-9.897462e-09	4.288564e+00	-6.501272e+02
8.900000e-07	6.962719e-07	-9.210967e-09	5.014179e+00	-6.060578e+02
9.000000e-07	7.968094e-07	-8.454373e-09	5.738197e+00	-5.581345e+02
9.100000e-07	8.970858e-07	-7.618182e-09	6.460334e+00	-5.050626e+02
9.200000e-07	9.971108e-07	-6.689969e-09	7.180661e+00	-4.452316e+02
9.300000e-07	1.096862e-06	-5.650489e-09	7.899016e+00	-3.769453e+02
9.400000e-07	1.196247e-06	-4.475781e-09	8.614736e+00	-2.987369e+02
9.500000e-07	1.295220e-06	-3.143833e-09	9.327488e+00	-2.097111e+02
9.600000e-07	1.393669e-06	-1.642839e-09	1.003646e+01	-1.098438e+02
9.700000e-07	1.491457e-06	2.324358e-11	1.074068e+01	-1.710468e-01
9.800000e-07	1.588558e-06	1.825329e-09	1.143995e+01	1.171833e+02
9.900000e-07	1.684952e-06	3.713756e-09	1.213413e+01	2.391589e+02
1.000000e-06	1.780644e-06	5.617862e-09	1.282325e+01	3.620736e+02
1.010000e-06	1.875716e-06	7.462523e-09	1.350791e+01	4.820488e+02
1.020000e-06	1.970165e-06	9.185008e-09	1.418808e+01	5.954724e+02
1.030000e-06	2.063929e-06	1.074146e-08	1.486331e+01	6.994150e+02
1.040000e-06	2.156954e-06	1.211226e-08	1.553323e+01	7.919275e+02
1.050000e-06	2.249265e-06	1.329712e-08	1.619800e+01	8.721727e+02
1.060000e-06	2.340930e-06	1.431128e-08	1.685813e+01	9.403771e+02
1.070000e-06	2.431856e-06	1.517688e-08	1.751293e+01	9.976277e+02
1.080000e-06	2.521798e-06	1.591488e-08	1.816065e+01	1.045564e+03
1.090000e-06	2.610579e-06	1.654562e-08	1.880000e+01	1.086034e+03
1.100000e-06	2.698325e-06	1.708879e-08	1.943190e+01	1.120788e+03
1.110000e-06	2.785170e-06	1.755606e-08	2.005731e+01	1.151254e+03
1.120000e-06	2.871145e-06	1.796183e-08	2.067646e+01	1.178434e+03
1.130000e-06	2.956230e-06	1.832151e-08	2.128920e+01	1.202910e+03
1.140000e-06	3.040411e-06	1.864208e-08	2.189542e+01	1.224950e+03
1.150000e-06	3.123674e-06	1.892664e-08	2.249504e+01	1.244648e+03
1.160000e-06	3.205789e-06	1.918222e-08	2.308638e+01	1.262073e+03
1.170000e-06	3.286653e-06	1.941456e-08	2.366872e+01	1.277371e+03
1.180000e-06	3.366378e-06	1.962486e-08	2.424286e+01	1.290818e+03
1.190000e-06	3.444943e-06	1.981597e-08	2.480864e+01	1.302794e+03
1.200000e-06	3.522228e-06	1.999253e-08	2.536521e+01	1.313720e+03
1.210000e-06	3.598259e-06	2.015715e-08	2.591274e+01	1.323978e+03
1.220000e-06	3.672922e-06	2.031038e-08	2.645043e+01	1.333831e+03
1.230000e-06	3.745977e-06	2.045297e-08	2.697653e+01	1.343388e+03
1.240000e-06	3.817489e-06	2.058499e-08	2.749152e+01	1.352611e+03
1.250000e-06	3.887650e-06	2.070801e-08	2.799679e+01	1.361360e+03
1.260000e-06	3.956530e-06	2.082264e-08	2.849282e+01	1.369463e+03
1.270000e-06	4.024154e-06	2.092915e-08	2.897981e+01	1.376794e+03
1.280000e-06	4.090272e-06	2.102964e-08	2.945596e+01	1.383321e+03
1.290000e-06	4.154653e-06	2.112325e-08	2.991960e+01	1.389128e+03
1.300000e-06	4.217527e-06	2.120955e-08	3.037238e+01	1.394395e+03
1.310000e-06	4.279021e-06	2.129223e-08	3.081523e+01	1.399347e+03
1.320000e-06	4.339155e-06	2.137163e-08	3.124828e+01	1.404193e+03
1.330000e-06	4.397755e-06	2.144789e-08	3.167029e+01	1.409073e+03
1.340000e-06	4.454582e-06	2.152119e-08	3.207952e+01	1.414021e+03
1.350000e-06	4.509761e-06	2.159100e-08	3.247690e+01	1.418973e+03
1.360000e-06	4.563376e-06	2.165799e-08	3.286300e+01	1.423789e+03
1.370000e-06	4.615279e-06	2.172017e-08	3.323678e+01	1.428308e+03
1.380000e-06	4.665188e-06	2.177695e-08	3.359619e+01	1.432401e+03
1.390000e-06	4.713119e-06	2.183082e-08	3.394137e+01	1.436011e+03
1.400000e-06	4.759381e-06	2.188129e-08	3.427453e+01	1.439171e+03
1.410000e-06	4.804140e-06	2.192978e-08	3.459685e+01	1.441989e+03
1.420000e-06	4.847332e-06	2.197568e-08	3.490790e+01	1.444614e+03
1.430000e-06	4.888679e-06	2.201828e-08	3.520566e+01	1.447188e+03
1.440000e-06	4.928194e-06	2.205953e-08	3.549023e+01	1.449806e+03
1.450000e-06	4.966063e-06	2.209877e-08	3.576294e+01	1.452485e+03
1.460000e-06	5.002379e-06	2.213510e-08	3.602447e+01	1.455165e+03
1.470000e-06	5.036994e-06	2.216649e-08	3.627375e+01	1.457734e+03
1.480000e-06	5.069634e-06	2.219295e-08	3.650880e+01	1.460060e+03
1.490000e-06	5.100444e-06	2.221588e-08	3.673068e+01	1.462044e+03
1.500000e-06	5.129632e-06	2.223656e-08	3.694087e+01	1.463643e+03
1.510000e-06	5.157186e-06	2.225745e-08	3.713931e+01	1.464893e+03
1.520000e-06	5.182809e-06	2.227973e-08	3.732383e+01	1.465891e+03
1.530000e-06	5.206319e-06	2.230238e-08	3.749314e+01	1.466769e+03
1.540000e-06	5.227982e-06	2.232203e-08	3.764914e+01	1.467651e+03
1.550000e-06	5.247997e-06	2.233693e-08	3.779328e+01	1.468621e+03
1.560000e-06	5.266207e-06	2.235063e-08	3.792441e+01	1.469691e+03
1.570000e-06	5.282411e-06	2.236481e-08	3.804111e+01	1.470807e+03
1.580000e-06	5.296659e-06	2.237684e-08	3.814371e+01	1.471863e+03
1.590000e-06	5.308993e-06	2.238407e-08	3.823254e+01	1.472737e+03
1.600000e-06	5.319148e-06	2.238822e-08	3.830567e+01	1.473332e+03
1.610000e-06	5.327114e-06	2.239279e-08	3.836304e+01	1.473603e+03
1.620000e-06	5.333194e-06	2.239800e-08	3.840682e+01	1.473575e+03
1.630000e-06	5.337547e-06	2.240341e-08	3.843817e+01	1.473330e+03
1.640000e-06	5.340072e-06	2.240795e-08	3.845635e+01	1.472985e+03
1.650000e-06	5.340578e-06	2.240907e-08	3.846000e+01	1.472652e+03
1.660000e-06	5.339237e-06	2.240575e-08	3.845034e+01	1.472405e+03
1.670000e-06	5.336234e-06	2.240031e-08	3.842871e+01	1.472256e+03
1.680000e-06	5.331571e-06	2.239322e-08	3.839513e+01	1.472152e+03
1.690000e-06	5.325070e-06	2.238620e-08	3.834832e+01	1.471990e+03
1.700000e-06	5.316777e-06	2.237708e-08	3.828860e+01	1.471655e+03
1.710000e-06	5.306929e-06	2.236719e-08	3.821767e+01	1.471049e+03
1.720000e-06	5.295459e-06	2.235968e-08	3.813507e+01	1.470126e+03
1.730000e-06	5.282127e-06	2.233377e-08	3.803906e+01	1.468909e+03
1.740000e-06	5.266739e-06	2.230082e-08	3.792825e+01	1.467476e+03
1.750000e-06	5.249048e-06	2.228501e-08	3.780085e+01	1.465945e+03
1.760000e-06	5.228797e-06	2.226977e-08	3.765501e+01	1.464433e+03
1.770000e-06	5.206157e-06	2.229293e-08	3.749197e+01	1.463022e+03
1.780000e-06	5.182059e-06	2.228349e-08	3.731842e+01	1.461734e+03
1.790000e-06	5.157221e-06	2.219806e-08	3.713955e+01	1.460528e+03
1.800000e-06	5.131047e-06	2.220755e-08	3.695106e+01	1.459308e+03
1.810000e-06	5.102918e-06	2.217625e-08	3.674850e+01	1.457960e+03
1.820000e-06	5.073029e-06	2.213445e-08	3.653325e+01	1.456380e+03
1.830000e-06	5.041283e-06	2.218623e-08	3.630463e+01	1.454509e+03
1.840000e-06	5.007561e-06	2.213077e-08	3.606179e+01	1.452352e+03
1.850000e-06	4.972265e-06	2.208771e-08	3.580760e+01	1.449968e+03
1.860000e-06	4.935218e-06	2.212621e-08	3.554081e+01	1.447456e+03
1.870000e-06	4.896198e-06	2.207003e-08	3.525981e+01	1.444915e+03
1.880000e-06	4.855513e-06	2.200188e-08	3.496682e+01	1.442419e+03
1.890000e-06	4.813079e-06	2.195103e-08	3.466123e+01	1.439981e+03
1.900000e-06	4.768960e-06	2.192143e-08	3.434351e+01	1.437556e+03
1.910000e-06	4.723150e-06	2.195402e-08	3.401361e+01	1.435048e+03
1.920000e-06	4.675509e-06	2.188752e-08	3.367052e+01	1.432338e+03
1.930000e-06	4.626263e-06	2.181168e-08	3.331588e+01	1.429326e+03
1.940000e-06	4.575214e-06	2.175821e-08	3.294826e+01	1.425952e+03
1.950000e-06	4.522141e-06	2.167924e-08	3.256605e+01	1.422226e+03
1.960000e-06	4.467154e-06	2.164815e-08	3.217006e+01	1.418216e+03
1.970000e-06	4.410449e-06	2.160325e-08	3.176171e+01	1.414032e+03
1.980000e-06	4.352254e-06	2.155726e-08	3.134261e+01	1.409791e+03
1.990000e-06	4.292616e-06	2.149775e-08	3.091314e+01	1.405580e+03
2.000000e-06	4.231512e-06	2.139731e-08	3.047309e+01	1.401430e+03
2.010000e-06	4.168713e-06	2.133084e-08	3.002085e+01	1.397305e+03
2.020000e-06	4.104213e-06	2.127164e-08	2.955635e+01	1.393113e+03
2.030000e-06	4.038336e-06	2.121663e-08	2.908195e+01	1.388734e+03
2.040000e-06	3.971151e-06	2.114512e-08	2.859811e+01	1.384055e+03
2.050000e-06	3.902585e-06	2.106224e-08	2.810434e+01	1.379010e+03
2.060000e-06	3.832506e-06	2.098839e-08	2.759967e+01	1.373592e+03
2.070000e-06	3.760923e-06	2.089058e-08	2.708417e+01	1.367861e+03
2.080000e-06	3.688020e-06	2.080411e-08	2.655915e+01	1.361921e+03
2.090000e-06	3.613811e-06	2.072349e-08	2.602474e+01	1.355886e+03
2.100000e-06	3.538333e-06	2.064118e-08	2.548119e+01	1.349840e+03
2.110000e-06	3.461394e-06	2.054814e-08	2.492712e+01	1.343812e+03
2.120000e-06	3.382865e-06	2.044489e-08	2.436159e+01	1.337762e+03
2.130000e-06	3.303016e-06	2.034822e-08	2.378656e+01	1.331589e+03
2.140000e-06	3.222068e-06	2.023755e-08	2.320361e+01	1.325164e+03
2.150000e-06	3.140086e-06	2.012570e-08	2.261323e+01	1.318365e+03
2.160000e-06	3.057049e-06	2.002498e-08	2.201524e+01	1.311117e+03
2.170000e-06	2.973030e-06	1.992748e-08	2.141018e+01	1.303412e+03
2.180000e-06	2.887948e-06	1.981114e-08	2.079746e+01	1.295314e+03
2.190000e-06	2.801614e-06	1.967961e-08	2.017573e+01	1.286934e+03
2.200000e-06	2.714107e-06	1.955189e-08	1.954555e+01	1.278392e+03
2.210000e-06	2.625597e-06	1.942533e-08	1.890815e+01	1.269778e+03
2.220000e-06	2.536170e-06	1.929529e-08	1.826414e+01	1.261116e+03
2.230000e-06	2.445866e-06	1.915831e-08	1.761382e+01	1.252349e+03
2.240000e-06	2.354803e-06	1.901793e-08	1.695803e+01	1.243353e+03
2.250000e-06	2.263075e-06	1.886809e-08	1.629746e+01	1.233972e+03
2.260000e-06	2.170602e-06	1.871014e-08	1.563152e+01	1.224057e+03
2.270000e-06	2.077237e-06	1.855050e-08	1.495916e+01	1.213516e+03
2.280000e-06	1.982945e-06	1.839274e-08	1.428011e+01	1.202339e+03
2.290000e-06	1.887860e-06	1.822880e-08	1.359536e+01	1.190597e+03
2.300000e-06	1.792068e-06	1.805099e-08	1.290552e+01	1.178421e+03
2.310000e-06	1.695707e-06	1.786156e-08	1.221158e+01	1.165951e+03
2.320000e-06	1.598855e-06	1.766633e-08	1.151410e+01	1.153285e+03
2.330000e-06	1.501477e-06	1.746789e-08	1.081284e+01	1.140438e+03
2.340000e-06	1.403612e-06	1.726314e-08	1.010807e+01	1.127321e+03
2.350000e-06	1.305334e-06	1.705347e-08	9.400320e+00	1.113757e+03
2.360000e-06	1.206653e-06	1.683512e-08	8.689675e+00	1.099524e+03
2.370000e-06	1.107605e-06	1.660290e-08	7.976378e+00	1.084411e+03
2.380000e-06	1.008241e-06	1.635378e-08	7.260816e+00	1.068279e+03
2.390000e-06	9.086391e-07	1.609073e-08	6.543535e+00	1.051093e+03
2.400000e-06	8.088052e-07	1.582008e-08	5.824584e+00	1.032928e+03
2.410000e-06	7.086760e-07	1.554203e-08	5.103507e+00	1.013928e+03
2.420000e-06	6.083426e-07	1.525230e-08	4.380959e+00	9.942457e+02
2.430000e-06	5.078270e-07	1.494706e-08	3.657100e+00	9.739642e+02
2.440000e-06	4.071279e-07	1.462346e-08	2.931918e+00	9.530345e+02
2.450000e-06	3.062972e-07	1.427951e-08	2.205789e+00	9.312475e+02
2.460000e-06	2.053487e-07	1.391441e-08	1.478812e+00	9.082524e+02
2.470000e-06	1.043265e-07	1.352861e-08	7.513041e-01	8.836192e+02
2.480000e-06	3.202957e-09	1.312036e-08	2.306599e-02	8.569287e+02
2.490000e-06	-9.801134e-08	1.268364e-08	-7.058255e-01	8.278617e+02
2.500000e-06	-1.992104e-07	1.221134e-08	-1.434607e+00	7.962557e+02
2.510000e-06	-3.002876e-07	1.170165e-08	-2.162512e+00	7.621031e+02
2.520000e-06	-4.012200e-07	1.115463e-08	-2.889373e+00	7.254813e+02
2.530000e-06	-5.020901e-07	1.056586e-08	-3.615785e+00	6.864220e+02
2.540000e-06	-6.028130e-07	9.927932e-09	-4.341138e+00	6.447511e+02
2.550000e-06	-7.032935e-07	9.230822e-09	-5.064745e+00	5.999434e+02
2.560000e-06	-8.034906e-07	8.464696e-09	-5.786311e+00	5.510385e+02
2.570000e-06	-9.034094e-07	7.616119e-09	-6.505873e+00	4.966604e+02
2.580000e-06	-1.003071e-06	6.668567e-09	-7.223580e+00	4.351570e+02
2.590000e-06	-1.102398e-06	5.603640e-09	-7.938884e+00	3.648531e+02
2.600000e-06	-1.201322e-06	4.402254e-09	-8.651283e+00	2.843757e+02
2.610000e-06	-1.299891e-06	3.045704e-09	-9.361125e+00	1.929939e+02
2.620000e-06	-1.398023e-06	1.520752e-09	-1.006782e+01	9.089973e+01
2.630000e-06	-1.495558e-06	-1.680203e-10	-1.077021e+01	-2.063396e+01
2.640000e-06	-1.592597e-06	-1.991293e-09	-1.146903e+01	-1.392638e+02
2.650000e-06	-1.689198e-06	-3.893292e-09	-1.216470e+01	-2.617649e+02
2.660000e-06	-1.785272e-06	-5.802808e-09	-1.285658e+01	-3.843747e+02
2.670000e-06	-1.880733e-06	-7.644691e-09	-1.354404e+01	-5.032332e+02
2.680000e-06	-1.975425e-06	-9.353529e-09	-1.422596e+01	-6.148425e+02
2.690000e-06	-2.069207e-06	-1.089213e-08	-1.490133e+01	-7.164634e+02
2.700000e-06	-2.162068e-06	-1.224712e-08	-1.557006e+01	-8.063802e+02
2.710000e-06	-2.254099e-06	-1.341919e-08	-1.623282e+01	-8.839935e+02
2.720000e-06	-2.345412e-06	-1.442342e-08	-1.689041e+01	-9.497359e+02
2.730000e-06	-2.435966e-06	-1.528026e-08	-1.754253e+01	-1.004841e+03
2.740000e-06	-2.525608e-06	-1.601174e-08	-1.818809e+01	-1.051021e+03
2.750000e-06	-2.614370e-06	-1.663885e-08	-1.882730e+01	-1.090128e+03
2.760000e-06	-2.702392e-06	-1.717939e-08	-1.946119e+01	-1.123858e+03
2.770000e-06	-2.789603e-06	-1.764629e-08	-2.008924e+01	-1.153551e+03
2.780000e-06	-2.875723e-06	-1.805024e-08	-2.070943e+01	-1.180116e+03
2.790000e-06	-2.960605e-06	-1.840326e-08	-2.132070e+01	-1.204056e+03
2.800000e-06	-3.044371e-06	-1.871590e-08	-2.192394e+01	-1.225590e+03
2.810000e-06	-3.127168e-06	-1.899737e-08	-2.252019e+01	-1.244794e+03
2.820000e-06	-3.208952e-06	-1.925109e-08	-2.310916e+01	-1.261747e+03
2.830000e-06	-3.289715e-06	-1.948183e-08	-2.369077e+01	-1.276622e+03
2.840000e-06	-3.369420e-06	-1.969350e-08	-2.426477e+01	-1.289720e+03
2.850000e-06	-3.447652e-06	-1.988649e-08	-2.482815e+01	-1.301436e+03
2.860000e-06	-3.524326e-06	-2.006265e-08	-2.538031e+01	-1.312191e+03
2.870000e-06	-3.599650e-06	-2.022379e-08	-2.592276e+01	-1.322345e+03
2.880000e-06	-3.673611e-06	-2.037361e-08	-2.645539e+01	-1.332131e+03
2.890000e-06	-3.746322e-06	-2.051547e-08	-2.697901e+01	-1.341625e+03
2.900000e-06	-3.817781e-06	-2.064871e-08	-2.749362e+01	-1.350762e+03
2.910000e-06	-3.887726e-06	-2.077284e-08	-2.799733e+01	-1.359386e+03
2.920000e-06	-3.956159e-06	-2.088795e-08	-2.849015e+01	-1.367333e+03
2.930000e-06	-4.023195e-06	-2.099352e-08	-2.897291e+01	-1.374491e+03
2.940000e-06	-4.088822e-06	-2.109090e-08	-2.944552e+01	-1.380854e+03
