# Temperatura_=_73.04
# Concentracion g/m^3_=_28200.0
# C_Vs_to_Am_M_A/Vsm_=_65563218390.804596
# pendiente_HvsI_1/m_=_3716.3
# ordenada_HvsI_A/m_=_1297.0
# frecuencia_Hz_=_301768.5279707374

Tiempo_(s)	Campo_(V.s)	Magnetizacion_(V.s)	Campo_(kA/m)	Magnetizacion_(A/m)
0.000000e+00	-5.308260e-06	-2.307934e-08	-3.830011e+01	-1.508974e+03
1.000000e-08	-5.306318e-06	-2.307283e-08	-3.828609e+01	-1.508580e+03
2.000000e-08	-5.302527e-06	-2.306062e-08	-3.825874e+01	-1.508038e+03
3.000000e-08	-5.297100e-06	-2.304431e-08	-3.821958e+01	-1.507335e+03
4.000000e-08	-5.290082e-06	-2.302805e-08	-3.816894e+01	-1.506448e+03
5.000000e-08	-5.281383e-06	-2.301001e-08	-3.810618e+01	-1.505347e+03
6.000000e-08	-5.270767e-06	-2.298928e-08	-3.802959e+01	-1.504005e+03
7.000000e-08	-5.258195e-06	-2.296414e-08	-3.793888e+01	-1.502403e+03
8.000000e-08	-5.243718e-06	-2.293747e-08	-3.783442e+01	-1.500544e+03
9.000000e-08	-5.226989e-06	-2.293092e-08	-3.771372e+01	-1.498447e+03
1.000000e-07	-5.208077e-06	-2.291673e-08	-3.757726e+01	-1.496154e+03
1.100000e-07	-5.187298e-06	-2.285841e-08	-3.742734e+01	-1.493714e+03
1.200000e-07	-5.164706e-06	-2.279589e-08	-3.726433e+01	-1.491182e+03
1.300000e-07	-5.140551e-06	-2.272795e-08	-3.709005e+01	-1.488602e+03
1.400000e-07	-5.114895e-06	-2.267747e-08	-3.690494e+01	-1.486000e+03
1.500000e-07	-5.087584e-06	-2.268702e-08	-3.670789e+01	-1.483373e+03
1.600000e-07	-5.058718e-06	-2.262631e-08	-3.649961e+01	-1.480696e+03
1.700000e-07	-5.028393e-06	-2.253942e-08	-3.628081e+01	-1.477916e+03
1.800000e-07	-4.996393e-06	-2.252920e-08	-3.604993e+01	-1.474970e+03
1.900000e-07	-4.962362e-06	-2.245572e-08	-3.580439e+01	-1.471791e+03
2.000000e-07	-4.926591e-06	-2.240082e-08	-3.554629e+01	-1.468318e+03
2.100000e-07	-4.889276e-06	-2.239705e-08	-3.527706e+01	-1.464510e+03
2.200000e-07	-4.850215e-06	-2.228905e-08	-3.499523e+01	-1.460348e+03
2.300000e-07	-4.809384e-06	-2.218242e-08	-3.470062e+01	-1.455833e+03
2.400000e-07	-4.766615e-06	-2.210944e-08	-3.439203e+01	-1.450985e+03
2.500000e-07	-4.721993e-06	-2.202422e-08	-3.407008e+01	-1.445834e+03
2.600000e-07	-4.675654e-06	-2.198966e-08	-3.373573e+01	-1.440410e+03
2.700000e-07	-4.627414e-06	-2.190062e-08	-3.338767e+01	-1.434738e+03
2.800000e-07	-4.577079e-06	-2.174419e-08	-3.302450e+01	-1.428829e+03
2.900000e-07	-4.524695e-06	-2.163466e-08	-3.264654e+01	-1.422683e+03
3.000000e-07	-4.470574e-06	-2.155698e-08	-3.225604e+01	-1.416289e+03
3.100000e-07	-4.414906e-06	-2.148409e-08	-3.185439e+01	-1.409626e+03
3.200000e-07	-4.357507e-06	-2.139222e-08	-3.144024e+01	-1.402676e+03
3.300000e-07	-4.298385e-06	-2.127312e-08	-3.101366e+01	-1.395422e+03
3.400000e-07	-4.237738e-06	-2.113400e-08	-3.057608e+01	-1.387855e+03
3.500000e-07	-4.175633e-06	-2.098860e-08	-3.012799e+01	-1.379972e+03
3.600000e-07	-4.112179e-06	-2.086601e-08	-2.967015e+01	-1.371778e+03
3.700000e-07	-4.047274e-06	-2.076625e-08	-2.920185e+01	-1.363279e+03
3.800000e-07	-3.980739e-06	-2.066130e-08	-2.872179e+01	-1.354482e+03
3.900000e-07	-3.912682e-06	-2.050440e-08	-2.823075e+01	-1.345384e+03
4.000000e-07	-3.843255e-06	-2.032947e-08	-2.772981e+01	-1.335981e+03
4.100000e-07	-3.772619e-06	-2.018554e-08	-2.722017e+01	-1.326258e+03
4.200000e-07	-3.700896e-06	-2.003732e-08	-2.670267e+01	-1.316196e+03
4.300000e-07	-3.627792e-06	-1.987957e-08	-2.617521e+01	-1.305772e+03
4.400000e-07	-3.553049e-06	-1.971696e-08	-2.563593e+01	-1.294963e+03
4.500000e-07	-3.476820e-06	-1.953413e-08	-2.508592e+01	-1.283750e+03
4.600000e-07	-3.399329e-06	-1.934412e-08	-2.452680e+01	-1.272117e+03
4.700000e-07	-3.320510e-06	-1.916743e-08	-2.395811e+01	-1.260051e+03
4.800000e-07	-3.240236e-06	-1.899345e-08	-2.337892e+01	-1.247540e+03
4.900000e-07	-3.158667e-06	-1.879695e-08	-2.279038e+01	-1.234573e+03
5.000000e-07	-3.076012e-06	-1.858518e-08	-2.219401e+01	-1.221138e+03
5.100000e-07	-2.992489e-06	-1.836746e-08	-2.159137e+01	-1.207218e+03
5.200000e-07	-2.908164e-06	-1.814118e-08	-2.098296e+01	-1.192790e+03
5.300000e-07	-2.822878e-06	-1.790794e-08	-2.036760e+01	-1.177829e+03
5.400000e-07	-2.736609e-06	-1.766854e-08	-1.974515e+01	-1.162308e+03
5.500000e-07	-2.649454e-06	-1.742076e-08	-1.911631e+01	-1.146194e+03
5.600000e-07	-2.561469e-06	-1.715775e-08	-1.848149e+01	-1.129456e+03
5.700000e-07	-2.472380e-06	-1.688989e-08	-1.783869e+01	-1.112062e+03
5.800000e-07	-2.382049e-06	-1.662371e-08	-1.718693e+01	-1.093977e+03
5.900000e-07	-2.290792e-06	-1.634603e-08	-1.652850e+01	-1.075165e+03
6.000000e-07	-2.198819e-06	-1.604667e-08	-1.586490e+01	-1.055583e+03
6.100000e-07	-2.106120e-06	-1.572774e-08	-1.519606e+01	-1.035186e+03
6.200000e-07	-2.012651e-06	-1.539768e-08	-1.452166e+01	-1.013921e+03
6.300000e-07	-1.918427e-06	-1.505723e-08	-1.384182e+01	-9.917330e+02
6.400000e-07	-1.823508e-06	-1.470544e-08	-1.315696e+01	-9.685588e+02
6.500000e-07	-1.727986e-06	-1.433643e-08	-1.246775e+01	-9.443339e+02
6.600000e-07	-1.631987e-06	-1.394385e-08	-1.177509e+01	-9.189912e+02
6.700000e-07	-1.535452e-06	-1.353227e-08	-1.107858e+01	-8.924625e+02
6.800000e-07	-1.438212e-06	-1.310657e-08	-1.037697e+01	-8.646783e+02
6.900000e-07	-1.340229e-06	-1.266740e-08	-9.670006e+00	-8.355686e+02
7.000000e-07	-1.241580e-06	-1.220880e-08	-8.958239e+00	-8.050635e+02
7.100000e-07	-1.142414e-06	-1.172464e-08	-8.242734e+00	-7.730948e+02
7.200000e-07	-1.042947e-06	-1.120921e-08	-7.525059e+00	-7.395998e+02
7.300000e-07	-9.432695e-07	-1.066421e-08	-6.805869e+00	-7.045265e+02
7.400000e-07	-8.433573e-07	-1.010070e-08	-6.084983e+00	-6.678420e+02
7.500000e-07	-7.432213e-07	-9.520838e-09	-5.362483e+00	-6.295406e+02
7.600000e-07	-6.428320e-07	-8.916547e-09	-4.638155e+00	-5.896523e+02
7.700000e-07	-5.422342e-07	-8.285270e-09	-3.912323e+00	-5.482501e+02
7.800000e-07	-4.415417e-07	-7.632065e-09	-3.185808e+00	-5.054518e+02
7.900000e-07	-3.407581e-07	-6.962113e-09	-2.458634e+00	-4.614182e+02
8.000000e-07	-2.398253e-07	-6.275306e-09	-1.730385e+00	-4.163441e+02
8.100000e-07	-1.387399e-07	-5.575105e-09	-1.001035e+00	-3.704438e+02
8.200000e-07	-3.757718e-08	-4.868141e-09	-2.711265e-01	-3.239318e+02
8.300000e-07	6.358253e-08	-4.154663e-09	4.587600e-01	-2.770011e+02
8.400000e-07	1.647700e-07	-3.435203e-09	1.188847e+00	-2.298023e+02
8.500000e-07	2.659572e-07	-2.713562e-09	1.918932e+00	-1.824262e+02
8.600000e-07	3.670852e-07	-1.993401e-09	2.648590e+00	-1.348937e+02
8.700000e-07	4.680970e-07	-1.270642e-09	3.377409e+00	-8.715465e+01
8.800000e-07	5.689195e-07	-5.410018e-10	4.104863e+00	-3.909713e+01
8.900000e-07	6.695779e-07	1.967811e-10	4.831132e+00	9.433598e+00
9.000000e-07	7.700508e-07	9.457977e-10	5.556063e+00	5.860833e+01
9.100000e-07	8.703118e-07	1.709254e-09	6.279465e+00	1.085825e+02
9.200000e-07	9.703502e-07	2.486621e-09	7.001261e+00	1.594643e+02
9.300000e-07	1.070112e-06	3.277528e-09	7.721061e+00	2.112870e+02
9.400000e-07	1.169575e-06	4.081536e-09	8.438707e+00	2.639886e+02
9.500000e-07	1.268611e-06	4.893448e-09	9.153272e+00	3.174033e+02
9.600000e-07	1.367070e-06	5.709487e-09	9.863674e+00	3.712648e+02
9.700000e-07	1.464825e-06	6.527470e-09	1.056899e+01	4.252220e+02
9.800000e-07	1.561864e-06	7.342329e-09	1.126915e+01	4.788650e+02
9.900000e-07	1.658197e-06	8.148369e-09	1.196420e+01	5.317576e+02
1.000000e-06	1.753812e-06	8.937775e-09	1.265409e+01	5.834728e+02
1.010000e-06	1.848820e-06	9.701716e-09	1.333959e+01	6.336254e+02
1.020000e-06	1.943236e-06	1.043319e-08	1.402082e+01	6.818984e+02
1.030000e-06	2.037015e-06	1.112870e-08	1.469745e+01	7.280602e+02
1.040000e-06	2.130091e-06	1.178868e-08	1.536901e+01	7.719706e+02
1.050000e-06	2.222526e-06	1.241575e-08	1.603595e+01	8.135771e+02
1.060000e-06	2.314274e-06	1.301202e-08	1.669793e+01	8.529008e+02
1.070000e-06	2.405160e-06	1.357727e-08	1.735369e+01	8.900187e+02
1.080000e-06	2.495058e-06	1.411118e-08	1.800232e+01	9.250424e+02
1.090000e-06	2.583914e-06	1.461379e-08	1.864343e+01	9.580990e+02
1.100000e-06	2.671808e-06	1.508744e-08	1.927761e+01	9.893159e+02
1.110000e-06	2.758789e-06	1.553398e-08	1.990519e+01	1.018811e+03
1.120000e-06	2.844813e-06	1.595515e-08	2.052587e+01	1.046689e+03
1.130000e-06	2.929887e-06	1.635184e-08	2.113969e+01	1.073042e+03
1.140000e-06	3.014122e-06	1.672688e-08	2.174747e+01	1.097956e+03
1.150000e-06	3.097500e-06	1.708366e-08	2.234905e+01	1.121513e+03
1.160000e-06	3.179784e-06	1.742460e-08	2.294274e+01	1.143794e+03
1.170000e-06	3.260810e-06	1.774931e-08	2.352736e+01	1.164885e+03
1.180000e-06	3.340666e-06	1.805480e-08	2.410354e+01	1.184872e+03
1.190000e-06	3.419336e-06	1.834182e-08	2.467116e+01	1.203837e+03
1.200000e-06	3.496810e-06	1.861206e-08	2.523015e+01	1.221860e+03
1.210000e-06	3.573098e-06	1.886864e-08	2.578058e+01	1.239006e+03
1.220000e-06	3.647983e-06	1.911427e-08	2.632089e+01	1.255330e+03
1.230000e-06	3.721283e-06	1.934961e-08	2.684976e+01	1.270876e+03
1.240000e-06	3.793065e-06	1.957458e-08	2.736769e+01	1.285679e+03
1.250000e-06	3.863469e-06	1.978697e-08	2.787566e+01	1.299768e+03
1.260000e-06	3.932585e-06	1.998655e-08	2.837435e+01	1.313172e+03
1.270000e-06	4.000428e-06	2.017530e-08	2.886385e+01	1.325924e+03
1.280000e-06	4.066797e-06	2.035606e-08	2.934272e+01	1.338061e+03
1.290000e-06	4.131513e-06	2.053186e-08	2.980965e+01	1.349623e+03
1.300000e-06	4.194705e-06	2.070056e-08	3.026559e+01	1.360652e+03
1.310000e-06	4.256504e-06	2.086177e-08	3.071149e+01	1.371181e+03
1.320000e-06	4.316957e-06	2.101586e-08	3.114767e+01	1.381238e+03
1.330000e-06	4.375960e-06	2.116335e-08	3.157339e+01	1.390840e+03
1.340000e-06	4.433282e-06	2.130414e-08	3.198697e+01	1.399988e+03
1.350000e-06	4.488899e-06	2.143643e-08	3.238826e+01	1.408681e+03
1.360000e-06	4.542818e-06	2.155881e-08	3.277730e+01	1.416909e+03
1.370000e-06	4.594933e-06	2.167325e-08	3.315331e+01	1.424670e+03
1.380000e-06	4.645064e-06	2.178208e-08	3.351502e+01	1.431966e+03
1.390000e-06	4.693284e-06	2.188563e-08	3.386294e+01	1.438815e+03
1.400000e-06	4.739871e-06	2.198278e-08	3.419907e+01	1.445245e+03
1.410000e-06	4.784955e-06	2.207504e-08	3.452436e+01	1.451296e+03
1.420000e-06	4.828466e-06	2.216370e-08	3.483830e+01	1.457011e+03
1.430000e-06	4.870149e-06	2.224611e-08	3.513905e+01	1.462430e+03
1.440000e-06	4.910000e-06	2.232257e-08	3.542658e+01	1.467585e+03
1.450000e-06	4.948227e-06	2.239523e-08	3.570240e+01	1.472494e+03
1.460000e-06	4.984884e-06	2.246623e-08	3.596689e+01	1.477160e+03
1.470000e-06	5.019847e-06	2.253458e-08	3.621915e+01	1.481574e+03
1.480000e-06	5.052910e-06	2.259743e-08	3.645771e+01	1.485718e+03
1.490000e-06	5.084173e-06	2.265556e-08	3.668328e+01	1.489574e+03
1.500000e-06	5.113764e-06	2.271051e-08	3.689678e+01	1.493128e+03
1.510000e-06	5.141629e-06	2.276102e-08	3.709783e+01	1.496376e+03
1.520000e-06	5.167516e-06	2.280481e-08	3.728461e+01	1.499323e+03
1.530000e-06	5.191332e-06	2.284301e-08	3.745645e+01	1.501983e+03
1.540000e-06	5.213328e-06	2.287906e-08	3.761515e+01	1.504375e+03
1.550000e-06	5.233688e-06	2.291174e-08	3.776205e+01	1.506519e+03
1.560000e-06	5.252294e-06	2.294081e-08	3.789630e+01	1.508428e+03
1.570000e-06	5.268894e-06	2.296622e-08	3.801607e+01	1.510109e+03
1.580000e-06	5.283537e-06	2.298826e-08	3.812172e+01	1.511558e+03
1.590000e-06	5.296262e-06	2.300588e-08	3.821354e+01	1.512771e+03
1.600000e-06	5.306828e-06	2.301908e-08	3.828978e+01	1.513739e+03
1.610000e-06	5.315233e-06	2.302928e-08	3.835041e+01	1.514460e+03
1.620000e-06	5.321738e-06	2.303681e-08	3.839735e+01	1.514940e+03
1.630000e-06	5.326489e-06	2.304251e-08	3.843163e+01	1.515192e+03
1.640000e-06	5.329441e-06	2.304568e-08	3.845293e+01	1.515240e+03
1.650000e-06	5.330421e-06	2.304682e-08	3.846000e+01	1.515106e+03
1.660000e-06	5.329492e-06	2.304433e-08	3.845330e+01	1.514813e+03
1.670000e-06	5.326902e-06	2.303768e-08	3.843461e+01	1.514371e+03
1.680000e-06	5.322721e-06	2.302884e-08	3.840444e+01	1.513778e+03
1.690000e-06	5.316650e-06	2.301714e-08	3.836064e+01	1.513018e+03
1.700000e-06	5.308705e-06	2.300155e-08	3.830332e+01	1.512064e+03
1.710000e-06	5.299209e-06	2.298332e-08	3.823480e+01	1.510887e+03
1.720000e-06	5.288056e-06	2.296623e-08	3.815433e+01	1.509461e+03
1.730000e-06	5.275017e-06	2.294904e-08	3.806025e+01	1.507775e+03
1.740000e-06	5.260001e-06	2.289634e-08	3.795191e+01	1.505835e+03
1.750000e-06	5.242859e-06	2.283493e-08	3.782822e+01	1.503669e+03
1.760000e-06	5.223250e-06	2.281890e-08	3.768674e+01	1.501321e+03
1.770000e-06	5.201083e-06	2.280839e-08	3.752680e+01	1.498845e+03
1.780000e-06	5.177111e-06	2.280718e-08	3.735384e+01	1.496292e+03
1.790000e-06	5.152257e-06	2.274937e-08	3.717451e+01	1.493703e+03
1.800000e-06	5.126470e-06	2.264028e-08	3.698845e+01	1.491092e+03
1.810000e-06	5.098870e-06	2.265344e-08	3.678932e+01	1.488453e+03
1.820000e-06	5.069206e-06	2.264050e-08	3.657529e+01	1.485747e+03
1.830000e-06	5.037824e-06	2.256090e-08	3.634886e+01	1.482921e+03
1.840000e-06	5.004631e-06	2.258428e-08	3.610936e+01	1.479906e+03
1.850000e-06	4.969741e-06	2.251419e-08	3.585763e+01	1.476637e+03
1.860000e-06	4.933234e-06	2.239341e-08	3.559422e+01	1.473059e+03
1.870000e-06	4.894808e-06	2.238296e-08	3.531697e+01	1.469137e+03
1.880000e-06	4.854673e-06	2.231390e-08	3.502739e+01	1.464859e+03
1.890000e-06	4.812879e-06	2.226931e-08	3.472584e+01	1.460233e+03
1.900000e-06	4.769334e-06	2.220477e-08	3.441166e+01	1.455283e+03
1.910000e-06	4.724119e-06	2.204385e-08	3.408542e+01	1.450040e+03
1.920000e-06	4.676994e-06	2.203557e-08	3.374540e+01	1.444533e+03
1.930000e-06	4.628080e-06	2.201385e-08	3.339248e+01	1.438783e+03
1.940000e-06	4.577513e-06	2.188601e-08	3.302763e+01	1.432798e+03
1.950000e-06	4.524986e-06	2.178839e-08	3.264863e+01	1.426572e+03
1.960000e-06	4.470510e-06	2.166983e-08	3.225558e+01	1.420093e+03
1.970000e-06	4.414270e-06	2.157301e-08	3.184980e+01	1.413339e+03
1.980000e-06	4.356402e-06	2.144046e-08	3.143227e+01	1.406291e+03
1.990000e-06	4.297145e-06	2.133566e-08	3.100472e+01	1.398936e+03
2.000000e-06	4.236473e-06	2.128823e-08	3.056696e+01	1.391266e+03
2.010000e-06	4.174147e-06	2.113746e-08	3.011726e+01	1.383281e+03
2.020000e-06	4.110067e-06	2.097207e-08	2.965492e+01	1.374988e+03
2.030000e-06	4.044505e-06	2.082731e-08	2.918188e+01	1.366391e+03
2.040000e-06	3.977667e-06	2.071784e-08	2.869963e+01	1.357496e+03
2.050000e-06	3.909478e-06	2.060758e-08	2.820763e+01	1.348301e+03
2.060000e-06	3.839785e-06	2.044250e-08	2.770478e+01	1.338796e+03
2.070000e-06	3.768598e-06	2.030469e-08	2.719115e+01	1.328965e+03
2.080000e-06	3.696111e-06	2.013405e-08	2.666815e+01	1.318788e+03
2.090000e-06	3.622319e-06	1.996348e-08	2.613572e+01	1.308241e+03
2.100000e-06	3.547195e-06	1.981701e-08	2.559369e+01	1.297303e+03
2.110000e-06	3.470681e-06	1.965063e-08	2.504162e+01	1.285956e+03
2.120000e-06	3.392594e-06	1.947264e-08	2.447821e+01	1.274184e+03
2.130000e-06	3.313135e-06	1.927034e-08	2.390490e+01	1.261974e+03
2.140000e-06	3.232605e-06	1.908126e-08	2.332386e+01	1.249317e+03
2.150000e-06	3.151003e-06	1.888005e-08	2.273508e+01	1.236201e+03
2.160000e-06	3.068309e-06	1.867384e-08	2.213843e+01	1.222610e+03
2.170000e-06	2.984665e-06	1.847533e-08	2.153493e+01	1.208528e+03
2.180000e-06	2.900067e-06	1.825706e-08	2.092454e+01	1.193931e+03
2.190000e-06	2.814133e-06	1.802140e-08	2.030450e+01	1.178792e+03
2.200000e-06	2.726936e-06	1.777667e-08	1.967536e+01	1.163082e+03
2.210000e-06	2.638858e-06	1.754156e-08	1.903986e+01	1.146770e+03
2.220000e-06	2.549883e-06	1.728896e-08	1.839789e+01	1.129824e+03
2.230000e-06	2.459978e-06	1.701138e-08	1.774921e+01	1.112211e+03
2.240000e-06	2.369257e-06	1.672638e-08	1.709464e+01	1.093895e+03
2.250000e-06	2.277858e-06	1.644068e-08	1.643518e+01	1.074839e+03
2.260000e-06	2.185827e-06	1.614384e-08	1.577116e+01	1.054999e+03
2.270000e-06	2.093010e-06	1.582678e-08	1.510147e+01	1.034328e+03
2.280000e-06	1.999136e-06	1.550046e-08	1.442414e+01	1.012772e+03
2.290000e-06	1.904273e-06	1.515949e-08	1.373969e+01	9.902724e+02
2.300000e-06	1.808717e-06	1.480278e-08	1.305024e+01	9.667665e+02
2.310000e-06	1.712647e-06	1.442933e-08	1.235707e+01	9.421886e+02
2.320000e-06	1.616105e-06	1.404095e-08	1.166050e+01	9.164711e+02
2.330000e-06	1.519032e-06	1.363446e-08	1.096010e+01	8.895452e+02
2.340000e-06	1.421435e-06	1.320259e-08	1.025592e+01	8.613415e+02
2.350000e-06	1.323371e-06	1.274796e-08	9.548374e+00	8.317898e+02
2.360000e-06	1.224888e-06	1.227624e-08	8.837796e+00	8.008204e+02
2.370000e-06	1.126057e-06	1.178982e-08	8.124714e+00	7.683664e+02
2.380000e-06	1.026950e-06	1.127806e-08	7.409641e+00	7.343678e+02
2.390000e-06	9.276000e-07	1.073452e-08	6.692811e+00	6.987780e+02
2.400000e-06	8.279800e-07	1.016035e-08	5.974033e+00	6.615717e+02
2.410000e-06	7.281250e-07	9.563671e-09	5.253560e+00	6.227538e+02
2.420000e-06	6.281009e-07	8.947621e-09	4.531868e+00	5.823677e+02
2.430000e-06	5.279130e-07	8.311245e-09	3.808993e+00	5.405006e+02
2.440000e-06	4.275443e-07	7.655763e-09	3.084813e+00	4.972847e+02
2.450000e-06	3.270337e-07	6.979794e-09	2.359611e+00	4.528930e+02
2.460000e-06	2.264244e-07	6.284726e-09	1.633695e+00	4.075284e+02
2.470000e-06	1.256284e-07	5.577500e-09	9.064329e-01	3.614075e+02
2.480000e-06	2.467323e-08	4.864683e-09	1.780221e-01	3.147403e+02
2.490000e-06	-7.635132e-08	4.148732e-09	-5.508893e-01	2.677085e+02
2.500000e-06	-1.772823e-07	3.428092e-09	-1.279125e+00	2.204449e+02
2.510000e-06	-2.780783e-07	2.701511e-09	-2.006388e+00	1.730186e+02
2.520000e-06	-3.788177e-07	1.970675e-09	-2.733242e+00	1.254273e+02
2.530000e-06	-4.794312e-07	1.236762e-09	-3.459187e+00	7.759943e+01
2.540000e-06	-5.798378e-07	5.000470e-10	-4.183640e+00	2.940691e+01
2.550000e-06	-6.801077e-07	-2.437454e-10	-4.907107e+00	-1.931341e+01
2.560000e-06	-7.802358e-07	-9.985575e-10	-5.629550e+00	-6.873094e+01
2.570000e-06	-8.800342e-07	-1.764179e-09	-6.349614e+00	-1.189893e+02
2.580000e-06	-9.794891e-07	-2.542008e-09	-7.067200e+00	-1.701753e+02
2.590000e-06	-1.078642e-06	-3.335223e-09	-7.782605e+00	-2.222933e+02
2.600000e-06	-1.177509e-06	-4.143561e-09	-8.495948e+00	-2.752484e+02
2.610000e-06	-1.276003e-06	-4.963899e-09	-9.206603e+00	-3.288414e+02
2.620000e-06	-1.374015e-06	-5.791236e-09	-9.913782e+00	-3.827765e+02
2.630000e-06	-1.471502e-06	-6.619320e-09	-1.061716e+01	-4.366805e+02
2.640000e-06	-1.568408e-06	-7.439044e-09	-1.131636e+01	-4.901312e+02
2.650000e-06	-1.664846e-06	-8.243348e-09	-1.201218e+01	-5.426917e+02
2.660000e-06	-1.760877e-06	-9.028206e-09	-1.270507e+01	-5.939450e+02
2.670000e-06	-1.856345e-06	-9.787813e-09	-1.339388e+01	-6.435253e+02
2.680000e-06	-1.951073e-06	-1.051713e-08	-1.407736e+01	-6.911417e+02
2.690000e-06	-2.044871e-06	-1.121142e-08	-1.475414e+01	-7.365919e+02
2.700000e-06	-2.137702e-06	-1.187076e-08	-1.542392e+01	-7.797648e+02
2.710000e-06	-2.229682e-06	-1.249886e-08	-1.608758e+01	-8.206332e+02
2.720000e-06	-2.320880e-06	-1.309633e-08	-1.674559e+01	-8.592386e+02
2.730000e-06	-2.411328e-06	-1.366175e-08	-1.739819e+01	-8.956712e+02
2.740000e-06	-2.500895e-06	-1.419349e-08	-1.804443e+01	-9.300497e+02
2.750000e-06	-2.589530e-06	-1.469052e-08	-1.868395e+01	-9.625025e+02
2.760000e-06	-2.677370e-06	-1.515742e-08	-1.931773e+01	-9.931548e+02
2.770000e-06	-2.764433e-06	-1.559838e-08	-1.994591e+01	-1.022120e+03
2.780000e-06	-2.850472e-06	-1.601520e-08	-2.056670e+01	-1.049500e+03
2.790000e-06	-2.935266e-06	-1.641107e-08	-2.117850e+01	-1.075383e+03
2.800000e-06	-3.018947e-06	-1.678785e-08	-2.178228e+01	-1.099853e+03
2.810000e-06	-3.101724e-06	-1.714483e-08	-2.237953e+01	-1.122991e+03
2.820000e-06	-3.183500e-06	-1.748010e-08	-2.296956e+01	-1.144882e+03
2.830000e-06	-3.264208e-06	-1.779818e-08	-2.355188e+01	-1.165610e+03
2.840000e-06	-3.343840e-06	-1.810296e-08	-2.412644e+01	-1.185260e+03
2.850000e-06	-3.422207e-06	-1.839254e-08	-2.469188e+01	-1.203916e+03
2.860000e-06	-3.499112e-06	-1.866404e-08	-2.524676e+01	-1.221651e+03
2.870000e-06	-3.574557e-06	-1.891975e-08	-2.579111e+01	-1.238528e+03
2.880000e-06	-3.648638e-06	-1.916335e-08	-2.632562e+01	-1.254600e+03
2.890000e-06	-3.721428e-06	-1.939722e-08	-2.685081e+01	-1.269905e+03
2.900000e-06	-3.792999e-06	-1.962287e-08	-2.736721e+01	-1.284476e+03
2.910000e-06	-3.863111e-06	-1.984070e-08	-2.787308e+01	-1.298342e+03
2.920000e-06	-3.931601e-06	-2.005069e-08	-2.836725e+01	-1.311534e+03
2.930000e-06	-3.998692e-06	-2.025011e-08	-2.885132e+01	-1.324086e+03
2.940000e-06	-4.064445e-06	-2.043607e-08	-2.932574e+01	-1.336035e+03
