# Temperatura_=_44.04
# Concentracion g/m^3_=_28200.0
# C_Vs_to_Am_M_A/Vsm_=_65563218390.804596
# pendiente_HvsI_1/m_=_3716.3
# ordenada_HvsI_A/m_=_1297.0
# frecuencia_Hz_=_301774.14998003293

Tiempo_(s)	Campo_(V.s)	Magnetizacion_(V.s)	Campo_(kA/m)	Magnetizacion_(A/m)
0.000000e+00	-5.304150e-06	-2.039624e-08	-3.829799e+01	-1.334276e+03
1.000000e-08	-5.302425e-06	-2.039307e-08	-3.828553e+01	-1.333992e+03
2.000000e-08	-5.298765e-06	-2.038154e-08	-3.825910e+01	-1.333571e+03
3.000000e-08	-5.293495e-06	-2.036740e-08	-3.822106e+01	-1.333007e+03
4.000000e-08	-5.286632e-06	-2.035745e-08	-3.817150e+01	-1.332284e+03
5.000000e-08	-5.278146e-06	-2.034421e-08	-3.811023e+01	-1.331386e+03
6.000000e-08	-5.267727e-06	-2.032427e-08	-3.803500e+01	-1.330298e+03
7.000000e-08	-5.255276e-06	-2.029676e-08	-3.794510e+01	-1.329009e+03
8.000000e-08	-5.240951e-06	-2.025784e-08	-3.784167e+01	-1.327523e+03
9.000000e-08	-5.224386e-06	-2.027198e-08	-3.772206e+01	-1.325850e+03
1.000000e-07	-5.205623e-06	-2.029937e-08	-3.758658e+01	-1.324013e+03
1.100000e-07	-5.185011e-06	-2.022807e-08	-3.743776e+01	-1.322037e+03
1.200000e-07	-5.162576e-06	-2.016690e-08	-3.727577e+01	-1.319947e+03
1.300000e-07	-5.138555e-06	-2.010451e-08	-3.710233e+01	-1.317764e+03
1.400000e-07	-5.113053e-06	-1.998668e-08	-3.691819e+01	-1.315494e+03
1.500000e-07	-5.085877e-06	-2.008421e-08	-3.672197e+01	-1.313133e+03
1.600000e-07	-5.057148e-06	-2.007942e-08	-3.651454e+01	-1.310665e+03
1.700000e-07	-5.027076e-06	-1.988844e-08	-3.629741e+01	-1.308064e+03
1.800000e-07	-4.995347e-06	-1.998376e-08	-3.606831e+01	-1.305301e+03
1.900000e-07	-4.961425e-06	-1.990522e-08	-3.582338e+01	-1.302346e+03
2.000000e-07	-4.925757e-06	-1.973373e-08	-3.556584e+01	-1.299179e+03
2.100000e-07	-4.888679e-06	-1.984741e-08	-3.529813e+01	-1.295783e+03
2.200000e-07	-4.849878e-06	-1.974973e-08	-3.501797e+01	-1.292155e+03
2.300000e-07	-4.809288e-06	-1.961019e-08	-3.472489e+01	-1.288295e+03
2.400000e-07	-4.766689e-06	-1.961172e-08	-3.441731e+01	-1.284209e+03
2.500000e-07	-4.722178e-06	-1.949869e-08	-3.409593e+01	-1.279903e+03
2.600000e-07	-4.675948e-06	-1.946123e-08	-3.376213e+01	-1.275380e+03
2.700000e-07	-4.627891e-06	-1.940597e-08	-3.341514e+01	-1.270638e+03
2.800000e-07	-4.577814e-06	-1.926511e-08	-3.305356e+01	-1.265671e+03
2.900000e-07	-4.525649e-06	-1.918447e-08	-3.267692e+01	-1.260469e+03
3.000000e-07	-4.471723e-06	-1.912160e-08	-3.228755e+01	-1.255020e+03
3.100000e-07	-4.416275e-06	-1.906454e-08	-3.188719e+01	-1.249315e+03
3.200000e-07	-4.359064e-06	-1.896299e-08	-3.147411e+01	-1.243348e+03
3.300000e-07	-4.300023e-06	-1.885858e-08	-3.104781e+01	-1.237115e+03
3.400000e-07	-4.239554e-06	-1.875623e-08	-3.061120e+01	-1.230619e+03
3.500000e-07	-4.177705e-06	-1.861862e-08	-3.016462e+01	-1.223862e+03
3.600000e-07	-4.114400e-06	-1.852296e-08	-2.970754e+01	-1.216848e+03
3.700000e-07	-4.049714e-06	-1.843366e-08	-2.924048e+01	-1.209578e+03
3.800000e-07	-3.983404e-06	-1.833954e-08	-2.876169e+01	-1.202049e+03
3.900000e-07	-3.915522e-06	-1.820721e-08	-2.827156e+01	-1.194253e+03
4.000000e-07	-3.846355e-06	-1.804484e-08	-2.777215e+01	-1.186180e+03
4.100000e-07	-3.775982e-06	-1.793598e-08	-2.726403e+01	-1.177815e+03
4.200000e-07	-3.704448e-06	-1.781324e-08	-2.674753e+01	-1.169142e+03
4.300000e-07	-3.631576e-06	-1.767817e-08	-2.622136e+01	-1.160146e+03
4.400000e-07	-3.557121e-06	-1.753284e-08	-2.568377e+01	-1.150812e+03
4.500000e-07	-3.481077e-06	-1.737192e-08	-2.513471e+01	-1.141126e+03
4.600000e-07	-3.403662e-06	-1.720768e-08	-2.457574e+01	-1.131076e+03
4.700000e-07	-3.324915e-06	-1.705024e-08	-2.400715e+01	-1.120649e+03
4.800000e-07	-3.244756e-06	-1.690669e-08	-2.342838e+01	-1.109831e+03
4.900000e-07	-3.163371e-06	-1.673497e-08	-2.284075e+01	-1.098606e+03
5.000000e-07	-3.080947e-06	-1.654831e-08	-2.224561e+01	-1.086956e+03
5.100000e-07	-2.997551e-06	-1.635742e-08	-2.164346e+01	-1.074861e+03
5.200000e-07	-2.913301e-06	-1.615671e-08	-2.103515e+01	-1.062298e+03
5.300000e-07	-2.828179e-06	-1.595331e-08	-2.042053e+01	-1.049244e+03
5.400000e-07	-2.742083e-06	-1.575009e-08	-1.979889e+01	-1.035676e+03
5.500000e-07	-2.655068e-06	-1.553832e-08	-1.917061e+01	-1.021565e+03
5.600000e-07	-2.567238e-06	-1.530902e-08	-1.853644e+01	-1.006886e+03
5.700000e-07	-2.478395e-06	-1.507258e-08	-1.789496e+01	-9.916068e+02
5.800000e-07	-2.388288e-06	-1.483135e-08	-1.724435e+01	-9.756927e+02
5.900000e-07	-2.297127e-06	-1.457882e-08	-1.658614e+01	-9.591054e+02
6.000000e-07	-2.205249e-06	-1.431399e-08	-1.592274e+01	-9.418028e+02
6.100000e-07	-2.112670e-06	-1.403545e-08	-1.525428e+01	-9.237396e+02
6.200000e-07	-2.019306e-06	-1.374458e-08	-1.458016e+01	-9.048686e+02
6.300000e-07	-1.925226e-06	-1.344159e-08	-1.390086e+01	-8.851418e+02
6.400000e-07	-1.830479e-06	-1.312670e-08	-1.321676e+01	-8.645113e+02
6.500000e-07	-1.735111e-06	-1.279848e-08	-1.252816e+01	-8.429285e+02
6.600000e-07	-1.639204e-06	-1.245228e-08	-1.183568e+01	-8.203442e+02
6.700000e-07	-1.542741e-06	-1.208911e-08	-1.113918e+01	-7.967067e+02
6.800000e-07	-1.445568e-06	-1.171104e-08	-1.043755e+01	-7.719606e+02
6.900000e-07	-1.347657e-06	-1.131667e-08	-9.730600e+00	-7.460465e+02
7.000000e-07	-1.249170e-06	-1.090273e-08	-9.019484e+00	-7.189020e+02
7.100000e-07	-1.150230e-06	-1.046782e-08	-8.305100e+00	-6.904650e+02
7.200000e-07	-1.050958e-06	-1.000981e-08	-7.588317e+00	-6.606793e+02
7.300000e-07	-9.514213e-07	-9.529033e-09	-6.869625e+00	-6.295018e+02
7.400000e-07	-8.516151e-07	-9.031154e-09	-6.148986e+00	-5.969115e+02
7.500000e-07	-7.515584e-07	-8.517794e-09	-5.426539e+00	-5.629175e+02
7.600000e-07	-6.513221e-07	-7.984044e-09	-4.702794e+00	-5.275658e+02
7.700000e-07	-5.509248e-07	-7.425660e-09	-3.977888e+00	-4.909428e+02
7.800000e-07	-4.503598e-07	-6.848686e-09	-3.251770e+00	-4.531748e+02
7.900000e-07	-3.496180e-07	-6.259232e-09	-2.524375e+00	-4.144228e+02
8.000000e-07	-2.487807e-07	-5.657880e-09	-1.796292e+00	-3.748719e+02
8.100000e-07	-1.478522e-07	-5.048034e-09	-1.067549e+00	-3.347182e+02
8.200000e-07	-4.678288e-08	-4.433495e-09	-3.377902e-01	-2.941520e+02
8.300000e-07	5.433909e-08	-3.813457e-09	3.923490e-01	-2.533412e+02
8.400000e-07	1.554646e-07	-3.186077e-09	1.122514e+00	-2.124157e+02
8.500000e-07	2.565599e-07	-2.560572e-09	1.852461e+00	-1.714551e+02
8.600000e-07	3.575949e-07	-1.940373e-09	2.581972e+00	-1.304819e+02
8.700000e-07	4.585012e-07	-1.320724e-09	3.310554e+00	-8.946030e+01
8.800000e-07	5.592483e-07	-6.982588e-10	4.037986e+00	-4.830220e+01
8.900000e-07	6.598336e-07	-6.798546e-11	4.764251e+00	-6.879530e+00
9.000000e-07	7.602310e-07	5.728980e-10	5.489158e+00	3.495776e+01
9.100000e-07	8.604078e-07	1.223153e-09	6.212472e+00	7.735976e+01
9.200000e-07	9.603447e-07	1.880587e-09	6.934055e+00	1.204530e+02
9.300000e-07	1.060061e-06	2.546324e-09	7.654042e+00	1.643179e+02
9.400000e-07	1.159478e-06	3.221846e-09	8.371873e+00	2.089699e+02
9.500000e-07	1.258493e-06	3.909262e-09	9.086801e+00	2.543466e+02
9.600000e-07	1.356986e-06	4.606674e-09	9.797955e+00	3.003031e+02
9.700000e-07	1.454768e-06	5.311062e-09	1.050398e+01	3.466165e+02
9.800000e-07	1.551737e-06	6.017407e-09	1.120414e+01	3.929989e+02
9.900000e-07	1.647977e-06	6.720548e-09	1.189902e+01	4.391172e+02
1.000000e-06	1.743618e-06	7.413881e-09	1.258959e+01	4.846192e+02
1.010000e-06	1.838645e-06	8.089858e-09	1.327572e+01	5.291599e+02
1.020000e-06	1.933047e-06	8.746230e-09	1.395734e+01	5.724272e+02
1.030000e-06	2.026820e-06	9.378959e-09	1.463441e+01	6.141621e+02
1.040000e-06	2.119901e-06	9.983541e-09	1.530650e+01	6.541722e+02
1.050000e-06	2.212315e-06	1.055846e-08	1.597376e+01	6.923369e+02
1.060000e-06	2.304095e-06	1.110635e-08	1.663645e+01	7.286041e+02
1.070000e-06	2.395154e-06	1.162750e-08	1.729392e+01	7.629808e+02
1.080000e-06	2.485229e-06	1.212169e-08	1.794430e+01	7.955185e+02
1.090000e-06	2.574144e-06	1.259085e-08	1.858630e+01	8.262980e+02
1.100000e-06	2.662019e-06	1.303407e-08	1.922079e+01	8.554139e+02
1.110000e-06	2.749016e-06	1.345319e-08	1.984894e+01	8.829633e+02
1.120000e-06	2.835073e-06	1.384827e-08	2.047031e+01	9.090377e+02
1.130000e-06	2.920174e-06	1.422100e-08	2.108477e+01	9.337197e+02
1.140000e-06	3.004423e-06	1.457251e-08	2.169308e+01	9.570832e+02
1.150000e-06	3.087837e-06	1.490737e-08	2.229536e+01	9.791961e+02
1.160000e-06	3.170163e-06	1.522632e-08	2.288979e+01	1.000123e+03
1.170000e-06	3.251206e-06	1.552892e-08	2.347495e+01	1.019927e+03
1.180000e-06	3.331101e-06	1.581467e-08	2.405182e+01	1.038673e+03
1.190000e-06	3.409859e-06	1.608220e-08	2.462048e+01	1.056425e+03
1.200000e-06	3.487420e-06	1.633462e-08	2.518051e+01	1.073247e+03
1.210000e-06	3.563781e-06	1.657430e-08	2.573186e+01	1.089200e+03
1.220000e-06	3.638834e-06	1.680429e-08	2.627377e+01	1.104338e+03
1.230000e-06	3.712310e-06	1.702299e-08	2.680430e+01	1.118711e+03
1.240000e-06	3.784200e-06	1.722904e-08	2.732337e+01	1.132365e+03
1.250000e-06	3.854700e-06	1.742305e-08	2.783240e+01	1.145339e+03
1.260000e-06	3.923825e-06	1.760633e-08	2.833152e+01	1.157670e+03
1.270000e-06	3.991689e-06	1.778036e-08	2.882152e+01	1.169396e+03
1.280000e-06	4.058206e-06	1.794727e-08	2.930180e+01	1.180549e+03
1.290000e-06	4.123023e-06	1.810926e-08	2.976980e+01	1.191163e+03
1.300000e-06	4.186225e-06	1.826594e-08	3.022614e+01	1.201266e+03
1.310000e-06	4.248032e-06	1.841398e-08	3.067241e+01	1.210880e+03
1.320000e-06	4.308500e-06	1.855445e-08	3.110902e+01	1.220025e+03
1.330000e-06	4.367613e-06	1.868817e-08	3.153584e+01	1.228708e+03
1.340000e-06	4.425035e-06	1.881455e-08	3.195044e+01	1.236938e+03
1.350000e-06	4.480639e-06	1.893289e-08	3.235193e+01	1.244716e+03
1.360000e-06	4.534646e-06	1.904265e-08	3.274187e+01	1.252049e+03
1.370000e-06	4.586964e-06	1.914406e-08	3.311963e+01	1.258949e+03
1.380000e-06	4.637245e-06	1.923816e-08	3.348268e+01	1.265434e+03
1.390000e-06	4.685529e-06	1.932869e-08	3.383131e+01	1.271532e+03
1.400000e-06	4.732158e-06	1.941635e-08	3.416799e+01	1.277279e+03
1.410000e-06	4.777260e-06	1.950128e-08	3.449364e+01	1.282711e+03
1.420000e-06	4.820872e-06	1.958258e-08	3.480853e+01	1.287865e+03
1.430000e-06	4.862687e-06	1.965751e-08	3.511046e+01	1.292769e+03
1.440000e-06	4.902623e-06	1.972787e-08	3.539881e+01	1.297442e+03
1.450000e-06	4.940992e-06	1.979416e-08	3.567585e+01	1.301888e+03
1.460000e-06	4.977753e-06	1.985615e-08	3.594127e+01	1.306101e+03
1.470000e-06	5.012856e-06	1.991516e-08	3.619474e+01	1.310066e+03
1.480000e-06	5.046048e-06	1.997129e-08	3.643439e+01	1.313766e+03
1.490000e-06	5.077319e-06	2.002398e-08	3.666018e+01	1.317184e+03
1.500000e-06	5.106977e-06	2.007201e-08	3.687432e+01	1.320313e+03
1.510000e-06	5.135003e-06	2.011455e-08	3.707668e+01	1.323154e+03
1.520000e-06	5.161131e-06	2.015191e-08	3.726533e+01	1.325716e+03
1.530000e-06	5.185222e-06	2.018577e-08	3.743928e+01	1.328019e+03
1.540000e-06	5.207449e-06	2.021672e-08	3.759977e+01	1.330083e+03
1.550000e-06	5.227983e-06	2.024480e-08	3.774803e+01	1.331929e+03
1.560000e-06	5.246811e-06	2.026920e-08	3.788398e+01	1.333571e+03
1.570000e-06	5.263680e-06	2.029022e-08	3.800578e+01	1.335017e+03
1.580000e-06	5.278520e-06	2.030868e-08	3.811293e+01	1.336270e+03
1.590000e-06	5.291407e-06	2.032421e-08	3.820598e+01	1.337327e+03
1.600000e-06	5.302185e-06	2.033726e-08	3.828380e+01	1.338184e+03
1.610000e-06	5.310801e-06	2.034729e-08	3.834601e+01	1.338841e+03
1.620000e-06	5.317479e-06	2.035503e-08	3.839423e+01	1.339302e+03
1.630000e-06	5.322364e-06	2.036042e-08	3.842950e+01	1.339578e+03
1.640000e-06	5.325470e-06	2.036380e-08	3.845193e+01	1.339682e+03
1.650000e-06	5.326588e-06	2.036714e-08	3.846000e+01	1.339632e+03
1.660000e-06	5.325769e-06	2.036566e-08	3.845408e+01	1.339439e+03
1.670000e-06	5.323315e-06	2.035655e-08	3.843637e+01	1.339110e+03
1.680000e-06	5.319293e-06	2.035139e-08	3.840732e+01	1.338644e+03
1.690000e-06	5.313473e-06	2.034574e-08	3.836531e+01	1.338030e+03
1.700000e-06	5.305761e-06	2.033545e-08	3.830962e+01	1.337252e+03
1.710000e-06	5.296399e-06	2.032259e-08	3.824202e+01	1.336293e+03
1.720000e-06	5.285441e-06	2.031256e-08	3.816290e+01	1.335140e+03
1.730000e-06	5.272671e-06	2.031922e-08	3.807070e+01	1.333787e+03
1.740000e-06	5.257876e-06	2.026135e-08	3.796387e+01	1.332238e+03
1.750000e-06	5.240948e-06	2.015870e-08	3.784164e+01	1.330509e+03
1.760000e-06	5.221578e-06	2.017098e-08	3.770178e+01	1.328623e+03
1.770000e-06	5.199589e-06	2.016725e-08	3.754302e+01	1.326607e+03
1.780000e-06	5.175711e-06	2.019938e-08	3.737061e+01	1.324485e+03
1.790000e-06	5.150908e-06	2.021284e-08	3.719152e+01	1.322273e+03
1.800000e-06	5.125244e-06	1.997783e-08	3.700622e+01	1.319974e+03
1.810000e-06	5.097832e-06	2.003263e-08	3.680829e+01	1.317581e+03
1.820000e-06	5.068301e-06	2.009289e-08	3.659507e+01	1.315072e+03
1.830000e-06	5.037112e-06	1.986775e-08	3.636987e+01	1.312421e+03
1.840000e-06	5.004086e-06	2.001738e-08	3.613141e+01	1.309599e+03
1.850000e-06	4.969221e-06	2.001242e-08	3.587967e+01	1.306577e+03
1.860000e-06	4.932909e-06	1.974891e-08	3.561749e+01	1.303337e+03
1.870000e-06	4.894732e-06	1.984888e-08	3.534183e+01	1.299866e+03
1.880000e-06	4.854729e-06	1.976212e-08	3.505300e+01	1.296162e+03
1.890000e-06	4.813063e-06	1.968150e-08	3.475215e+01	1.292228e+03
1.900000e-06	4.769616e-06	1.973148e-08	3.443845e+01	1.288070e+03
1.910000e-06	4.724579e-06	1.948780e-08	3.411326e+01	1.283694e+03
1.920000e-06	4.677694e-06	1.953178e-08	3.377474e+01	1.279100e+03
1.930000e-06	4.628968e-06	1.953651e-08	3.342292e+01	1.274286e+03
1.940000e-06	4.578578e-06	1.933880e-08	3.305908e+01	1.269244e+03
1.950000e-06	4.526217e-06	1.930781e-08	3.268102e+01	1.263963e+03
1.960000e-06	4.471838e-06	1.917778e-08	3.228837e+01	1.258432e+03
1.970000e-06	4.415652e-06	1.914578e-08	3.188269e+01	1.252642e+03
1.980000e-06	4.357876e-06	1.902954e-08	3.146553e+01	1.246589e+03
1.990000e-06	4.298717e-06	1.888714e-08	3.103838e+01	1.240270e+03
2.000000e-06	4.238162e-06	1.891812e-08	3.060114e+01	1.233689e+03
2.010000e-06	4.176034e-06	1.874030e-08	3.015256e+01	1.226848e+03
2.020000e-06	4.112188e-06	1.861119e-08	2.969157e+01	1.219751e+03
2.030000e-06	4.046827e-06	1.849122e-08	2.921963e+01	1.212398e+03
2.040000e-06	3.980131e-06	1.838859e-08	2.873806e+01	1.204783e+03
2.050000e-06	3.912060e-06	1.833448e-08	2.824657e+01	1.196900e+03
2.060000e-06	3.842468e-06	1.813472e-08	2.774409e+01	1.188734e+03
2.070000e-06	3.771351e-06	1.803562e-08	2.723059e+01	1.180270e+03
2.080000e-06	3.699015e-06	1.789265e-08	2.670830e+01	1.171495e+03
2.090000e-06	3.625484e-06	1.774384e-08	2.617737e+01	1.162390e+03
2.100000e-06	3.550617e-06	1.763005e-08	2.563681e+01	1.152944e+03
2.110000e-06	3.474301e-06	1.746854e-08	2.508578e+01	1.143141e+03
2.120000e-06	3.396381e-06	1.733635e-08	2.452317e+01	1.132971e+03
2.130000e-06	3.317090e-06	1.714153e-08	2.395065e+01	1.122419e+03
2.140000e-06	3.236740e-06	1.697943e-08	2.337049e+01	1.111471e+03
2.150000e-06	3.155330e-06	1.680611e-08	2.278268e+01	1.100111e+03
2.160000e-06	3.072828e-06	1.663077e-08	2.218699e+01	1.088320e+03
2.170000e-06	2.989332e-06	1.647016e-08	2.158412e+01	1.076076e+03
2.180000e-06	2.904868e-06	1.626749e-08	2.097426e+01	1.063357e+03
2.190000e-06	2.819140e-06	1.606652e-08	2.035527e+01	1.050140e+03
2.200000e-06	2.732095e-06	1.584913e-08	1.972677e+01	1.036399e+03
2.210000e-06	2.644094e-06	1.564409e-08	1.909137e+01	1.022109e+03
2.220000e-06	2.555270e-06	1.541841e-08	1.845002e+01	1.007239e+03
2.230000e-06	2.465564e-06	1.517832e-08	1.780231e+01	9.917591e+02
2.240000e-06	2.375028e-06	1.493366e-08	1.714861e+01	9.756323e+02
2.250000e-06	2.283759e-06	1.467719e-08	1.648961e+01	9.588191e+02
2.260000e-06	2.191842e-06	1.441491e-08	1.582594e+01	9.412763e+02
2.270000e-06	2.099219e-06	1.413321e-08	1.515716e+01	9.229579e+02
2.280000e-06	2.005632e-06	1.384773e-08	1.448143e+01	9.038163e+02
2.290000e-06	1.910975e-06	1.354439e-08	1.379797e+01	8.838036e+02
2.300000e-06	1.815476e-06	1.322469e-08	1.310843e+01	8.628715e+02
2.310000e-06	1.719457e-06	1.288950e-08	1.241513e+01	8.409715e+02
2.320000e-06	1.623043e-06	1.254082e-08	1.171899e+01	8.180537e+02
2.330000e-06	1.526117e-06	1.217753e-08	1.101915e+01	7.940654e+02
2.340000e-06	1.428631e-06	1.179353e-08	1.031526e+01	7.689497e+02
2.350000e-06	1.330652e-06	1.139162e-08	9.607817e+00	7.426463e+02
2.360000e-06	1.232240e-06	1.097402e-08	8.897241e+00	7.150922e+02
2.370000e-06	1.133502e-06	1.054240e-08	8.184317e+00	6.862266e+02
2.380000e-06	1.034465e-06	1.008673e-08	7.469229e+00	6.559966e+02
2.390000e-06	9.351736e-07	9.603461e-09	6.752310e+00	6.243653e+02
2.400000e-06	8.356431e-07	9.093532e-09	6.033662e+00	5.913204e+02
2.410000e-06	7.358689e-07	8.564365e-09	5.313254e+00	5.568823e+02
2.420000e-06	6.358581e-07	8.018058e-09	4.591138e+00	5.211098e+02
2.430000e-06	5.356614e-07	7.453223e-09	3.867680e+00	4.841024e+02
2.440000e-06	4.353700e-07	6.873171e-09	3.143538e+00	4.459984e+02
2.450000e-06	3.350093e-07	6.278233e-09	2.418895e+00	4.069678e+02
2.460000e-06	2.345293e-07	5.667594e-09	1.693391e+00	3.672010e+02
2.470000e-06	1.338692e-07	5.048600e-09	9.665867e-01	3.268940e+02
2.480000e-06	3.308291e-08	4.428888e-09	2.388713e-01	2.862316e+02
2.490000e-06	-6.777016e-08	3.806426e-09	-4.893264e-01	2.453713e+02
2.500000e-06	-1.685947e-07	3.180169e-09	-1.217318e+00	2.044277e+02
2.510000e-06	-2.693044e-07	2.552972e-09	-1.944480e+00	1.634627e+02
2.520000e-06	-3.698843e-07	1.926290e-09	-2.670706e+00	1.224798e+02
2.530000e-06	-4.703788e-07	1.299361e-09	-3.396315e+00	8.142538e+01
2.540000e-06	-5.707361e-07	6.706440e-10	-4.120932e+00	4.019692e+01
2.550000e-06	-6.708730e-07	3.694489e-11	-4.843959e+00	-1.342939e+00
2.560000e-06	-7.708197e-07	-6.041826e-10	-5.565612e+00	-4.334678e+01
2.570000e-06	-8.705739e-07	-1.255831e-09	-6.285876e+00	-8.595970e+01
2.580000e-06	-9.700425e-07	-1.919569e-09	-7.004077e+00	-1.292958e+02
2.590000e-06	-1.069149e-06	-2.593966e-09	-7.719665e+00	-1.734163e+02
2.600000e-06	-1.167953e-06	-3.279673e-09	-8.433069e+00	-2.183127e+02
2.610000e-06	-1.266466e-06	-3.975787e-09	-9.144365e+00	-2.638962e+02
2.620000e-06	-1.364527e-06	-4.680725e-09	-9.852407e+00	-3.099960e+02
2.630000e-06	-1.461959e-06	-5.392025e-09	-1.055590e+01	-3.563663e+02
2.640000e-06	-1.558852e-06	-6.101999e-09	-1.125551e+01	-4.027023e+02
2.650000e-06	-1.655253e-06	-6.805633e-09	-1.195156e+01	-4.486619e+02
2.660000e-06	-1.751152e-06	-7.499892e-09	-1.264398e+01	-4.938922e+02
2.670000e-06	-1.846559e-06	-8.177867e-09	-1.333286e+01	-5.380562e+02
2.680000e-06	-1.941248e-06	-8.833728e-09	-1.401655e+01	-5.808570e+02
2.690000e-06	-2.035025e-06	-9.463503e-09	-1.469366e+01	-6.220558e+02
2.700000e-06	-2.127787e-06	-1.006827e-08	-1.536344e+01	-6.614832e+02
2.710000e-06	-2.219658e-06	-1.064762e-08	-1.602678e+01	-6.990413e+02
2.720000e-06	-2.310830e-06	-1.119831e-08	-1.668508e+01	-7.346984e+02
2.730000e-06	-2.401224e-06	-1.171781e-08	-1.733776e+01	-7.684773e+02
2.740000e-06	-2.490764e-06	-1.220734e-08	-1.798427e+01	-8.004409e+02
2.750000e-06	-2.579448e-06	-1.267002e-08	-1.862460e+01	-8.306758e+02
2.760000e-06	-2.667385e-06	-1.310663e-08	-1.925954e+01	-8.592785e+02
2.770000e-06	-2.754486e-06	-1.352040e-08	-1.988844e+01	-8.863450e+02
2.780000e-06	-2.840440e-06	-1.391521e-08	-2.050906e+01	-9.119640e+02
2.790000e-06	-2.925198e-06	-1.429007e-08	-2.112105e+01	-9.362152e+02
2.800000e-06	-3.008961e-06	-1.464155e-08	-2.172585e+01	-9.591704e+02
2.810000e-06	-3.091838e-06	-1.497158e-08	-2.232425e+01	-9.808957e+02
2.820000e-06	-3.173685e-06	-1.528410e-08	-2.291522e+01	-1.001455e+03
2.830000e-06	-3.254434e-06	-1.558318e-08	-2.349826e+01	-1.020913e+03
2.840000e-06	-3.334129e-06	-1.586853e-08	-2.407369e+01	-1.039333e+03
2.850000e-06	-3.412578e-06	-1.613847e-08	-2.464012e+01	-1.056780e+03
2.860000e-06	-3.489487e-06	-1.639255e-08	-2.519543e+01	-1.073318e+03
2.870000e-06	-3.564925e-06	-1.663222e-08	-2.574012e+01	-1.089003e+03
2.880000e-06	-3.639067e-06	-1.686071e-08	-2.627546e+01	-1.103891e+03
2.890000e-06	-3.711926e-06	-1.707923e-08	-2.680152e+01	-1.118029e+03
2.900000e-06	-3.783559e-06	-1.728824e-08	-2.731874e+01	-1.131461e+03
2.910000e-06	-3.853787e-06	-1.748687e-08	-2.782581e+01	-1.144225e+03
2.920000e-06	-3.922374e-06	-1.767559e-08	-2.832104e+01	-1.156359e+03
2.930000e-06	-3.989505e-06	-1.785353e-08	-2.880575e+01	-1.167897e+03
2.940000e-06	-4.055320e-06	-1.802168e-08	-2.928096e+01	-1.178875e+03
