# Temperatura_=_87.98
# Concentracion g/m^3_=_28200.0
# C_Vs_to_Am_M_A/Vsm_=_65563218390.804596
# pendiente_HvsI_1/m_=_3716.3
# ordenada_HvsI_A/m_=_1297.0
# frecuencia_Hz_=_301762.9937906518

Tiempo_(s)	Campo_(V.s)	Magnetizacion_(V.s)	Campo_(kA/m)	Magnetizacion_(A/m)
0.000000e+00	-5.327896e-06	-2.630010e-08	-3.829878e+01	-1.720839e+03
1.000000e-08	-5.325717e-06	-2.629450e-08	-3.828312e+01	-1.720355e+03
2.000000e-08	-5.321677e-06	-2.627992e-08	-3.825407e+01	-1.719698e+03
3.000000e-08	-5.315932e-06	-2.626296e-08	-3.821278e+01	-1.718860e+03
4.000000e-08	-5.308593e-06	-2.624515e-08	-3.816002e+01	-1.717823e+03
5.000000e-08	-5.299596e-06	-2.622216e-08	-3.809535e+01	-1.716560e+03
6.000000e-08	-5.288627e-06	-2.619473e-08	-3.801650e+01	-1.715044e+03
7.000000e-08	-5.275765e-06	-2.615911e-08	-3.792404e+01	-1.713253e+03
8.000000e-08	-5.260901e-06	-2.612619e-08	-3.781720e+01	-1.711181e+03
9.000000e-08	-5.243751e-06	-2.615997e-08	-3.769392e+01	-1.708838e+03
1.000000e-07	-5.224490e-06	-2.614936e-08	-3.755546e+01	-1.706256e+03
1.100000e-07	-5.203358e-06	-2.604581e-08	-3.740356e+01	-1.703478e+03
1.200000e-07	-5.180462e-06	-2.598544e-08	-3.723897e+01	-1.700557e+03
1.300000e-07	-5.156015e-06	-2.588337e-08	-3.706324e+01	-1.697540e+03
1.400000e-07	-5.129985e-06	-2.579284e-08	-3.687613e+01	-1.694459e+03
1.500000e-07	-5.102295e-06	-2.591366e-08	-3.667708e+01	-1.691324e+03
1.600000e-07	-5.073132e-06	-2.579401e-08	-3.646745e+01	-1.688120e+03
1.700000e-07	-5.042562e-06	-2.565342e-08	-3.624770e+01	-1.684805e+03
1.800000e-07	-5.010169e-06	-2.576117e-08	-3.601485e+01	-1.681320e+03
1.900000e-07	-4.975655e-06	-2.557507e-08	-3.576675e+01	-1.677597e+03
2.000000e-07	-4.939564e-06	-2.548594e-08	-3.550731e+01	-1.673573e+03
2.100000e-07	-4.901920e-06	-2.557226e-08	-3.523672e+01	-1.669197e+03
2.200000e-07	-4.862489e-06	-2.539319e-08	-3.495327e+01	-1.664440e+03
2.300000e-07	-4.821266e-06	-2.528670e-08	-3.465695e+01	-1.659293e+03
2.400000e-07	-4.778039e-06	-2.523140e-08	-3.434621e+01	-1.653771e+03
2.500000e-07	-4.732945e-06	-2.508251e-08	-3.402207e+01	-1.647898e+03
2.600000e-07	-4.686108e-06	-2.505544e-08	-3.368539e+01	-1.641704e+03
2.700000e-07	-4.637307e-06	-2.495299e-08	-3.333458e+01	-1.635217e+03
2.800000e-07	-4.586409e-06	-2.480490e-08	-3.296872e+01	-1.628450e+03
2.900000e-07	-4.533609e-06	-2.468589e-08	-3.258917e+01	-1.621407e+03
3.000000e-07	-4.479170e-06	-2.458804e-08	-3.219784e+01	-1.614076e+03
3.100000e-07	-4.423156e-06	-2.449977e-08	-3.179519e+01	-1.606439e+03
3.200000e-07	-4.365315e-06	-2.435716e-08	-3.137941e+01	-1.598475e+03
3.300000e-07	-4.305726e-06	-2.424264e-08	-3.095106e+01	-1.590164e+03
3.400000e-07	-4.244672e-06	-2.410035e-08	-3.051219e+01	-1.581497e+03
3.500000e-07	-4.182143e-06	-2.393261e-08	-3.006270e+01	-1.572471e+03
3.600000e-07	-4.118249e-06	-2.379870e-08	-2.960342e+01	-1.563091e+03
3.700000e-07	-4.052842e-06	-2.367007e-08	-2.913324e+01	-1.553365e+03
3.800000e-07	-3.985745e-06	-2.354455e-08	-2.865093e+01	-1.543299e+03
3.900000e-07	-3.917235e-06	-2.336680e-08	-2.815845e+01	-1.532895e+03
4.000000e-07	-3.847457e-06	-2.317863e-08	-2.765687e+01	-1.522144e+03
4.100000e-07	-3.776457e-06	-2.302515e-08	-2.714650e+01	-1.511029e+03
4.200000e-07	-3.704276e-06	-2.284745e-08	-2.662763e+01	-1.499525e+03
4.300000e-07	-3.630568e-06	-2.266854e-08	-2.609779e+01	-1.487606e+03
4.400000e-07	-3.555250e-06	-2.247409e-08	-2.555638e+01	-1.475244e+03
4.500000e-07	-3.478587e-06	-2.226889e-08	-2.500530e+01	-1.462418e+03
4.600000e-07	-3.400605e-06	-2.205642e-08	-2.444474e+01	-1.449112e+03
4.700000e-07	-3.321183e-06	-2.185169e-08	-2.387382e+01	-1.435316e+03
4.800000e-07	-3.240430e-06	-2.165487e-08	-2.329335e+01	-1.421023e+03
4.900000e-07	-3.158524e-06	-2.142403e-08	-2.270457e+01	-1.406224e+03
5.000000e-07	-3.075557e-06	-2.118602e-08	-2.210818e+01	-1.390906e+03
5.100000e-07	-2.991739e-06	-2.093753e-08	-2.150566e+01	-1.375049e+03
5.200000e-07	-2.907038e-06	-2.067985e-08	-2.089681e+01	-1.358625e+03
5.300000e-07	-2.821345e-06	-2.041629e-08	-2.028082e+01	-1.341598e+03
5.400000e-07	-2.734682e-06	-2.014778e-08	-1.965785e+01	-1.323929e+03
5.500000e-07	-2.647162e-06	-1.986835e-08	-1.902872e+01	-1.305576e+03
5.600000e-07	-2.558741e-06	-1.956897e-08	-1.839313e+01	-1.286501e+03
5.700000e-07	-2.469055e-06	-1.926559e-08	-1.774843e+01	-1.266668e+03
5.800000e-07	-2.378154e-06	-1.895448e-08	-1.709500e+01	-1.246044e+03
5.900000e-07	-2.286461e-06	-1.863214e-08	-1.643588e+01	-1.224595e+03
6.000000e-07	-2.194045e-06	-1.829166e-08	-1.577156e+01	-1.202283e+03
6.100000e-07	-2.100839e-06	-1.793189e-08	-1.510156e+01	-1.179064e+03
6.200000e-07	-2.006880e-06	-1.755678e-08	-1.442616e+01	-1.154880e+03
6.300000e-07	-1.912199e-06	-1.716809e-08	-1.374556e+01	-1.129662e+03
6.400000e-07	-1.816900e-06	-1.676685e-08	-1.306051e+01	-1.103329e+03
6.500000e-07	-1.721126e-06	-1.634797e-08	-1.237206e+01	-1.075793e+03
6.600000e-07	-1.624723e-06	-1.590616e-08	-1.167908e+01	-1.046960e+03
6.700000e-07	-1.527507e-06	-1.544110e-08	-1.098025e+01	-1.016739e+03
6.800000e-07	-1.429552e-06	-1.495619e-08	-1.027612e+01	-9.850414e+02
6.900000e-07	-1.330967e-06	-1.444948e-08	-9.567453e+00	-9.517849e+02
7.000000e-07	-1.231917e-06	-1.392087e-08	-8.855450e+00	-9.168935e+02
7.100000e-07	-1.132556e-06	-1.336644e-08	-8.141208e+00	-8.802975e+02
7.200000e-07	-1.032889e-06	-1.277958e-08	-7.424767e+00	-8.419340e+02
7.300000e-07	-9.329475e-07	-1.215935e-08	-6.706353e+00	-8.017493e+02
7.400000e-07	-8.327277e-07	-1.151290e-08	-5.985938e+00	-7.597041e+02
7.500000e-07	-7.322120e-07	-1.084534e-08	-5.263396e+00	-7.157818e+02
7.600000e-07	-6.314856e-07	-1.015044e-08	-4.539339e+00	-6.699987e+02
7.700000e-07	-5.305563e-07	-9.427258e-09	-3.813824e+00	-6.224142e+02
7.800000e-07	-4.294384e-07	-8.679209e-09	-3.086954e+00	-5.731387e+02
7.900000e-07	-3.282403e-07	-7.905782e-09	-2.359506e+00	-5.223353e+02
8.000000e-07	-2.269262e-07	-7.108061e-09	-1.631225e+00	-4.702148e+02
8.100000e-07	-1.254959e-07	-6.294921e-09	-9.021084e-01	-4.170212e+02
8.200000e-07	-2.396832e-08	-5.473023e-09	-1.722927e-01	-3.630098e+02
8.300000e-07	7.761027e-08	-4.642909e-09	5.578898e-01	-3.084197e+02
8.400000e-07	1.791809e-07	-3.805345e-09	1.288015e+00	-2.534453e+02
8.500000e-07	2.807614e-07	-2.965696e-09	2.018211e+00	-1.982110e+02
8.600000e-07	3.822465e-07	-2.126375e-09	2.747722e+00	-1.427551e+02
8.700000e-07	4.836219e-07	-1.281342e-09	3.476444e+00	-8.702593e+01
8.800000e-07	5.848815e-07	-4.292712e-10	4.204333e+00	-3.089232e+01
8.900000e-07	6.859044e-07	4.336634e-10	4.930521e+00	2.583123e+01
9.000000e-07	7.866939e-07	1.311479e-09	5.655031e+00	8.334855e+01
9.100000e-07	8.872630e-07	2.203580e-09	6.377957e+00	1.418393e+02
9.200000e-07	9.875587e-07	3.109104e-09	7.098917e+00	2.014167e+02
9.300000e-07	1.087522e-06	4.030905e-09	7.817489e+00	2.620917e+02
9.400000e-07	1.187119e-06	4.970642e-09	8.533430e+00	3.237497e+02
9.500000e-07	1.286368e-06	5.922483e-09	9.246867e+00	3.861435e+02
9.600000e-07	1.385199e-06	6.878631e-09	9.957294e+00	4.489033e+02
9.700000e-07	1.483454e-06	7.831800e-09	1.066358e+01	5.115633e+02
9.800000e-07	1.580994e-06	8.775342e-09	1.136474e+01	5.735999e+02
9.900000e-07	1.677745e-06	9.700981e-09	1.206022e+01	6.344764e+02
1.000000e-06	1.773687e-06	1.060088e-08	1.274988e+01	6.936885e+02
1.010000e-06	1.868974e-06	1.146867e-08	1.343484e+01	7.508027e+02
1.020000e-06	1.963707e-06	1.229923e-08	1.411581e+01	8.054843e+02
1.030000e-06	2.057740e-06	1.308885e-08	1.479175e+01	8.575121e+02
1.040000e-06	2.150973e-06	1.383401e-08	1.546195e+01	9.067785e+02
1.050000e-06	2.243490e-06	1.453522e-08	1.612699e+01	9.532775e+02
1.060000e-06	2.335322e-06	1.519647e-08	1.678711e+01	9.970836e+02
1.070000e-06	2.426409e-06	1.582052e-08	1.744188e+01	1.038326e+03
1.080000e-06	2.516583e-06	1.640914e-08	1.809008e+01	1.077162e+03
1.090000e-06	2.605717e-06	1.696621e-08	1.873080e+01	1.113757e+03
1.100000e-06	2.693781e-06	1.749145e-08	1.936384e+01	1.148268e+03
1.110000e-06	2.780926e-06	1.798560e-08	1.999027e+01	1.180835e+03
1.120000e-06	2.867240e-06	1.845153e-08	2.061072e+01	1.211579e+03
1.130000e-06	2.952586e-06	1.889171e-08	2.122422e+01	1.240607e+03
1.140000e-06	3.036964e-06	1.930766e-08	2.183076e+01	1.268017e+03
1.150000e-06	3.120399e-06	1.969916e-08	2.243052e+01	1.293908e+03
1.160000e-06	3.202893e-06	2.006857e-08	2.302352e+01	1.318376e+03
1.170000e-06	3.284222e-06	2.041917e-08	2.360814e+01	1.341526e+03
1.180000e-06	3.364192e-06	2.075273e-08	2.418299e+01	1.363459e+03
1.190000e-06	3.442940e-06	2.106922e-08	2.474906e+01	1.384276e+03
1.200000e-06	3.520517e-06	2.137139e-08	2.530671e+01	1.404069e+03
1.210000e-06	3.596880e-06	2.165890e-08	2.585563e+01	1.422914e+03
1.220000e-06	3.671886e-06	2.193184e-08	2.639480e+01	1.440875e+03
1.230000e-06	3.745310e-06	2.219021e-08	2.692260e+01	1.457995e+03
1.240000e-06	3.817232e-06	2.243600e-08	2.743960e+01	1.474310e+03
1.250000e-06	3.887799e-06	2.266978e-08	2.794686e+01	1.489844e+03
1.260000e-06	3.957014e-06	2.289106e-08	2.844440e+01	1.504623e+03
1.270000e-06	4.024903e-06	2.310023e-08	2.893241e+01	1.518676e+03
1.280000e-06	4.091318e-06	2.329937e-08	2.940982e+01	1.532038e+03
1.290000e-06	4.156056e-06	2.349054e-08	2.987519e+01	1.544751e+03
1.300000e-06	4.219247e-06	2.367397e-08	3.032943e+01	1.556862e+03
1.310000e-06	4.281018e-06	2.385068e-08	3.077346e+01	1.568419e+03
1.320000e-06	4.341455e-06	2.402051e-08	3.120790e+01	1.579460e+03
1.330000e-06	4.400459e-06	2.418316e-08	3.163204e+01	1.590017e+03
1.340000e-06	4.457717e-06	2.433847e-08	3.204363e+01	1.600107e+03
1.350000e-06	4.513279e-06	2.448522e-08	3.244303e+01	1.609734e+03
1.360000e-06	4.567236e-06	2.462201e-08	3.283089e+01	1.618893e+03
1.370000e-06	4.619440e-06	2.475103e-08	3.320615e+01	1.627577e+03
1.380000e-06	4.669633e-06	2.487442e-08	3.356695e+01	1.635779e+03
1.390000e-06	4.717845e-06	2.499201e-08	3.391352e+01	1.643502e+03
1.400000e-06	4.764352e-06	2.510346e-08	3.424783e+01	1.650760e+03
1.410000e-06	4.809288e-06	2.520932e-08	3.457085e+01	1.657578e+03
1.420000e-06	4.852687e-06	2.530928e-08	3.488282e+01	1.663990e+03
1.430000e-06	4.894236e-06	2.540108e-08	3.518148e+01	1.670034e+03
1.440000e-06	4.933909e-06	2.548470e-08	3.546667e+01	1.675746e+03
1.450000e-06	4.971984e-06	2.556336e-08	3.574036e+01	1.681155e+03
1.460000e-06	5.008518e-06	2.563851e-08	3.600298e+01	1.686278e+03
1.470000e-06	5.043365e-06	2.571119e-08	3.625347e+01	1.691118e+03
1.480000e-06	5.076292e-06	2.578193e-08	3.649016e+01	1.695670e+03
1.490000e-06	5.107379e-06	2.584912e-08	3.671363e+01	1.699921e+03
1.500000e-06	5.136786e-06	2.591011e-08	3.692501e+01	1.703858e+03
1.510000e-06	5.164529e-06	2.596434e-08	3.712444e+01	1.707470e+03
1.520000e-06	5.190316e-06	2.601404e-08	3.730981e+01	1.710756e+03
1.530000e-06	5.214065e-06	2.606041e-08	3.748052e+01	1.713721e+03
1.540000e-06	5.235970e-06	2.610101e-08	3.763799e+01	1.716375e+03
1.550000e-06	5.256140e-06	2.613476e-08	3.778297e+01	1.718735e+03
1.560000e-06	5.274489e-06	2.616440e-08	3.791488e+01	1.720814e+03
1.570000e-06	5.290852e-06	2.619094e-08	3.803249e+01	1.722624e+03
1.580000e-06	5.305252e-06	2.621285e-08	3.813601e+01	1.724172e+03
1.590000e-06	5.317755e-06	2.623112e-08	3.822589e+01	1.725458e+03
1.600000e-06	5.328121e-06	2.624758e-08	3.830040e+01	1.726481e+03
1.610000e-06	5.336273e-06	2.626048e-08	3.835900e+01	1.727243e+03
1.620000e-06	5.342515e-06	2.626926e-08	3.840387e+01	1.727748e+03
1.630000e-06	5.347024e-06	2.627536e-08	3.843628e+01	1.728007e+03
1.640000e-06	5.349702e-06	2.627826e-08	3.845553e+01	1.728038e+03
1.650000e-06	5.350324e-06	2.627894e-08	3.846000e+01	1.727862e+03
1.660000e-06	5.349077e-06	2.627310e-08	3.845103e+01	1.727497e+03
1.670000e-06	5.346219e-06	2.626237e-08	3.843049e+01	1.726956e+03
1.680000e-06	5.341763e-06	2.625427e-08	3.839846e+01	1.726241e+03
1.690000e-06	5.335427e-06	2.624230e-08	3.835291e+01	1.725340e+03
1.700000e-06	5.327214e-06	2.622534e-08	3.829388e+01	1.724232e+03
1.710000e-06	5.317464e-06	2.620658e-08	3.822379e+01	1.722889e+03
1.720000e-06	5.306100e-06	2.619353e-08	3.814211e+01	1.721285e+03
1.730000e-06	5.292786e-06	2.618736e-08	3.804640e+01	1.719402e+03
1.740000e-06	5.277447e-06	2.608216e-08	3.793613e+01	1.717239e+03
1.750000e-06	5.259954e-06	2.599981e-08	3.781039e+01	1.714814e+03
1.760000e-06	5.239851e-06	2.601880e-08	3.766588e+01	1.712162e+03
1.770000e-06	5.217221e-06	2.599319e-08	3.750321e+01	1.709332e+03
1.780000e-06	5.192951e-06	2.604814e-08	3.732875e+01	1.706374e+03
1.790000e-06	5.167836e-06	2.596305e-08	3.714822e+01	1.703332e+03
1.800000e-06	5.141739e-06	2.573995e-08	3.696062e+01	1.700232e+03
1.810000e-06	5.113714e-06	2.587429e-08	3.675917e+01	1.697077e+03
1.820000e-06	5.083537e-06	2.581408e-08	3.654225e+01	1.693841e+03
1.830000e-06	5.051714e-06	2.564933e-08	3.631349e+01	1.690477e+03
1.840000e-06	5.018114e-06	2.584527e-08	3.607196e+01	1.686921e+03
1.850000e-06	4.982851e-06	2.568280e-08	3.581848e+01	1.683107e+03
1.860000e-06	4.945975e-06	2.550462e-08	3.555340e+01	1.678973e+03
1.870000e-06	4.907138e-06	2.560000e-08	3.527422e+01	1.674475e+03
1.880000e-06	4.866620e-06	2.542436e-08	3.498297e+01	1.669591e+03
1.890000e-06	4.824414e-06	2.542502e-08	3.467958e+01	1.664320e+03
1.900000e-06	4.780472e-06	2.536768e-08	3.436371e+01	1.658680e+03
1.910000e-06	4.734803e-06	2.511719e-08	3.403542e+01	1.652700e+03
1.920000e-06	4.687168e-06	2.519083e-08	3.369300e+01	1.646408e+03
1.930000e-06	4.637882e-06	2.507524e-08	3.333872e+01	1.639828e+03
1.940000e-06	4.586922e-06	2.493380e-08	3.297240e+01	1.632972e+03
1.950000e-06	4.533886e-06	2.485432e-08	3.259116e+01	1.625836e+03
1.960000e-06	4.478925e-06	2.469558e-08	3.219608e+01	1.618408e+03
1.970000e-06	4.422237e-06	2.465667e-08	3.178858e+01	1.610667e+03
1.980000e-06	4.363984e-06	2.443097e-08	3.136985e+01	1.602591e+03
1.990000e-06	4.304381e-06	2.432704e-08	3.094140e+01	1.594166e+03
2.000000e-06	4.243303e-06	2.429020e-08	3.050235e+01	1.585381e+03
2.010000e-06	4.180522e-06	2.407169e-08	3.005106e+01	1.576239e+03
2.020000e-06	4.116060e-06	2.394116e-08	2.958768e+01	1.566746e+03
2.030000e-06	4.050153e-06	2.374914e-08	2.911392e+01	1.556908e+03
2.040000e-06	3.982953e-06	2.364660e-08	2.863086e+01	1.546733e+03
2.050000e-06	3.914359e-06	2.350449e-08	2.813778e+01	1.536217e+03
2.060000e-06	3.844174e-06	2.328370e-08	2.763327e+01	1.525350e+03
2.070000e-06	3.772505e-06	2.315939e-08	2.711809e+01	1.514111e+03
2.080000e-06	3.699585e-06	2.294585e-08	2.659391e+01	1.502476e+03
2.090000e-06	3.625366e-06	2.277684e-08	2.606040e+01	1.490415e+03
2.100000e-06	3.549821e-06	2.259033e-08	2.551736e+01	1.477905e+03
2.110000e-06	3.472789e-06	2.239909e-08	2.496362e+01	1.464925e+03
2.120000e-06	3.394226e-06	2.220440e-08	2.439888e+01	1.451461e+03
2.130000e-06	3.314441e-06	2.195958e-08	2.382536e+01	1.437505e+03
2.140000e-06	3.233492e-06	2.175893e-08	2.324347e+01	1.423048e+03
2.150000e-06	3.151408e-06	2.151883e-08	2.265342e+01	1.408082e+03
2.160000e-06	3.068340e-06	2.129791e-08	2.205630e+01	1.392592e+03
2.170000e-06	2.984375e-06	2.106298e-08	2.145273e+01	1.376555e+03
2.180000e-06	2.899182e-06	2.080563e-08	2.084033e+01	1.359940e+03
2.190000e-06	2.812603e-06	2.054039e-08	2.021797e+01	1.342710e+03
2.200000e-06	2.724998e-06	2.026016e-08	1.958824e+01	1.324824e+03
2.210000e-06	2.636462e-06	1.999374e-08	1.895181e+01	1.306242e+03
2.220000e-06	2.547039e-06	1.969864e-08	1.830901e+01	1.286926e+03
2.230000e-06	2.456746e-06	1.939420e-08	1.765995e+01	1.266840e+03
2.240000e-06	2.365651e-06	1.906918e-08	1.700513e+01	1.245953e+03
2.250000e-06	2.273955e-06	1.874041e-08	1.634599e+01	1.224230e+03
2.260000e-06	2.181555e-06	1.839991e-08	1.568178e+01	1.201631e+03
2.270000e-06	2.088121e-06	1.804276e-08	1.501014e+01	1.178107e+03
2.280000e-06	1.993634e-06	1.767664e-08	1.433094e+01	1.153597e+03
2.290000e-06	1.898348e-06	1.728800e-08	1.364599e+01	1.128029e+03
2.300000e-06	1.802452e-06	1.688052e-08	1.295666e+01	1.101317e+03
2.310000e-06	1.706016e-06	1.645054e-08	1.226344e+01	1.073373e+03
2.320000e-06	1.609057e-06	1.600794e-08	1.156647e+01	1.044103e+03
2.330000e-06	1.511603e-06	1.554519e-08	1.086593e+01	1.013415e+03
2.340000e-06	1.413642e-06	1.505512e-08	1.016175e+01	9.812238e+02
2.350000e-06	1.315189e-06	1.453557e-08	9.454040e+00	9.474484e+02
2.360000e-06	1.216325e-06	1.399516e-08	8.743370e+00	9.120149e+02
2.370000e-06	1.117170e-06	1.343494e-08	8.030611e+00	8.748559e+02
2.380000e-06	1.017793e-06	1.284551e-08	7.316254e+00	8.359108e+02
2.390000e-06	9.182165e-07	1.222356e-08	6.600461e+00	7.951301e+02
2.400000e-06	8.184255e-07	1.156937e-08	5.883129e+00	7.524805e+02
2.410000e-06	7.183553e-07	1.088685e-08	5.163789e+00	7.079550e+02
2.420000e-06	6.179600e-07	1.017507e-08	4.442112e+00	6.615827e+02
2.430000e-06	5.172417e-07	9.438705e-09	3.718114e+00	6.134387e+02
2.440000e-06	4.162784e-07	8.681605e-09	2.992354e+00	5.636504e+02
2.450000e-06	3.151786e-07	7.903385e-09	2.265614e+00	5.123973e+02
2.460000e-06	2.139440e-07	7.100793e-09	1.537904e+00	4.599028e+02
2.470000e-06	1.125260e-07	6.281871e-09	8.088765e-01	4.064173e+02
2.480000e-06	1.093802e-08	5.455363e-09	7.862630e-02	3.521940e+02
2.490000e-06	-9.068571e-08	4.621083e-09	-6.518806e-01	2.974606e+02
2.500000e-06	-1.922435e-07	3.777630e-09	-1.381914e+00	2.423916e+02
2.510000e-06	-2.936863e-07	2.928787e-09	-2.111120e+00	1.870849e+02
2.520000e-06	-3.950135e-07	2.078231e-09	-2.839495e+00	1.315495e+02
2.530000e-06	-4.962130e-07	1.223601e-09	-3.566953e+00	7.570644e+01
2.540000e-06	-5.971270e-07	3.626482e-10	-4.292358e+00	1.940371e+01
2.550000e-06	-6.977032e-07	-5.081938e-10	-5.015334e+00	-3.755445e+01
2.560000e-06	-7.979952e-07	-1.391533e-09	-5.736269e+00	-9.536885e+01
2.570000e-06	-8.980096e-07	-2.289834e-09	-6.455207e+00	-1.542022e+02
2.580000e-06	-9.977427e-07	-3.204382e-09	-7.172124e+00	-2.141383e+02
2.590000e-06	-1.097177e-06	-4.135019e-09	-7.886890e+00	-2.751496e+02
2.600000e-06	-1.196278e-06	-5.079767e-09	-8.599265e+00	-3.370788e+02
2.610000e-06	-1.294988e-06	-6.034670e-09	-9.308826e+00	-3.996373e+02
2.620000e-06	-1.393221e-06	-6.995115e-09	-1.001496e+01	-4.624209e+02
2.630000e-06	-1.490927e-06	-7.953591e-09	-1.071731e+01	-5.249405e+02
2.640000e-06	-1.588118e-06	-8.899394e-09	-1.141595e+01	-5.866635e+02
2.650000e-06	-1.684780e-06	-9.823433e-09	-1.211079e+01	-6.470588e+02
2.660000e-06	-1.780857e-06	-1.071906e-08	-1.280142e+01	-7.056409e+02
2.670000e-06	-1.876366e-06	-1.158242e-08	-1.348797e+01	-7.620058e+02
2.680000e-06	-1.971321e-06	-1.240914e-08	-1.417054e+01	-8.158543e+02
2.690000e-06	-2.065556e-06	-1.319300e-08	-1.484794e+01	-8.670025e+02
2.700000e-06	-2.158807e-06	-1.393398e-08	-1.551826e+01	-9.153771e+02
2.710000e-06	-2.251021e-06	-1.463557e-08	-1.618113e+01	-9.610007e+02
2.720000e-06	-2.342416e-06	-1.529771e-08	-1.683811e+01	-1.003968e+03
2.730000e-06	-2.433092e-06	-1.592124e-08	-1.748992e+01	-1.044420e+03
2.740000e-06	-2.522897e-06	-1.650883e-08	-1.813546e+01	-1.082520e+03
2.750000e-06	-2.611807e-06	-1.706212e-08	-1.877458e+01	-1.118430e+03
2.760000e-06	-2.699869e-06	-1.758133e-08	-1.940760e+01	-1.152304e+03
2.770000e-06	-2.787055e-06	-1.806780e-08	-2.003432e+01	-1.184273e+03
2.780000e-06	-2.873273e-06	-1.852805e-08	-2.065409e+01	-1.214456e+03
2.790000e-06	-2.958289e-06	-1.896426e-08	-2.126521e+01	-1.242955e+03
2.800000e-06	-3.042097e-06	-1.937641e-08	-2.186766e+01	-1.269867e+03
2.810000e-06	-3.124918e-06	-1.976821e-08	-2.246300e+01	-1.295291e+03
2.820000e-06	-3.206752e-06	-2.013929e-08	-2.305126e+01	-1.319326e+03
2.830000e-06	-3.287564e-06	-2.048806e-08	-2.363216e+01	-1.342075e+03
2.840000e-06	-3.367308e-06	-2.081777e-08	-2.420539e+01	-1.363640e+03
2.850000e-06	-3.445846e-06	-2.113114e-08	-2.476994e+01	-1.384120e+03
2.860000e-06	-3.522959e-06	-2.142891e-08	-2.532427e+01	-1.403602e+03
2.870000e-06	-3.598553e-06	-2.171393e-08	-2.586766e+01	-1.422158e+03
2.880000e-06	-3.672694e-06	-2.198625e-08	-2.640061e+01	-1.439846e+03
2.890000e-06	-3.745503e-06	-2.224546e-08	-2.692399e+01	-1.456706e+03
2.900000e-06	-3.817104e-06	-2.249130e-08	-2.743868e+01	-1.472768e+03
2.910000e-06	-3.887303e-06	-2.272617e-08	-2.794330e+01	-1.488058e+03
2.920000e-06	-3.955916e-06	-2.295250e-08	-2.843651e+01	-1.502602e+03
2.930000e-06	-4.023086e-06	-2.316950e-08	-2.891935e+01	-1.516430e+03
2.940000e-06	-4.088881e-06	-2.337554e-08	-2.939231e+01	-1.529579e+03
