# Temperatura_=_76.97
# Concentracion g/m^3_=_28200.0
# C_Vs_to_Am_M_A/Vsm_=_65563218390.804596
# pendiente_HvsI_1/m_=_3716.3
# ordenada_HvsI_A/m_=_1297.0
# frecuencia_Hz_=_301763.6959522966

Tiempo_(s)	Campo_(V.s)	Magnetizacion_(V.s)	Campo_(kA/m)	Magnetizacion_(A/m)
0.000000e+00	-5.303341e-06	-2.337358e-08	-3.829895e+01	-1.528399e+03
1.000000e-08	-5.301116e-06	-2.336770e-08	-3.828288e+01	-1.527998e+03
2.000000e-08	-5.297037e-06	-2.335475e-08	-3.825343e+01	-1.527431e+03
3.000000e-08	-5.291349e-06	-2.334158e-08	-3.821235e+01	-1.526685e+03
4.000000e-08	-5.284073e-06	-2.332689e-08	-3.815981e+01	-1.525744e+03
5.000000e-08	-5.275117e-06	-2.330626e-08	-3.809513e+01	-1.524584e+03
6.000000e-08	-5.264139e-06	-2.328138e-08	-3.801584e+01	-1.523185e+03
7.000000e-08	-5.251207e-06	-2.324679e-08	-3.792245e+01	-1.521540e+03
8.000000e-08	-5.236348e-06	-2.321445e-08	-3.781515e+01	-1.519651e+03
9.000000e-08	-5.219271e-06	-2.324638e-08	-3.769182e+01	-1.517541e+03
1.000000e-07	-5.200075e-06	-2.323632e-08	-3.755320e+01	-1.515246e+03
1.100000e-07	-5.179002e-06	-2.314683e-08	-3.740102e+01	-1.512808e+03
1.200000e-07	-5.156172e-06	-2.309549e-08	-3.723614e+01	-1.510273e+03
1.300000e-07	-5.131885e-06	-2.298419e-08	-3.706075e+01	-1.507673e+03
1.400000e-07	-5.106108e-06	-2.290919e-08	-3.687460e+01	-1.505024e+03
1.500000e-07	-5.078592e-06	-2.303686e-08	-3.667589e+01	-1.502321e+03
1.600000e-07	-5.049520e-06	-2.290135e-08	-3.646594e+01	-1.499534e+03
1.700000e-07	-5.019067e-06	-2.279365e-08	-3.624602e+01	-1.496614e+03
1.800000e-07	-4.986811e-06	-2.290605e-08	-3.601308e+01	-1.493504e+03
1.900000e-07	-4.952427e-06	-2.270881e-08	-3.576477e+01	-1.490142e+03
2.000000e-07	-4.916478e-06	-2.264635e-08	-3.550516e+01	-1.486477e+03
2.100000e-07	-4.878999e-06	-2.271420e-08	-3.523449e+01	-1.482475e+03
2.200000e-07	-4.839711e-06	-2.251278e-08	-3.495077e+01	-1.478120e+03
2.300000e-07	-4.798647e-06	-2.242573e-08	-3.465422e+01	-1.473418e+03
2.400000e-07	-4.755599e-06	-2.239011e-08	-3.434334e+01	-1.468388e+03
2.500000e-07	-4.710698e-06	-2.227619e-08	-3.401908e+01	-1.463059e+03
2.600000e-07	-4.664048e-06	-2.228401e-08	-3.368219e+01	-1.457460e+03
2.700000e-07	-4.615470e-06	-2.215905e-08	-3.333138e+01	-1.451614e+03
2.800000e-07	-4.564849e-06	-2.198036e-08	-3.296581e+01	-1.445530e+03
2.900000e-07	-4.512230e-06	-2.189253e-08	-3.258581e+01	-1.439208e+03
3.000000e-07	-4.457898e-06	-2.183324e-08	-3.219345e+01	-1.432634e+03
3.100000e-07	-4.402000e-06	-2.175651e-08	-3.178977e+01	-1.425788e+03
3.200000e-07	-4.344378e-06	-2.163255e-08	-3.137364e+01	-1.418651e+03
3.300000e-07	-4.285004e-06	-2.151773e-08	-3.094486e+01	-1.411205e+03
3.400000e-07	-4.224118e-06	-2.136401e-08	-3.050517e+01	-1.403440e+03
3.500000e-07	-4.161824e-06	-2.121185e-08	-3.005530e+01	-1.395356e+03
3.600000e-07	-4.098212e-06	-2.110818e-08	-2.959591e+01	-1.386956e+03
3.700000e-07	-4.033229e-06	-2.101175e-08	-2.912662e+01	-1.378248e+03
3.800000e-07	-3.966568e-06	-2.090313e-08	-2.864522e+01	-1.369240e+03
3.900000e-07	-3.898263e-06	-2.071921e-08	-2.815195e+01	-1.359932e+03
4.000000e-07	-3.828680e-06	-2.053205e-08	-2.764944e+01	-1.350320e+03
4.100000e-07	-3.757953e-06	-2.040414e-08	-2.713868e+01	-1.340387e+03
4.200000e-07	-3.686034e-06	-2.025781e-08	-2.661930e+01	-1.330113e+03
4.300000e-07	-3.612789e-06	-2.010202e-08	-2.609035e+01	-1.319473e+03
4.400000e-07	-3.537977e-06	-1.992969e-08	-2.555009e+01	-1.308439e+03
4.500000e-07	-3.461636e-06	-1.974061e-08	-2.499877e+01	-1.296990e+03
4.600000e-07	-3.383991e-06	-1.954638e-08	-2.443805e+01	-1.285106e+03
4.700000e-07	-3.305047e-06	-1.936683e-08	-2.386794e+01	-1.272775e+03
4.800000e-07	-3.224665e-06	-1.919163e-08	-2.328745e+01	-1.259987e+03
4.900000e-07	-3.142998e-06	-1.897994e-08	-2.269768e+01	-1.246735e+03
5.000000e-07	-3.060322e-06	-1.876394e-08	-2.210062e+01	-1.233012e+03
5.100000e-07	-2.976737e-06	-1.854279e-08	-2.149700e+01	-1.218803e+03
5.200000e-07	-2.892314e-06	-1.831060e-08	-2.088732e+01	-1.204090e+03
5.300000e-07	-2.806960e-06	-1.807419e-08	-2.027093e+01	-1.188848e+03
5.400000e-07	-2.720640e-06	-1.783519e-08	-1.964755e+01	-1.173045e+03
5.500000e-07	-2.633444e-06	-1.758559e-08	-1.901785e+01	-1.156643e+03
5.600000e-07	-2.545381e-06	-1.731645e-08	-1.838189e+01	-1.139603e+03
5.700000e-07	-2.456325e-06	-1.704604e-08	-1.773876e+01	-1.121885e+03
5.800000e-07	-2.366045e-06	-1.677171e-08	-1.708678e+01	-1.103451e+03
5.900000e-07	-2.274651e-06	-1.648256e-08	-1.642677e+01	-1.084260e+03
6.000000e-07	-2.182542e-06	-1.617081e-08	-1.576159e+01	-1.064276e+03
6.100000e-07	-2.089806e-06	-1.584549e-08	-1.509188e+01	-1.043457e+03
6.200000e-07	-1.996304e-06	-1.551374e-08	-1.441663e+01	-1.021762e+03
6.300000e-07	-1.902036e-06	-1.517001e-08	-1.373587e+01	-9.991409e+02
6.400000e-07	-1.807093e-06	-1.481117e-08	-1.305022e+01	-9.755383e+02
6.500000e-07	-1.711570e-06	-1.443171e-08	-1.236039e+01	-9.508912e+02
6.600000e-07	-1.615525e-06	-1.403145e-08	-1.166678e+01	-9.251290e+02
6.700000e-07	-1.518909e-06	-1.361426e-08	-1.096905e+01	-8.981749e+02
6.800000e-07	-1.421634e-06	-1.318588e-08	-1.026656e+01	-8.699480e+02
6.900000e-07	-1.323727e-06	-1.274191e-08	-9.559509e+00	-8.403660e+02
7.000000e-07	-1.225286e-06	-1.227559e-08	-8.848607e+00	-8.093485e+02
7.100000e-07	-1.126313e-06	-1.178006e-08	-8.133853e+00	-7.768216e+02
7.200000e-07	-1.026908e-06	-1.125186e-08	-7.415985e+00	-7.427228e+02
7.300000e-07	-9.271877e-07	-1.069845e-08	-6.695839e+00	-7.070067e+02
7.400000e-07	-8.272432e-07	-1.012678e-08	-5.974073e+00	-6.696518e+02
7.500000e-07	-7.270971e-07	-9.538596e-09	-5.250851e+00	-6.306666e+02
7.600000e-07	-6.266955e-07	-8.924260e-09	-4.525785e+00	-5.900951e+02
7.700000e-07	-5.261401e-07	-8.282994e-09	-3.799607e+00	-5.480212e+02
7.800000e-07	-4.254883e-07	-7.621943e-09	-3.072734e+00	-5.045688e+02
7.900000e-07	-3.247047e-07	-6.942770e-09	-2.344909e+00	-4.598986e+02
8.000000e-07	-2.238104e-07	-6.246359e-09	-1.616284e+00	-4.141999e+02
8.100000e-07	-1.227815e-07	-5.539114e-09	-8.866870e-01	-3.676774e+02
8.200000e-07	-2.165184e-08	-4.823821e-09	-1.563623e-01	-3.205344e+02
8.300000e-07	7.947818e-08	-4.098343e-09	5.739648e-01	-2.729528e+02
8.400000e-07	1.805690e-07	-3.366693e-09	1.304009e+00	-2.250743e+02
8.500000e-07	2.816220e-07	-2.634875e-09	2.033780e+00	-1.769842e+02
8.600000e-07	3.825881e-07	-1.905218e-09	2.762923e+00	-1.287013e+02
8.700000e-07	4.834030e-07	-1.171394e-09	3.490975e+00	-8.017621e+01
8.800000e-07	5.840955e-07	-4.310403e-10	4.218142e+00	-3.129948e+01
8.900000e-07	6.846843e-07	3.203545e-10	4.944560e+00	1.808000e+01
9.000000e-07	7.851257e-07	1.086275e-09	5.669914e+00	6.812884e+01
9.100000e-07	8.853456e-07	1.865418e-09	6.393669e+00	1.189975e+02
9.200000e-07	9.852830e-07	2.657071e-09	7.115384e+00	1.707878e+02
9.300000e-07	1.084926e-06	3.460360e-09	7.834971e+00	2.235237e+02
9.400000e-07	1.184223e-06	4.275049e-09	8.552061e+00	2.771306e+02
9.500000e-07	1.282999e-06	5.097356e-09	9.265391e+00	3.314263e+02
9.600000e-07	1.381150e-06	5.925777e-09	9.974205e+00	3.861246e+02
9.700000e-07	1.478662e-06	6.757109e-09	1.067840e+01	4.408529e+02
9.800000e-07	1.575488e-06	7.583296e-09	1.137764e+01	4.951807e+02
9.900000e-07	1.671617e-06	8.398732e-09	1.207186e+01	5.486551e+02
1.000000e-06	1.767094e-06	9.196612e-09	1.276136e+01	6.008384e+02
1.010000e-06	1.861968e-06	9.965130e-09	1.344651e+01	6.513432e+02
1.020000e-06	1.956209e-06	1.069758e-08	1.412708e+01	6.998590e+02
1.030000e-06	2.049752e-06	1.139520e-08	1.480262e+01	7.461691e+02
1.040000e-06	2.142628e-06	1.205833e-08	1.547334e+01	7.901542e+02
1.050000e-06	2.234897e-06	1.268777e-08	1.613967e+01	8.317851e+02
1.060000e-06	2.326527e-06	1.328331e-08	1.680140e+01	8.711068e+02
1.070000e-06	2.417253e-06	1.384673e-08	1.745659e+01	9.082161e+02
1.080000e-06	2.506816e-06	1.437865e-08	1.810338e+01	9.432390e+02
1.090000e-06	2.595363e-06	1.488215e-08	1.874284e+01	9.763107e+02
1.100000e-06	2.683061e-06	1.535875e-08	1.937616e+01	1.007560e+03
1.110000e-06	2.769902e-06	1.580892e-08	2.000330e+01	1.037102e+03
1.120000e-06	2.855815e-06	1.623160e-08	2.062374e+01	1.065035e+03
1.130000e-06	2.940720e-06	1.662850e-08	2.123689e+01	1.091445e+03
1.140000e-06	3.024799e-06	1.700336e-08	2.184408e+01	1.116411e+03
1.150000e-06	3.108031e-06	1.736059e-08	2.244516e+01	1.140011e+03
1.160000e-06	3.190080e-06	1.770260e-08	2.303769e+01	1.162327e+03
1.170000e-06	3.270867e-06	1.802655e-08	2.362110e+01	1.183445e+03
1.180000e-06	3.350450e-06	1.833262e-08	2.419583e+01	1.203452e+03
1.190000e-06	3.428860e-06	1.861943e-08	2.476208e+01	1.222435e+03
1.200000e-06	3.506034e-06	1.888936e-08	2.531940e+01	1.240475e+03
1.210000e-06	3.581996e-06	1.914544e-08	2.586797e+01	1.257640e+03
1.220000e-06	3.656558e-06	1.939106e-08	2.640644e+01	1.273986e+03
1.230000e-06	3.729535e-06	1.962730e-08	2.693345e+01	1.289557e+03
1.240000e-06	3.801088e-06	1.985349e-08	2.745018e+01	1.304386e+03
1.250000e-06	3.871236e-06	2.006692e-08	2.795677e+01	1.318502e+03
1.260000e-06	3.940046e-06	2.026697e-08	2.845369e+01	1.331936e+03
1.270000e-06	4.007626e-06	2.045551e-08	2.894173e+01	1.344719e+03
1.280000e-06	4.073707e-06	2.063746e-08	2.941895e+01	1.356890e+03
1.290000e-06	4.138096e-06	2.081489e-08	2.988394e+01	1.368487e+03
1.300000e-06	4.200982e-06	2.098513e-08	3.033808e+01	1.379553e+03
1.310000e-06	4.262452e-06	2.114605e-08	3.078200e+01	1.390121e+03
1.320000e-06	4.322626e-06	2.129922e-08	3.121656e+01	1.400219e+03
1.330000e-06	4.381346e-06	2.144623e-08	3.164061e+01	1.409861e+03
1.340000e-06	4.438276e-06	2.158740e-08	3.205174e+01	1.419051e+03
1.350000e-06	4.493510e-06	2.172234e-08	3.245063e+01	1.427785e+03
1.360000e-06	4.547141e-06	2.184734e-08	3.283793e+01	1.436054e+03
1.370000e-06	4.598930e-06	2.196304e-08	3.321193e+01	1.443855e+03
1.380000e-06	4.648672e-06	2.207169e-08	3.357115e+01	1.451191e+03
1.390000e-06	4.696568e-06	2.217414e-08	3.391704e+01	1.458080e+03
1.400000e-06	4.742819e-06	2.227164e-08	3.425105e+01	1.464549e+03
1.410000e-06	4.787523e-06	2.236600e-08	3.457389e+01	1.470639e+03
1.420000e-06	4.830680e-06	2.245623e-08	3.488555e+01	1.476390e+03
1.430000e-06	4.872013e-06	2.253930e-08	3.518404e+01	1.481842e+03
1.440000e-06	4.911555e-06	2.261601e-08	3.546961e+01	1.487027e+03
1.450000e-06	4.949456e-06	2.268964e-08	3.574331e+01	1.491963e+03
1.460000e-06	4.985794e-06	2.276018e-08	3.600573e+01	1.496652e+03
1.470000e-06	5.020416e-06	2.282729e-08	3.625576e+01	1.501087e+03
1.480000e-06	5.053088e-06	2.289048e-08	3.649171e+01	1.505250e+03
1.490000e-06	5.084018e-06	2.294822e-08	3.671508e+01	1.509123e+03
1.500000e-06	5.113350e-06	2.300221e-08	3.692690e+01	1.512692e+03
1.510000e-06	5.140992e-06	2.305302e-08	3.712652e+01	1.515951e+03
1.520000e-06	5.166639e-06	2.309952e-08	3.731174e+01	1.518903e+03
1.530000e-06	5.190210e-06	2.314008e-08	3.748196e+01	1.521561e+03
1.540000e-06	5.211964e-06	2.317541e-08	3.763906e+01	1.523943e+03
1.550000e-06	5.232069e-06	2.320633e-08	3.778425e+01	1.526067e+03
1.560000e-06	5.250412e-06	2.323310e-08	3.791672e+01	1.527949e+03
1.570000e-06	5.266777e-06	2.325749e-08	3.803489e+01	1.529598e+03
1.580000e-06	5.281139e-06	2.327865e-08	3.813862e+01	1.531019e+03
1.590000e-06	5.293455e-06	2.329609e-08	3.822756e+01	1.532208e+03
1.600000e-06	5.303580e-06	2.331079e-08	3.830068e+01	1.533164e+03
1.610000e-06	5.311668e-06	2.332376e-08	3.835908e+01	1.533886e+03
1.620000e-06	5.317922e-06	2.333408e-08	3.840425e+01	1.534377e+03
1.630000e-06	5.322430e-06	2.334020e-08	3.843681e+01	1.534649e+03
1.640000e-06	5.325052e-06	2.334222e-08	3.845574e+01	1.534719e+03
1.650000e-06	5.325642e-06	2.334308e-08	3.846000e+01	1.534601e+03
1.660000e-06	5.324458e-06	2.333858e-08	3.845145e+01	1.534312e+03
1.670000e-06	5.321641e-06	2.332991e-08	3.843111e+01	1.533857e+03
1.680000e-06	5.317150e-06	2.332357e-08	3.839868e+01	1.533232e+03
1.690000e-06	5.310753e-06	2.331255e-08	3.835248e+01	1.532425e+03
1.700000e-06	5.302540e-06	2.329615e-08	3.829317e+01	1.531415e+03
1.710000e-06	5.292790e-06	2.327878e-08	3.822275e+01	1.530179e+03
1.720000e-06	5.281380e-06	2.326925e-08	3.814036e+01	1.528700e+03
1.730000e-06	5.268053e-06	2.326899e-08	3.804411e+01	1.526974e+03
1.740000e-06	5.252744e-06	2.317200e-08	3.793355e+01	1.525010e+03
1.750000e-06	5.235324e-06	2.309780e-08	3.780775e+01	1.522835e+03
1.760000e-06	5.215386e-06	2.311198e-08	3.766377e+01	1.520488e+03
1.770000e-06	5.192891e-06	2.308760e-08	3.750132e+01	1.518013e+03
1.780000e-06	5.168705e-06	2.315895e-08	3.732666e+01	1.515453e+03
1.790000e-06	5.143792e-06	2.306916e-08	3.714674e+01	1.512835e+03
1.800000e-06	5.117901e-06	2.286593e-08	3.695976e+01	1.510170e+03
1.810000e-06	5.089988e-06	2.301063e-08	3.675819e+01	1.507443e+03
1.820000e-06	5.059975e-06	2.291978e-08	3.654145e+01	1.504618e+03
1.830000e-06	5.028343e-06	2.276637e-08	3.631301e+01	1.501643e+03
1.840000e-06	4.994880e-06	2.296050e-08	3.607135e+01	1.498456e+03
1.850000e-06	4.959738e-06	2.278827e-08	3.581756e+01	1.495001e+03
1.860000e-06	4.923015e-06	2.264165e-08	3.555236e+01	1.491230e+03
1.870000e-06	4.884344e-06	2.274556e-08	3.527309e+01	1.487114e+03
1.880000e-06	4.843986e-06	2.257752e-08	3.498164e+01	1.482645e+03
1.890000e-06	4.801898e-06	2.258313e-08	3.467770e+01	1.477833e+03
1.900000e-06	4.758043e-06	2.249299e-08	3.436099e+01	1.472703e+03
1.910000e-06	4.712551e-06	2.225115e-08	3.403247e+01	1.467283e+03
1.920000e-06	4.665146e-06	2.238262e-08	3.369012e+01	1.461602e+03
1.930000e-06	4.616052e-06	2.229167e-08	3.333558e+01	1.455677e+03
1.940000e-06	4.565252e-06	2.212363e-08	3.296872e+01	1.449517e+03
1.950000e-06	4.512378e-06	2.204437e-08	3.258688e+01	1.443114e+03
1.960000e-06	4.457597e-06	2.190082e-08	3.219127e+01	1.436454e+03
1.970000e-06	4.401101e-06	2.185334e-08	3.178328e+01	1.429516e+03
1.980000e-06	4.343037e-06	2.166406e-08	3.136396e+01	1.422279e+03
1.990000e-06	4.283615e-06	2.160000e-08	3.093483e+01	1.414730e+03
2.000000e-06	4.222769e-06	2.157547e-08	3.049542e+01	1.406862e+03
2.010000e-06	4.160245e-06	2.135448e-08	3.004389e+01	1.398674e+03
2.020000e-06	4.096021e-06	2.121061e-08	2.958009e+01	1.390173e+03
2.030000e-06	4.030384e-06	2.104397e-08	2.910608e+01	1.381367e+03
2.040000e-06	3.963418e-06	2.097831e-08	2.862248e+01	1.372262e+03
2.050000e-06	3.895082e-06	2.086316e-08	2.812898e+01	1.362856e+03
2.060000e-06	3.825250e-06	2.065649e-08	2.762467e+01	1.353141e+03
2.070000e-06	3.753916e-06	2.054084e-08	2.710952e+01	1.343100e+03
2.080000e-06	3.681272e-06	2.034176e-08	2.658491e+01	1.332710e+03
2.090000e-06	3.607316e-06	2.018782e-08	2.605083e+01	1.321945e+03
2.100000e-06	3.532039e-06	2.003259e-08	2.550720e+01	1.310780e+03
2.110000e-06	3.455360e-06	1.986146e-08	2.495345e+01	1.299191e+03
2.120000e-06	3.377145e-06	1.968554e-08	2.438861e+01	1.287164e+03
2.130000e-06	3.297623e-06	1.946477e-08	2.381433e+01	1.274685e+03
2.140000e-06	3.217021e-06	1.928406e-08	2.323225e+01	1.261748e+03
2.150000e-06	3.135328e-06	1.907040e-08	2.264229e+01	1.248345e+03
2.160000e-06	3.052579e-06	1.887733e-08	2.204470e+01	1.234465e+03
2.170000e-06	2.968883e-06	1.867705e-08	2.144028e+01	1.220096e+03
2.180000e-06	2.884136e-06	1.844448e-08	2.082827e+01	1.205215e+03
2.190000e-06	2.798126e-06	1.820046e-08	2.020713e+01	1.189795e+03
2.200000e-06	2.710948e-06	1.794657e-08	1.957755e+01	1.173803e+03
2.210000e-06	2.622804e-06	1.771060e-08	1.894101e+01	1.157199e+03
2.220000e-06	2.533765e-06	1.744541e-08	1.829800e+01	1.139944e+03
2.230000e-06	2.443867e-06	1.716883e-08	1.764879e+01	1.121999e+03
2.240000e-06	2.353208e-06	1.688321e-08	1.699408e+01	1.103325e+03
2.250000e-06	2.261863e-06	1.659743e-08	1.633442e+01	1.083882e+03
2.260000e-06	2.169858e-06	1.629447e-08	1.566999e+01	1.063633e+03
2.270000e-06	2.076996e-06	1.596769e-08	1.499937e+01	1.042537e+03
2.280000e-06	1.983076e-06	1.563537e-08	1.432111e+01	1.020548e+03
2.290000e-06	1.888220e-06	1.528461e-08	1.363609e+01	9.976170e+02
2.300000e-06	1.792703e-06	1.491910e-08	1.294630e+01	9.736848e+02
2.310000e-06	1.696662e-06	1.453746e-08	1.225273e+01	9.486861e+02
2.320000e-06	1.600092e-06	1.414517e-08	1.155533e+01	9.225483e+02
2.330000e-06	1.502973e-06	1.373349e-08	1.085397e+01	8.951930e+02
2.340000e-06	1.405352e-06	1.329368e-08	1.014898e+01	8.665383e+02
2.350000e-06	1.307325e-06	1.283010e-08	9.441065e+00	8.365023e+02
2.360000e-06	1.208916e-06	1.235387e-08	8.730385e+00	8.050062e+02
2.370000e-06	1.110159e-06	1.186149e-08	8.017196e+00	7.719790e+02
2.380000e-06	1.011123e-06	1.133774e-08	7.301993e+00	7.373632e+02
2.390000e-06	9.118163e-07	1.077927e-08	6.584832e+00	7.011203e+02
2.400000e-06	8.122219e-07	1.019196e-08	5.865595e+00	6.632377e+02
2.410000e-06	7.123522e-07	9.585518e-09	5.144369e+00	6.237348e+02
2.420000e-06	6.122436e-07	8.958441e-09	4.421418e+00	5.826682e+02
2.430000e-06	5.119793e-07	8.311902e-09	3.697343e+00	5.401347e+02
2.440000e-06	4.116260e-07	7.648040e-09	2.972625e+00	4.962706e+02
2.450000e-06	3.111068e-07	6.962781e-09	2.246709e+00	4.512469e+02
2.460000e-06	2.104060e-07	6.255882e-09	1.519482e+00	4.052597e+02
2.470000e-06	1.095621e-07	5.537330e-09	7.912207e-01	3.585151e+02
2.480000e-06	8.612030e-09	4.815250e-09	6.219319e-02	3.112117e+02
2.490000e-06	-9.230866e-08	4.086851e-09	-6.666222e-01	2.635205e+02
2.500000e-06	-1.931273e-07	3.350692e-09	-1.394700e+00	2.155667e+02
2.510000e-06	-2.938666e-07	2.612211e-09	-2.122206e+00	1.674148e+02
2.520000e-06	-3.944889e-07	1.873919e-09	-2.848867e+00	1.190615e+02
2.530000e-06	-4.950046e-07	1.131590e-09	-3.574757e+00	7.043658e+01
2.540000e-06	-5.954103e-07	3.840117e-10	-4.299853e+00	2.141495e+01
2.550000e-06	-6.956045e-07	-3.723539e-10	-5.023423e+00	-2.816274e+01
2.560000e-06	-7.955379e-07	-1.141766e-09	-5.745108e+00	-7.846152e+01
2.570000e-06	-8.951725e-07	-1.923341e-09	-6.464636e+00	-1.296197e+02
2.580000e-06	-9.944712e-07	-2.717906e-09	-7.181738e+00	-1.817168e+02
2.590000e-06	-1.093474e-06	-3.527242e-09	-7.896703e+00	-2.347470e+02
2.600000e-06	-1.192158e-06	-4.351037e-09	-8.609363e+00	-2.886016e+02
2.610000e-06	-1.290425e-06	-5.182885e-09	-9.319018e+00	-3.430636e+02
2.620000e-06	-1.388192e-06	-6.018859e-09	-1.002506e+01	-3.978167e+02
2.630000e-06	-1.485437e-06	-6.858840e-09	-1.072732e+01	-4.524662e+02
2.640000e-06	-1.582157e-06	-7.691716e-09	-1.142581e+01	-5.065702e+02
2.650000e-06	-1.678406e-06	-8.505588e-09	-1.212088e+01	-5.596767e+02
2.660000e-06	-1.774230e-06	-9.296525e-09	-1.281289e+01	-6.113606e+02
2.670000e-06	-1.869467e-06	-1.006068e-08	-1.350067e+01	-6.612568e+02
2.680000e-06	-1.963919e-06	-1.079364e-08	-1.418277e+01	-7.090837e+02
2.690000e-06	-2.057427e-06	-1.149016e-08	-1.485805e+01	-7.546560e+02
2.700000e-06	-2.149991e-06	-1.215248e-08	-1.552651e+01	-7.978847e+02
2.710000e-06	-2.241763e-06	-1.278288e-08	-1.618926e+01	-8.387667e+02
2.720000e-06	-2.332817e-06	-1.337907e-08	-1.684682e+01	-8.773660e+02
2.730000e-06	-2.423073e-06	-1.394166e-08	-1.749862e+01	-9.137912e+02
2.740000e-06	-2.512466e-06	-1.447093e-08	-1.814419e+01	-9.481734e+02
2.750000e-06	-2.600998e-06	-1.496647e-08	-1.878353e+01	-9.806470e+02
2.760000e-06	-2.688735e-06	-1.543402e-08	-1.941715e+01	-1.011337e+03
2.770000e-06	-2.775676e-06	-1.587822e-08	-2.004500e+01	-1.040353e+03
2.780000e-06	-2.861497e-06	-1.629866e-08	-2.066478e+01	-1.067788e+03
2.790000e-06	-2.946065e-06	-1.669696e-08	-2.127550e+01	-1.093727e+03
2.800000e-06	-3.029562e-06	-1.707405e-08	-2.187848e+01	-1.118246e+03
2.810000e-06	-3.112119e-06	-1.743044e-08	-2.247468e+01	-1.141426e+03
2.820000e-06	-3.193673e-06	-1.776518e-08	-2.306364e+01	-1.163348e+03
2.830000e-06	-3.274184e-06	-1.808139e-08	-2.364506e+01	-1.184100e+03
2.840000e-06	-3.353667e-06	-1.838405e-08	-2.421906e+01	-1.203770e+03
2.850000e-06	-3.431904e-06	-1.867395e-08	-2.478406e+01	-1.222443e+03
2.860000e-06	-3.508592e-06	-1.894946e-08	-2.533787e+01	-1.240196e+03
2.870000e-06	-3.583768e-06	-1.920994e-08	-2.588077e+01	-1.257093e+03
2.880000e-06	-3.657556e-06	-1.945649e-08	-2.641364e+01	-1.273187e+03
2.890000e-06	-3.730024e-06	-1.969131e-08	-2.693699e+01	-1.288517e+03
2.900000e-06	-3.801260e-06	-1.991557e-08	-2.745143e+01	-1.303115e+03
2.910000e-06	-3.870963e-06	-2.013032e-08	-2.795480e+01	-1.317010e+03
2.920000e-06	-3.939113e-06	-2.033825e-08	-2.844695e+01	-1.330232e+03
2.930000e-06	-4.005962e-06	-2.053639e-08	-2.892971e+01	-1.342815e+03
2.940000e-06	-4.071449e-06	-2.072160e-08	-2.940264e+01	-1.354798e+03
