# Temperatura_=_71.93
# Concentracion g/m^3_=_28200.0
# C_Vs_to_Am_M_A/Vsm_=_65563218390.804596
# pendiente_HvsI_1/m_=_3716.3
# ordenada_HvsI_A/m_=_1297.0
# frecuencia_Hz_=_301763.6534398523

Tiempo_(s)	Campo_(V.s)	Magnetizacion_(V.s)	Campo_(kA/m)	Magnetizacion_(A/m)
0.000000e+00	-5.306231e-06	-2.304786e-08	-3.828988e+01	-1.507372e+03
1.000000e-08	-5.303800e-06	-2.304280e-08	-3.827234e+01	-1.506939e+03
2.000000e-08	-5.299581e-06	-2.302921e-08	-3.824190e+01	-1.506327e+03
3.000000e-08	-5.293759e-06	-2.301327e-08	-3.819988e+01	-1.505533e+03
4.000000e-08	-5.286337e-06	-2.299594e-08	-3.814633e+01	-1.504543e+03
5.000000e-08	-5.277181e-06	-2.297438e-08	-3.808025e+01	-1.503345e+03
6.000000e-08	-5.266025e-06	-2.294984e-08	-3.799976e+01	-1.501928e+03
7.000000e-08	-5.252956e-06	-2.291380e-08	-3.790545e+01	-1.500288e+03
8.000000e-08	-5.237948e-06	-2.288858e-08	-3.779715e+01	-1.498430e+03
9.000000e-08	-5.220668e-06	-2.292287e-08	-3.767246e+01	-1.496370e+03
1.000000e-07	-5.201262e-06	-2.289770e-08	-3.753242e+01	-1.494135e+03
1.100000e-07	-5.179990e-06	-2.281233e-08	-3.737892e+01	-1.491756e+03
1.200000e-07	-5.156991e-06	-2.276887e-08	-3.721296e+01	-1.489262e+03
1.300000e-07	-5.132525e-06	-2.265272e-08	-3.703641e+01	-1.486677e+03
1.400000e-07	-5.106554e-06	-2.261348e-08	-3.684901e+01	-1.484014e+03
1.500000e-07	-5.078894e-06	-2.271756e-08	-3.664941e+01	-1.481267e+03
1.600000e-07	-5.049654e-06	-2.254210e-08	-3.643842e+01	-1.478417e+03
1.700000e-07	-5.019032e-06	-2.247603e-08	-3.621745e+01	-1.475429e+03
1.800000e-07	-4.986612e-06	-2.255748e-08	-3.598350e+01	-1.472262e+03
1.900000e-07	-4.952071e-06	-2.236067e-08	-3.573426e+01	-1.468870e+03
2.000000e-07	-4.915932e-06	-2.236593e-08	-3.547347e+01	-1.465214e+03
2.100000e-07	-4.878210e-06	-2.241716e-08	-3.520127e+01	-1.461262e+03
2.200000e-07	-4.838710e-06	-2.222068e-08	-3.491624e+01	-1.457000e+03
2.300000e-07	-4.797391e-06	-2.213438e-08	-3.461808e+01	-1.452422e+03
2.400000e-07	-4.754105e-06	-2.206023e-08	-3.430573e+01	-1.447536e+03
2.500000e-07	-4.709050e-06	-2.196074e-08	-3.398061e+01	-1.442358e+03
2.600000e-07	-4.662248e-06	-2.196195e-08	-3.364288e+01	-1.436903e+03
2.700000e-07	-4.613543e-06	-2.184784e-08	-3.329143e+01	-1.431185e+03
2.800000e-07	-4.562757e-06	-2.169557e-08	-3.292496e+01	-1.425212e+03
2.900000e-07	-4.509898e-06	-2.158353e-08	-3.254352e+01	-1.418984e+03
3.000000e-07	-4.455348e-06	-2.152006e-08	-3.214989e+01	-1.412495e+03
3.100000e-07	-4.399259e-06	-2.145719e-08	-3.174515e+01	-1.405733e+03
3.200000e-07	-4.341409e-06	-2.133960e-08	-3.132770e+01	-1.398686e+03
3.300000e-07	-4.281851e-06	-2.123461e-08	-3.089793e+01	-1.391344e+03
3.400000e-07	-4.220846e-06	-2.108576e-08	-3.045772e+01	-1.383699e+03
3.500000e-07	-4.158475e-06	-2.092973e-08	-3.000765e+01	-1.375748e+03
3.600000e-07	-4.094758e-06	-2.081346e-08	-2.954787e+01	-1.367494e+03
3.700000e-07	-4.029547e-06	-2.072221e-08	-2.907730e+01	-1.358937e+03
3.800000e-07	-3.962675e-06	-2.061839e-08	-2.859475e+01	-1.350079e+03
3.900000e-07	-3.894267e-06	-2.044109e-08	-2.810112e+01	-1.340917e+03
4.000000e-07	-3.824561e-06	-2.027276e-08	-2.759812e+01	-1.331444e+03
4.100000e-07	-3.753675e-06	-2.013723e-08	-2.708660e+01	-1.321646e+03
4.200000e-07	-3.681626e-06	-1.998544e-08	-2.656670e+01	-1.311507e+03
4.300000e-07	-3.608223e-06	-1.982947e-08	-2.603702e+01	-1.301005e+03
4.400000e-07	-3.533247e-06	-1.965748e-08	-2.549599e+01	-1.290120e+03
4.500000e-07	-3.456760e-06	-1.947054e-08	-2.494405e+01	-1.278832e+03
4.600000e-07	-3.378918e-06	-1.928033e-08	-2.438235e+01	-1.267124e+03
4.700000e-07	-3.299779e-06	-1.910951e-08	-2.381128e+01	-1.254981e+03
4.800000e-07	-3.219321e-06	-1.893592e-08	-2.323069e+01	-1.242390e+03
4.900000e-07	-3.137625e-06	-1.872657e-08	-2.264117e+01	-1.229339e+03
5.000000e-07	-3.054872e-06	-1.851353e-08	-2.204403e+01	-1.215815e+03
5.100000e-07	-2.971198e-06	-1.829638e-08	-2.144023e+01	-1.201800e+03
5.200000e-07	-2.886676e-06	-1.806862e-08	-2.083032e+01	-1.187274e+03
5.300000e-07	-2.801224e-06	-1.783448e-08	-2.021370e+01	-1.172211e+03
5.400000e-07	-2.714778e-06	-1.759573e-08	-1.958990e+01	-1.156582e+03
5.500000e-07	-2.627397e-06	-1.734556e-08	-1.895936e+01	-1.140356e+03
5.600000e-07	-2.539085e-06	-1.707718e-08	-1.832210e+01	-1.123498e+03
5.700000e-07	-2.449725e-06	-1.681077e-08	-1.767727e+01	-1.105973e+03
5.800000e-07	-2.359266e-06	-1.654279e-08	-1.702452e+01	-1.087744e+03
5.900000e-07	-2.267858e-06	-1.626292e-08	-1.636491e+01	-1.068773e+03
6.000000e-07	-2.175690e-06	-1.595840e-08	-1.569983e+01	-1.049019e+03
6.100000e-07	-2.082806e-06	-1.563274e-08	-1.502957e+01	-1.028435e+03
6.200000e-07	-1.989113e-06	-1.529889e-08	-1.435348e+01	-1.006972e+03
6.300000e-07	-1.894691e-06	-1.495574e-08	-1.367213e+01	-9.845741e+02
6.400000e-07	-1.799666e-06	-1.460217e-08	-1.298643e+01	-9.611800e+02
6.500000e-07	-1.704067e-06	-1.422892e-08	-1.229659e+01	-9.367242e+02
6.600000e-07	-1.607899e-06	-1.383206e-08	-1.160264e+01	-9.111373e+02
6.700000e-07	-1.511111e-06	-1.341536e-08	-1.090421e+01	-8.843478e+02
6.800000e-07	-1.413682e-06	-1.298655e-08	-1.020116e+01	-8.562831e+02
6.900000e-07	-1.315624e-06	-1.254432e-08	-9.493573e+00	-8.268708e+02
7.000000e-07	-1.217004e-06	-1.208208e-08	-8.781929e+00	-7.960408e+02
7.100000e-07	-1.117951e-06	-1.159184e-08	-8.067162e+00	-7.637278e+02
7.200000e-07	-1.018514e-06	-1.106819e-08	-7.349621e+00	-7.298746e+02
7.300000e-07	-9.187485e-07	-1.051713e-08	-6.629710e+00	-6.944377e+02
7.400000e-07	-8.187458e-07	-9.947720e-09	-5.908088e+00	-6.573939e+02
7.500000e-07	-7.185297e-07	-9.363147e-09	-5.184926e+00	-6.187475e+02
7.600000e-07	-6.181088e-07	-8.754799e-09	-4.460287e+00	-5.785384e+02
7.700000e-07	-5.175158e-07	-8.121129e-09	-3.734406e+00	-5.368470e+02
7.800000e-07	-4.167801e-07	-7.466161e-09	-3.007495e+00	-4.937975e+02
7.900000e-07	-3.158930e-07	-6.791572e-09	-2.279491e+00	-4.495548e+02
8.000000e-07	-2.148880e-07	-6.099430e-09	-1.550637e+00	-4.043162e+02
8.100000e-07	-1.138177e-07	-5.396751e-09	-8.213110e-01	-3.582974e+02
8.200000e-07	-1.267292e-08	-4.688469e-09	-9.144804e-02	-3.117130e+02
8.300000e-07	8.851720e-08	-3.973822e-09	6.387421e-01	-2.647545e+02
8.400000e-07	1.896905e-07	-3.256948e-09	1.368811e+00	-2.175688e+02
8.500000e-07	2.908247e-07	-2.538663e-09	2.098598e+00	-1.702400e+02
8.600000e-07	3.918428e-07	-1.819036e-09	2.827546e+00	-1.227794e+02
8.700000e-07	4.926975e-07	-1.094976e-09	3.555316e+00	-7.512435e+01
8.800000e-07	5.934587e-07	-3.649597e-10	4.282411e+00	-2.714885e+01
8.900000e-07	6.940952e-07	3.725525e-10	5.008607e+00	2.131535e+01
9.000000e-07	7.945001e-07	1.122234e-09	5.733131e+00	7.044935e+01
9.100000e-07	8.946917e-07	1.885708e-09	6.456115e+00	1.204131e+02
9.200000e-07	9.946826e-07	2.661520e-09	7.177652e+00	1.713116e+02
9.300000e-07	1.094395e-06	3.450376e-09	7.897178e+00	2.231662e+02
9.400000e-07	1.193732e-06	4.254536e-09	8.613995e+00	2.758957e+02
9.500000e-07	1.292529e-06	5.066828e-09	9.326919e+00	3.293100e+02
9.600000e-07	1.390693e-06	5.884171e-09	1.003527e+01	3.831175e+02
9.700000e-07	1.488181e-06	6.703214e-09	1.073875e+01	4.369447e+02
9.800000e-07	1.584949e-06	7.516843e-09	1.143703e+01	4.903669e+02
9.900000e-07	1.681079e-06	8.320395e-09	1.213070e+01	5.429433e+02
1.000000e-06	1.776629e-06	9.103609e-09	1.282019e+01	5.942531e+02
1.010000e-06	1.871540e-06	9.857908e-09	1.350507e+01	6.439270e+02
1.020000e-06	1.965756e-06	1.058026e-08	1.418494e+01	6.916711e+02
1.030000e-06	2.059285e-06	1.126964e-08	1.485984e+01	7.372795e+02
1.040000e-06	2.152150e-06	1.192420e-08	1.552996e+01	7.806367e+02
1.050000e-06	2.244379e-06	1.254563e-08	1.619549e+01	8.217090e+02
1.060000e-06	2.335963e-06	1.313622e-08	1.685636e+01	8.605297e+02
1.070000e-06	2.426700e-06	1.369560e-08	1.751112e+01	8.971802e+02
1.080000e-06	2.516346e-06	1.422200e-08	1.815801e+01	9.317701e+02
1.090000e-06	2.604914e-06	1.471594e-08	1.879711e+01	9.644210e+02
1.100000e-06	2.692573e-06	1.518220e-08	1.942967e+01	9.952536e+02
1.110000e-06	2.779385e-06	1.562353e-08	2.005610e+01	1.024381e+03
1.120000e-06	2.865296e-06	1.604014e-08	2.067604e+01	1.051906e+03
1.130000e-06	2.950285e-06	1.643170e-08	2.128933e+01	1.077922e+03
1.140000e-06	3.034412e-06	1.680326e-08	2.189639e+01	1.102519e+03
1.150000e-06	3.117595e-06	1.715747e-08	2.249663e+01	1.125780e+03
1.160000e-06	3.199547e-06	1.749423e-08	2.308800e+01	1.147791e+03
1.170000e-06	3.280269e-06	1.781335e-08	2.367050e+01	1.168636e+03
1.180000e-06	3.359845e-06	1.811569e-08	2.424472e+01	1.188395e+03
1.190000e-06	3.438204e-06	1.840218e-08	2.481016e+01	1.207145e+03
1.200000e-06	3.515340e-06	1.867123e-08	2.536677e+01	1.224958e+03
1.210000e-06	3.591298e-06	1.892482e-08	2.591489e+01	1.241892e+03
1.220000e-06	3.665831e-06	1.916635e-08	2.645272e+01	1.258001e+03
1.230000e-06	3.738715e-06	1.939667e-08	2.697865e+01	1.273328e+03
1.240000e-06	3.810131e-06	1.961711e-08	2.749399e+01	1.287913e+03
1.250000e-06	3.880185e-06	1.982688e-08	2.799950e+01	1.301792e+03
1.260000e-06	3.948964e-06	2.002354e-08	2.849581e+01	1.315001e+03
1.270000e-06	4.016508e-06	2.020952e-08	2.898321e+01	1.327579e+03
1.280000e-06	4.082513e-06	2.038837e-08	2.945951e+01	1.339564e+03
1.290000e-06	4.146842e-06	2.056157e-08	2.992370e+01	1.350993e+03
1.300000e-06	4.209701e-06	2.072903e-08	3.037730e+01	1.361900e+03
1.310000e-06	4.271163e-06	2.088935e-08	3.082081e+01	1.372310e+03
1.320000e-06	4.331315e-06	2.104118e-08	3.125487e+01	1.382242e+03
1.330000e-06	4.389965e-06	2.118524e-08	3.167808e+01	1.391705e+03
1.340000e-06	4.446815e-06	2.132233e-08	3.208832e+01	1.400701e+03
1.350000e-06	4.501986e-06	2.145188e-08	3.248643e+01	1.409230e+03
1.360000e-06	4.555537e-06	2.157329e-08	3.287286e+01	1.417290e+03
1.370000e-06	4.607255e-06	2.168689e-08	3.324605e+01	1.424886e+03
1.380000e-06	4.656933e-06	2.179457e-08	3.360453e+01	1.432033e+03
1.390000e-06	4.704745e-06	2.189604e-08	3.394955e+01	1.438751e+03
1.400000e-06	4.750926e-06	2.199194e-08	3.428279e+01	1.445074e+03
1.410000e-06	4.795572e-06	2.208363e-08	3.460496e+01	1.451038e+03
1.420000e-06	4.838613e-06	2.216932e-08	3.491554e+01	1.456680e+03
1.430000e-06	4.879787e-06	2.224810e-08	3.521265e+01	1.462034e+03
1.440000e-06	4.919173e-06	2.232306e-08	3.549686e+01	1.467125e+03
1.450000e-06	4.956948e-06	2.239720e-08	3.576945e+01	1.471964e+03
1.460000e-06	4.993183e-06	2.246866e-08	3.603092e+01	1.476555e+03
1.470000e-06	5.027651e-06	2.253519e-08	3.627964e+01	1.480889e+03
1.480000e-06	5.060161e-06	2.259643e-08	3.651423e+01	1.484953e+03
1.490000e-06	5.090909e-06	2.265422e-08	3.673611e+01	1.488733e+03
1.500000e-06	5.120058e-06	2.270810e-08	3.694645e+01	1.492219e+03
1.510000e-06	5.147543e-06	2.275539e-08	3.714479e+01	1.495406e+03
1.520000e-06	5.173020e-06	2.279676e-08	3.732863e+01	1.498297e+03
1.530000e-06	5.196450e-06	2.283433e-08	3.749770e+01	1.500902e+03
1.540000e-06	5.218059e-06	2.286895e-08	3.765363e+01	1.503236e+03
1.550000e-06	5.238039e-06	2.290041e-08	3.779780e+01	1.505313e+03
1.560000e-06	5.256233e-06	2.292817e-08	3.792909e+01	1.507147e+03
1.570000e-06	5.272369e-06	2.295278e-08	3.804553e+01	1.508746e+03
1.580000e-06	5.286555e-06	2.297410e-08	3.814790e+01	1.510117e+03
1.590000e-06	5.298784e-06	2.299148e-08	3.823614e+01	1.511260e+03
1.600000e-06	5.308800e-06	2.300584e-08	3.830842e+01	1.512176e+03
1.610000e-06	5.316711e-06	2.301678e-08	3.836550e+01	1.512867e+03
1.620000e-06	5.322751e-06	2.302369e-08	3.840909e+01	1.513337e+03
1.630000e-06	5.326999e-06	2.302796e-08	3.843974e+01	1.513595e+03
1.640000e-06	5.329391e-06	2.303103e-08	3.845701e+01	1.513651e+03
1.650000e-06	5.329806e-06	2.303369e-08	3.846000e+01	1.513517e+03
1.660000e-06	5.328410e-06	2.302953e-08	3.844993e+01	1.513202e+03
1.670000e-06	5.325451e-06	2.302180e-08	3.842857e+01	1.512710e+03
1.680000e-06	5.320822e-06	2.301334e-08	3.839517e+01	1.512040e+03
1.690000e-06	5.314255e-06	2.299976e-08	3.834778e+01	1.511183e+03
1.700000e-06	5.305912e-06	2.298372e-08	3.828758e+01	1.510126e+03
1.710000e-06	5.296029e-06	2.296690e-08	3.821626e+01	1.508858e+03
1.720000e-06	5.284467e-06	2.295744e-08	3.813283e+01	1.507368e+03
1.730000e-06	5.270935e-06	2.294647e-08	3.803519e+01	1.505655e+03
1.740000e-06	5.255416e-06	2.284616e-08	3.792320e+01	1.503729e+03
1.750000e-06	5.237741e-06	2.279809e-08	3.779565e+01	1.501609e+03
1.760000e-06	5.217465e-06	2.280996e-08	3.764935e+01	1.499322e+03
1.770000e-06	5.194744e-06	2.278599e-08	3.748539e+01	1.496902e+03
1.780000e-06	5.170460e-06	2.284785e-08	3.731015e+01	1.494375e+03
1.790000e-06	5.145468e-06	2.271039e-08	3.712981e+01	1.491764e+03
1.800000e-06	5.119454e-06	2.256944e-08	3.694210e+01	1.489073e+03
1.810000e-06	5.091386e-06	2.270876e-08	3.673956e+01	1.486295e+03
1.820000e-06	5.061263e-06	2.256085e-08	3.652219e+01	1.483404e+03
1.830000e-06	5.029431e-06	2.247750e-08	3.629249e+01	1.480362e+03
1.840000e-06	4.995717e-06	2.262490e-08	3.604921e+01	1.477126e+03
1.850000e-06	4.960419e-06	2.239885e-08	3.579450e+01	1.473652e+03
1.860000e-06	4.923525e-06	2.231421e-08	3.552826e+01	1.469902e+03
1.870000e-06	4.884687e-06	2.237644e-08	3.524801e+01	1.465851e+03
1.880000e-06	4.844169e-06	2.223749e-08	3.495563e+01	1.461485e+03
1.890000e-06	4.801909e-06	2.227847e-08	3.465069e+01	1.456806e+03
1.900000e-06	4.757906e-06	2.213501e-08	3.433316e+01	1.451823e+03
1.910000e-06	4.712178e-06	2.195244e-08	3.400319e+01	1.446553e+03
1.920000e-06	4.664561e-06	2.203944e-08	3.365958e+01	1.441011e+03
1.930000e-06	4.615332e-06	2.192225e-08	3.330434e+01	1.435210e+03
1.940000e-06	4.564330e-06	2.183188e-08	3.293631e+01	1.429154e+03
1.950000e-06	4.511219e-06	2.172051e-08	3.255306e+01	1.422842e+03
1.960000e-06	4.456257e-06	2.159100e-08	3.215645e+01	1.416265e+03
1.970000e-06	4.399609e-06	2.153641e-08	3.174768e+01	1.409412e+03
1.980000e-06	4.341346e-06	2.132054e-08	3.132725e+01	1.402269e+03
1.990000e-06	4.281665e-06	2.128181e-08	3.089659e+01	1.394829e+03
2.000000e-06	4.220552e-06	2.123735e-08	3.045560e+01	1.387085e+03
2.010000e-06	4.157810e-06	2.104804e-08	3.000285e+01	1.379035e+03
2.020000e-06	4.093411e-06	2.090380e-08	2.953814e+01	1.370682e+03
2.030000e-06	4.027586e-06	2.073167e-08	2.906315e+01	1.362027e+03
2.040000e-06	3.960429e-06	2.066838e-08	2.857855e+01	1.353071e+03
2.050000e-06	3.891890e-06	2.052221e-08	2.808396e+01	1.343809e+03
2.060000e-06	3.821841e-06	2.034894e-08	2.757849e+01	1.334232e+03
2.070000e-06	3.750347e-06	2.023347e-08	2.706259e+01	1.324325e+03
2.080000e-06	3.677596e-06	2.004125e-08	2.653762e+01	1.314071e+03
2.090000e-06	3.603496e-06	1.989555e-08	2.600290e+01	1.303447e+03
2.100000e-06	3.528003e-06	1.973027e-08	2.545815e+01	1.292433e+03
2.110000e-06	3.451054e-06	1.957109e-08	2.490289e+01	1.281010e+03
2.120000e-06	3.372628e-06	1.938201e-08	2.433696e+01	1.269162e+03
2.130000e-06	3.292964e-06	1.917227e-08	2.376210e+01	1.256876e+03
2.140000e-06	3.212162e-06	1.899638e-08	2.317903e+01	1.244137e+03
2.150000e-06	3.130248e-06	1.878556e-08	2.258794e+01	1.230935e+03
2.160000e-06	3.047325e-06	1.859506e-08	2.198957e+01	1.217254e+03
2.170000e-06	2.963437e-06	1.839031e-08	2.138423e+01	1.203076e+03
2.180000e-06	2.878450e-06	1.816685e-08	2.077096e+01	1.188379e+03
2.190000e-06	2.792188e-06	1.792605e-08	2.014849e+01	1.173136e+03
2.200000e-06	2.704765e-06	1.768333e-08	1.951765e+01	1.157318e+03
2.210000e-06	2.616430e-06	1.745087e-08	1.888022e+01	1.140891e+03
2.220000e-06	2.527216e-06	1.718680e-08	1.823644e+01	1.123821e+03
2.230000e-06	2.437137e-06	1.690749e-08	1.758643e+01	1.106073e+03
2.240000e-06	2.346322e-06	1.661633e-08	1.693111e+01	1.087609e+03
2.250000e-06	2.254808e-06	1.633253e-08	1.627074e+01	1.068389e+03
2.260000e-06	2.162543e-06	1.603585e-08	1.560496e+01	1.048372e+03
2.270000e-06	2.069397e-06	1.572029e-08	1.493281e+01	1.027510e+03
2.280000e-06	1.975294e-06	1.539292e-08	1.425376e+01	1.005752e+03
2.290000e-06	1.880334e-06	1.504609e-08	1.356853e+01	9.830393e+02
2.300000e-06	1.784667e-06	1.468429e-08	1.287820e+01	9.593101e+02
2.310000e-06	1.688459e-06	1.430570e-08	1.218396e+01	9.344972e+02
2.320000e-06	1.591799e-06	1.391666e-08	1.148646e+01	9.085305e+02
2.330000e-06	1.494618e-06	1.350636e-08	1.078520e+01	8.813378e+02
2.340000e-06	1.396912e-06	1.306658e-08	1.008015e+01	8.528465e+02
2.350000e-06	1.298757e-06	1.260254e-08	9.371857e+00	8.229848e+02
2.360000e-06	1.200214e-06	1.212892e-08	8.660770e+00	7.916837e+02
2.370000e-06	1.101353e-06	1.164214e-08	7.947389e+00	7.588801e+02
2.380000e-06	1.002275e-06	1.112749e-08	7.232435e+00	7.245206e+02
2.390000e-06	9.029408e-07	1.057922e-08	6.515641e+00	6.885673e+02
2.400000e-06	8.032757e-07	9.998379e-09	5.796455e+00	6.510051e+02
2.410000e-06	7.033320e-07	9.393701e-09	5.075259e+00	6.118490e+02
2.420000e-06	6.031639e-07	8.768084e-09	4.352444e+00	5.711514e+02
2.430000e-06	5.028458e-07	8.125740e-09	3.628547e+00	5.290066e+02
2.440000e-06	4.023749e-07	7.468519e-09	2.903546e+00	4.855526e+02
2.450000e-06	3.017158e-07	6.792139e-09	2.177188e+00	4.409658e+02
2.460000e-06	2.008919e-07	6.095945e-09	1.449640e+00	3.954513e+02
2.470000e-06	9.992851e-08	5.390385e-09	7.210864e-01	3.492267e+02
2.480000e-06	-1.111468e-09	4.679294e-09	-8.020375e-03	3.025017e+02
2.490000e-06	-1.021405e-07	3.960251e-09	-7.370482e-01	2.554557e+02
2.500000e-06	-2.031203e-07	3.236150e-09	-1.465721e+00	2.082169e+02
2.510000e-06	-3.039870e-07	2.509697e-09	-2.193577e+00	1.608470e+02
2.520000e-06	-4.047194e-07	1.780781e-09	-2.920464e+00	1.133329e+02
2.530000e-06	-5.053243e-07	1.048357e-09	-3.646431e+00	6.558985e+01
2.540000e-06	-6.057745e-07	3.134472e-10	-4.371283e+00	1.747567e+01
2.550000e-06	-7.059833e-07	-4.278015e-10	-5.094391e+00	-3.118561e+01
2.560000e-06	-8.058950e-07	-1.180979e-09	-5.815356e+00	-8.057208e+01
2.570000e-06	-9.055628e-07	-1.946573e-09	-6.534562e+00	-1.308296e+02
2.580000e-06	-1.004953e-06	-2.724662e-09	-7.251763e+00	-1.820389e+02
2.590000e-06	-1.104018e-06	-3.517723e-09	-7.966620e+00	-2.341900e+02
2.600000e-06	-1.202741e-06	-4.326536e-09	-8.679004e+00	-2.871668e+02
2.610000e-06	-1.301066e-06	-5.146141e-09	-9.388523e+00	-3.407449e+02
2.620000e-06	-1.398877e-06	-5.972902e-09	-1.009433e+01	-3.946038e+02
2.630000e-06	-1.496125e-06	-6.800561e-09	-1.079607e+01	-4.483499e+02
2.640000e-06	-1.592849e-06	-7.615504e-09	-1.149404e+01	-5.015493e+02
2.650000e-06	-1.689085e-06	-8.410461e-09	-1.218848e+01	-5.537638e+02
2.660000e-06	-1.784914e-06	-9.184393e-09	-1.287998e+01	-6.045860e+02
2.670000e-06	-1.880234e-06	-9.935402e-09	-1.356781e+01	-6.536688e+02
2.680000e-06	-1.974752e-06	-1.065750e-08	-1.424986e+01	-7.007457e+02
2.690000e-06	-2.068307e-06	-1.134458e-08	-1.492495e+01	-7.456402e+02
2.700000e-06	-2.160902e-06	-1.199699e-08	-1.559311e+01	-7.882643e+02
2.710000e-06	-2.252667e-06	-1.261869e-08	-1.625530e+01	-8.286077e+02
2.720000e-06	-2.343715e-06	-1.320809e-08	-1.691230e+01	-8.667215e+02
2.730000e-06	-2.433965e-06	-1.376518e-08	-1.756355e+01	-9.026980e+02
2.740000e-06	-2.523289e-06	-1.429022e-08	-1.820811e+01	-9.366525e+02
2.750000e-06	-2.611722e-06	-1.477967e-08	-1.884625e+01	-9.687073e+02
2.760000e-06	-2.699412e-06	-1.523817e-08	-1.947902e+01	-9.989811e+02
2.770000e-06	-2.786280e-06	-1.567178e-08	-2.010586e+01	-1.027584e+03
2.780000e-06	-2.872022e-06	-1.608470e-08	-2.072457e+01	-1.054615e+03
2.790000e-06	-2.956545e-06	-1.647852e-08	-2.133450e+01	-1.080167e+03
2.800000e-06	-3.040002e-06	-1.685192e-08	-2.193672e+01	-1.104326e+03
2.810000e-06	-3.122482e-06	-1.720442e-08	-2.253190e+01	-1.127178e+03
2.820000e-06	-3.203920e-06	-1.753556e-08	-2.311956e+01	-1.148806e+03
2.830000e-06	-3.284341e-06	-1.784796e-08	-2.369988e+01	-1.169294e+03
2.840000e-06	-3.363790e-06	-1.814642e-08	-2.427318e+01	-1.188722e+03
2.850000e-06	-3.441902e-06	-1.843027e-08	-2.483684e+01	-1.207165e+03
2.860000e-06	-3.518421e-06	-1.869768e-08	-2.538901e+01	-1.224690e+03
2.870000e-06	-3.593554e-06	-1.895141e-08	-2.593116e+01	-1.241356e+03
2.880000e-06	-3.667322e-06	-1.919338e-08	-2.646347e+01	-1.257210e+03
2.890000e-06	-3.739757e-06	-1.942591e-08	-2.698617e+01	-1.272296e+03
2.900000e-06	-3.810958e-06	-1.965089e-08	-2.749996e+01	-1.286651e+03
2.910000e-06	-3.880627e-06	-1.986643e-08	-2.800269e+01	-1.300312e+03
2.920000e-06	-3.948679e-06	-2.007219e-08	-2.849375e+01	-1.313315e+03
2.930000e-06	-4.015356e-06	-2.026632e-08	-2.897490e+01	-1.325700e+03
2.940000e-06	-4.080679e-06	-2.044731e-08	-2.944627e+01	-1.337503e+03
