# Temperatura_=_44.86
# Concentracion g/m^3_=_28200.0
# C_Vs_to_Am_M_A/Vsm_=_65563218390.804596
# pendiente_HvsI_1/m_=_3716.3
# ordenada_HvsI_A/m_=_1297.0
# frecuencia_Hz_=_301773.02235972736

Tiempo_(s)	Campo_(V.s)	Magnetizacion_(V.s)	Campo_(kA/m)	Magnetizacion_(A/m)
0.000000e+00	-5.322806e-06	-2.044162e-08	-3.829522e+01	-1.337671e+03
1.000000e-08	-5.320940e-06	-2.043725e-08	-3.828179e+01	-1.337351e+03
2.000000e-08	-5.317217e-06	-2.042660e-08	-3.825500e+01	-1.336898e+03
3.000000e-08	-5.311865e-06	-2.041471e-08	-3.821650e+01	-1.336304e+03
4.000000e-08	-5.304878e-06	-2.040354e-08	-3.816623e+01	-1.335555e+03
5.000000e-08	-5.296218e-06	-2.038724e-08	-3.810392e+01	-1.334630e+03
6.000000e-08	-5.285599e-06	-2.036726e-08	-3.802753e+01	-1.333511e+03
7.000000e-08	-5.273062e-06	-2.034081e-08	-3.793733e+01	-1.332188e+03
8.000000e-08	-5.258651e-06	-2.030811e-08	-3.783365e+01	-1.330661e+03
9.000000e-08	-5.242012e-06	-2.033494e-08	-3.771394e+01	-1.328945e+03
1.000000e-07	-5.223223e-06	-2.034856e-08	-3.757876e+01	-1.327068e+03
1.100000e-07	-5.202536e-06	-2.026453e-08	-3.742993e+01	-1.325063e+03
1.200000e-07	-5.180061e-06	-2.020709e-08	-3.726823e+01	-1.322963e+03
1.300000e-07	-5.156049e-06	-2.013179e-08	-3.709547e+01	-1.320791e+03
1.400000e-07	-5.130466e-06	-2.003156e-08	-3.691141e+01	-1.318558e+03
1.500000e-07	-5.103176e-06	-2.015003e-08	-3.671508e+01	-1.316256e+03
1.600000e-07	-5.074350e-06	-2.011265e-08	-3.650768e+01	-1.313862e+03
1.700000e-07	-5.044119e-06	-1.995681e-08	-3.629019e+01	-1.311337e+03
1.800000e-07	-5.012215e-06	-2.005669e-08	-3.606065e+01	-1.308642e+03
1.900000e-07	-4.978176e-06	-1.992272e-08	-3.581576e+01	-1.305736e+03
2.000000e-07	-4.942420e-06	-1.978905e-08	-3.555851e+01	-1.302589e+03
2.100000e-07	-4.905160e-06	-1.989562e-08	-3.529044e+01	-1.299183e+03
2.200000e-07	-4.866118e-06	-1.975628e-08	-3.500955e+01	-1.295517e+03
2.300000e-07	-4.825328e-06	-1.964574e-08	-3.471609e+01	-1.291599e+03
2.400000e-07	-4.782546e-06	-1.965706e-08	-3.440829e+01	-1.287445e+03
2.500000e-07	-4.737856e-06	-1.954500e-08	-3.408676e+01	-1.283074e+03
2.600000e-07	-4.691468e-06	-1.952088e-08	-3.375302e+01	-1.278498e+03
2.700000e-07	-4.643201e-06	-1.945166e-08	-3.340576e+01	-1.273722e+03
2.800000e-07	-4.592843e-06	-1.931103e-08	-3.304346e+01	-1.268741e+03
2.900000e-07	-4.540428e-06	-1.923712e-08	-3.266636e+01	-1.263542e+03
3.000000e-07	-4.486252e-06	-1.918596e-08	-3.227658e+01	-1.258108e+03
3.100000e-07	-4.430539e-06	-1.911770e-08	-3.187576e+01	-1.252421e+03
3.200000e-07	-4.373092e-06	-1.899987e-08	-3.146245e+01	-1.246468e+03
3.300000e-07	-4.313862e-06	-1.890706e-08	-3.103632e+01	-1.240242e+03
3.400000e-07	-4.253176e-06	-1.879680e-08	-3.059971e+01	-1.233744e+03
3.500000e-07	-4.191081e-06	-1.866308e-08	-3.015296e+01	-1.226978e+03
3.600000e-07	-4.127640e-06	-1.858538e-08	-2.969653e+01	-1.219953e+03
3.700000e-07	-4.062735e-06	-1.849593e-08	-2.922957e+01	-1.212675e+03
3.800000e-07	-3.996093e-06	-1.838782e-08	-2.875011e+01	-1.205147e+03
3.900000e-07	-3.927914e-06	-1.824253e-08	-2.825959e+01	-1.197362e+03
4.000000e-07	-3.858428e-06	-1.808634e-08	-2.775967e+01	-1.189310e+03
4.100000e-07	-3.787745e-06	-1.798378e-08	-2.725113e+01	-1.180971e+03
4.200000e-07	-3.715946e-06	-1.786376e-08	-2.673458e+01	-1.172326e+03
4.300000e-07	-3.642751e-06	-1.772923e-08	-2.620797e+01	-1.163351e+03
4.400000e-07	-3.567901e-06	-1.757898e-08	-2.566946e+01	-1.154027e+03
4.500000e-07	-3.491551e-06	-1.742054e-08	-2.512015e+01	-1.144337e+03
4.600000e-07	-3.413899e-06	-1.726067e-08	-2.456148e+01	-1.134267e+03
4.700000e-07	-3.334881e-06	-1.710502e-08	-2.399298e+01	-1.123807e+03
4.800000e-07	-3.254452e-06	-1.695700e-08	-2.341433e+01	-1.112947e+03
4.900000e-07	-3.172818e-06	-1.677626e-08	-2.282701e+01	-1.101675e+03
5.000000e-07	-3.090139e-06	-1.658757e-08	-2.223217e+01	-1.089977e+03
5.100000e-07	-3.006518e-06	-1.639601e-08	-2.163055e+01	-1.077837e+03
5.200000e-07	-2.922034e-06	-1.619876e-08	-2.102273e+01	-1.065234e+03
5.300000e-07	-2.836619e-06	-1.600207e-08	-2.040821e+01	-1.052143e+03
5.400000e-07	-2.750238e-06	-1.579987e-08	-1.978673e+01	-1.038538e+03
5.500000e-07	-2.662961e-06	-1.558408e-08	-1.915882e+01	-1.024391e+03
5.600000e-07	-2.574796e-06	-1.534992e-08	-1.852451e+01	-1.009672e+03
5.700000e-07	-2.485520e-06	-1.511170e-08	-1.788221e+01	-9.943482e+02
5.800000e-07	-2.394992e-06	-1.486886e-08	-1.723090e+01	-9.783851e+02
5.900000e-07	-2.303508e-06	-1.461571e-08	-1.657271e+01	-9.617445e+02
6.000000e-07	-2.211319e-06	-1.434894e-08	-1.590945e+01	-9.443854e+02
6.100000e-07	-2.118402e-06	-1.406886e-08	-1.524096e+01	-9.262635e+02
6.200000e-07	-2.024721e-06	-1.377929e-08	-1.456697e+01	-9.073319e+02
6.300000e-07	-1.930286e-06	-1.347873e-08	-1.388755e+01	-8.875424e+02
6.400000e-07	-1.835213e-06	-1.316520e-08	-1.320354e+01	-8.668456e+02
6.500000e-07	-1.739614e-06	-1.283538e-08	-1.251575e+01	-8.451916e+02
6.600000e-07	-1.643407e-06	-1.248728e-08	-1.182358e+01	-8.225294e+02
6.700000e-07	-1.546489e-06	-1.212134e-08	-1.112630e+01	-7.988059e+02
6.800000e-07	-1.448866e-06	-1.174050e-08	-1.042395e+01	-7.739649e+02
6.900000e-07	-1.350595e-06	-1.134465e-08	-9.716928e+00	-7.479467e+02
7.000000e-07	-1.251754e-06	-1.093100e-08	-9.005809e+00	-7.206890e+02
7.100000e-07	-1.152494e-06	-1.049479e-08	-8.291684e+00	-6.921297e+02
7.200000e-07	-1.052953e-06	-1.003332e-08	-7.575530e+00	-6.622122e+02
7.300000e-07	-9.531166e-07	-9.550619e-09	-6.857249e+00	-6.308926e+02
7.400000e-07	-8.529792e-07	-9.051674e-09	-6.136805e+00	-5.981488e+02
7.500000e-07	-7.525831e-07	-8.536622e-09	-5.414499e+00	-5.639888e+02
7.600000e-07	-6.519528e-07	-7.997751e-09	-4.690509e+00	-5.284581e+02
7.700000e-07	-5.511191e-07	-7.435557e-09	-3.965056e+00	-4.916438e+02
7.800000e-07	-4.501225e-07	-6.858010e-09	-3.238430e+00	-4.536744e+02
7.900000e-07	-3.490226e-07	-6.267649e-09	-2.511062e+00	-4.147138e+02
8.000000e-07	-2.478348e-07	-5.663351e-09	-1.783061e+00	-3.749515e+02
8.100000e-07	-1.465112e-07	-5.049250e-09	-1.054083e+00	-3.345876e+02
8.200000e-07	-4.506562e-08	-4.428908e-09	-3.242270e-01	-2.938156e+02
8.300000e-07	5.644846e-08	-3.802559e-09	4.061215e-01	-2.528047e+02
8.400000e-07	1.579338e-07	-3.174593e-09	1.136263e+00	-2.116837e+02
8.500000e-07	2.593682e-07	-2.549607e-09	1.866039e+00	-1.705290e+02
8.600000e-07	3.607889e-07	-1.927623e-09	2.595716e+00	-1.293577e+02
8.700000e-07	4.621138e-07	-1.302083e-09	3.324703e+00	-8.812842e+01
8.800000e-07	5.632554e-07	-6.709643e-10	4.052371e+00	-4.674780e+01
8.900000e-07	6.642299e-07	-3.475404e-11	4.778838e+00	-5.084519e+00
9.000000e-07	7.650113e-07	6.089253e-10	5.503915e+00	3.701187e+01
9.100000e-07	8.655760e-07	1.260844e-09	6.227433e+00	7.968864e+01
9.200000e-07	9.658969e-07	1.920311e-09	6.949197e+00	1.230666e+02
9.300000e-07	1.065865e-06	2.588337e-09	7.668426e+00	1.672182e+02
9.400000e-07	1.165447e-06	3.269327e-09	8.384873e+00	2.121501e+02
9.500000e-07	1.264612e-06	3.963941e-09	9.098316e+00	2.577917e+02
9.600000e-07	1.363314e-06	4.667176e-09	9.808433e+00	3.039913e+02
9.700000e-07	1.461506e-06	5.375942e-09	1.051488e+01	3.505214e+02
9.800000e-07	1.559051e-06	6.085614e-09	1.121668e+01	3.970919e+02
9.900000e-07	1.655787e-06	6.790984e-09	1.191265e+01	4.433700e+02
1.000000e-06	1.751696e-06	7.486431e-09	1.260267e+01	4.890047e+02
1.010000e-06	1.846993e-06	8.165438e-09	1.328829e+01	5.336531e+02
1.020000e-06	1.941715e-06	8.823452e-09	1.396977e+01	5.770053e+02
1.030000e-06	2.035723e-06	9.456192e-09	1.464612e+01	6.188037e+02
1.040000e-06	2.129022e-06	1.006065e-08	1.531736e+01	6.588570e+02
1.050000e-06	2.221663e-06	1.063619e-08	1.598388e+01	6.970451e+02
1.060000e-06	2.313615e-06	1.118422e-08	1.664543e+01	7.333165e+02
1.070000e-06	2.404823e-06	1.170729e-08	1.730163e+01	7.676788e+02
1.080000e-06	2.495215e-06	1.220411e-08	1.795196e+01	8.001852e+02
1.090000e-06	2.584576e-06	1.267389e-08	1.859488e+01	8.309183e+02
1.100000e-06	2.672791e-06	1.311660e-08	1.922954e+01	8.599755e+02
1.110000e-06	2.760025e-06	1.353345e-08	1.985715e+01	8.874565e+02
1.120000e-06	2.846372e-06	1.392511e-08	2.047838e+01	9.134554e+02
1.130000e-06	2.931795e-06	1.429500e-08	2.109296e+01	9.380570e+02
1.140000e-06	3.016343e-06	1.464649e-08	2.170125e+01	9.613369e+02
1.150000e-06	3.099984e-06	1.498189e-08	2.230301e+01	9.833639e+02
1.160000e-06	3.182584e-06	1.530112e-08	2.289727e+01	1.004203e+03
1.170000e-06	3.263996e-06	1.560362e-08	2.348300e+01	1.023920e+03
1.180000e-06	3.344201e-06	1.588885e-08	2.406004e+01	1.042579e+03
1.190000e-06	3.423210e-06	1.615579e-08	2.462847e+01	1.060247e+03
1.200000e-06	3.500989e-06	1.640817e-08	2.518805e+01	1.076990e+03
1.210000e-06	3.577587e-06	1.664748e-08	2.573914e+01	1.092868e+03
1.220000e-06	3.652913e-06	1.687476e-08	2.628108e+01	1.107940e+03
1.230000e-06	3.726710e-06	1.709082e-08	2.681202e+01	1.122255e+03
1.240000e-06	3.798895e-06	1.729564e-08	2.733136e+01	1.135858e+03
1.250000e-06	3.869622e-06	1.748912e-08	2.784020e+01	1.148789e+03
1.260000e-06	3.939020e-06	1.767329e-08	2.833950e+01	1.161084e+03
1.270000e-06	4.007105e-06	1.784863e-08	2.882933e+01	1.172778e+03
1.280000e-06	4.073761e-06	1.801556e-08	2.930889e+01	1.183905e+03
1.290000e-06	4.138772e-06	1.817669e-08	2.977662e+01	1.194495e+03
1.300000e-06	4.202221e-06	1.833273e-08	3.023311e+01	1.204579e+03
1.310000e-06	4.264291e-06	1.848085e-08	3.067967e+01	1.214179e+03
1.320000e-06	4.324960e-06	1.861963e-08	3.111616e+01	1.223314e+03
1.330000e-06	4.384202e-06	1.875130e-08	3.154237e+01	1.231992e+03
1.340000e-06	4.441858e-06	1.887691e-08	3.195719e+01	1.240219e+03
1.350000e-06	4.497788e-06	1.899532e-08	3.235958e+01	1.247997e+03
1.360000e-06	4.552050e-06	1.910610e-08	3.274997e+01	1.255329e+03
1.370000e-06	4.604599e-06	1.920880e-08	3.312803e+01	1.262224e+03
1.380000e-06	4.655156e-06	1.930585e-08	3.349177e+01	1.268701e+03
1.390000e-06	4.703680e-06	1.939804e-08	3.384088e+01	1.274786e+03
1.400000e-06	4.750410e-06	1.948568e-08	3.417708e+01	1.280516e+03
1.410000e-06	4.795595e-06	1.957028e-08	3.450217e+01	1.285931e+03
1.420000e-06	4.839327e-06	1.965096e-08	3.481680e+01	1.291070e+03
1.430000e-06	4.881317e-06	1.972604e-08	3.511890e+01	1.295966e+03
1.440000e-06	4.921409e-06	1.979515e-08	3.540734e+01	1.300639e+03
1.450000e-06	4.959807e-06	1.986010e-08	3.568360e+01	1.305096e+03
1.460000e-06	4.996666e-06	1.992318e-08	3.594878e+01	1.309330e+03
1.470000e-06	5.031900e-06	1.998396e-08	3.620228e+01	1.313324e+03
1.480000e-06	5.065192e-06	2.004102e-08	3.644180e+01	1.317056e+03
1.490000e-06	5.096575e-06	2.009354e-08	3.666758e+01	1.320507e+03
1.500000e-06	5.126298e-06	2.014245e-08	3.688143e+01	1.323664e+03
1.510000e-06	5.154400e-06	2.018720e-08	3.708361e+01	1.326527e+03
1.520000e-06	5.180576e-06	2.022766e-08	3.727194e+01	1.329106e+03
1.530000e-06	5.204640e-06	2.026343e-08	3.744507e+01	1.331420e+03
1.540000e-06	5.226849e-06	2.029318e-08	3.760485e+01	1.333495e+03
1.550000e-06	5.247400e-06	2.031952e-08	3.775270e+01	1.335352e+03
1.560000e-06	5.266191e-06	2.034315e-08	3.788789e+01	1.337009e+03
1.570000e-06	5.282979e-06	2.036415e-08	3.800867e+01	1.338475e+03
1.580000e-06	5.297766e-06	2.038280e-08	3.811506e+01	1.339749e+03
1.590000e-06	5.310663e-06	2.039857e-08	3.820785e+01	1.340827e+03
1.600000e-06	5.321447e-06	2.041244e-08	3.828544e+01	1.341700e+03
1.610000e-06	5.330015e-06	2.042401e-08	3.834708e+01	1.342364e+03
1.620000e-06	5.336641e-06	2.043174e-08	3.839475e+01	1.342822e+03
1.630000e-06	5.341529e-06	2.043611e-08	3.842992e+01	1.343081e+03
1.640000e-06	5.344630e-06	2.043886e-08	3.845223e+01	1.343160e+03
1.650000e-06	5.345710e-06	2.044142e-08	3.846000e+01	1.343076e+03
1.660000e-06	5.344903e-06	2.043921e-08	3.845419e+01	1.342847e+03
1.670000e-06	5.342393e-06	2.043126e-08	3.843613e+01	1.342484e+03
1.680000e-06	5.338265e-06	2.042676e-08	3.840644e+01	1.341985e+03
1.690000e-06	5.332399e-06	2.041977e-08	3.836423e+01	1.341343e+03
1.700000e-06	5.324617e-06	2.040830e-08	3.830824e+01	1.340539e+03
1.710000e-06	5.315188e-06	2.039598e-08	3.824041e+01	1.339552e+03
1.720000e-06	5.304155e-06	2.038610e-08	3.816103e+01	1.338367e+03
1.730000e-06	5.291244e-06	2.039053e-08	3.806814e+01	1.336977e+03
1.740000e-06	5.276341e-06	2.031534e-08	3.796092e+01	1.335386e+03
1.750000e-06	5.259334e-06	2.022602e-08	3.783856e+01	1.333614e+03
1.760000e-06	5.239866e-06	2.024758e-08	3.769850e+01	1.331691e+03
1.770000e-06	5.217837e-06	2.023849e-08	3.754001e+01	1.329652e+03
1.780000e-06	5.193947e-06	2.029177e-08	3.736814e+01	1.327525e+03
1.790000e-06	5.169085e-06	2.027374e-08	3.718926e+01	1.325333e+03
1.800000e-06	5.143366e-06	2.003866e-08	3.700422e+01	1.323078e+03
1.810000e-06	5.115823e-06	2.011419e-08	3.680606e+01	1.320749e+03
1.820000e-06	5.086083e-06	2.011453e-08	3.659210e+01	1.318316e+03
1.830000e-06	5.054690e-06	1.991533e-08	3.636624e+01	1.315741e+03
1.840000e-06	5.021482e-06	2.009296e-08	3.612732e+01	1.312981e+03
1.850000e-06	4.986508e-06	2.001771e-08	3.587570e+01	1.309999e+03
1.860000e-06	4.950000e-06	1.979609e-08	3.561304e+01	1.306769e+03
1.870000e-06	4.911557e-06	1.992128e-08	3.533646e+01	1.303278e+03
1.880000e-06	4.871362e-06	1.979196e-08	3.504728e+01	1.299529e+03
1.890000e-06	4.829494e-06	1.973730e-08	3.474605e+01	1.295532e+03
1.900000e-06	4.785886e-06	1.975537e-08	3.443232e+01	1.291306e+03
1.910000e-06	4.740676e-06	1.952238e-08	3.410705e+01	1.286867e+03
1.920000e-06	4.693503e-06	1.959853e-08	3.376766e+01	1.282226e+03
1.930000e-06	4.644523e-06	1.955458e-08	3.341527e+01	1.277384e+03
1.940000e-06	4.593927e-06	1.938017e-08	3.305125e+01	1.272334e+03
1.950000e-06	4.541355e-06	1.934090e-08	3.267302e+01	1.267061e+03
1.960000e-06	4.486814e-06	1.920921e-08	3.228063e+01	1.261546e+03
1.970000e-06	4.430508e-06	1.919076e-08	3.187553e+01	1.255774e+03
1.980000e-06	4.372578e-06	1.904841e-08	3.145875e+01	1.249733e+03
1.990000e-06	4.313240e-06	1.895011e-08	3.103184e+01	1.243418e+03
2.000000e-06	4.252509e-06	1.895864e-08	3.059490e+01	1.236832e+03
2.010000e-06	4.190142e-06	1.875314e-08	3.014620e+01	1.229981e+03
2.020000e-06	4.126034e-06	1.864671e-08	2.968497e+01	1.222873e+03
2.030000e-06	4.060437e-06	1.852313e-08	2.921303e+01	1.215514e+03
2.040000e-06	3.993538e-06	1.844322e-08	2.873173e+01	1.207903e+03
2.050000e-06	3.925301e-06	1.836840e-08	2.824079e+01	1.200033e+03
2.060000e-06	3.855495e-06	1.816826e-08	2.773856e+01	1.191890e+03
2.070000e-06	3.784115e-06	1.807659e-08	2.722502e+01	1.183454e+03
2.080000e-06	3.711508e-06	1.791815e-08	2.670265e+01	1.174704e+03
2.090000e-06	3.637626e-06	1.778394e-08	2.617109e+01	1.165619e+03
2.100000e-06	3.562401e-06	1.766126e-08	2.562989e+01	1.156178e+03
2.110000e-06	3.485752e-06	1.750515e-08	2.507843e+01	1.146366e+03
2.120000e-06	3.407467e-06	1.736611e-08	2.451521e+01	1.136171e+03
2.130000e-06	3.327887e-06	1.716904e-08	2.394266e+01	1.125583e+03
2.140000e-06	3.247228e-06	1.701733e-08	2.336236e+01	1.114591e+03
2.150000e-06	3.165460e-06	1.683911e-08	2.277407e+01	1.103183e+03
2.160000e-06	3.082647e-06	1.667117e-08	2.217827e+01	1.091344e+03
2.170000e-06	2.998902e-06	1.650245e-08	2.157577e+01	1.079056e+03
2.180000e-06	2.914192e-06	1.629553e-08	2.096631e+01	1.066298e+03
2.190000e-06	2.828151e-06	1.609199e-08	2.034728e+01	1.053044e+03
2.200000e-06	2.740806e-06	1.587460e-08	1.971888e+01	1.039267e+03
2.210000e-06	2.652516e-06	1.567068e-08	1.908367e+01	1.024939e+03
2.220000e-06	2.563374e-06	1.544201e-08	1.844233e+01	1.010028e+03
2.230000e-06	2.473343e-06	1.520727e-08	1.779460e+01	9.945021e+02
2.240000e-06	2.382474e-06	1.496132e-08	1.714084e+01	9.783246e+02
2.250000e-06	2.290901e-06	1.470586e-08	1.648201e+01	9.614569e+02
2.260000e-06	2.198665e-06	1.444106e-08	1.581842e+01	9.438567e+02
2.270000e-06	2.105568e-06	1.415739e-08	1.514862e+01	9.254788e+02
2.280000e-06	2.011450e-06	1.386948e-08	1.447149e+01	9.062759e+02
2.290000e-06	1.916394e-06	1.356295e-08	1.378760e+01	8.861993e+02
2.300000e-06	1.820622e-06	1.324382e-08	1.309856e+01	8.651994e+02
2.310000e-06	1.724341e-06	1.290713e-08	1.240586e+01	8.432261e+02
2.320000e-06	1.627580e-06	1.255817e-08	1.170971e+01	8.202278e+02
2.330000e-06	1.530266e-06	1.219333e-08	1.100958e+01	7.961504e+02
2.340000e-06	1.432407e-06	1.180772e-08	1.030553e+01	7.709369e+02
2.350000e-06	1.334046e-06	1.140458e-08	9.597868e+00	7.445263e+02
2.360000e-06	1.235231e-06	1.098641e-08	8.886934e+00	7.168559e+02
2.370000e-06	1.136123e-06	1.055278e-08	8.173897e+00	6.878649e+02
2.380000e-06	1.036822e-06	1.009419e-08	7.459475e+00	6.574997e+02
2.390000e-06	9.373108e-07	9.608714e-09	6.743533e+00	6.257226e+02
2.400000e-06	8.375771e-07	9.096928e-09	6.025994e+00	5.925201e+02
2.410000e-06	7.375870e-07	8.564894e-09	5.306610e+00	5.579117e+02
2.420000e-06	6.373087e-07	8.013648e-09	4.585152e+00	5.219560e+02
2.430000e-06	5.367429e-07	7.445357e-09	3.861626e+00	4.847537e+02
2.440000e-06	4.359702e-07	6.861656e-09	3.136611e+00	4.464454e+02
2.450000e-06	3.350983e-07	6.262887e-09	2.410883e+00	4.072047e+02
2.460000e-06	2.340496e-07	5.650217e-09	1.683883e+00	3.672263e+02
2.470000e-06	1.328018e-07	5.029701e-09	9.554497e-01	3.267101e+02
2.480000e-06	3.147820e-08	4.407583e-09	2.264716e-01	2.858436e+02
2.490000e-06	-6.990258e-08	3.781520e-09	-5.029179e-01	2.447847e+02
2.500000e-06	-1.712948e-07	3.150605e-09	-1.232390e+00	2.036464e+02
2.510000e-06	-2.725385e-07	2.518484e-09	-1.960793e+00	1.624865e+02
2.520000e-06	-3.736289e-07	1.889101e-09	-2.688093e+00	1.213029e+02
2.530000e-06	-4.746369e-07	1.260534e-09	-3.414801e+00	8.003638e+01
2.540000e-06	-5.755256e-07	6.292029e-10	-4.140650e+00	3.857968e+01
2.550000e-06	-6.762018e-07	-8.741842e-12	-4.864970e+00	-3.206980e+00
2.560000e-06	-7.765889e-07	-6.548315e-10	-5.587211e+00	-4.547556e+01
2.570000e-06	-8.766233e-07	-1.310881e-09	-6.306913e+00	-8.836733e+01
2.580000e-06	-9.762953e-07	-1.978598e-09	-7.024009e+00	-1.319898e+02
2.590000e-06	-1.075669e-06	-2.657901e-09	-7.738959e+00	-1.763960e+02
2.600000e-06	-1.174812e-06	-3.348626e-09	-8.452248e+00	-2.215685e+02
2.610000e-06	-1.273633e-06	-4.048981e-09	-9.163223e+00	-2.674107e+02
2.620000e-06	-1.371938e-06	-4.757834e-09	-9.870485e+00	-3.137455e+02
2.630000e-06	-1.469678e-06	-5.472251e-09	-1.057367e+01	-3.603237e+02
2.640000e-06	-1.566903e-06	-6.183757e-09	-1.127317e+01	-4.068388e+02
2.650000e-06	-1.663668e-06	-6.887060e-09	-1.196935e+01	-4.529493e+02
2.660000e-06	-1.759913e-06	-7.581009e-09	-1.266179e+01	-4.983042e+02
2.670000e-06	-1.855533e-06	-8.260449e-09	-1.334973e+01	-5.425685e+02
2.680000e-06	-1.950524e-06	-8.918484e-09	-1.403315e+01	-5.854472e+02
2.690000e-06	-2.044785e-06	-9.549947e-09	-1.471131e+01	-6.267031e+02
2.700000e-06	-2.138091e-06	-1.015582e-08	-1.538261e+01	-6.661675e+02
2.710000e-06	-2.230442e-06	-1.073435e-08	-1.604703e+01	-7.037429e+02
2.720000e-06	-2.321956e-06	-1.128235e-08	-1.670544e+01	-7.393982e+02
2.730000e-06	-2.412603e-06	-1.180040e-08	-1.735760e+01	-7.731573e+02
2.740000e-06	-2.502375e-06	-1.228893e-08	-1.800347e+01	-8.050846e+02
2.750000e-06	-2.591335e-06	-1.275041e-08	-1.864350e+01	-8.352690e+02
2.760000e-06	-2.679527e-06	-1.318721e-08	-1.927800e+01	-8.638097e+02
2.770000e-06	-2.766915e-06	-1.359993e-08	-1.990672e+01	-8.908053e+02
2.780000e-06	-2.853274e-06	-1.399264e-08	-2.052804e+01	-9.163472e+02
2.790000e-06	-2.938473e-06	-1.436591e-08	-2.114100e+01	-9.405170e+02
2.800000e-06	-3.022536e-06	-1.471516e-08	-2.174580e+01	-9.633878e+02
2.810000e-06	-3.105535e-06	-1.504239e-08	-2.234294e+01	-9.850269e+02
2.820000e-06	-3.187542e-06	-1.535298e-08	-2.293294e+01	-1.005499e+03
2.830000e-06	-3.268586e-06	-1.565096e-08	-2.351602e+01	-1.024870e+03
2.840000e-06	-3.348529e-06	-1.593473e-08	-2.409118e+01	-1.043204e+03
2.850000e-06	-3.427216e-06	-1.620245e-08	-2.465729e+01	-1.060569e+03
2.860000e-06	-3.504462e-06	-1.645486e-08	-2.521304e+01	-1.077028e+03
2.870000e-06	-3.580174e-06	-1.669353e-08	-2.575776e+01	-1.092642e+03
2.880000e-06	-3.654508e-06	-1.692122e-08	-2.629255e+01	-1.107466e+03
2.890000e-06	-3.727551e-06	-1.713918e-08	-2.681806e+01	-1.121548e+03
2.900000e-06	-3.799379e-06	-1.734754e-08	-2.733483e+01	-1.134932e+03
2.910000e-06	-3.869806e-06	-1.754603e-08	-2.784153e+01	-1.147656e+03
2.920000e-06	-3.938660e-06	-1.773361e-08	-2.833690e+01	-1.159755e+03
2.930000e-06	-4.006077e-06	-1.790982e-08	-2.882194e+01	-1.171264e+03
2.940000e-06	-4.072111e-06	-1.807682e-08	-2.929702e+01	-1.182216e+03
