# Temperatura_=_26.9
# Concentracion g/m^3_=_28200.0
# C_Vs_to_Am_M_A/Vsm_=_65563218390.804596
# pendiente_HvsI_1/m_=_3716.3
# ordenada_HvsI_A/m_=_1297.0
# frecuencia_Hz_=_301780.89093098487

Tiempo_(s)	Campo_(V.s)	Magnetizacion_(V.s)	Campo_(kA/m)	Magnetizacion_(A/m)
0.000000e+00	-5.310413e-06	-1.809536e-08	-3.829684e+01	-1.182500e+03
1.000000e-08	-5.308911e-06	-1.809238e-08	-3.828601e+01	-1.182279e+03
2.000000e-08	-5.305479e-06	-1.808442e-08	-3.826126e+01	-1.181944e+03
3.000000e-08	-5.300385e-06	-1.807295e-08	-3.822452e+01	-1.181488e+03
4.000000e-08	-5.293684e-06	-1.806345e-08	-3.817620e+01	-1.180897e+03
5.000000e-08	-5.285387e-06	-1.805105e-08	-3.811636e+01	-1.180147e+03
6.000000e-08	-5.275182e-06	-1.803402e-08	-3.804276e+01	-1.179216e+03
7.000000e-08	-5.262937e-06	-1.801244e-08	-3.795446e+01	-1.178087e+03
8.000000e-08	-5.248821e-06	-1.798289e-08	-3.785266e+01	-1.176756e+03
9.000000e-08	-5.232585e-06	-1.798375e-08	-3.773557e+01	-1.175235e+03
1.000000e-07	-5.214181e-06	-1.800669e-08	-3.760284e+01	-1.173550e+03
1.100000e-07	-5.193851e-06	-1.795457e-08	-3.745624e+01	-1.171737e+03
1.200000e-07	-5.171623e-06	-1.788899e-08	-3.729593e+01	-1.169836e+03
1.300000e-07	-5.147735e-06	-1.784398e-08	-3.712366e+01	-1.167880e+03
1.400000e-07	-5.122352e-06	-1.775531e-08	-3.694061e+01	-1.165890e+03
1.500000e-07	-5.095349e-06	-1.779011e-08	-3.674587e+01	-1.163866e+03
1.600000e-07	-5.066793e-06	-1.780931e-08	-3.653994e+01	-1.161790e+03
1.700000e-07	-5.036824e-06	-1.765636e-08	-3.632381e+01	-1.159627e+03
1.800000e-07	-5.005287e-06	-1.768705e-08	-3.609638e+01	-1.157331e+03
1.900000e-07	-4.971622e-06	-1.766705e-08	-3.585360e+01	-1.154853e+03
2.000000e-07	-4.936141e-06	-1.752483e-08	-3.559772e+01	-1.152152e+03
2.100000e-07	-4.899248e-06	-1.758798e-08	-3.533166e+01	-1.149200e+03
2.200000e-07	-4.860592e-06	-1.753845e-08	-3.505289e+01	-1.145982e+03
2.300000e-07	-4.820093e-06	-1.741372e-08	-3.476082e+01	-1.142500e+03
2.400000e-07	-4.777626e-06	-1.738821e-08	-3.445456e+01	-1.138769e+03
2.500000e-07	-4.733282e-06	-1.728934e-08	-3.413477e+01	-1.134808e+03
2.600000e-07	-4.687270e-06	-1.724916e-08	-3.380295e+01	-1.130638e+03
2.700000e-07	-4.639406e-06	-1.722102e-08	-3.345777e+01	-1.126273e+03
2.800000e-07	-4.589443e-06	-1.709067e-08	-3.309745e+01	-1.121720e+03
2.900000e-07	-4.537406e-06	-1.700103e-08	-3.272218e+01	-1.116977e+03
3.000000e-07	-4.483588e-06	-1.693027e-08	-3.233407e+01	-1.112036e+03
3.100000e-07	-4.428244e-06	-1.687134e-08	-3.193494e+01	-1.106885e+03
3.200000e-07	-4.371178e-06	-1.680136e-08	-3.152340e+01	-1.101511e+03
3.300000e-07	-4.312320e-06	-1.671154e-08	-3.109894e+01	-1.095906e+03
3.400000e-07	-4.251983e-06	-1.661978e-08	-3.066381e+01	-1.090062e+03
3.500000e-07	-4.190227e-06	-1.649773e-08	-3.021845e+01	-1.083979e+03
3.600000e-07	-4.127063e-06	-1.639825e-08	-2.976293e+01	-1.077654e+03
3.700000e-07	-4.062408e-06	-1.630886e-08	-2.929666e+01	-1.071088e+03
3.800000e-07	-3.996147e-06	-1.623215e-08	-2.881882e+01	-1.064277e+03
3.900000e-07	-3.928378e-06	-1.612983e-08	-2.833009e+01	-1.057215e+03
4.000000e-07	-3.859250e-06	-1.597875e-08	-2.783156e+01	-1.049893e+03
4.100000e-07	-3.788864e-06	-1.586223e-08	-2.732396e+01	-1.042298e+03
4.200000e-07	-3.717324e-06	-1.574861e-08	-2.680804e+01	-1.034421e+03
4.300000e-07	-3.644480e-06	-1.562497e-08	-2.628271e+01	-1.026249e+03
4.400000e-07	-3.570056e-06	-1.549720e-08	-2.574600e+01	-1.017776e+03
4.500000e-07	-3.494142e-06	-1.535309e-08	-2.519853e+01	-1.008992e+03
4.600000e-07	-3.416867e-06	-1.520076e-08	-2.464125e+01	-9.998927e+02
4.700000e-07	-3.338152e-06	-1.505293e-08	-2.407358e+01	-9.904683e+02
4.800000e-07	-3.258033e-06	-1.492168e-08	-2.349580e+01	-9.807068e+02
4.900000e-07	-3.176703e-06	-1.477630e-08	-2.290927e+01	-9.705913e+02
5.000000e-07	-3.094320e-06	-1.461058e-08	-2.231515e+01	-9.601001e+02
5.100000e-07	-3.011027e-06	-1.443748e-08	-2.171447e+01	-9.492077e+02
5.200000e-07	-2.926890e-06	-1.425581e-08	-2.110771e+01	-9.378870e+02
5.300000e-07	-2.841796e-06	-1.406961e-08	-2.049403e+01	-9.261113e+02
5.400000e-07	-2.755699e-06	-1.388156e-08	-1.987314e+01	-9.138558e+02
5.500000e-07	-2.668730e-06	-1.368943e-08	-1.924594e+01	-9.010982e+02
5.600000e-07	-2.580940e-06	-1.348205e-08	-1.861284e+01	-8.878182e+02
5.700000e-07	-2.492040e-06	-1.326206e-08	-1.797172e+01	-8.739950e+02
5.800000e-07	-2.401859e-06	-1.304396e-08	-1.732137e+01	-8.596054e+02
5.900000e-07	-2.310675e-06	-1.282227e-08	-1.666378e+01	-8.446210e+02
6.000000e-07	-2.218717e-06	-1.258796e-08	-1.600061e+01	-8.290073e+02
6.100000e-07	-2.126096e-06	-1.233564e-08	-1.533266e+01	-8.127232e+02
6.200000e-07	-2.032772e-06	-1.206954e-08	-1.465964e+01	-7.957232e+02
6.300000e-07	-1.938655e-06	-1.179336e-08	-1.398090e+01	-7.779595e+02
6.400000e-07	-1.843830e-06	-1.150982e-08	-1.329705e+01	-7.593854e+02
6.500000e-07	-1.748425e-06	-1.121623e-08	-1.260903e+01	-7.399571e+02
6.600000e-07	-1.652489e-06	-1.090428e-08	-1.191717e+01	-7.196356e+02
6.700000e-07	-1.555903e-06	-1.057536e-08	-1.122063e+01	-6.983856e+02
6.800000e-07	-1.458587e-06	-1.023254e-08	-1.051882e+01	-6.761740e+02
6.900000e-07	-1.360600e-06	-9.878834e-09	-9.812167e+00	-6.529678e+02
7.000000e-07	-1.262021e-06	-9.511348e-09	-9.101251e+00	-6.287326e+02
7.100000e-07	-1.162981e-06	-9.126829e-09	-8.387013e+00	-6.034323e+02
7.200000e-07	-1.063602e-06	-8.721421e-09	-7.670325e+00	-5.770324e+02
7.300000e-07	-9.639362e-07	-8.293911e-09	-6.951570e+00	-5.495047e+02
7.400000e-07	-8.640373e-07	-7.851189e-09	-6.231135e+00	-5.208354e+02
7.500000e-07	-7.638822e-07	-7.397734e-09	-5.508851e+00	-4.910329e+02
7.600000e-07	-6.634796e-07	-6.931430e-09	-4.784782e+00	-4.601354e+02
7.700000e-07	-5.629019e-07	-6.447537e-09	-4.059452e+00	-4.282157e+02
7.800000e-07	-4.621503e-07	-5.948428e-09	-3.332866e+00	-3.953815e+02
7.900000e-07	-3.612913e-07	-5.436649e-09	-2.605506e+00	-3.617711e+02
8.000000e-07	-2.603442e-07	-4.913651e-09	-1.877511e+00	-3.275444e+02
8.100000e-07	-1.592623e-07	-4.383176e-09	-1.148544e+00	-2.928700e+02
8.200000e-07	-5.808483e-08	-3.850697e-09	-4.188875e-01	-2.579101e+02
8.300000e-07	4.314627e-08	-3.319511e-09	3.111558e-01	-2.228060e+02
8.400000e-07	1.444381e-07	-2.786659e-09	1.041637e+00	-1.876655e+02
8.500000e-07	2.457041e-07	-2.254922e-09	1.771932e+00	-1.525536e+02
8.600000e-07	3.468586e-07	-1.727146e-09	2.501423e+00	-1.174885e+02
8.700000e-07	4.478916e-07	-1.201149e-09	3.230037e+00	-8.244239e+01
8.800000e-07	5.488242e-07	-6.708572e-10	3.957928e+00	-4.734750e+01
8.900000e-07	6.496129e-07	-1.350869e-10	4.684781e+00	-1.210533e+01
9.000000e-07	7.501569e-07	4.070054e-10	5.409869e+00	2.340059e+01
9.100000e-07	8.504733e-07	9.565174e-10	6.133315e+00	5.929034e+01
9.200000e-07	9.505524e-07	1.511105e-09	6.855051e+00	9.567255e+01
9.300000e-07	1.050321e-06	2.072404e-09	7.574548e+00	1.326298e+02
9.400000e-07	1.149786e-06	2.642496e-09	8.291855e+00	1.702053e+02
9.500000e-07	1.248911e-06	3.221749e-09	9.006711e+00	2.083924e+02
9.600000e-07	1.347581e-06	3.807847e-09	9.718284e+00	2.471272e+02
9.700000e-07	1.445636e-06	4.400855e-09	1.042542e+01	2.862861e+02
9.800000e-07	1.542922e-06	4.997554e-09	1.112701e+01	3.256893e+02
9.900000e-07	1.639428e-06	5.595944e-09	1.182298e+01	3.651085e+02
1.000000e-06	1.735264e-06	6.191322e-09	1.251411e+01	4.042818e+02
1.010000e-06	1.830496e-06	6.776810e-09	1.320089e+01	4.429311e+02
1.020000e-06	1.925152e-06	7.350321e-09	1.388352e+01	4.807829e+02
1.030000e-06	2.019146e-06	7.908658e-09	1.456137e+01	5.175881e+02
1.040000e-06	2.112374e-06	8.447855e-09	1.523370e+01	5.531390e+02
1.050000e-06	2.204943e-06	8.964060e-09	1.590128e+01	5.872817e+02
1.060000e-06	2.296850e-06	9.458380e-09	1.656408e+01	6.199210e+02
1.070000e-06	2.387951e-06	9.930501e-09	1.722107e+01	6.510188e+02
1.080000e-06	2.478133e-06	1.037970e-08	1.787143e+01	6.805854e+02
1.090000e-06	2.567238e-06	1.080616e-08	1.851402e+01	7.086676e+02
1.100000e-06	2.655238e-06	1.121089e-08	1.914865e+01	7.353331e+02
1.110000e-06	2.742351e-06	1.159728e-08	1.977688e+01	7.606575e+02
1.120000e-06	2.828630e-06	1.196427e-08	2.039909e+01	7.847129e+02
1.130000e-06	2.913960e-06	1.231140e-08	2.101446e+01	8.075618e+02
1.140000e-06	2.998358e-06	1.264000e-08	2.162311e+01	8.292552e+02
1.150000e-06	3.081871e-06	1.295199e-08	2.222538e+01	8.498356e+02
1.160000e-06	3.164436e-06	1.324776e-08	2.282080e+01	8.693414e+02
1.170000e-06	3.245914e-06	1.352892e-08	2.340839e+01	8.878126e+02
1.180000e-06	3.326148e-06	1.379394e-08	2.398702e+01	9.052953e+02
1.190000e-06	3.405168e-06	1.404387e-08	2.455688e+01	9.218433e+02
1.200000e-06	3.482948e-06	1.428119e-08	2.511780e+01	9.375176e+02
1.210000e-06	3.559472e-06	1.450662e-08	2.566966e+01	9.523823e+02
1.220000e-06	3.634698e-06	1.472041e-08	2.621217e+01	9.665007e+02
1.230000e-06	3.708428e-06	1.492341e-08	2.674388e+01	9.799300e+02
1.240000e-06	3.780604e-06	1.511662e-08	2.726439e+01	9.927180e+02
1.250000e-06	3.851360e-06	1.529910e-08	2.777466e+01	1.004902e+03
1.260000e-06	3.920790e-06	1.547326e-08	2.827537e+01	1.016508e+03
1.270000e-06	3.988885e-06	1.563968e-08	2.876644e+01	1.027555e+03
1.280000e-06	4.055594e-06	1.579846e-08	2.924752e+01	1.038059e+03
1.290000e-06	4.120671e-06	1.594983e-08	2.971684e+01	1.048032e+03
1.300000e-06	4.184153e-06	1.609468e-08	3.017464e+01	1.057489e+03
1.310000e-06	4.246200e-06	1.623244e-08	3.062211e+01	1.066449e+03
1.320000e-06	4.306860e-06	1.636353e-08	3.105957e+01	1.074929e+03
1.330000e-06	4.366175e-06	1.648795e-08	3.148732e+01	1.082950e+03
1.340000e-06	4.423917e-06	1.660317e-08	3.190374e+01	1.090532e+03
1.350000e-06	4.479886e-06	1.671013e-08	3.230737e+01	1.097695e+03
1.360000e-06	4.534178e-06	1.681097e-08	3.269890e+01	1.104458e+03
1.370000e-06	4.586810e-06	1.690444e-08	3.307847e+01	1.110840e+03
1.380000e-06	4.637573e-06	1.699170e-08	3.344455e+01	1.116863e+03
1.390000e-06	4.686301e-06	1.707580e-08	3.379596e+01	1.122548e+03
1.400000e-06	4.733220e-06	1.715756e-08	3.413433e+01	1.127924e+03
1.410000e-06	4.778554e-06	1.723668e-08	3.446126e+01	1.133016e+03
1.420000e-06	4.822323e-06	1.731202e-08	3.477690e+01	1.137851e+03
1.430000e-06	4.864415e-06	1.738313e-08	3.508046e+01	1.142451e+03
1.440000e-06	4.904695e-06	1.744902e-08	3.537094e+01	1.146830e+03
1.450000e-06	4.943257e-06	1.751103e-08	3.564904e+01	1.150993e+03
1.460000e-06	4.980205e-06	1.757101e-08	3.591549e+01	1.154937e+03
1.470000e-06	5.015523e-06	1.762722e-08	3.617020e+01	1.158650e+03
1.480000e-06	5.048973e-06	1.767865e-08	3.641142e+01	1.162119e+03
1.490000e-06	5.080540e-06	1.772482e-08	3.663908e+01	1.165330e+03
1.500000e-06	5.110420e-06	1.776753e-08	3.685456e+01	1.168275e+03
1.510000e-06	5.138636e-06	1.780827e-08	3.705804e+01	1.170957e+03
1.520000e-06	5.165002e-06	1.784561e-08	3.724818e+01	1.173384e+03
1.530000e-06	5.189323e-06	1.787837e-08	3.742358e+01	1.175575e+03
1.540000e-06	5.211738e-06	1.790636e-08	3.758523e+01	1.177551e+03
1.550000e-06	5.232450e-06	1.793219e-08	3.773460e+01	1.179333e+03
1.560000e-06	5.251503e-06	1.795674e-08	3.787200e+01	1.180935e+03
1.570000e-06	5.268630e-06	1.797860e-08	3.799551e+01	1.182364e+03
1.580000e-06	5.283670e-06	1.799739e-08	3.810398e+01	1.183621e+03
1.590000e-06	5.296713e-06	1.801241e-08	3.819804e+01	1.184697e+03
1.600000e-06	5.307690e-06	1.802493e-08	3.827720e+01	1.185585e+03
1.610000e-06	5.316510e-06	1.803538e-08	3.834081e+01	1.186277e+03
1.620000e-06	5.323371e-06	1.804389e-08	3.839029e+01	1.186775e+03
1.630000e-06	5.328443e-06	1.805122e-08	3.842687e+01	1.187086e+03
1.640000e-06	5.331707e-06	1.805714e-08	3.845041e+01	1.187226e+03
1.650000e-06	5.333038e-06	1.806104e-08	3.846000e+01	1.187216e+03
1.660000e-06	5.332423e-06	1.806083e-08	3.845557e+01	1.187076e+03
1.670000e-06	5.330075e-06	1.805460e-08	3.843863e+01	1.186817e+03
1.680000e-06	5.326127e-06	1.805003e-08	3.841016e+01	1.186444e+03
1.690000e-06	5.320417e-06	1.804496e-08	3.836898e+01	1.185946e+03
1.700000e-06	5.312835e-06	1.803490e-08	3.831430e+01	1.185306e+03
1.710000e-06	5.303592e-06	1.802206e-08	3.824765e+01	1.184500e+03
1.720000e-06	5.292757e-06	1.801189e-08	3.816951e+01	1.183506e+03
1.730000e-06	5.280164e-06	1.801334e-08	3.807870e+01	1.182311e+03
1.740000e-06	5.265605e-06	1.798105e-08	3.797370e+01	1.180916e+03
1.750000e-06	5.248933e-06	1.789353e-08	3.785346e+01	1.179339e+03
1.760000e-06	5.229862e-06	1.788967e-08	3.771593e+01	1.177608e+03
1.770000e-06	5.208112e-06	1.789341e-08	3.755908e+01	1.175762e+03
1.780000e-06	5.184336e-06	1.789330e-08	3.738762e+01	1.173840e+03
1.790000e-06	5.159595e-06	1.791983e-08	3.720919e+01	1.171871e+03
1.800000e-06	5.134066e-06	1.775780e-08	3.702508e+01	1.169870e+03
1.810000e-06	5.106924e-06	1.775028e-08	3.682935e+01	1.167832e+03
1.820000e-06	5.077648e-06	1.783149e-08	3.661822e+01	1.165732e+03
1.830000e-06	5.046674e-06	1.765101e-08	3.639484e+01	1.163530e+03
1.840000e-06	5.013941e-06	1.769540e-08	3.615879e+01	1.161180e+03
1.850000e-06	4.979323e-06	1.773461e-08	3.590913e+01	1.158634e+03
1.860000e-06	4.943105e-06	1.751326e-08	3.564794e+01	1.155855e+03
1.870000e-06	4.904999e-06	1.754619e-08	3.537314e+01	1.152817e+03
1.880000e-06	4.865084e-06	1.750597e-08	3.508528e+01	1.149513e+03
1.890000e-06	4.823567e-06	1.741993e-08	3.478588e+01	1.145948e+03
1.900000e-06	4.780307e-06	1.747817e-08	3.447390e+01	1.142141e+03
1.910000e-06	4.735452e-06	1.727454e-08	3.415042e+01	1.138110e+03
1.920000e-06	4.688726e-06	1.724929e-08	3.381345e+01	1.133875e+03
1.930000e-06	4.640127e-06	1.730069e-08	3.346297e+01	1.129449e+03
1.940000e-06	4.589928e-06	1.713856e-08	3.310095e+01	1.124835e+03
1.950000e-06	4.537806e-06	1.710353e-08	3.272507e+01	1.120029e+03
1.960000e-06	4.483693e-06	1.699860e-08	3.233482e+01	1.115021e+03
1.970000e-06	4.427796e-06	1.693612e-08	3.193172e+01	1.109799e+03
1.980000e-06	4.370212e-06	1.685403e-08	3.151643e+01	1.104351e+03
1.990000e-06	4.311134e-06	1.670293e-08	3.109039e+01	1.098669e+03
2.000000e-06	4.250683e-06	1.671929e-08	3.065444e+01	1.092748e+03
2.010000e-06	4.188680e-06	1.660398e-08	3.020729e+01	1.086587e+03
2.020000e-06	4.124929e-06	1.647778e-08	2.974754e+01	1.080184e+03
2.030000e-06	4.059637e-06	1.636242e-08	2.927668e+01	1.073539e+03
2.040000e-06	3.993037e-06	1.624360e-08	2.879638e+01	1.066648e+03
2.050000e-06	3.925122e-06	1.620382e-08	2.830661e+01	1.059503e+03
2.060000e-06	3.855721e-06	1.604432e-08	2.780611e+01	1.052094e+03
2.070000e-06	3.784727e-06	1.594504e-08	2.729413e+01	1.044409e+03
2.080000e-06	3.712413e-06	1.583009e-08	2.677262e+01	1.036438e+03
2.090000e-06	3.638871e-06	1.568476e-08	2.624226e+01	1.028169e+03
2.100000e-06	3.563990e-06	1.558078e-08	2.570225e+01	1.019596e+03
2.110000e-06	3.487739e-06	1.543376e-08	2.515235e+01	1.010711e+03
2.120000e-06	3.409901e-06	1.531487e-08	2.459101e+01	1.001508e+03
2.130000e-06	3.330664e-06	1.514790e-08	2.401958e+01	9.919762e+02
2.140000e-06	3.250294e-06	1.499509e-08	2.343998e+01	9.821025e+02
2.150000e-06	3.168832e-06	1.484233e-08	2.285250e+01	9.718682e+02
2.160000e-06	3.086300e-06	1.467704e-08	2.225731e+01	9.612504e+02
2.170000e-06	3.002797e-06	1.453132e-08	2.165512e+01	9.502228e+02
2.180000e-06	2.918408e-06	1.435593e-08	2.104654e+01	9.387582e+02
2.190000e-06	2.832734e-06	1.417856e-08	2.042868e+01	9.268302e+02
2.200000e-06	2.745746e-06	1.398040e-08	1.980136e+01	9.144151e+02
2.210000e-06	2.657768e-06	1.379121e-08	1.916690e+01	9.014912e+02
2.220000e-06	2.568912e-06	1.359475e-08	1.852609e+01	8.880383e+02
2.230000e-06	2.479134e-06	1.337894e-08	1.787865e+01	8.740353e+02
2.240000e-06	2.388434e-06	1.315475e-08	1.722455e+01	8.594573e+02
2.250000e-06	2.297064e-06	1.291963e-08	1.656562e+01	8.442742e+02
2.260000e-06	2.205142e-06	1.268333e-08	1.590271e+01	8.284492e+02
2.270000e-06	2.112451e-06	1.243025e-08	1.523426e+01	8.119396e+02
2.280000e-06	2.018749e-06	1.217250e-08	1.455851e+01	7.946988e+02
2.290000e-06	1.924086e-06	1.190061e-08	1.387583e+01	7.766791e+02
2.300000e-06	1.828637e-06	1.161309e-08	1.318749e+01	7.578344e+02
2.310000e-06	1.732567e-06	1.131153e-08	1.249467e+01	7.381225e+02
2.320000e-06	1.636050e-06	1.099971e-08	1.179862e+01	7.175057e+02
2.330000e-06	1.539093e-06	1.067777e-08	1.109940e+01	6.959496e+02
2.340000e-06	1.441590e-06	1.033544e-08	1.039624e+01	6.734214e+02
2.350000e-06	1.343544e-06	9.974047e-09	9.689165e+00	6.498878e+02
2.360000e-06	1.245052e-06	9.596895e-09	8.978881e+00	6.253136e+02
2.370000e-06	1.146183e-06	9.211712e-09	8.265873e+00	5.996629e+02
2.380000e-06	1.047014e-06	8.811789e-09	7.550698e+00	5.729025e+02
2.390000e-06	9.476151e-07	8.390177e-09	6.833868e+00	5.450079e+02
2.400000e-06	8.480108e-07	7.944803e-09	6.115557e+00	5.159716e+02
2.410000e-06	7.482080e-07	7.481929e-09	5.395814e+00	4.858108e+02
2.420000e-06	6.481928e-07	7.004349e-09	4.674539e+00	4.545746e+02
2.430000e-06	5.479516e-07	6.510341e-09	3.951635e+00	4.223470e+02
2.440000e-06	4.475161e-07	6.006325e-09	3.227329e+00	3.892464e+02
2.450000e-06	3.469688e-07	5.493766e-09	2.502217e+00	3.554193e+02
2.460000e-06	2.462837e-07	4.968483e-09	1.776112e+00	3.210297e+02
2.470000e-06	1.454227e-07	4.433150e-09	1.048737e+00	2.862459e+02
2.480000e-06	4.444361e-08	3.896622e-09	3.205118e-01	2.512251e+02
2.490000e-06	-5.655664e-08	3.360806e-09	-4.078667e-01	2.160990e+02
2.500000e-06	-1.575122e-07	2.821876e-09	-1.135923e+00	1.809623e+02
2.510000e-06	-2.583887e-07	2.280719e-09	-1.863409e+00	1.458651e+02
2.520000e-06	-3.591727e-07	1.742065e-09	-2.590228e+00	1.108106e+02
2.530000e-06	-4.598248e-07	1.204507e-09	-3.316096e+00	7.575744e+01
2.540000e-06	-5.602905e-07	6.645866e-10	-4.040619e+00	4.062653e+01
2.550000e-06	-6.605397e-07	1.225092e-10	-4.763581e+00	5.312204e+00
2.560000e-06	-7.605914e-07	-4.214867e-10	-5.485118e+00	-3.030479e+01
2.570000e-06	-8.604492e-07	-9.706659e-10	-6.205259e+00	-6.634250e+01
2.580000e-06	-9.600557e-07	-1.528228e-09	-6.923585e+00	-1.029027e+02
2.590000e-06	-1.059381e-06	-2.093904e-09	-7.639886e+00	-1.400568e+02
2.600000e-06	-1.158384e-06	-2.671350e-09	-8.353858e+00	-1.778328e+02
2.610000e-06	-1.256992e-06	-3.261619e-09	-9.064987e+00	-2.162063e+02
2.620000e-06	-1.355134e-06	-3.859697e-09	-9.772749e+00	-2.550942e+02
2.630000e-06	-1.452721e-06	-4.463942e-09	-1.047651e+01	-2.943544e+02
2.640000e-06	-1.549746e-06	-5.069668e-09	-1.117622e+01	-3.337901e+02
2.650000e-06	-1.646272e-06	-5.673290e-09	-1.187234e+01	-3.731606e+02
2.660000e-06	-1.742346e-06	-6.272097e-09	-1.256519e+01	-4.121965e+02
2.670000e-06	-1.837929e-06	-6.861452e-09	-1.325450e+01	-4.506191e+02
2.680000e-06	-1.932836e-06	-7.438110e-09	-1.393894e+01	-4.881605e+02
2.690000e-06	-2.026883e-06	-7.997386e-09	-1.461717e+01	-5.245833e+02
2.700000e-06	-2.119913e-06	-8.538205e-09	-1.528807e+01	-5.596961e+02
2.710000e-06	-2.211981e-06	-9.057462e-09	-1.595204e+01	-5.933637e+02
2.720000e-06	-2.303352e-06	-9.551127e-09	-1.661097e+01	-6.255097e+02
2.730000e-06	-2.394036e-06	-1.001895e-08	-1.726495e+01	-6.561127e+02
2.740000e-06	-2.483827e-06	-1.046276e-08	-1.791249e+01	-6.851963e+02
2.750000e-06	-2.572690e-06	-1.088390e-08	-1.855334e+01	-7.128156e+02
2.760000e-06	-2.660753e-06	-1.128541e-08	-1.918842e+01	-7.390424e+02
2.770000e-06	-2.748066e-06	-1.166952e-08	-1.981809e+01	-7.639520e+02
2.780000e-06	-2.834375e-06	-1.203505e-08	-2.044052e+01	-7.876139e+02
2.790000e-06	-2.919400e-06	-1.238101e-08	-2.105369e+01	-8.100868e+02
2.800000e-06	-3.003313e-06	-1.270684e-08	-2.165884e+01	-8.314188e+02
2.810000e-06	-3.086356e-06	-1.301458e-08	-2.225772e+01	-8.516501e+02
2.820000e-06	-3.168426e-06	-1.330668e-08	-2.284958e+01	-8.708193e+02
2.830000e-06	-3.249391e-06	-1.358499e-08	-2.343347e+01	-8.889679e+02
2.840000e-06	-3.329298e-06	-1.384920e-08	-2.400973e+01	-9.061445e+02
2.850000e-06	-3.408019e-06	-1.409933e-08	-2.457744e+01	-9.224054e+02
2.860000e-06	-3.485275e-06	-1.433634e-08	-2.513458e+01	-9.378129e+02
2.870000e-06	-3.561092e-06	-1.456200e-08	-2.568135e+01	-9.524316e+02
2.880000e-06	-3.635510e-06	-1.477745e-08	-2.621802e+01	-9.663232e+02
2.890000e-06	-3.708568e-06	-1.498246e-08	-2.674489e+01	-9.795422e+02
2.900000e-06	-3.780411e-06	-1.517828e-08	-2.726300e+01	-9.921330e+02
2.910000e-06	-3.850805e-06	-1.536377e-08	-2.777066e+01	-1.004129e+03
2.920000e-06	-3.919596e-06	-1.553819e-08	-2.826675e+01	-1.015554e+03
2.930000e-06	-3.987012e-06	-1.570322e-08	-2.875294e+01	-1.026426e+03
2.940000e-06	-4.053089e-06	-1.586085e-08	-2.922946e+01	-1.036758e+03
