# Temperatura_=_71.9
# Concentracion g/m^3_=_28200.0
# C_Vs_to_Am_M_A/Vsm_=_65563218390.804596
# pendiente_HvsI_1/m_=_3716.3
# ordenada_HvsI_A/m_=_1297.0
# frecuencia_Hz_=_301765.71267462696

Tiempo_(s)	Campo_(V.s)	Magnetizacion_(V.s)	Campo_(kA/m)	Magnetizacion_(A/m)
0.000000e+00	-5.319956e-06	-2.304957e-08	-3.829204e+01	-1.507289e+03
1.000000e-08	-5.317825e-06	-2.304589e-08	-3.827670e+01	-1.506907e+03
2.000000e-08	-5.313840e-06	-2.303493e-08	-3.824802e+01	-1.506376e+03
3.000000e-08	-5.308215e-06	-2.302187e-08	-3.820753e+01	-1.505684e+03
4.000000e-08	-5.300985e-06	-2.300767e-08	-3.815549e+01	-1.504810e+03
5.000000e-08	-5.292104e-06	-2.298803e-08	-3.809157e+01	-1.503727e+03
6.000000e-08	-5.281223e-06	-2.296439e-08	-3.801325e+01	-1.502406e+03
7.000000e-08	-5.268380e-06	-2.293286e-08	-3.792080e+01	-1.500833e+03
8.000000e-08	-5.253629e-06	-2.289804e-08	-3.781463e+01	-1.499010e+03
9.000000e-08	-5.236639e-06	-2.292824e-08	-3.769234e+01	-1.496957e+03
1.000000e-07	-5.217502e-06	-2.292308e-08	-3.755459e+01	-1.494718e+03
1.100000e-07	-5.196507e-06	-2.283040e-08	-3.740348e+01	-1.492346e+03
1.200000e-07	-5.173734e-06	-2.278007e-08	-3.723956e+01	-1.489895e+03
1.300000e-07	-5.149393e-06	-2.268701e-08	-3.706436e+01	-1.487410e+03
1.400000e-07	-5.123491e-06	-2.259691e-08	-3.687792e+01	-1.484914e+03
1.500000e-07	-5.095874e-06	-2.272449e-08	-3.667914e+01	-1.482401e+03
1.600000e-07	-5.066735e-06	-2.261653e-08	-3.646940e+01	-1.479836e+03
1.700000e-07	-5.036224e-06	-2.248129e-08	-3.624979e+01	-1.477158e+03
1.800000e-07	-5.003984e-06	-2.259219e-08	-3.601773e+01	-1.474292e+03
1.900000e-07	-4.969634e-06	-2.240545e-08	-3.577049e+01	-1.471164e+03
2.000000e-07	-4.933634e-06	-2.232366e-08	-3.551136e+01	-1.467707e+03
2.100000e-07	-4.896060e-06	-2.241982e-08	-3.524091e+01	-1.463882e+03
2.200000e-07	-4.856675e-06	-2.223468e-08	-3.495743e+01	-1.459672e+03
2.300000e-07	-4.815589e-06	-2.214005e-08	-3.466170e+01	-1.455091e+03
2.400000e-07	-4.772527e-06	-2.211336e-08	-3.435174e+01	-1.450171e+03
2.500000e-07	-4.727597e-06	-2.197104e-08	-3.402835e+01	-1.444954e+03
2.600000e-07	-4.680988e-06	-2.196944e-08	-3.369287e+01	-1.439482e+03
2.700000e-07	-4.632452e-06	-2.188118e-08	-3.334351e+01	-1.433783e+03
2.800000e-07	-4.581819e-06	-2.171848e-08	-3.297907e+01	-1.427872e+03
2.900000e-07	-4.529191e-06	-2.162169e-08	-3.260026e+01	-1.421741e+03
3.000000e-07	-4.474843e-06	-2.154908e-08	-3.220908e+01	-1.415370e+03
3.100000e-07	-4.418919e-06	-2.146721e-08	-3.180654e+01	-1.408728e+03
3.200000e-07	-4.361235e-06	-2.135364e-08	-3.139135e+01	-1.401786e+03
3.300000e-07	-4.301818e-06	-2.126065e-08	-3.096367e+01	-1.394522e+03
3.400000e-07	-4.240919e-06	-2.111821e-08	-3.052534e+01	-1.386926e+03
3.500000e-07	-4.178587e-06	-2.096371e-08	-3.007668e+01	-1.379003e+03
3.600000e-07	-4.114891e-06	-2.085409e-08	-2.961820e+01	-1.370763e+03
3.700000e-07	-4.049709e-06	-2.074162e-08	-2.914904e+01	-1.362225e+03
3.800000e-07	-3.982839e-06	-2.063681e-08	-2.866772e+01	-1.353401e+03
3.900000e-07	-3.914460e-06	-2.048160e-08	-2.817554e+01	-1.344298e+03
4.000000e-07	-3.844788e-06	-2.030496e-08	-2.767405e+01	-1.334908e+03
4.100000e-07	-3.773859e-06	-2.017293e-08	-2.716352e+01	-1.325212e+03
4.200000e-07	-3.701795e-06	-2.002089e-08	-2.664482e+01	-1.315182e+03
4.300000e-07	-3.628356e-06	-1.986546e-08	-2.611622e+01	-1.304785e+03
4.400000e-07	-3.553249e-06	-1.969913e-08	-2.557561e+01	-1.293991e+03
4.500000e-07	-3.476666e-06	-1.952077e-08	-2.502438e+01	-1.282773e+03
4.600000e-07	-3.398839e-06	-1.933348e-08	-2.446420e+01	-1.271117e+03
4.700000e-07	-3.319677e-06	-1.915249e-08	-2.389441e+01	-1.259014e+03
4.800000e-07	-3.239106e-06	-1.897814e-08	-2.331447e+01	-1.246462e+03
4.900000e-07	-3.157340e-06	-1.877018e-08	-2.272594e+01	-1.233460e+03
5.000000e-07	-3.074501e-06	-1.856060e-08	-2.212967e+01	-1.220002e+03
5.100000e-07	-2.990712e-06	-1.834463e-08	-2.152658e+01	-1.206076e+03
5.200000e-07	-2.906111e-06	-1.812007e-08	-2.091764e+01	-1.191660e+03
5.300000e-07	-2.820567e-06	-1.789174e-08	-2.030190e+01	-1.176723e+03
5.400000e-07	-2.734006e-06	-1.765682e-08	-1.967886e+01	-1.161226e+03
5.500000e-07	-2.646592e-06	-1.741174e-08	-1.904967e+01	-1.145129e+03
5.600000e-07	-2.558342e-06	-1.714753e-08	-1.841446e+01	-1.128391e+03
5.700000e-07	-2.469010e-06	-1.687879e-08	-1.777147e+01	-1.110971e+03
5.800000e-07	-2.378406e-06	-1.660489e-08	-1.711932e+01	-1.092834e+03
5.900000e-07	-2.286823e-06	-1.632258e-08	-1.646012e+01	-1.073946e+03
6.000000e-07	-2.194563e-06	-1.602196e-08	-1.579605e+01	-1.054272e+03
6.100000e-07	-2.101594e-06	-1.570428e-08	-1.512688e+01	-1.033774e+03
6.200000e-07	-2.007899e-06	-1.537533e-08	-1.445248e+01	-1.012407e+03
6.300000e-07	-1.913422e-06	-1.503264e-08	-1.377245e+01	-9.901179e+02
6.400000e-07	-1.818230e-06	-1.467753e-08	-1.308727e+01	-9.668477e+02
6.500000e-07	-1.722506e-06	-1.430684e-08	-1.239827e+01	-9.425288e+02
6.600000e-07	-1.626230e-06	-1.391524e-08	-1.170529e+01	-9.170899e+02
6.700000e-07	-1.529278e-06	-1.350229e-08	-1.100745e+01	-8.904568e+02
6.800000e-07	-1.431629e-06	-1.307465e-08	-1.030460e+01	-8.625555e+02
6.900000e-07	-1.333312e-06	-1.263141e-08	-9.596928e+00	-8.333132e+02
7.000000e-07	-1.234385e-06	-1.217036e-08	-8.884872e+00	-8.026597e+02
7.100000e-07	-1.135036e-06	-1.168496e-08	-8.169774e+00	-7.705293e+02
7.200000e-07	-1.035424e-06	-1.116828e-08	-7.452784e+00	-7.368633e+02
7.300000e-07	-9.355589e-07	-1.062278e-08	-6.733976e+00	-7.016150e+02
7.400000e-07	-8.354336e-07	-1.005526e-08	-6.013293e+00	-6.647557e+02
7.500000e-07	-7.350738e-07	-9.470842e-09	-5.290922e+00	-6.262833e+02
7.600000e-07	-6.344994e-07	-8.862801e-09	-4.567007e+00	-5.862308e+02
7.700000e-07	-5.337217e-07	-8.230490e-09	-3.841628e+00	-5.446730e+02
7.800000e-07	-4.327692e-07	-7.578749e-09	-3.114991e+00	-5.017302e+02
7.900000e-07	-3.316609e-07	-6.908222e-09	-2.387233e+00	-4.575668e+02
8.000000e-07	-2.304411e-07	-6.219114e-09	-1.658671e+00	-4.123824e+02
8.100000e-07	-1.290964e-07	-5.517271e-09	-9.292112e-01	-3.663972e+02
8.200000e-07	-2.768509e-08	-4.808159e-09	-1.992720e-01	-3.198319e+02
8.300000e-07	7.375772e-08	-4.092413e-09	5.308942e-01	-2.728842e+02
8.400000e-07	1.752248e-07	-3.373452e-09	1.261235e+00	-2.257067e+02
8.500000e-07	2.765832e-07	-2.653663e-09	1.990794e+00	-1.783882e+02
8.600000e-07	3.778552e-07	-1.934164e-09	2.719730e+00	-1.309435e+02
8.700000e-07	4.790413e-07	-1.211503e-09	3.448049e+00	-8.331268e+01
8.800000e-07	5.800773e-07	-4.833508e-10	4.175287e+00	-3.537180e+01
8.900000e-07	6.809279e-07	2.529947e-10	4.901191e+00	1.304580e+01
9.000000e-07	7.815578e-07	1.001115e-09	5.625505e+00	6.212061e+01
9.100000e-07	8.819767e-07	1.764454e-09	6.348301e+00	1.120137e+02
9.200000e-07	9.821512e-07	2.540417e-09	7.069338e+00	1.628341e+02
9.300000e-07	1.082017e-06	3.329362e-09	7.788155e+00	2.146106e+02
9.400000e-07	1.181579e-06	4.132864e-09	8.504785e+00	2.672736e+02
9.500000e-07	1.280807e-06	4.943707e-09	9.219005e+00	3.206477e+02
9.600000e-07	1.379571e-06	5.759218e-09	9.929890e+00	3.744572e+02
9.700000e-07	1.477630e-06	6.577818e-09	1.063570e+01	4.283440e+02
9.800000e-07	1.574817e-06	7.393672e-09	1.133524e+01	4.818946e+02
9.900000e-07	1.671238e-06	8.200591e-09	1.202925e+01	5.346731e+02
1.000000e-06	1.767051e-06	8.990159e-09	1.271890e+01	5.862554e+02
1.010000e-06	1.862299e-06	9.751388e-09	1.340448e+01	6.362611e+02
1.020000e-06	1.956886e-06	1.047955e-08	1.408530e+01	6.843786e+02
1.030000e-06	2.050756e-06	1.117391e-08	1.476096e+01	7.303807e+02
1.040000e-06	2.143923e-06	1.183287e-08	1.543155e+01	7.741303e+02
1.050000e-06	2.236415e-06	1.245789e-08	1.609729e+01	8.155763e+02
1.060000e-06	2.328296e-06	1.305118e-08	1.675864e+01	8.547408e+02
1.070000e-06	2.419421e-06	1.361509e-08	1.741453e+01	8.917017e+02
1.080000e-06	2.509434e-06	1.414599e-08	1.806243e+01	9.265723e+02
1.090000e-06	2.598310e-06	1.464564e-08	1.870214e+01	9.594827e+02
1.100000e-06	2.686297e-06	1.511803e-08	1.933546e+01	9.905642e+02
1.110000e-06	2.773426e-06	1.556496e-08	1.996260e+01	1.019939e+03
1.120000e-06	2.859626e-06	1.598615e-08	2.058305e+01	1.047714e+03
1.130000e-06	2.944877e-06	1.638274e-08	2.119667e+01	1.073984e+03
1.140000e-06	3.029243e-06	1.675757e-08	2.180392e+01	1.098831e+03
1.150000e-06	3.112749e-06	1.711385e-08	2.240498e+01	1.122332e+03
1.160000e-06	3.195131e-06	1.745354e-08	2.299795e+01	1.144563e+03
1.170000e-06	3.276235e-06	1.777526e-08	2.358172e+01	1.165600e+03
1.180000e-06	3.356129e-06	1.808075e-08	2.415678e+01	1.185523e+03
1.190000e-06	3.434817e-06	1.836869e-08	2.472317e+01	1.204410e+03
1.200000e-06	3.512285e-06	1.863853e-08	2.528076e+01	1.222337e+03
1.210000e-06	3.588593e-06	1.889366e-08	2.583001e+01	1.239376e+03
1.220000e-06	3.663544e-06	1.913908e-08	2.636950e+01	1.255585e+03
1.230000e-06	3.736872e-06	1.937293e-08	2.689730e+01	1.271017e+03
1.240000e-06	3.808751e-06	1.959539e-08	2.741467e+01	1.285712e+03
1.250000e-06	3.879271e-06	1.980809e-08	2.792226e+01	1.299705e+03
1.260000e-06	3.948428e-06	2.000939e-08	2.842004e+01	1.313027e+03
1.270000e-06	4.016324e-06	2.019835e-08	2.890874e+01	1.325710e+03
1.280000e-06	4.082727e-06	2.037752e-08	2.938670e+01	1.337787e+03
1.290000e-06	4.147438e-06	2.055050e-08	2.985248e+01	1.349292e+03
1.300000e-06	4.210622e-06	2.071800e-08	3.030726e+01	1.360261e+03
1.310000e-06	4.272374e-06	2.087946e-08	3.075174e+01	1.370728e+03
1.320000e-06	4.332826e-06	2.103429e-08	3.118686e+01	1.380717e+03
1.330000e-06	4.391853e-06	2.118185e-08	3.161173e+01	1.390248e+03
1.340000e-06	4.449091e-06	2.132100e-08	3.202372e+01	1.399328e+03
1.350000e-06	4.504584e-06	2.145116e-08	3.242315e+01	1.407958e+03
1.360000e-06	4.558475e-06	2.157309e-08	3.281104e+01	1.416136e+03
1.370000e-06	4.610622e-06	2.168802e-08	3.318638e+01	1.423857e+03
1.380000e-06	4.660745e-06	2.179776e-08	3.354716e+01	1.431127e+03
1.390000e-06	4.708923e-06	2.190182e-08	3.389394e+01	1.437957e+03
1.400000e-06	4.755477e-06	2.199958e-08	3.422903e+01	1.444371e+03
1.410000e-06	4.800527e-06	2.209216e-08	3.455328e+01	1.450402e+03
1.420000e-06	4.844007e-06	2.218014e-08	3.486625e+01	1.456090e+03
1.430000e-06	4.885667e-06	2.226178e-08	3.516610e+01	1.461470e+03
1.440000e-06	4.925486e-06	2.233822e-08	3.545272e+01	1.466576e+03
1.450000e-06	4.963621e-06	2.241237e-08	3.572721e+01	1.471427e+03
1.460000e-06	5.000168e-06	2.248261e-08	3.599026e+01	1.476031e+03
1.470000e-06	5.035008e-06	2.254816e-08	3.624104e+01	1.480381e+03
1.480000e-06	5.067951e-06	2.260938e-08	3.647815e+01	1.484465e+03
1.490000e-06	5.099095e-06	2.266687e-08	3.670232e+01	1.488266e+03
1.500000e-06	5.128572e-06	2.272069e-08	3.691449e+01	1.491770e+03
1.510000e-06	5.156378e-06	2.276962e-08	3.711463e+01	1.494971e+03
1.520000e-06	5.182195e-06	2.281383e-08	3.730046e+01	1.497873e+03
1.530000e-06	5.205932e-06	2.285347e-08	3.747131e+01	1.500487e+03
1.540000e-06	5.227847e-06	2.288737e-08	3.762906e+01	1.502832e+03
1.550000e-06	5.248109e-06	2.291795e-08	3.777489e+01	1.504928e+03
1.560000e-06	5.266609e-06	2.294633e-08	3.790806e+01	1.506790e+03
1.570000e-06	5.283083e-06	2.297104e-08	3.802663e+01	1.508427e+03
1.580000e-06	5.297566e-06	2.299207e-08	3.813088e+01	1.509842e+03
1.590000e-06	5.310096e-06	2.300987e-08	3.822107e+01	1.511031e+03
1.600000e-06	5.320409e-06	2.302524e-08	3.829530e+01	1.511986e+03
1.610000e-06	5.328600e-06	2.303637e-08	3.835426e+01	1.512706e+03
1.620000e-06	5.334996e-06	2.304393e-08	3.840029e+01	1.513193e+03
1.630000e-06	5.339677e-06	2.305000e-08	3.843399e+01	1.513458e+03
1.640000e-06	5.342509e-06	2.305353e-08	3.845437e+01	1.513520e+03
1.650000e-06	5.343291e-06	2.305571e-08	3.846000e+01	1.513402e+03
1.660000e-06	5.342177e-06	2.305177e-08	3.845198e+01	1.513121e+03
1.670000e-06	5.339397e-06	2.304252e-08	3.843197e+01	1.512691e+03
1.680000e-06	5.335011e-06	2.303704e-08	3.840040e+01	1.512108e+03
1.690000e-06	5.328761e-06	2.302807e-08	3.835542e+01	1.511360e+03
1.700000e-06	5.320661e-06	2.301421e-08	3.829711e+01	1.510421e+03
1.710000e-06	5.310986e-06	2.299733e-08	3.822747e+01	1.509263e+03
1.720000e-06	5.299631e-06	2.298386e-08	3.814574e+01	1.507861e+03
1.730000e-06	5.286369e-06	2.298334e-08	3.805029e+01	1.506205e+03
1.740000e-06	5.271113e-06	2.289046e-08	3.794048e+01	1.504303e+03
1.750000e-06	5.253713e-06	2.281384e-08	3.781523e+01	1.502185e+03
1.760000e-06	5.233808e-06	2.283611e-08	3.767196e+01	1.499895e+03
1.770000e-06	5.211393e-06	2.281380e-08	3.751063e+01	1.497491e+03
1.780000e-06	5.187255e-06	2.287836e-08	3.733688e+01	1.495024e+03
1.790000e-06	5.162284e-06	2.281150e-08	3.715714e+01	1.492533e+03
1.800000e-06	5.136316e-06	2.258658e-08	3.697023e+01	1.490033e+03
1.810000e-06	5.108343e-06	2.271479e-08	3.676889e+01	1.487507e+03
1.820000e-06	5.078286e-06	2.265403e-08	3.655254e+01	1.484912e+03
1.830000e-06	5.046653e-06	2.247128e-08	3.632485e+01	1.482181e+03
1.840000e-06	5.013194e-06	2.266073e-08	3.608402e+01	1.479238e+03
1.850000e-06	4.978023e-06	2.250507e-08	3.583087e+01	1.476009e+03
1.860000e-06	4.941260e-06	2.232805e-08	3.556625e+01	1.472436e+03
1.870000e-06	4.902492e-06	2.244938e-08	3.528721e+01	1.468487e+03
1.880000e-06	4.862013e-06	2.227644e-08	3.499585e+01	1.464154e+03
1.890000e-06	4.819921e-06	2.226976e-08	3.469288e+01	1.459459e+03
1.900000e-06	4.776071e-06	2.223210e-08	3.437725e+01	1.454437e+03
1.910000e-06	4.730522e-06	2.196769e-08	3.404940e+01	1.449133e+03
1.920000e-06	4.683023e-06	2.206119e-08	3.370751e+01	1.443584e+03
1.930000e-06	4.633798e-06	2.198419e-08	3.335320e+01	1.437816e+03
1.940000e-06	4.582917e-06	2.182847e-08	3.298697e+01	1.431835e+03
1.950000e-06	4.529976e-06	2.176869e-08	3.260591e+01	1.425628e+03
1.960000e-06	4.475125e-06	2.162470e-08	3.221110e+01	1.419172e+03
1.970000e-06	4.418600e-06	2.157731e-08	3.180425e+01	1.412435e+03
1.980000e-06	4.360504e-06	2.138136e-08	3.138608e+01	1.405391e+03
1.990000e-06	4.300988e-06	2.130450e-08	3.095770e+01	1.398020e+03
2.000000e-06	4.240013e-06	2.128928e-08	3.051881e+01	1.390317e+03
2.010000e-06	4.177389e-06	2.107816e-08	3.006805e+01	1.382289e+03
2.020000e-06	4.113063e-06	2.095952e-08	2.960505e+01	1.373950e+03
2.030000e-06	4.047255e-06	2.078452e-08	2.913138e+01	1.365318e+03
2.040000e-06	3.980113e-06	2.069471e-08	2.864810e+01	1.356403e+03
2.050000e-06	3.911640e-06	2.058673e-08	2.815524e+01	1.347208e+03
2.060000e-06	3.841595e-06	2.038550e-08	2.765108e+01	1.337722e+03
2.070000e-06	3.770031e-06	2.028403e-08	2.713597e+01	1.327921e+03
2.080000e-06	3.697215e-06	2.009302e-08	2.661185e+01	1.317775e+03
2.090000e-06	3.623082e-06	1.994071e-08	2.607826e+01	1.307252e+03
2.100000e-06	3.547620e-06	1.978338e-08	2.553510e+01	1.296323e+03
2.110000e-06	3.470661e-06	1.961037e-08	2.498116e+01	1.284965e+03
2.120000e-06	3.392133e-06	1.944389e-08	2.441593e+01	1.273164e+03
2.130000e-06	3.312431e-06	1.922681e-08	2.384226e+01	1.260916e+03
2.140000e-06	3.231633e-06	1.905298e-08	2.326068e+01	1.248219e+03
2.150000e-06	3.149686e-06	1.884143e-08	2.267085e+01	1.235070e+03
2.160000e-06	3.066752e-06	1.864773e-08	2.207390e+01	1.221462e+03
2.170000e-06	2.982970e-06	1.844652e-08	2.147085e+01	1.207380e+03
2.180000e-06	2.898097e-06	1.821728e-08	2.085996e+01	1.192800e+03
2.190000e-06	2.811778e-06	1.798587e-08	2.023864e+01	1.177686e+03
2.200000e-06	2.724319e-06	1.773817e-08	1.960913e+01	1.162000e+03
2.210000e-06	2.636028e-06	1.750486e-08	1.897363e+01	1.145700e+03
2.220000e-06	2.546812e-06	1.724270e-08	1.833147e+01	1.128745e+03
2.230000e-06	2.456642e-06	1.697094e-08	1.768245e+01	1.111098e+03
2.240000e-06	2.365690e-06	1.668603e-08	1.702779e+01	1.092722e+03
2.250000e-06	2.274126e-06	1.640115e-08	1.636873e+01	1.073585e+03
2.260000e-06	2.181867e-06	1.610493e-08	1.570467e+01	1.053649e+03
2.270000e-06	2.088646e-06	1.578634e-08	1.503368e+01	1.032875e+03
2.280000e-06	1.994347e-06	1.546049e-08	1.435494e+01	1.011217e+03
2.290000e-06	1.899154e-06	1.511416e-08	1.366975e+01	9.886185e+02
2.300000e-06	1.803359e-06	1.475333e-08	1.298024e+01	9.650177e+02
2.310000e-06	1.707045e-06	1.437606e-08	1.228699e+01	9.403457e+02
2.320000e-06	1.610179e-06	1.398798e-08	1.158977e+01	9.145299e+02
2.330000e-06	1.512777e-06	1.358070e-08	1.088868e+01	8.874962e+02
2.340000e-06	1.414885e-06	1.314679e-08	1.018407e+01	8.591706e+02
2.350000e-06	1.316567e-06	1.268788e-08	9.476400e+00	8.294811e+02
2.360000e-06	1.217832e-06	1.221462e-08	8.765726e+00	7.983586e+02
2.370000e-06	1.118765e-06	1.172696e-08	8.052656e+00	7.657395e+02
2.380000e-06	1.019458e-06	1.121181e-08	7.337867e+00	7.315682e+02
2.390000e-06	9.199317e-07	1.066533e-08	6.621494e+00	6.958030e+02
2.400000e-06	8.201855e-07	1.008791e-08	5.903540e+00	6.584228e+02
2.410000e-06	7.202151e-07	9.487892e-09	5.183972e+00	6.194360e+02
2.420000e-06	6.199760e-07	8.866779e-09	4.462470e+00	5.788882e+02
2.430000e-06	5.195088e-07	8.226693e-09	3.739326e+00	5.368688e+02
2.440000e-06	4.188867e-07	7.569572e-09	3.015067e+00	4.935128e+02
2.450000e-06	3.180162e-07	6.892985e-09	2.289021e+00	4.489970e+02
2.460000e-06	2.168541e-07	6.196571e-09	1.560875e+00	4.035296e+02
2.470000e-06	1.154982e-07	5.488800e-09	8.313340e-01	3.573334e+02
2.480000e-06	1.403392e-08	4.775528e-09	1.010135e-01	3.106242e+02
2.490000e-06	-8.738689e-08	4.056610e-09	-6.289943e-01	2.635877e+02
2.500000e-06	-1.886920e-07	3.334340e-09	-1.358169e+00	2.163575e+02
2.510000e-06	-2.898729e-07	2.610587e-09	-2.086451e+00	1.689995e+02
2.520000e-06	-3.909428e-07	1.883910e-09	-2.813932e+00	1.215038e+02
2.530000e-06	-4.919035e-07	1.152465e-09	-3.540628e+00	7.378830e+01
2.540000e-06	-5.926191e-07	4.177390e-10	-4.265560e+00	2.571258e+01
2.550000e-06	-6.930423e-07	-3.242454e-10	-4.988387e+00	-2.289792e+01
2.560000e-06	-7.931564e-07	-1.077329e-09	-5.708990e+00	-7.222115e+01
2.570000e-06	-8.929514e-07	-1.842637e-09	-6.427295e+00	-1.224049e+02
2.580000e-06	-9.925173e-07	-2.620868e-09	-7.143952e+00	-1.735349e+02
2.590000e-06	-1.091838e-06	-3.413515e-09	-7.858842e+00	-2.256102e+02
2.600000e-06	-1.190828e-06	-4.223127e-09	-8.571353e+00	-2.785270e+02
2.610000e-06	-1.289468e-06	-5.042705e-09	-9.281345e+00	-3.320766e+02
2.620000e-06	-1.387633e-06	-5.866174e-09	-9.987920e+00	-3.859544e+02
2.630000e-06	-1.485251e-06	-6.691283e-09	-1.069056e+01	-4.397811e+02
2.640000e-06	-1.582326e-06	-7.508663e-09	-1.138928e+01	-4.931323e+02
2.650000e-06	-1.678812e-06	-8.309776e-09	-1.208377e+01	-5.455721e+02
2.660000e-06	-1.774798e-06	-9.090751e-09	-1.277466e+01	-5.966873e+02
2.670000e-06	-1.870337e-06	-9.848306e-09	-1.346233e+01	-6.461174e+02
2.680000e-06	-1.965291e-06	-1.057720e-08	-1.414579e+01	-6.935765e+02
2.690000e-06	-2.059374e-06	-1.127090e-08	-1.482298e+01	-7.388663e+02
2.700000e-06	-2.152386e-06	-1.192835e-08	-1.549247e+01	-7.818783e+02
2.710000e-06	-2.244439e-06	-1.255326e-08	-1.615505e+01	-8.225865e+02
2.720000e-06	-2.335769e-06	-1.314573e-08	-1.681242e+01	-8.610332e+02
2.730000e-06	-2.426364e-06	-1.370620e-08	-1.746451e+01	-8.973098e+02
2.740000e-06	-2.516030e-06	-1.423562e-08	-1.810991e+01	-9.315369e+02
2.750000e-06	-2.604761e-06	-1.473212e-08	-1.874858e+01	-9.638465e+02
2.760000e-06	-2.692731e-06	-1.519781e-08	-1.938177e+01	-9.943677e+02
2.770000e-06	-2.779966e-06	-1.563620e-08	-2.000967e+01	-1.023218e+03
2.780000e-06	-2.866165e-06	-1.605018e-08	-2.063012e+01	-1.050501e+03
2.790000e-06	-2.951070e-06	-1.644498e-08	-2.124125e+01	-1.076306e+03
2.800000e-06	-3.034852e-06	-1.682151e-08	-2.184429e+01	-1.100714e+03
2.810000e-06	-3.117687e-06	-1.717748e-08	-2.244052e+01	-1.123799e+03
2.820000e-06	-3.199548e-06	-1.751141e-08	-2.302974e+01	-1.145639e+03
2.830000e-06	-3.280342e-06	-1.782688e-08	-2.361128e+01	-1.166310e+03
2.840000e-06	-3.360063e-06	-1.812860e-08	-2.418509e+01	-1.185893e+03
2.850000e-06	-3.438537e-06	-1.841559e-08	-2.474994e+01	-1.204464e+03
2.860000e-06	-3.515485e-06	-1.868663e-08	-2.530380e+01	-1.222100e+03
2.870000e-06	-3.590951e-06	-1.894320e-08	-2.584698e+01	-1.238867e+03
2.880000e-06	-3.665011e-06	-1.918639e-08	-2.638006e+01	-1.254822e+03
2.890000e-06	-3.737789e-06	-1.941940e-08	-2.690390e+01	-1.270014e+03
2.900000e-06	-3.809366e-06	-1.964335e-08	-2.741910e+01	-1.284481e+03
2.910000e-06	-3.879468e-06	-1.985721e-08	-2.792368e+01	-1.298256e+03
2.920000e-06	-3.947957e-06	-2.006249e-08	-2.841665e+01	-1.311371e+03
2.930000e-06	-4.015080e-06	-2.025708e-08	-2.889978e+01	-1.323856e+03
2.940000e-06	-4.080815e-06	-2.043880e-08	-2.937294e+01	-1.335746e+03
