# Temperatura_=_88.36
# Concentracion g/m^3_=_28200.0
# C_Vs_to_Am_M_A/Vsm_=_65563218390.804596
# pendiente_HvsI_1/m_=_3716.3
# ordenada_HvsI_A/m_=_1297.0
# frecuencia_Hz_=_301761.0199635441

Tiempo_(s)	Campo_(V.s)	Magnetizacion_(V.s)	Campo_(kA/m)	Magnetizacion_(A/m)
0.000000e+00	-5.304302e-06	-2.638784e-08	-3.829808e+01	-1.726931e+03
1.000000e-08	-5.302321e-06	-2.637988e-08	-3.828378e+01	-1.726469e+03
2.000000e-08	-5.298476e-06	-2.636498e-08	-3.825602e+01	-1.725826e+03
3.000000e-08	-5.292993e-06	-2.634731e-08	-3.821643e+01	-1.724988e+03
4.000000e-08	-5.285900e-06	-2.633039e-08	-3.816522e+01	-1.723933e+03
5.000000e-08	-5.277167e-06	-2.631016e-08	-3.810217e+01	-1.722635e+03
6.000000e-08	-5.266538e-06	-2.628580e-08	-3.802542e+01	-1.721072e+03
7.000000e-08	-5.253894e-06	-2.625551e-08	-3.793413e+01	-1.719230e+03
8.000000e-08	-5.239374e-06	-2.621787e-08	-3.782929e+01	-1.717112e+03
9.000000e-08	-5.222718e-06	-2.621988e-08	-3.770903e+01	-1.714738e+03
1.000000e-07	-5.203853e-06	-2.621655e-08	-3.757283e+01	-1.712143e+03
1.100000e-07	-5.183047e-06	-2.613302e-08	-3.742260e+01	-1.709374e+03
1.200000e-07	-5.160424e-06	-2.605841e-08	-3.725926e+01	-1.706479e+03
1.300000e-07	-5.136238e-06	-2.597969e-08	-3.708463e+01	-1.703494e+03
1.400000e-07	-5.110617e-06	-2.588592e-08	-3.689964e+01	-1.700442e+03
1.500000e-07	-5.083322e-06	-2.595222e-08	-3.670256e+01	-1.697319e+03
1.600000e-07	-5.054413e-06	-2.590213e-08	-3.649383e+01	-1.694099e+03
1.700000e-07	-5.024094e-06	-2.575729e-08	-3.627493e+01	-1.690734e+03
1.800000e-07	-4.992124e-06	-2.581734e-08	-3.604410e+01	-1.687165e+03
1.900000e-07	-4.958086e-06	-2.570487e-08	-3.579834e+01	-1.683331e+03
2.000000e-07	-4.922251e-06	-2.555795e-08	-3.553960e+01	-1.679179e+03
2.100000e-07	-4.884938e-06	-2.559195e-08	-3.527020e+01	-1.674674e+03
2.200000e-07	-4.845891e-06	-2.545510e-08	-3.498827e+01	-1.669799e+03
2.300000e-07	-4.805066e-06	-2.533603e-08	-3.469350e+01	-1.664559e+03
2.400000e-07	-4.762304e-06	-2.530829e-08	-3.438475e+01	-1.658974e+03
2.500000e-07	-4.717551e-06	-2.519220e-08	-3.406163e+01	-1.653071e+03
2.600000e-07	-4.671077e-06	-2.514056e-08	-3.372608e+01	-1.646874e+03
2.700000e-07	-4.622862e-06	-2.502843e-08	-3.337796e+01	-1.640401e+03
2.800000e-07	-4.572664e-06	-2.485742e-08	-3.301552e+01	-1.633654e+03
2.900000e-07	-4.520412e-06	-2.475853e-08	-3.263825e+01	-1.626624e+03
3.000000e-07	-4.466310e-06	-2.466688e-08	-3.224762e+01	-1.619292e+03
3.100000e-07	-4.410555e-06	-2.457068e-08	-3.184505e+01	-1.611636e+03
3.200000e-07	-4.353165e-06	-2.444185e-08	-3.143069e+01	-1.603634e+03
3.300000e-07	-4.294078e-06	-2.430408e-08	-3.100407e+01	-1.595275e+03
3.400000e-07	-4.233405e-06	-2.416276e-08	-3.056600e+01	-1.586555e+03
3.500000e-07	-4.171305e-06	-2.400366e-08	-3.011763e+01	-1.577483e+03
3.600000e-07	-4.107855e-06	-2.387494e-08	-2.965951e+01	-1.568070e+03
3.700000e-07	-4.043014e-06	-2.374880e-08	-2.919134e+01	-1.558331e+03
3.800000e-07	-3.976535e-06	-2.360888e-08	-2.871135e+01	-1.548274e+03
3.900000e-07	-3.908474e-06	-2.342566e-08	-2.821994e+01	-1.537895e+03
4.000000e-07	-3.839088e-06	-2.323009e-08	-2.771896e+01	-1.527183e+03
4.100000e-07	-3.768458e-06	-2.308364e-08	-2.720899e+01	-1.516111e+03
4.200000e-07	-3.696677e-06	-2.291663e-08	-2.669072e+01	-1.504649e+03
4.300000e-07	-3.623654e-06	-2.273810e-08	-2.616348e+01	-1.492763e+03
4.400000e-07	-3.549090e-06	-2.254850e-08	-2.562512e+01	-1.480422e+03
4.500000e-07	-3.472947e-06	-2.234181e-08	-2.507535e+01	-1.467603e+03
4.600000e-07	-3.395455e-06	-2.213193e-08	-2.451584e+01	-1.454292e+03
4.700000e-07	-3.316697e-06	-2.192548e-08	-2.394719e+01	-1.440481e+03
4.800000e-07	-3.236521e-06	-2.172233e-08	-2.336831e+01	-1.426167e+03
4.900000e-07	-3.155007e-06	-2.149110e-08	-2.277976e+01	-1.411346e+03
5.000000e-07	-3.072430e-06	-2.124996e-08	-2.218354e+01	-1.396007e+03
5.100000e-07	-2.988841e-06	-2.100508e-08	-2.158001e+01	-1.380133e+03
5.200000e-07	-2.904408e-06	-2.075178e-08	-2.097038e+01	-1.363696e+03
5.300000e-07	-2.819142e-06	-2.049035e-08	-2.035475e+01	-1.346661e+03
5.400000e-07	-2.732916e-06	-2.022173e-08	-1.973218e+01	-1.328988e+03
5.500000e-07	-2.645726e-06	-1.994176e-08	-1.910265e+01	-1.310636e+03
5.600000e-07	-2.557582e-06	-1.964434e-08	-1.846624e+01	-1.291565e+03
5.700000e-07	-2.468551e-06	-1.933942e-08	-1.782341e+01	-1.271738e+03
5.800000e-07	-2.378451e-06	-1.902745e-08	-1.717287e+01	-1.251123e+03
5.900000e-07	-2.287214e-06	-1.870066e-08	-1.651412e+01	-1.229685e+03
6.000000e-07	-2.195128e-06	-1.835695e-08	-1.584925e+01	-1.207386e+03
6.100000e-07	-2.102424e-06	-1.799956e-08	-1.517991e+01	-1.184180e+03
6.200000e-07	-2.008984e-06	-1.763051e-08	-1.450525e+01	-1.160010e+03
6.300000e-07	-1.914757e-06	-1.724783e-08	-1.382491e+01	-1.134807e+03
6.400000e-07	-1.819903e-06	-1.684896e-08	-1.314005e+01	-1.108490e+03
6.500000e-07	-1.724404e-06	-1.642896e-08	-1.245053e+01	-1.080973e+03
6.600000e-07	-1.628336e-06	-1.598469e-08	-1.175690e+01	-1.052164e+03
6.700000e-07	-1.531798e-06	-1.552218e-08	-1.105988e+01	-1.021974e+03
6.800000e-07	-1.434687e-06	-1.504260e-08	-1.035871e+01	-9.903176e+02
6.900000e-07	-1.336946e-06	-1.454031e-08	-9.653010e+00	-9.571142e+02
7.000000e-07	-1.238589e-06	-1.401216e-08	-8.942852e+00	-9.222893e+02
7.100000e-07	-1.139692e-06	-1.345742e-08	-8.228800e+00	-8.857736e+02
7.200000e-07	-1.040406e-06	-1.287235e-08	-7.511935e+00	-8.475030e+02
7.300000e-07	-9.408005e-07	-1.225611e-08	-6.792761e+00	-8.074216e+02
7.400000e-07	-8.408811e-07	-1.161545e-08	-6.071324e+00	-7.654867e+02
7.500000e-07	-7.406848e-07	-1.095182e-08	-5.347887e+00	-7.216771e+02
7.600000e-07	-6.403063e-07	-1.025907e-08	-4.623135e+00	-6.760043e+02
7.700000e-07	-5.397792e-07	-9.535008e-09	-3.897310e+00	-6.285223e+02
7.800000e-07	-4.391339e-07	-8.786361e-09	-3.170632e+00	-5.793361e+02
7.900000e-07	-3.383800e-07	-8.015136e-09	-2.443169e+00	-5.286043e+02
8.000000e-07	-2.375451e-07	-7.221252e-09	-1.715122e+00	-4.765336e+02
8.100000e-07	-1.366276e-07	-6.410389e-09	-9.864776e-01	-4.233657e+02
8.200000e-07	-3.557526e-08	-5.587848e-09	-2.568602e-01	-3.693555e+02
8.300000e-07	6.557933e-08	-4.756612e-09	4.734954e-01	-3.147441e+02
8.400000e-07	1.666977e-07	-3.918633e-09	1.203590e+00	-2.597309e+02
8.500000e-07	2.677480e-07	-3.080231e-09	1.933192e+00	-2.044478e+02
8.600000e-07	3.687774e-07	-2.240906e-09	2.662644e+00	-1.489428e+02
8.700000e-07	4.697260e-07	-1.396323e-09	3.391512e+00	-9.317489e+01
8.800000e-07	5.705577e-07	-5.444263e-10	4.119536e+00	-3.702305e+01
8.900000e-07	6.712263e-07	3.184895e-10	4.846383e+00	1.969046e+01
9.000000e-07	7.717058e-07	1.196354e-09	5.571865e+00	7.716589e+01
9.100000e-07	8.719888e-07	2.089488e-09	6.295927e+00	1.355848e+02
9.200000e-07	9.720116e-07	2.994738e-09	7.018111e+00	1.950686e+02
9.300000e-07	1.071686e-06	3.914497e-09	7.737781e+00	2.556419e+02
9.400000e-07	1.171003e-06	4.849968e-09	8.454865e+00	3.172086e+02
9.500000e-07	1.269892e-06	5.798480e-09	9.168863e+00	3.795418e+02
9.600000e-07	1.368160e-06	6.753905e-09	9.878381e+00	4.422914e+02
9.700000e-07	1.465734e-06	7.710171e-09	1.058288e+01	5.050077e+02
9.800000e-07	1.562645e-06	8.658334e-09	1.128260e+01	5.671774e+02
9.900000e-07	1.658901e-06	9.589010e-09	1.197759e+01	6.282664e+02
1.000000e-06	1.754508e-06	1.049442e-08	1.266789e+01	6.877655e+02
1.010000e-06	1.849509e-06	1.136803e-08	1.335381e+01	7.452290e+02
1.020000e-06	1.943908e-06	1.220552e-08	1.403539e+01	8.003060e+02
1.030000e-06	2.037645e-06	1.300084e-08	1.471219e+01	8.527567e+02
1.040000e-06	2.130683e-06	1.375141e-08	1.538394e+01	9.024558e+02
1.050000e-06	2.223025e-06	1.445876e-08	1.605067e+01	9.493831e+02
1.060000e-06	2.314694e-06	1.512666e-08	1.671254e+01	9.936037e+02
1.070000e-06	2.405521e-06	1.575791e-08	1.736833e+01	1.035243e+03
1.080000e-06	2.495248e-06	1.635357e-08	1.801617e+01	1.074459e+03
1.090000e-06	2.583888e-06	1.691657e-08	1.865617e+01	1.111422e+03
1.100000e-06	2.671616e-06	1.744757e-08	1.928958e+01	1.146293e+03
1.110000e-06	2.758543e-06	1.794852e-08	1.991721e+01	1.179217e+03
1.120000e-06	2.844583e-06	1.841987e-08	2.053844e+01	1.210318e+03
1.130000e-06	2.929635e-06	1.886347e-08	2.115253e+01	1.239702e+03
1.140000e-06	3.013845e-06	1.928116e-08	2.176054e+01	1.267464e+03
1.150000e-06	3.097157e-06	1.967712e-08	2.236207e+01	1.293694e+03
1.160000e-06	3.179323e-06	2.005519e-08	2.295533e+01	1.318486e+03
1.170000e-06	3.260303e-06	2.041409e-08	2.354002e+01	1.341936e+03
1.180000e-06	3.340122e-06	2.075330e-08	2.411633e+01	1.364144e+03
1.190000e-06	3.418733e-06	2.107399e-08	2.468391e+01	1.385209e+03
1.200000e-06	3.496114e-06	2.137810e-08	2.524262e+01	1.405227e+03
1.210000e-06	3.572308e-06	2.166732e-08	2.579275e+01	1.424279e+03
1.220000e-06	3.647083e-06	2.194209e-08	2.633264e+01	1.442435e+03
1.230000e-06	3.720227e-06	2.220226e-08	2.686075e+01	1.459746e+03
1.240000e-06	3.791944e-06	2.245074e-08	2.737856e+01	1.476251e+03
1.250000e-06	3.862372e-06	2.268720e-08	2.788707e+01	1.491979e+03
1.260000e-06	3.931480e-06	2.291250e-08	2.838604e+01	1.506955e+03
1.270000e-06	3.999245e-06	2.312747e-08	2.887532e+01	1.521205e+03
1.280000e-06	4.065466e-06	2.333182e-08	2.935345e+01	1.534760e+03
1.290000e-06	4.130059e-06	2.352711e-08	2.981982e+01	1.547658e+03
1.300000e-06	4.193151e-06	2.371384e-08	3.027536e+01	1.559943e+03
1.310000e-06	4.254841e-06	2.389201e-08	3.072077e+01	1.571657e+03
1.320000e-06	4.315266e-06	2.406281e-08	3.115705e+01	1.582842e+03
1.330000e-06	4.374249e-06	2.422511e-08	3.158292e+01	1.593529e+03
1.340000e-06	4.431426e-06	2.438024e-08	3.199575e+01	1.603739e+03
1.350000e-06	4.486868e-06	2.452952e-08	3.239605e+01	1.613481e+03
1.360000e-06	4.540726e-06	2.467066e-08	3.278492e+01	1.622753e+03
1.370000e-06	4.592841e-06	2.480282e-08	3.316120e+01	1.631551e+03
1.380000e-06	4.642915e-06	2.492854e-08	3.352274e+01	1.639871e+03
1.390000e-06	4.691041e-06	2.504941e-08	3.387022e+01	1.647712e+03
1.400000e-06	4.737577e-06	2.516385e-08	3.420622e+01	1.655086e+03
1.410000e-06	4.782622e-06	2.527239e-08	3.453145e+01	1.662013e+03
1.420000e-06	4.826085e-06	2.537336e-08	3.484527e+01	1.668525e+03
1.430000e-06	4.867637e-06	2.546396e-08	3.514528e+01	1.674656e+03
1.440000e-06	4.907306e-06	2.554706e-08	3.543170e+01	1.680439e+03
1.450000e-06	4.945371e-06	2.562745e-08	3.570654e+01	1.685904e+03
1.460000e-06	4.981923e-06	2.570560e-08	3.597044e+01	1.691071e+03
1.470000e-06	5.016780e-06	2.577995e-08	3.622212e+01	1.695947e+03
1.480000e-06	5.049719e-06	2.585068e-08	3.645994e+01	1.700533e+03
1.490000e-06	5.080886e-06	2.591682e-08	3.668498e+01	1.704820e+03
1.500000e-06	5.110415e-06	2.597887e-08	3.689818e+01	1.708800e+03
1.510000e-06	5.138306e-06	2.603555e-08	3.709956e+01	1.712463e+03
1.520000e-06	5.164240e-06	2.608612e-08	3.728681e+01	1.715805e+03
1.530000e-06	5.188106e-06	2.613222e-08	3.745912e+01	1.718830e+03
1.540000e-06	5.210143e-06	2.617278e-08	3.761824e+01	1.721542e+03
1.550000e-06	5.230493e-06	2.620883e-08	3.776517e+01	1.723953e+03
1.560000e-06	5.249063e-06	2.623936e-08	3.789925e+01	1.726072e+03
1.570000e-06	5.265629e-06	2.626559e-08	3.801886e+01	1.727908e+03
1.580000e-06	5.280232e-06	2.628910e-08	3.812429e+01	1.729467e+03
1.590000e-06	5.292908e-06	2.630856e-08	3.821582e+01	1.730753e+03
1.600000e-06	5.303411e-06	2.632556e-08	3.829165e+01	1.731771e+03
1.610000e-06	5.311756e-06	2.633818e-08	3.835191e+01	1.732527e+03
1.620000e-06	5.318233e-06	2.634660e-08	3.839867e+01	1.733031e+03
1.630000e-06	5.322956e-06	2.635186e-08	3.843277e+01	1.733300e+03
1.640000e-06	5.325846e-06	2.635364e-08	3.845364e+01	1.733350e+03
1.650000e-06	5.326728e-06	2.635408e-08	3.846000e+01	1.733202e+03
1.660000e-06	5.325757e-06	2.635132e-08	3.845299e+01	1.732867e+03
1.670000e-06	5.323145e-06	2.634286e-08	3.843414e+01	1.732354e+03
1.680000e-06	5.318914e-06	2.633476e-08	3.840358e+01	1.731655e+03
1.690000e-06	5.312806e-06	2.632280e-08	3.835949e+01	1.730756e+03
1.700000e-06	5.304829e-06	2.630486e-08	3.830189e+01	1.729633e+03
1.710000e-06	5.295275e-06	2.628419e-08	3.823290e+01	1.728261e+03
1.720000e-06	5.284099e-06	2.626575e-08	3.815221e+01	1.726618e+03
1.730000e-06	5.271024e-06	2.625576e-08	3.805781e+01	1.724695e+03
1.740000e-06	5.255941e-06	2.618765e-08	3.794891e+01	1.722499e+03
1.750000e-06	5.238811e-06	2.609489e-08	3.782523e+01	1.720057e+03
1.760000e-06	5.219242e-06	2.609186e-08	3.768394e+01	1.717406e+03
1.770000e-06	5.197094e-06	2.607978e-08	3.752402e+01	1.714596e+03
1.780000e-06	5.173103e-06	2.609585e-08	3.735080e+01	1.711670e+03
1.790000e-06	5.148230e-06	2.605767e-08	3.717121e+01	1.708664e+03
1.800000e-06	5.122450e-06	2.585475e-08	3.698507e+01	1.705592e+03
1.810000e-06	5.094837e-06	2.590050e-08	3.678571e+01	1.702444e+03
1.820000e-06	5.065129e-06	2.590964e-08	3.657121e+01	1.699186e+03
1.830000e-06	5.033726e-06	2.574099e-08	3.634447e+01	1.695769e+03
1.840000e-06	5.000481e-06	2.586666e-08	3.610444e+01	1.692129e+03
1.850000e-06	4.965520e-06	2.582544e-08	3.585201e+01	1.688208e+03
1.860000e-06	4.929026e-06	2.562230e-08	3.558852e+01	1.683956e+03
1.870000e-06	4.890598e-06	2.567725e-08	3.531106e+01	1.679345e+03
1.880000e-06	4.850431e-06	2.555374e-08	3.502105e+01	1.674363e+03
1.890000e-06	4.808643e-06	2.546194e-08	3.471933e+01	1.669021e+03
1.900000e-06	4.765096e-06	2.544131e-08	3.440491e+01	1.663342e+03
1.910000e-06	4.719864e-06	2.521997e-08	3.407833e+01	1.657351e+03
1.920000e-06	4.672719e-06	2.525537e-08	3.373793e+01	1.651073e+03
1.930000e-06	4.623785e-06	2.521032e-08	3.338462e+01	1.644520e+03
1.940000e-06	4.573209e-06	2.500766e-08	3.301945e+01	1.637693e+03
1.950000e-06	4.520654e-06	2.493561e-08	3.263999e+01	1.630578e+03
1.960000e-06	4.466133e-06	2.477906e-08	3.224634e+01	1.623154e+03
1.970000e-06	4.409871e-06	2.469957e-08	3.184012e+01	1.615400e+03
1.980000e-06	4.352020e-06	2.455467e-08	3.142243e+01	1.607296e+03
1.990000e-06	4.292719e-06	2.440942e-08	3.099426e+01	1.598833e+03
2.000000e-06	4.232009e-06	2.437806e-08	3.055592e+01	1.590010e+03
2.010000e-06	4.169730e-06	2.416719e-08	3.010625e+01	1.580838e+03
2.020000e-06	4.105742e-06	2.400466e-08	2.964425e+01	1.571330e+03
2.030000e-06	4.040287e-06	2.385261e-08	2.917165e+01	1.561498e+03
2.040000e-06	3.973495e-06	2.372027e-08	2.868940e+01	1.551348e+03
2.050000e-06	3.905335e-06	2.360738e-08	2.819727e+01	1.540875e+03
2.060000e-06	3.835704e-06	2.338006e-08	2.769453e+01	1.530062e+03
2.070000e-06	3.764552e-06	2.323609e-08	2.718079e+01	1.518881e+03
2.080000e-06	3.692086e-06	2.304400e-08	2.665758e+01	1.507300e+03
2.090000e-06	3.618330e-06	2.285505e-08	2.612504e+01	1.495285e+03
2.100000e-06	3.543190e-06	2.269047e-08	2.558251e+01	1.482808e+03
2.110000e-06	3.466685e-06	2.248248e-08	2.503013e+01	1.469849e+03
2.120000e-06	3.388711e-06	2.229341e-08	2.446715e+01	1.456395e+03
2.130000e-06	3.309386e-06	2.205389e-08	2.389440e+01	1.442439e+03
2.140000e-06	3.228938e-06	2.184276e-08	2.331355e+01	1.427980e+03
2.150000e-06	3.147411e-06	2.161398e-08	2.272492e+01	1.413011e+03
2.160000e-06	3.064823e-06	2.138142e-08	2.212861e+01	1.397520e+03
2.170000e-06	2.981200e-06	2.115555e-08	2.152484e+01	1.381487e+03
2.180000e-06	2.896592e-06	2.089384e-08	2.091395e+01	1.364882e+03
2.190000e-06	2.810783e-06	2.063145e-08	2.029439e+01	1.347668e+03
2.200000e-06	2.723699e-06	2.035248e-08	1.966563e+01	1.329804e+03
2.210000e-06	2.635622e-06	2.008143e-08	1.902970e+01	1.311249e+03
2.220000e-06	2.546731e-06	1.978677e-08	1.838789e+01	1.291964e+03
2.230000e-06	2.456951e-06	1.947857e-08	1.773966e+01	1.271915e+03
2.240000e-06	2.366353e-06	1.916620e-08	1.708552e+01	1.251067e+03
2.250000e-06	2.275032e-06	1.884207e-08	1.642617e+01	1.229386e+03
2.260000e-06	2.182948e-06	1.850399e-08	1.576131e+01	1.206832e+03
2.270000e-06	2.090101e-06	1.814093e-08	1.509093e+01	1.183356e+03
2.280000e-06	1.996329e-06	1.776916e-08	1.441388e+01	1.158897e+03
2.290000e-06	1.901519e-06	1.737733e-08	1.372933e+01	1.133383e+03
2.300000e-06	1.805913e-06	1.696955e-08	1.303904e+01	1.106731e+03
2.310000e-06	1.709832e-06	1.654450e-08	1.234532e+01	1.078853e+03
2.320000e-06	1.613317e-06	1.610256e-08	1.164846e+01	1.049657e+03
2.330000e-06	1.516318e-06	1.563849e-08	1.094811e+01	1.019056e+03
2.340000e-06	1.418812e-06	1.514560e-08	1.024409e+01	9.869642e+02
2.350000e-06	1.320832e-06	1.462917e-08	9.536659e+00	9.533037e+02
2.360000e-06	1.222516e-06	1.409268e-08	8.826802e+00	9.180015e+02
2.370000e-06	1.123873e-06	1.353535e-08	8.114580e+00	8.809894e+02
2.380000e-06	1.024895e-06	1.294511e-08	7.399936e+00	8.422056e+02
2.390000e-06	9.256614e-07	1.232130e-08	6.683454e+00	8.015971e+02
2.400000e-06	8.261327e-07	1.166821e-08	5.964837e+00	7.591263e+02
2.410000e-06	7.262752e-07	1.098919e-08	5.243847e+00	7.147804e+02
2.420000e-06	6.261655e-07	1.028277e-08	4.521036e+00	6.685818e+02
2.430000e-06	5.258255e-07	9.551337e-09	3.796562e+00	6.205987e+02
2.440000e-06	4.252751e-07	8.797084e-09	3.070568e+00	5.709514e+02
2.450000e-06	3.246353e-07	8.018706e-09	2.343929e+00	5.198129e+02
2.460000e-06	2.239481e-07	7.215785e-09	1.616948e+00	4.674019e+02
2.470000e-06	1.231478e-07	6.395142e-09	8.891508e-01	4.139662e+02
2.480000e-06	2.224489e-08	5.566932e-09	1.606124e-01	3.597598e+02
2.490000e-06	-7.869910e-08	4.730956e-09	-5.682227e-01	3.050147e+02
2.500000e-06	-1.796024e-07	3.885681e-09	-1.296764e+00	2.499131e+02
2.510000e-06	-2.803901e-07	3.036256e-09	-2.024471e+00	1.945645e+02
2.520000e-06	-3.810565e-07	2.186103e-09	-2.751302e+00	1.389912e+02
2.530000e-06	-4.816800e-07	1.331762e-09	-3.477822e+00	8.312784e+01
2.540000e-06	-5.822207e-07	4.701897e-10	-4.203746e+00	2.683422e+01
2.550000e-06	-6.825112e-07	-4.004659e-10	-4.927863e+00	-3.007772e+01
2.560000e-06	-7.825324e-07	-1.282879e-09	-5.650035e+00	-8.780723e+01
2.570000e-06	-8.822991e-07	-2.179108e-09	-6.370370e+00	-1.465228e+02
2.580000e-06	-9.816989e-07	-3.092229e-09	-7.088056e+00	-2.063214e+02
2.590000e-06	-1.080710e-06	-4.022257e-09	-7.802934e+00	-2.671952e+02
2.600000e-06	-1.179405e-06	-4.966182e-09	-8.515529e+00	-3.290109e+02
2.610000e-06	-1.277755e-06	-5.919722e-09	-9.225634e+00	-3.915048e+02
2.620000e-06	-1.375653e-06	-6.878172e-09	-9.932479e+00	-4.542955e+02
2.630000e-06	-1.473006e-06	-7.836503e-09	-1.063539e+01	-5.169109e+02
2.640000e-06	-1.569805e-06	-8.783487e-09	-1.133429e+01	-5.788272e+02
2.650000e-06	-1.666134e-06	-9.710956e-09	-1.202981e+01	-6.395130e+02
2.660000e-06	-1.762025e-06	-1.061325e-08	-1.272216e+01	-6.984734e+02
2.670000e-06	-1.857382e-06	-1.148486e-08	-1.341065e+01	-7.552874e+02
2.680000e-06	-1.951970e-06	-1.231975e-08	-1.409360e+01	-8.096346e+02
2.690000e-06	-2.045658e-06	-1.311068e-08	-1.477004e+01	-8.613081e+02
2.700000e-06	-2.138449e-06	-1.385950e-08	-1.544001e+01	-9.102144e+02
2.710000e-06	-2.230395e-06	-1.456936e-08	-1.610388e+01	-9.563597e+02
2.720000e-06	-2.321544e-06	-1.523914e-08	-1.676200e+01	-9.998291e+02
2.730000e-06	-2.411845e-06	-1.586964e-08	-1.741398e+01	-1.040760e+03
2.740000e-06	-2.501291e-06	-1.646304e-08	-1.805981e+01	-1.079316e+03
2.750000e-06	-2.589909e-06	-1.702165e-08	-1.869964e+01	-1.115667e+03
2.760000e-06	-2.677781e-06	-1.754740e-08	-1.933409e+01	-1.149969e+03
2.770000e-06	-2.764882e-06	-1.804177e-08	-1.996298e+01	-1.182362e+03
2.780000e-06	-2.850861e-06	-1.850974e-08	-2.058377e+01	-1.212963e+03
2.790000e-06	-2.935583e-06	-1.895318e-08	-2.119547e+01	-1.241875e+03
2.800000e-06	-3.019226e-06	-1.936983e-08	-2.179940e+01	-1.269191e+03
2.810000e-06	-3.101870e-06	-1.976370e-08	-2.239610e+01	-1.295002e+03
2.820000e-06	-3.183487e-06	-2.013787e-08	-2.298539e+01	-1.319402e+03
2.830000e-06	-3.264073e-06	-2.049232e-08	-2.356724e+01	-1.342488e+03
2.840000e-06	-3.343629e-06	-2.082846e-08	-2.414165e+01	-1.364360e+03
2.850000e-06	-3.421956e-06	-2.114736e-08	-2.470719e+01	-1.385118e+03
2.860000e-06	-3.498849e-06	-2.145082e-08	-2.526236e+01	-1.404853e+03
2.870000e-06	-3.574259e-06	-2.173960e-08	-2.580684e+01	-1.423644e+03
2.880000e-06	-3.648256e-06	-2.201404e-08	-2.634111e+01	-1.441555e+03
2.890000e-06	-3.720900e-06	-2.227499e-08	-2.686561e+01	-1.458634e+03
2.900000e-06	-3.792272e-06	-2.252441e-08	-2.738094e+01	-1.474915e+03
2.910000e-06	-3.862198e-06	-2.276394e-08	-2.788582e+01	-1.490427e+03
2.920000e-06	-3.930548e-06	-2.299326e-08	-2.837932e+01	-1.505194e+03
2.930000e-06	-3.997557e-06	-2.321213e-08	-2.886313e+01	-1.519243e+03
2.940000e-06	-4.063250e-06	-2.342008e-08	-2.933745e+01	-1.532607e+03
