# Temperatura_=_25.54
# Concentracion g/m^3_=_28200.0
# C_Vs_to_Am_M_A/Vsm_=_65563218390.804596
# pendiente_HvsI_1/m_=_3716.3
# ordenada_HvsI_A/m_=_1297.0
# frecuencia_Hz_=_301781.4498193065

Tiempo_(s)	Campo_(V.s)	Magnetizacion_(V.s)	Campo_(kA/m)	Magnetizacion_(A/m)
0.000000e+00	-5.300574e-06	-1.802721e-08	-3.828741e+01	-1.177825e+03
1.000000e-08	-5.298426e-06	-1.802445e-08	-3.827189e+01	-1.177534e+03
2.000000e-08	-5.294445e-06	-1.801524e-08	-3.824313e+01	-1.177134e+03
3.000000e-08	-5.288788e-06	-1.800401e-08	-3.820227e+01	-1.176615e+03
4.000000e-08	-5.281573e-06	-1.799167e-08	-3.815016e+01	-1.175955e+03
5.000000e-08	-5.272762e-06	-1.797546e-08	-3.808651e+01	-1.175126e+03
6.000000e-08	-5.261991e-06	-1.795443e-08	-3.800872e+01	-1.174102e+03
7.000000e-08	-5.249275e-06	-1.792458e-08	-3.791686e+01	-1.172869e+03
8.000000e-08	-5.234604e-06	-1.789903e-08	-3.781089e+01	-1.171427e+03
9.000000e-08	-5.217723e-06	-1.792064e-08	-3.768896e+01	-1.169797e+03
1.000000e-07	-5.198737e-06	-1.791313e-08	-3.755181e+01	-1.168016e+03
1.100000e-07	-5.177834e-06	-1.784973e-08	-3.740082e+01	-1.166129e+03
1.200000e-07	-5.155134e-06	-1.781036e-08	-3.723686e+01	-1.164183e+03
1.300000e-07	-5.130885e-06	-1.772848e-08	-3.706170e+01	-1.162214e+03
1.400000e-07	-5.105100e-06	-1.768509e-08	-3.687545e+01	-1.160238e+03
1.500000e-07	-5.077699e-06	-1.776045e-08	-3.667753e+01	-1.158250e+03
1.600000e-07	-5.048817e-06	-1.765312e-08	-3.646890e+01	-1.156218e+03
1.700000e-07	-5.018523e-06	-1.758562e-08	-3.625008e+01	-1.154095e+03
1.800000e-07	-4.986433e-06	-1.765446e-08	-3.601829e+01	-1.151825e+03
1.900000e-07	-4.952189e-06	-1.752297e-08	-3.577093e+01	-1.149353e+03
2.000000e-07	-4.916277e-06	-1.749209e-08	-3.551153e+01	-1.146636e+03
2.100000e-07	-4.878871e-06	-1.752479e-08	-3.524134e+01	-1.143648e+03
2.200000e-07	-4.839757e-06	-1.737315e-08	-3.495881e+01	-1.140384e+03
2.300000e-07	-4.798824e-06	-1.730590e-08	-3.466314e+01	-1.136854e+03
2.400000e-07	-4.755876e-06	-1.726991e-08	-3.435292e+01	-1.133080e+03
2.500000e-07	-4.711059e-06	-1.718924e-08	-3.402919e+01	-1.129084e+03
2.600000e-07	-4.664549e-06	-1.719264e-08	-3.369324e+01	-1.124885e+03
2.700000e-07	-4.616154e-06	-1.710954e-08	-3.334366e+01	-1.120491e+03
2.800000e-07	-4.565644e-06	-1.696433e-08	-3.297882e+01	-1.115897e+03
2.900000e-07	-4.513168e-06	-1.687825e-08	-3.259977e+01	-1.111091e+03
3.000000e-07	-4.458989e-06	-1.684379e-08	-3.220843e+01	-1.106053e+03
3.100000e-07	-4.403258e-06	-1.679399e-08	-3.180587e+01	-1.100766e+03
3.200000e-07	-4.345771e-06	-1.669522e-08	-3.139062e+01	-1.095217e+03
3.300000e-07	-4.286529e-06	-1.660631e-08	-3.096270e+01	-1.089405e+03
3.400000e-07	-4.225829e-06	-1.649101e-08	-3.052425e+01	-1.083336e+03
3.500000e-07	-4.163703e-06	-1.636634e-08	-3.007550e+01	-1.077023e+03
3.600000e-07	-4.100192e-06	-1.627830e-08	-2.961674e+01	-1.070478e+03
3.700000e-07	-4.035233e-06	-1.620811e-08	-2.914753e+01	-1.063714e+03
3.800000e-07	-3.968665e-06	-1.612669e-08	-2.866669e+01	-1.056731e+03
3.900000e-07	-3.900514e-06	-1.598547e-08	-2.817441e+01	-1.049522e+03
4.000000e-07	-3.831009e-06	-1.584412e-08	-2.767236e+01	-1.042069e+03
4.100000e-07	-3.760327e-06	-1.574113e-08	-2.716181e+01	-1.034347e+03
4.200000e-07	-3.688532e-06	-1.562469e-08	-2.664322e+01	-1.026331e+03
4.300000e-07	-3.615402e-06	-1.550094e-08	-2.611498e+01	-1.017996e+03
4.400000e-07	-3.540670e-06	-1.536615e-08	-2.557517e+01	-1.009324e+03
4.500000e-07	-3.464430e-06	-1.521601e-08	-2.502447e+01	-1.000307e+03
4.600000e-07	-3.386800e-06	-1.506300e-08	-2.446372e+01	-9.909378e+02
4.700000e-07	-3.307786e-06	-1.492584e-08	-2.389299e+01	-9.812165e+02
4.800000e-07	-3.227481e-06	-1.478823e-08	-2.331292e+01	-9.711409e+02
4.900000e-07	-3.146015e-06	-1.462015e-08	-2.272447e+01	-9.607042e+02
5.000000e-07	-3.063453e-06	-1.444673e-08	-2.212811e+01	-9.498929e+02
5.100000e-07	-2.979938e-06	-1.427135e-08	-2.152486e+01	-9.386860e+02
5.200000e-07	-2.895612e-06	-1.408969e-08	-2.091575e+01	-9.270562e+02
5.300000e-07	-2.810382e-06	-1.390365e-08	-2.030011e+01	-9.149731e+02
5.400000e-07	-2.724200e-06	-1.371347e-08	-1.967759e+01	-9.024054e+02
5.500000e-07	-2.637168e-06	-1.351338e-08	-1.904894e+01	-8.893242e+02
5.600000e-07	-2.549232e-06	-1.329701e-08	-1.841375e+01	-8.757029e+02
5.700000e-07	-2.460190e-06	-1.307929e-08	-1.777058e+01	-8.615176e+02
5.800000e-07	-2.369972e-06	-1.285973e-08	-1.711891e+01	-8.467445e+02
5.900000e-07	-2.278766e-06	-1.262929e-08	-1.646011e+01	-8.313573e+02
6.000000e-07	-2.186770e-06	-1.238073e-08	-1.579560e+01	-8.153250e+02
6.100000e-07	-2.094067e-06	-1.211813e-08	-1.512598e+01	-7.986109e+02
6.200000e-07	-2.000668e-06	-1.185004e-08	-1.445134e+01	-7.811730e+02
6.300000e-07	-1.906546e-06	-1.157657e-08	-1.377147e+01	-7.629655e+02
6.400000e-07	-1.811709e-06	-1.129292e-08	-1.308644e+01	-7.439424e+02
6.500000e-07	-1.716279e-06	-1.098884e-08	-1.239713e+01	-7.240599e+02
6.600000e-07	-1.620311e-06	-1.066353e-08	-1.170392e+01	-7.032790e+02
6.700000e-07	-1.523691e-06	-1.032537e-08	-1.100601e+01	-6.815662e+02
6.800000e-07	-1.426415e-06	-9.979620e-09	-1.030336e+01	-6.588929e+02
6.900000e-07	-1.328557e-06	-9.623585e-09	-9.596505e+00	-6.352344e+02
7.000000e-07	-1.230157e-06	-9.252225e-09	-8.885737e+00	-6.105678e+02
7.100000e-07	-1.131296e-06	-8.860947e-09	-8.171645e+00	-5.848720e+02
7.200000e-07	-1.032058e-06	-8.446114e-09	-7.454820e+00	-5.581298e+02
7.300000e-07	-9.324699e-07	-8.013521e-09	-6.735469e+00	-5.303312e+02
7.400000e-07	-8.326133e-07	-7.572459e-09	-6.014180e+00	-5.014804e+02
7.500000e-07	-7.325172e-07	-7.123383e-09	-5.291160e+00	-4.716024e+02
7.600000e-07	-6.321912e-07	-6.657510e-09	-4.566479e+00	-4.407498e+02
7.700000e-07	-5.316816e-07	-6.173866e-09	-3.840472e+00	-4.090065e+02
7.800000e-07	-4.310218e-07	-5.678644e-09	-3.113381e+00	-3.764886e+02
7.900000e-07	-3.302703e-07	-5.173527e-09	-2.385627e+00	-3.433393e+02
8.000000e-07	-2.294649e-07	-4.660301e-09	-1.657484e+00	-3.097197e+02
8.100000e-07	-1.285662e-07	-4.144862e-09	-9.286664e-01	-2.757959e+02
8.200000e-07	-2.756900e-08	-3.629408e-09	-1.991380e-01	-2.417242e+02
8.300000e-07	7.345619e-08	-3.111852e-09	5.305929e-01	-2.076360e+02
8.400000e-07	1.744915e-07	-2.594543e-09	1.260397e+00	-1.736256e+02
8.500000e-07	2.754891e-07	-2.081663e-09	1.989929e+00	-1.397421e+02
8.600000e-07	3.763946e-07	-1.573920e-09	2.718795e+00	-1.059862e+02
8.700000e-07	4.772052e-07	-1.066466e-09	3.446976e+00	-7.231256e+01
8.800000e-07	5.778852e-07	-5.570981e-10	4.174213e+00	-3.863704e+01
8.900000e-07	6.784344e-07	-4.634653e-11	4.900506e+00	-4.847756e+00
9.000000e-07	7.788195e-07	4.685407e-10	5.625614e+00	2.918146e+01
9.100000e-07	8.790019e-07	9.921003e-10	6.349256e+00	6.357654e+01
9.200000e-07	9.789651e-07	1.523951e-09	7.071316e+00	9.844879e+01
9.300000e-07	1.078595e-06	2.063652e-09	7.790966e+00	1.338818e+02
9.400000e-07	1.177790e-06	2.613563e-09	8.507480e+00	1.699203e+02
9.500000e-07	1.276512e-06	3.171323e-09	9.220575e+00	2.065617e+02
9.600000e-07	1.374702e-06	3.734574e-09	9.929824e+00	2.437511e+02
9.700000e-07	1.472242e-06	4.304244e-09	1.063438e+01	2.813799e+02
9.800000e-07	1.569060e-06	4.879536e-09	1.133373e+01	3.192895e+02
9.900000e-07	1.665192e-06	5.458212e-09	1.202811e+01	3.572785e+02
1.000000e-06	1.760699e-06	6.036186e-09	1.271798e+01	3.951147e+02
1.010000e-06	1.855615e-06	6.606787e-09	1.340358e+01	4.325506e+02
1.020000e-06	1.949891e-06	7.166765e-09	1.408456e+01	4.693402e+02
1.030000e-06	2.043420e-06	7.713774e-09	1.476015e+01	5.052562e+02
1.040000e-06	2.136242e-06	8.241683e-09	1.543063e+01	5.401044e+02
1.050000e-06	2.228432e-06	8.749336e-09	1.609654e+01	5.737345e+02
1.060000e-06	2.319958e-06	9.237116e-09	1.675766e+01	6.060450e+02
1.070000e-06	2.410585e-06	9.706537e-09	1.741227e+01	6.369829e+02
1.080000e-06	2.500134e-06	1.015586e-08	1.805911e+01	6.665371e+02
1.090000e-06	2.588677e-06	1.058367e-08	1.869868e+01	6.947286e+02
1.100000e-06	2.676285e-06	1.099176e-08	1.933149e+01	7.215988e+02
1.110000e-06	2.763033e-06	1.137982e-08	1.995810e+01	7.471980e+02
1.120000e-06	2.848879e-06	1.174968e-08	2.057818e+01	7.715769e+02
1.130000e-06	2.933800e-06	1.210095e-08	2.119159e+01	7.947810e+02
1.140000e-06	3.017864e-06	1.243541e-08	2.179881e+01	8.168495e+02
1.150000e-06	3.101035e-06	1.275416e-08	2.239957e+01	8.378171e+02
1.160000e-06	3.183067e-06	1.305648e-08	2.299211e+01	8.577177e+02
1.170000e-06	3.263857e-06	1.334254e-08	2.357568e+01	8.765890e+02
1.180000e-06	3.343514e-06	1.361305e-08	2.415106e+01	8.944754e+02
1.190000e-06	3.422021e-06	1.386933e-08	2.471814e+01	9.114290e+02
1.200000e-06	3.499315e-06	1.411267e-08	2.527645e+01	9.275080e+02
1.210000e-06	3.575414e-06	1.434343e-08	2.582613e+01	9.427736e+02
1.220000e-06	3.650154e-06	1.456227e-08	2.636600e+01	9.572853e+02
1.230000e-06	3.723250e-06	1.477004e-08	2.689399e+01	9.710970e+02
1.240000e-06	3.794822e-06	1.496819e-08	2.741097e+01	9.842539e+02
1.250000e-06	3.865036e-06	1.515674e-08	2.791814e+01	9.967915e+02
1.260000e-06	3.933943e-06	1.533588e-08	2.841588e+01	1.008736e+03
1.270000e-06	4.001563e-06	1.550562e-08	2.890432e+01	1.020108e+03
1.280000e-06	4.067645e-06	1.566704e-08	2.938165e+01	1.030922e+03
1.290000e-06	4.132057e-06	1.582254e-08	2.984691e+01	1.041194e+03
1.300000e-06	4.195025e-06	1.597267e-08	3.030174e+01	1.050940e+03
1.310000e-06	4.256612e-06	1.611507e-08	3.074660e+01	1.060175e+03
1.320000e-06	4.316819e-06	1.624933e-08	3.118149e+01	1.068918e+03
1.330000e-06	4.375572e-06	1.637553e-08	3.160588e+01	1.077188e+03
1.340000e-06	4.432589e-06	1.649332e-08	3.201773e+01	1.085002e+03
1.350000e-06	4.487932e-06	1.660397e-08	3.241748e+01	1.092378e+03
1.360000e-06	4.541738e-06	1.670683e-08	3.280614e+01	1.099334e+03
1.370000e-06	4.593794e-06	1.680291e-08	3.318216e+01	1.105889e+03
1.380000e-06	4.643839e-06	1.689342e-08	3.354364e+01	1.112066e+03
1.390000e-06	4.691948e-06	1.698045e-08	3.389114e+01	1.117891e+03
1.400000e-06	4.738354e-06	1.706469e-08	3.422635e+01	1.123392e+03
1.410000e-06	4.783189e-06	1.714570e-08	3.455020e+01	1.128599e+03
1.420000e-06	4.826494e-06	1.722241e-08	3.486301e+01	1.133539e+03
1.430000e-06	4.868006e-06	1.729271e-08	3.516286e+01	1.138233e+03
1.440000e-06	4.907667e-06	1.735826e-08	3.544934e+01	1.142695e+03
1.450000e-06	4.945702e-06	1.742153e-08	3.572407e+01	1.146927e+03
1.460000e-06	4.982188e-06	1.748203e-08	3.598763e+01	1.150923e+03
1.470000e-06	5.016998e-06	1.753864e-08	3.623906e+01	1.154671e+03
1.480000e-06	5.049848e-06	1.759073e-08	3.647635e+01	1.158157e+03
1.490000e-06	5.080840e-06	1.763840e-08	3.670022e+01	1.161370e+03
1.500000e-06	5.110202e-06	1.768167e-08	3.691230e+01	1.164305e+03
1.510000e-06	5.137899e-06	1.772086e-08	3.711237e+01	1.166969e+03
1.520000e-06	5.163681e-06	1.775585e-08	3.729859e+01	1.169377e+03
1.530000e-06	5.187404e-06	1.778677e-08	3.746995e+01	1.171550e+03
1.540000e-06	5.209264e-06	1.781338e-08	3.762785e+01	1.173512e+03
1.550000e-06	5.229450e-06	1.783736e-08	3.777366e+01	1.175282e+03
1.560000e-06	5.247886e-06	1.786027e-08	3.790683e+01	1.176872e+03
1.570000e-06	5.264338e-06	1.788097e-08	3.802567e+01	1.178286e+03
1.580000e-06	5.278817e-06	1.789941e-08	3.813025e+01	1.179516e+03
1.590000e-06	5.291342e-06	1.791422e-08	3.822072e+01	1.180553e+03
1.600000e-06	5.301716e-06	1.792616e-08	3.829566e+01	1.181385e+03
1.610000e-06	5.309990e-06	1.793563e-08	3.835542e+01	1.182006e+03
1.620000e-06	5.316350e-06	1.794313e-08	3.840136e+01	1.182421e+03
1.630000e-06	5.320940e-06	1.794880e-08	3.843451e+01	1.182643e+03
1.640000e-06	5.323717e-06	1.795202e-08	3.845458e+01	1.182694e+03
1.650000e-06	5.324468e-06	1.795344e-08	3.846000e+01	1.182600e+03
1.660000e-06	5.323319e-06	1.794962e-08	3.845170e+01	1.182383e+03
1.670000e-06	5.320554e-06	1.794378e-08	3.843173e+01	1.182057e+03
1.680000e-06	5.316243e-06	1.793938e-08	3.840059e+01	1.181619e+03
1.690000e-06	5.310101e-06	1.793246e-08	3.835623e+01	1.181057e+03
1.700000e-06	5.302045e-06	1.792129e-08	3.829803e+01	1.180345e+03
1.710000e-06	5.292353e-06	1.790771e-08	3.822802e+01	1.179455e+03
1.720000e-06	5.281052e-06	1.790054e-08	3.814640e+01	1.178364e+03
1.730000e-06	5.267868e-06	1.789773e-08	3.805116e+01	1.177062e+03
1.740000e-06	5.252668e-06	1.783109e-08	3.794137e+01	1.175556e+03
1.750000e-06	5.235325e-06	1.777981e-08	3.781610e+01	1.173872e+03
1.760000e-06	5.215447e-06	1.778334e-08	3.767251e+01	1.172050e+03
1.770000e-06	5.193038e-06	1.776950e-08	3.751065e+01	1.170138e+03
1.780000e-06	5.168918e-06	1.781059e-08	3.733642e+01	1.168181e+03
1.790000e-06	5.143970e-06	1.773461e-08	3.715622e+01	1.166208e+03
1.800000e-06	5.118067e-06	1.761500e-08	3.696912e+01	1.164230e+03
1.810000e-06	5.090284e-06	1.771492e-08	3.676843e+01	1.162231e+03
1.820000e-06	5.060457e-06	1.765129e-08	3.655298e+01	1.160175e+03
1.830000e-06	5.028976e-06	1.756718e-08	3.632558e+01	1.158010e+03
1.840000e-06	4.995631e-06	1.769629e-08	3.608473e+01	1.155680e+03
1.850000e-06	4.960580e-06	1.758400e-08	3.583154e+01	1.153132e+03
1.860000e-06	4.923937e-06	1.748914e-08	3.556686e+01	1.150329e+03
1.870000e-06	4.885338e-06	1.753583e-08	3.528805e+01	1.147251e+03
1.880000e-06	4.844993e-06	1.743150e-08	3.499663e+01	1.143899e+03
1.890000e-06	4.803006e-06	1.744383e-08	3.469335e+01	1.140288e+03
1.900000e-06	4.759296e-06	1.736482e-08	3.437762e+01	1.136439e+03
1.910000e-06	4.713904e-06	1.718467e-08	3.404974e+01	1.132375e+03
1.920000e-06	4.666631e-06	1.725817e-08	3.370828e+01	1.128112e+03
1.930000e-06	4.617651e-06	1.722962e-08	3.335448e+01	1.123654e+03
1.940000e-06	4.567011e-06	1.711331e-08	3.298869e+01	1.118993e+03
1.950000e-06	4.514333e-06	1.701730e-08	3.260818e+01	1.114113e+03
1.960000e-06	4.459738e-06	1.692913e-08	3.221384e+01	1.108996e+03
1.970000e-06	4.403429e-06	1.688867e-08	3.180710e+01	1.103625e+03
1.980000e-06	4.345497e-06	1.673044e-08	3.138864e+01	1.097991e+03
1.990000e-06	4.286141e-06	1.668257e-08	3.095990e+01	1.092094e+03
2.000000e-06	4.225367e-06	1.667134e-08	3.052091e+01	1.085944e+03
2.010000e-06	4.162963e-06	1.651577e-08	3.007015e+01	1.079554e+03
2.020000e-06	4.098850e-06	1.638373e-08	2.960704e+01	1.072938e+03
2.030000e-06	4.033304e-06	1.625672e-08	2.913359e+01	1.066102e+03
2.040000e-06	3.966446e-06	1.620647e-08	2.865066e+01	1.059048e+03
2.050000e-06	3.898191e-06	1.611007e-08	2.815763e+01	1.051761e+03
2.060000e-06	3.828424e-06	1.595905e-08	2.765369e+01	1.044224e+03
2.070000e-06	3.757171e-06	1.586383e-08	2.713901e+01	1.036409e+03
2.080000e-06	3.684659e-06	1.571758e-08	2.661524e+01	1.028292e+03
2.090000e-06	3.610874e-06	1.559437e-08	2.608227e+01	1.019850e+03
2.100000e-06	3.535742e-06	1.547210e-08	2.553957e+01	1.011067e+03
2.110000e-06	3.459190e-06	1.534021e-08	2.498662e+01	1.001936e+03
2.120000e-06	3.381186e-06	1.519402e-08	2.442318e+01	9.924528e+02
2.130000e-06	3.301878e-06	1.502579e-08	2.385031e+01	9.826172e+02
2.140000e-06	3.221355e-06	1.488243e-08	2.326867e+01	9.724257e+02
2.150000e-06	3.139701e-06	1.471596e-08	2.267887e+01	9.618696e+02
2.160000e-06	3.056964e-06	1.456150e-08	2.208124e+01	9.509330e+02
2.170000e-06	2.973235e-06	1.440218e-08	2.147644e+01	9.395925e+02
2.180000e-06	2.888477e-06	1.422122e-08	2.086421e+01	9.278196e+02
2.190000e-06	2.802507e-06	1.402847e-08	2.024323e+01	9.155832e+02
2.200000e-06	2.715376e-06	1.383191e-08	1.961386e+01	9.028526e+02
2.210000e-06	2.627258e-06	1.364378e-08	1.897736e+01	8.895997e+02
2.220000e-06	2.538275e-06	1.343206e-08	1.833461e+01	8.757988e+02
2.230000e-06	2.448405e-06	1.320740e-08	1.768546e+01	8.614264e+02
2.240000e-06	2.357743e-06	1.297501e-08	1.703058e+01	8.464581e+02
2.250000e-06	2.266428e-06	1.274502e-08	1.637099e+01	8.308663e+02
2.260000e-06	2.174407e-06	1.250453e-08	1.570630e+01	8.146183e+02
2.270000e-06	2.081552e-06	1.224469e-08	1.503559e+01	7.976756e+02
2.280000e-06	1.987803e-06	1.197353e-08	1.435841e+01	7.799945e+02
2.290000e-06	1.893171e-06	1.168747e-08	1.367486e+01	7.615290e+02
2.300000e-06	1.797703e-06	1.139212e-08	1.298527e+01	7.422333e+02
2.310000e-06	1.701619e-06	1.108509e-08	1.229123e+01	7.220652e+02
2.320000e-06	1.605102e-06	1.076936e-08	1.159406e+01	7.009873e+02
2.330000e-06	1.508117e-06	1.044068e-08	1.089352e+01	6.789679e+02
2.340000e-06	1.410590e-06	1.009031e-08	1.018905e+01	6.559797e+02
2.350000e-06	1.312580e-06	9.717985e-09	9.481100e+00	6.319987e+02
2.360000e-06	1.214176e-06	9.335727e-09	8.770307e+00	6.070026e+02
2.370000e-06	1.115437e-06	8.948126e-09	8.057089e+00	5.809713e+02
2.380000e-06	1.016415e-06	8.543256e-09	7.341826e+00	5.538892e+02
2.390000e-06	9.171343e-07	8.112745e-09	6.624697e+00	5.257503e+02
2.400000e-06	8.175669e-07	7.660595e-09	5.905496e+00	4.965645e+02
2.410000e-06	7.177203e-07	7.195629e-09	5.184278e+00	4.663652e+02
2.420000e-06	6.176493e-07	6.717924e-09	4.461440e+00	4.352147e+02
2.430000e-06	5.173827e-07	6.229669e-09	3.737188e+00	4.032075e+02
2.440000e-06	4.169874e-07	5.735162e-09	3.012007e+00	3.704691e+02
2.450000e-06	3.164483e-07	5.230640e-09	2.285787e+00	3.371497e+02
2.460000e-06	2.157377e-07	4.711298e-09	1.558329e+00	3.034135e+02
2.470000e-06	1.149013e-07	4.186329e-09	8.299615e-01	2.694252e+02
2.480000e-06	1.396653e-08	3.665746e-09	1.008838e-01	2.353346e+02
2.490000e-06	-8.700238e-08	3.146573e-09	-6.284405e-01	2.012623e+02
2.500000e-06	-1.879247e-07	2.624409e-09	-1.357428e+00	1.672888e+02
2.510000e-06	-2.887306e-07	2.101374e-09	-2.085576e+00	1.334477e+02
2.520000e-06	-3.894224e-07	1.581187e-09	-2.812898e+00	9.972438e+01
2.530000e-06	-4.900513e-07	1.063582e-09	-3.539767e+00	6.606006e+01
2.540000e-06	-5.905324e-07	5.471069e-10	-4.265567e+00	3.236030e+01
2.550000e-06	-6.907592e-07	2.915608e-11	-4.989531e+00	-1.492907e+00
2.560000e-06	-7.907141e-07	-4.935194e-10	-5.711531e+00	-3.562725e+01
2.570000e-06	-8.903296e-07	-1.022233e-09	-6.431080e+00	-7.016550e+01
2.580000e-06	-9.896244e-07	-1.557610e-09	-7.148311e+00	-1.052114e+02
2.590000e-06	-1.088646e-06	-2.101950e-09	-7.863573e+00	-1.408371e+02
2.600000e-06	-1.187350e-06	-2.656861e-09	-8.576534e+00	-1.770730e+02
2.610000e-06	-1.285633e-06	-3.220217e-09	-9.286457e+00	-2.139000e+02
2.620000e-06	-1.383419e-06	-3.791413e-09	-9.992790e+00	-2.512458e+02
2.630000e-06	-1.480699e-06	-4.370202e-09	-1.069547e+01	-2.889853e+02
2.640000e-06	-1.577482e-06	-4.950285e-09	-1.139456e+01	-3.269449e+02
2.650000e-06	-1.673793e-06	-5.528577e-09	-1.209023e+01	-3.649120e+02
2.660000e-06	-1.769598e-06	-6.104461e-09	-1.278226e+01	-4.026477e+02
2.670000e-06	-1.864759e-06	-6.674734e-09	-1.346963e+01	-4.399030e+02
2.680000e-06	-1.959117e-06	-7.236083e-09	-1.415121e+01	-4.764361e+02
2.690000e-06	-2.052612e-06	-7.782847e-09	-1.482655e+01	-5.120290e+02
2.700000e-06	-2.145253e-06	-8.311888e-09	-1.549571e+01	-5.465005e+02
2.710000e-06	-2.237080e-06	-8.821197e-09	-1.615900e+01	-5.797160e+02
2.720000e-06	-2.328079e-06	-9.308937e-09	-1.681631e+01	-6.115898e+02
2.730000e-06	-2.418254e-06	-9.776515e-09	-1.746767e+01	-6.420832e+02
2.740000e-06	-2.507578e-06	-1.022430e-08	-1.811288e+01	-6.711967e+02
2.750000e-06	-2.596087e-06	-1.065018e-08	-1.875220e+01	-6.989592e+02
2.760000e-06	-2.683849e-06	-1.105570e-08	-1.938613e+01	-7.254160e+02
2.770000e-06	-2.770653e-06	-1.144333e-08	-2.001314e+01	-7.506185e+02
2.780000e-06	-2.856283e-06	-1.181380e-08	-2.063167e+01	-7.746160e+02
2.790000e-06	-2.940795e-06	-1.216551e-08	-2.124212e+01	-7.974519e+02
2.800000e-06	-3.024345e-06	-1.249675e-08	-2.184562e+01	-8.191638e+02
2.810000e-06	-3.106950e-06	-1.281107e-08	-2.244230e+01	-8.397854e+02
2.820000e-06	-3.188560e-06	-1.310975e-08	-2.303179e+01	-8.593516e+02
2.830000e-06	-3.269160e-06	-1.339477e-08	-2.361398e+01	-8.779020e+02
2.840000e-06	-3.348604e-06	-1.366628e-08	-2.418783e+01	-8.954834e+02
2.850000e-06	-3.426684e-06	-1.392334e-08	-2.475182e+01	-9.121502e+02
2.860000e-06	-3.503311e-06	-1.416640e-08	-2.530531e+01	-9.279619e+02
2.870000e-06	-3.578528e-06	-1.439780e-08	-2.584863e+01	-9.429797e+02
2.880000e-06	-3.652372e-06	-1.461914e-08	-2.638202e+01	-9.572617e+02
2.890000e-06	-3.724935e-06	-1.483001e-08	-2.690616e+01	-9.708593e+02
2.900000e-06	-3.796219e-06	-1.503123e-08	-2.742107e+01	-9.838146e+02
2.910000e-06	-3.866025e-06	-1.522185e-08	-2.792529e+01	-9.961599e+02
2.920000e-06	-3.934323e-06	-1.540359e-08	-2.841863e+01	-1.007919e+03
2.930000e-06	-4.001224e-06	-1.557630e-08	-2.890187e+01	-1.019111e+03
2.940000e-06	-4.066728e-06	-1.574003e-08	-2.937502e+01	-1.029750e+03
