# Temperatura_=_25.77
# Concentracion g/m^3_=_28200.0
# C_Vs_to_Am_M_A/Vsm_=_65563218390.804596
# pendiente_HvsI_1/m_=_3716.3
# ordenada_HvsI_A/m_=_1297.0
# frecuencia_Hz_=_301780.1631475476

Tiempo_(s)	Campo_(V.s)	Magnetizacion_(V.s)	Campo_(kA/m)	Magnetizacion_(A/m)
0.000000e+00	-5.313552e-06	-1.808229e-08	-3.829918e+01	-1.181832e+03
1.000000e-08	-5.312160e-06	-1.807822e-08	-3.828915e+01	-1.181594e+03
2.000000e-08	-5.308805e-06	-1.807010e-08	-3.826496e+01	-1.181245e+03
3.000000e-08	-5.303748e-06	-1.805808e-08	-3.822851e+01	-1.180779e+03
4.000000e-08	-5.297125e-06	-1.804696e-08	-3.818078e+01	-1.180180e+03
5.000000e-08	-5.288918e-06	-1.803407e-08	-3.812163e+01	-1.179425e+03
6.000000e-08	-5.278801e-06	-1.801732e-08	-3.804870e+01	-1.178489e+03
7.000000e-08	-5.266683e-06	-1.799899e-08	-3.796136e+01	-1.177353e+03
8.000000e-08	-5.252692e-06	-1.796771e-08	-3.786051e+01	-1.176012e+03
9.000000e-08	-5.236466e-06	-1.795864e-08	-3.774356e+01	-1.174476e+03
1.000000e-07	-5.218023e-06	-1.799533e-08	-3.761062e+01	-1.172770e+03
1.100000e-07	-5.197719e-06	-1.794831e-08	-3.746428e+01	-1.170931e+03
1.200000e-07	-5.175598e-06	-1.787122e-08	-3.730484e+01	-1.168999e+03
1.300000e-07	-5.151819e-06	-1.783646e-08	-3.713343e+01	-1.167008e+03
1.400000e-07	-5.126515e-06	-1.771656e-08	-3.695105e+01	-1.164980e+03
1.500000e-07	-5.099604e-06	-1.774009e-08	-3.675708e+01	-1.162916e+03
1.600000e-07	-5.071108e-06	-1.783398e-08	-3.655169e+01	-1.160798e+03
1.700000e-07	-5.041196e-06	-1.764301e-08	-3.633608e+01	-1.158593e+03
1.800000e-07	-5.009709e-06	-1.766084e-08	-3.610913e+01	-1.156255e+03
1.900000e-07	-4.976143e-06	-1.769721e-08	-3.586719e+01	-1.153737e+03
2.000000e-07	-4.940737e-06	-1.748010e-08	-3.561199e+01	-1.150999e+03
2.100000e-07	-4.903885e-06	-1.753602e-08	-3.534637e+01	-1.148013e+03
2.200000e-07	-4.865316e-06	-1.751523e-08	-3.506837e+01	-1.144768e+03
2.300000e-07	-4.824999e-06	-1.733994e-08	-3.477777e+01	-1.141267e+03
2.400000e-07	-4.782765e-06	-1.734555e-08	-3.447336e+01	-1.137525e+03
2.500000e-07	-4.738523e-06	-1.728336e-08	-3.415447e+01	-1.133562e+03
2.600000e-07	-4.692535e-06	-1.721736e-08	-3.382300e+01	-1.129394e+03
2.700000e-07	-4.644743e-06	-1.720069e-08	-3.347852e+01	-1.125035e+03
2.800000e-07	-4.594932e-06	-1.706870e-08	-3.311949e+01	-1.120486e+03
2.900000e-07	-4.543024e-06	-1.696463e-08	-3.274535e+01	-1.115742e+03
3.000000e-07	-4.489307e-06	-1.689976e-08	-3.235816e+01	-1.110790e+03
3.100000e-07	-4.434060e-06	-1.685876e-08	-3.195995e+01	-1.105616e+03
3.200000e-07	-4.377165e-06	-1.678302e-08	-3.154986e+01	-1.100205e+03
3.300000e-07	-4.318462e-06	-1.667611e-08	-3.112674e+01	-1.094550e+03
3.400000e-07	-4.258154e-06	-1.659475e-08	-3.069205e+01	-1.088648e+03
3.500000e-07	-4.196421e-06	-1.646412e-08	-3.024709e+01	-1.082499e+03
3.600000e-07	-4.133285e-06	-1.636756e-08	-2.979201e+01	-1.076109e+03
3.700000e-07	-4.068808e-06	-1.629178e-08	-2.932728e+01	-1.069480e+03
3.800000e-07	-4.002751e-06	-1.620132e-08	-2.885115e+01	-1.062614e+03
3.900000e-07	-3.935034e-06	-1.609306e-08	-2.836306e+01	-1.055504e+03
4.000000e-07	-3.865924e-06	-1.594018e-08	-2.786492e+01	-1.048143e+03
4.100000e-07	-3.795598e-06	-1.582569e-08	-2.735803e+01	-1.040517e+03
4.200000e-07	-3.724063e-06	-1.571890e-08	-2.684241e+01	-1.032612e+03
4.300000e-07	-3.651199e-06	-1.559775e-08	-2.631722e+01	-1.024412e+03
4.400000e-07	-3.576813e-06	-1.546986e-08	-2.578106e+01	-1.015908e+03
4.500000e-07	-3.500860e-06	-1.532504e-08	-2.523360e+01	-1.007087e+03
4.600000e-07	-3.423521e-06	-1.517824e-08	-2.467616e+01	-9.979417e+02
4.700000e-07	-3.344844e-06	-1.503107e-08	-2.410907e+01	-9.884608e+02
4.800000e-07	-3.264797e-06	-1.489562e-08	-2.353211e+01	-9.786314e+02
4.900000e-07	-3.183491e-06	-1.474319e-08	-2.294606e+01	-9.684359e+02
5.000000e-07	-3.101114e-06	-1.456875e-08	-2.235231e+01	-9.578521e+02
5.100000e-07	-3.017794e-06	-1.439734e-08	-2.175175e+01	-9.468545e+02
5.200000e-07	-2.933622e-06	-1.421838e-08	-2.114505e+01	-9.354163e+02
5.300000e-07	-2.848544e-06	-1.403379e-08	-2.053182e+01	-9.235116e+02
5.400000e-07	-2.762516e-06	-1.384784e-08	-1.991175e+01	-9.111176e+02
5.500000e-07	-2.675603e-06	-1.365348e-08	-1.928529e+01	-8.982148e+02
5.600000e-07	-2.587759e-06	-1.344512e-08	-1.865212e+01	-8.847866e+02
5.700000e-07	-2.498882e-06	-1.322577e-08	-1.801151e+01	-8.708167e+02
5.800000e-07	-2.408886e-06	-1.300595e-08	-1.736284e+01	-8.562860e+02
5.900000e-07	-2.317824e-06	-1.277496e-08	-1.670648e+01	-8.411699e+02
6.000000e-07	-2.225933e-06	-1.253244e-08	-1.604415e+01	-8.254360e+02
6.100000e-07	-2.133336e-06	-1.227620e-08	-1.537672e+01	-8.090437e+02
6.200000e-07	-2.039987e-06	-1.201212e-08	-1.470388e+01	-7.919461e+02
6.300000e-07	-1.945904e-06	-1.174318e-08	-1.402574e+01	-7.740925e+02
6.400000e-07	-1.851142e-06	-1.146303e-08	-1.334272e+01	-7.554326e+02
6.500000e-07	-1.755789e-06	-1.116909e-08	-1.265543e+01	-7.359196e+02
6.600000e-07	-1.659859e-06	-1.085390e-08	-1.196398e+01	-7.155125e+02
6.700000e-07	-1.563298e-06	-1.052214e-08	-1.126798e+01	-6.941765e+02
6.800000e-07	-1.466058e-06	-1.017784e-08	-1.056709e+01	-6.718817e+02
6.900000e-07	-1.368122e-06	-9.823642e-09	-9.861188e+00	-6.486007e+02
7.000000e-07	-1.269617e-06	-9.455028e-09	-9.151182e+00	-6.243066e+02
7.100000e-07	-1.170667e-06	-9.068992e-09	-8.437969e+00	-5.989723e+02
7.200000e-07	-1.071326e-06	-8.664016e-09	-7.721933e+00	-5.725718e+02
7.300000e-07	-9.716656e-07	-8.239918e-09	-7.003601e+00	-5.450849e+02
7.400000e-07	-8.717472e-07	-7.802433e-09	-6.283406e+00	-5.165037e+02
7.500000e-07	-7.715526e-07	-7.352449e-09	-5.561220e+00	-4.868408e+02
7.600000e-07	-6.711074e-07	-6.887100e-09	-4.837229e+00	-4.561368e+02
7.700000e-07	-5.704844e-07	-6.402190e-09	-4.111955e+00	-4.244655e+02
7.800000e-07	-4.696847e-07	-5.904615e-09	-3.385407e+00	-3.919352e+02
7.900000e-07	-3.687220e-07	-5.399659e-09	-2.657685e+00	-3.586848e+02
8.000000e-07	-2.676572e-07	-4.886316e-09	-1.929227e+00	-3.248751e+02
8.100000e-07	-1.665114e-07	-4.367200e-09	-1.200186e+00	-2.906761e+02
8.200000e-07	-6.527065e-08	-3.845423e-09	-4.704598e-01	-2.562520e+02
8.300000e-07	3.603385e-08	-3.323558e-09	2.597259e-01	-2.217457e+02
8.400000e-07	1.373318e-07	-2.799179e-09	9.898645e-01	-1.872659e+02
8.500000e-07	2.385748e-07	-2.275584e-09	1.719606e+00	-1.528778e+02
8.600000e-07	3.397675e-07	-1.757273e-09	2.448987e+00	-1.185987e+02
8.700000e-07	4.409447e-07	-1.241585e-09	3.178254e+00	-8.439930e+01
8.800000e-07	5.419524e-07	-7.260851e-10	3.906301e+00	-5.020933e+01
8.900000e-07	6.427431e-07	-2.085125e-10	4.632784e+00	-1.592773e+01
9.000000e-07	7.433895e-07	3.146734e-10	5.358225e+00	1.856489e+01
9.100000e-07	8.438126e-07	8.458453e-10	6.082058e+00	5.339220e+01
9.200000e-07	9.439690e-07	1.384639e-09	6.803968e+00	8.866797e+01
9.300000e-07	1.043839e-06	1.930226e-09	7.523812e+00	1.244826e+02
9.400000e-07	1.143407e-06	2.483950e-09	8.241485e+00	1.608912e+02
9.500000e-07	1.242588e-06	3.046787e-09	8.956362e+00	1.979040e+02
9.600000e-07	1.341267e-06	3.616678e-09	9.667625e+00	2.354797e+02
9.700000e-07	1.439290e-06	4.193865e-09	1.037416e+01	2.735227e+02
9.800000e-07	1.536553e-06	4.775119e-09	1.107521e+01	3.118844e+02
9.900000e-07	1.633147e-06	5.359419e-09	1.177145e+01	3.503695e+02
1.000000e-06	1.729140e-06	5.944043e-09	1.246335e+01	3.887468e+02
1.010000e-06	1.824495e-06	6.522658e-09	1.315065e+01	4.267640e+02
1.020000e-06	1.919201e-06	7.091190e-09	1.383328e+01	4.641648e+02
1.030000e-06	2.013256e-06	7.645396e-09	1.451121e+01	5.007067e+02
1.040000e-06	2.106577e-06	8.184117e-09	1.518385e+01	5.361779e+02
1.050000e-06	2.199161e-06	8.701073e-09	1.585118e+01	5.704091e+02
1.060000e-06	2.291103e-06	9.197140e-09	1.651388e+01	6.032817e+02
1.070000e-06	2.382322e-06	9.674081e-09	1.717137e+01	6.347286e+02
1.080000e-06	2.472603e-06	1.013010e-08	1.782210e+01	6.647297e+02
1.090000e-06	2.561737e-06	1.056460e-08	1.846457e+01	6.933031e+02
1.100000e-06	2.649823e-06	1.097799e-08	1.909947e+01	7.204929e+02
1.110000e-06	2.737083e-06	1.137271e-08	1.972843e+01	7.463572e+02
1.120000e-06	2.823498e-06	1.174771e-08	2.035129e+01	7.709577e+02
1.130000e-06	2.908939e-06	1.210396e-08	2.096714e+01	7.943523e+02
1.140000e-06	2.993430e-06	1.244134e-08	2.157613e+01	8.165915e+02
1.150000e-06	3.077105e-06	1.276261e-08	2.217925e+01	8.377193e+02
1.160000e-06	3.159801e-06	1.306795e-08	2.277531e+01	8.577752e+02
1.170000e-06	3.241268e-06	1.335676e-08	2.336251e+01	8.767988e+02
1.180000e-06	3.321528e-06	1.362976e-08	2.394101e+01	8.948328e+02
1.190000e-06	3.400602e-06	1.388755e-08	2.451096e+01	9.119255e+02
1.200000e-06	3.478492e-06	1.413206e-08	2.507238e+01	9.281304e+02
1.210000e-06	3.555243e-06	1.436506e-08	2.562559e+01	9.435044e+02
1.220000e-06	3.630707e-06	1.458687e-08	2.616952e+01	9.581049e+02
1.230000e-06	3.704571e-06	1.479683e-08	2.670192e+01	9.719857e+02
1.240000e-06	3.776825e-06	1.499572e-08	2.722272e+01	9.851948e+02
1.250000e-06	3.847710e-06	1.518359e-08	2.773364e+01	9.977723e+02
1.260000e-06	3.917220e-06	1.536190e-08	2.823465e+01	1.009751e+03
1.270000e-06	3.985410e-06	1.553266e-08	2.872616e+01	1.021156e+03
1.280000e-06	4.052257e-06	1.569612e-08	2.920798e+01	1.032009e+03
1.290000e-06	4.117451e-06	1.585356e-08	2.967789e+01	1.042329e+03
1.300000e-06	4.181058e-06	1.600418e-08	3.013636e+01	1.052133e+03
1.310000e-06	4.243300e-06	1.614761e-08	3.058499e+01	1.061438e+03
1.320000e-06	4.304179e-06	1.628412e-08	3.102379e+01	1.070258e+03
1.330000e-06	4.363700e-06	1.641220e-08	3.145281e+01	1.078609e+03
1.340000e-06	4.421553e-06	1.653262e-08	3.186981e+01	1.086504e+03
1.350000e-06	4.477595e-06	1.664566e-08	3.227374e+01	1.093958e+03
1.360000e-06	4.532055e-06	1.675195e-08	3.266629e+01	1.100985e+03
1.370000e-06	4.584910e-06	1.684984e-08	3.304725e+01	1.107601e+03
1.380000e-06	4.635815e-06	1.694067e-08	3.341417e+01	1.113830e+03
1.390000e-06	4.684659e-06	1.702751e-08	3.376623e+01	1.119697e+03
1.400000e-06	4.731712e-06	1.711094e-08	3.410538e+01	1.125234e+03
1.410000e-06	4.777209e-06	1.719196e-08	3.443331e+01	1.130474e+03
1.420000e-06	4.821263e-06	1.727064e-08	3.475084e+01	1.135449e+03
1.430000e-06	4.863544e-06	1.734417e-08	3.505560e+01	1.140186e+03
1.440000e-06	4.903904e-06	1.741177e-08	3.534651e+01	1.144700e+03
1.450000e-06	4.942586e-06	1.747421e-08	3.562532e+01	1.149000e+03
1.460000e-06	4.979665e-06	1.753351e-08	3.589258e+01	1.153078e+03
1.470000e-06	5.015167e-06	1.759134e-08	3.614847e+01	1.156923e+03
1.480000e-06	5.048817e-06	1.764653e-08	3.639102e+01	1.160514e+03
1.490000e-06	5.080538e-06	1.769830e-08	3.661966e+01	1.163837e+03
1.500000e-06	5.110601e-06	1.774583e-08	3.683634e+01	1.166879e+03
1.510000e-06	5.139035e-06	1.778719e-08	3.704129e+01	1.169641e+03
1.520000e-06	5.165607e-06	1.782241e-08	3.723282e+01	1.172132e+03
1.530000e-06	5.190115e-06	1.785297e-08	3.740946e+01	1.174371e+03
1.540000e-06	5.212697e-06	1.788127e-08	3.757224e+01	1.176381e+03
1.550000e-06	5.233599e-06	1.790894e-08	3.772289e+01	1.178185e+03
1.560000e-06	5.252803e-06	1.793566e-08	3.786131e+01	1.179802e+03
1.570000e-06	5.270045e-06	1.795938e-08	3.798559e+01	1.181242e+03
1.580000e-06	5.285229e-06	1.797794e-08	3.809504e+01	1.182504e+03
1.590000e-06	5.298512e-06	1.799226e-08	3.819077e+01	1.183582e+03
1.600000e-06	5.309748e-06	1.800440e-08	3.827176e+01	1.184469e+03
1.610000e-06	5.318749e-06	1.801492e-08	3.833664e+01	1.185158e+03
1.620000e-06	5.325754e-06	1.802292e-08	3.838713e+01	1.185647e+03
1.630000e-06	5.330977e-06	1.802911e-08	3.842478e+01	1.185948e+03
1.640000e-06	5.334406e-06	1.803354e-08	3.844949e+01	1.186075e+03
1.650000e-06	5.335864e-06	1.803650e-08	3.846000e+01	1.186050e+03
1.660000e-06	5.335375e-06	1.803759e-08	3.845648e+01	1.185896e+03
1.670000e-06	5.333185e-06	1.803168e-08	3.844070e+01	1.185625e+03
1.680000e-06	5.329427e-06	1.802658e-08	3.841360e+01	1.185243e+03
1.690000e-06	5.323914e-06	1.802072e-08	3.837387e+01	1.184741e+03
1.700000e-06	5.316492e-06	1.800958e-08	3.832037e+01	1.184100e+03
1.710000e-06	5.307420e-06	1.799707e-08	3.825498e+01	1.183295e+03
1.720000e-06	5.296776e-06	1.798570e-08	3.817826e+01	1.182302e+03
1.730000e-06	5.284298e-06	1.798467e-08	3.808832e+01	1.181107e+03
1.740000e-06	5.269840e-06	1.796478e-08	3.798411e+01	1.179708e+03
1.750000e-06	5.253302e-06	1.785970e-08	3.786491e+01	1.178119e+03
1.760000e-06	5.234350e-06	1.784931e-08	3.772831e+01	1.176371e+03
1.770000e-06	5.212810e-06	1.786489e-08	3.757305e+01	1.174501e+03
1.780000e-06	5.189208e-06	1.785457e-08	3.740293e+01	1.172548e+03
1.790000e-06	5.164514e-06	1.793034e-08	3.722494e+01	1.170545e+03
1.800000e-06	5.139105e-06	1.774122e-08	3.704180e+01	1.168506e+03
1.810000e-06	5.112116e-06	1.767285e-08	3.684727e+01	1.166429e+03
1.820000e-06	5.082931e-06	1.782098e-08	3.663691e+01	1.164291e+03
1.830000e-06	5.052015e-06	1.761781e-08	3.641407e+01	1.162052e+03
1.840000e-06	5.019385e-06	1.764607e-08	3.617887e+01	1.159666e+03
1.850000e-06	4.984862e-06	1.777530e-08	3.593004e+01	1.157088e+03
1.860000e-06	4.948770e-06	1.750527e-08	3.566989e+01	1.154281e+03
1.870000e-06	4.910855e-06	1.754276e-08	3.539661e+01	1.151221e+03
1.880000e-06	4.871052e-06	1.756290e-08	3.510971e+01	1.147902e+03
1.890000e-06	4.829651e-06	1.739812e-08	3.481131e+01	1.144330e+03
1.900000e-06	4.786481e-06	1.747267e-08	3.450014e+01	1.140522e+03
1.910000e-06	4.741606e-06	1.727760e-08	3.417669e+01	1.136498e+03
1.920000e-06	4.694907e-06	1.721138e-08	3.384009e+01	1.132274e+03
1.930000e-06	4.646353e-06	1.731519e-08	3.349012e+01	1.127860e+03
1.940000e-06	4.596228e-06	1.713981e-08	3.312883e+01	1.123256e+03
1.950000e-06	4.544215e-06	1.709544e-08	3.275393e+01	1.118454e+03
1.960000e-06	4.490168e-06	1.698012e-08	3.236437e+01	1.113439e+03
1.970000e-06	4.434369e-06	1.690932e-08	3.196218e+01	1.108198e+03
1.980000e-06	4.376918e-06	1.685842e-08	3.154808e+01	1.102718e+03
1.990000e-06	4.317962e-06	1.667867e-08	3.112313e+01	1.096991e+03
2.000000e-06	4.257611e-06	1.672111e-08	3.068814e+01	1.091017e+03
2.010000e-06	4.195684e-06	1.660500e-08	3.024178e+01	1.084799e+03
2.020000e-06	4.131996e-06	1.644879e-08	2.978273e+01	1.078340e+03
2.030000e-06	4.066748e-06	1.635909e-08	2.931243e+01	1.071643e+03
2.040000e-06	4.000184e-06	1.622689e-08	2.883265e+01	1.064707e+03
2.050000e-06	3.932266e-06	1.620697e-08	2.834310e+01	1.057526e+03
2.060000e-06	3.862904e-06	1.604389e-08	2.784316e+01	1.050091e+03
2.070000e-06	3.792017e-06	1.592535e-08	2.733222e+01	1.042386e+03
2.080000e-06	3.719758e-06	1.581777e-08	2.681138e+01	1.034397e+03
2.090000e-06	3.646275e-06	1.565629e-08	2.628173e+01	1.026111e+03
2.100000e-06	3.571473e-06	1.556211e-08	2.574257e+01	1.017516e+03
2.110000e-06	3.495292e-06	1.541055e-08	2.519347e+01	1.008604e+03
2.120000e-06	3.417572e-06	1.529649e-08	2.463328e+01	9.993628e+02
2.130000e-06	3.338387e-06	1.513504e-08	2.406253e+01	9.897833e+02
2.140000e-06	3.258037e-06	1.497833e-08	2.348338e+01	9.798508e+02
2.150000e-06	3.176635e-06	1.483098e-08	2.289664e+01	9.695462e+02
2.160000e-06	3.094180e-06	1.465368e-08	2.230233e+01	9.588463e+02
2.170000e-06	3.010676e-06	1.450856e-08	2.170044e+01	9.477251e+02
2.180000e-06	2.926209e-06	1.432370e-08	2.109162e+01	9.361556e+02
2.190000e-06	2.840582e-06	1.413928e-08	2.047443e+01	9.241128e+02
2.200000e-06	2.753657e-06	1.394532e-08	1.984790e+01	9.115747e+02
2.210000e-06	2.665676e-06	1.375692e-08	1.921374e+01	8.985228e+02
2.220000e-06	2.576815e-06	1.356024e-08	1.857325e+01	8.849410e+02
2.230000e-06	2.487096e-06	1.333821e-08	1.792657e+01	8.708125e+02
2.240000e-06	2.396560e-06	1.311513e-08	1.727400e+01	8.561168e+02
2.250000e-06	2.305303e-06	1.287857e-08	1.661623e+01	8.408274e+02
2.260000e-06	2.213316e-06	1.264331e-08	1.595321e+01	8.249093e+02
2.270000e-06	2.120545e-06	1.238784e-08	1.528453e+01	8.083200e+02
2.280000e-06	2.026885e-06	1.212487e-08	1.460944e+01	7.910110e+02
2.290000e-06	1.932252e-06	1.185065e-08	1.392735e+01	7.729315e+02
2.300000e-06	1.836775e-06	1.156158e-08	1.323916e+01	7.540319e+02
2.310000e-06	1.740718e-06	1.126208e-08	1.254680e+01	7.342668e+02
2.320000e-06	1.644166e-06	1.094966e-08	1.185087e+01	7.135971e+02
2.330000e-06	1.547103e-06	1.062582e-08	1.115126e+01	6.919895e+02
2.340000e-06	1.449534e-06	1.027915e-08	1.044800e+01	6.694151e+02
2.350000e-06	1.351477e-06	9.914831e-09	9.741215e+00	6.458468e+02
2.360000e-06	1.252979e-06	9.537014e-09	9.031260e+00	6.212578e+02
2.370000e-06	1.154153e-06	9.152190e-09	8.318940e+00	5.956208e+02
2.380000e-06	1.055071e-06	8.752708e-09	7.604773e+00	5.689111e+02
2.390000e-06	9.557113e-07	8.331595e-09	6.888605e+00	5.411110e+02
2.400000e-06	8.560924e-07	7.889321e-09	6.170569e+00	5.122178e+02
2.410000e-06	7.562076e-07	7.428622e-09	5.450616e+00	4.822514e+02
2.420000e-06	6.560722e-07	6.953975e-09	4.728857e+00	4.512614e+02
2.430000e-06	5.557255e-07	6.465806e-09	4.005575e+00	4.193317e+02
2.440000e-06	4.551743e-07	5.967215e-09	3.280819e+00	3.865798e+02
2.450000e-06	3.544473e-07	5.458715e-09	2.554796e+00	3.531520e+02
2.460000e-06	2.536062e-07	4.938129e-09	1.827950e+00	3.192131e+02
2.470000e-06	1.526437e-07	4.408773e-09	1.100230e+00	2.849332e+02
2.480000e-06	5.155259e-08	3.879632e-09	3.715823e-01	2.504717e+02
2.490000e-06	-4.955294e-08	3.352742e-09	-3.571692e-01	2.159631e+02
2.500000e-06	-1.506184e-07	2.824965e-09	-1.085632e+00	1.815044e+02
2.510000e-06	-2.516383e-07	2.295805e-09	-1.813766e+00	1.471472e+02
2.520000e-06	-3.525416e-07	1.768399e-09	-2.541060e+00	1.128953e+02
2.530000e-06	-4.533210e-07	1.242971e-09	-3.267461e+00	7.870678e+01
2.540000e-06	-5.539890e-07	7.179556e-10	-3.993058e+00	4.450146e+01
2.550000e-06	-6.544754e-07	1.919370e-10	-4.717348e+00	1.017166e+01
2.560000e-06	-7.546846e-07	-3.382149e-10	-5.439639e+00	-2.440467e+01
2.570000e-06	-8.545681e-07	-8.743313e-10	-6.159582e+00	-5.934982e+01
2.580000e-06	-9.541591e-07	-1.416874e-09	-6.877417e+00	-9.477221e+01
2.590000e-06	-1.053490e-06	-1.965902e-09	-7.593376e+00	-1.307533e+02
2.600000e-06	-1.152483e-06	-2.524257e-09	-8.306902e+00	-1.673362e+02
2.610000e-06	-1.251098e-06	-3.092731e-09	-9.017699e+00	-2.045169e+02
2.620000e-06	-1.349269e-06	-3.669455e-09	-9.725304e+00	-2.422388e+02
2.630000e-06	-1.446950e-06	-4.254474e-09	-1.042937e+01	-2.803907e+02
2.640000e-06	-1.544087e-06	-4.844507e-09	-1.112952e+01	-3.188099e+02
2.650000e-06	-1.640677e-06	-5.433661e-09	-1.182572e+01	-3.572896e+02
2.660000e-06	-1.736863e-06	-6.019650e-09	-1.251901e+01	-3.955908e+02
2.670000e-06	-1.832581e-06	-6.599767e-09	-1.320893e+01	-4.334583e+02
2.680000e-06	-1.927595e-06	-7.170601e-09	-1.389378e+01	-4.706380e+02
2.690000e-06	-2.021680e-06	-7.727996e-09	-1.457193e+01	-5.068945e+02
2.700000e-06	-2.114772e-06	-8.268366e-09	-1.524292e+01	-5.420270e+02
2.710000e-06	-2.207036e-06	-8.789722e-09	-1.590794e+01	-5.758805e+02
2.720000e-06	-2.298543e-06	-9.287311e-09	-1.656751e+01	-6.083509e+02
2.730000e-06	-2.389233e-06	-9.760561e-09	-1.722118e+01	-6.393854e+02
2.740000e-06	-2.479087e-06	-1.021338e-08	-1.786884e+01	-6.689760e+02
2.750000e-06	-2.568079e-06	-1.064409e-08	-1.851028e+01	-6.971492e+02
2.760000e-06	-2.656282e-06	-1.105329e-08	-1.914603e+01	-7.239546e+02
2.770000e-06	-2.743721e-06	-1.144483e-08	-1.977627e+01	-7.494522e+02
2.780000e-06	-2.830170e-06	-1.181764e-08	-2.039939e+01	-7.737030e+02
2.790000e-06	-2.915367e-06	-1.217097e-08	-2.101347e+01	-7.967632e+02
2.800000e-06	-2.999397e-06	-1.250474e-08	-2.161914e+01	-8.186812e+02
2.810000e-06	-3.082473e-06	-1.282101e-08	-2.221795e+01	-8.394993e+02
2.820000e-06	-3.164616e-06	-1.312251e-08	-2.281002e+01	-8.592567e+02
2.830000e-06	-3.245737e-06	-1.340953e-08	-2.339472e+01	-8.779935e+02
2.840000e-06	-3.325833e-06	-1.368277e-08	-2.397204e+01	-8.957539e+02
2.850000e-06	-3.404652e-06	-1.394295e-08	-2.454015e+01	-9.125878e+02
2.860000e-06	-3.481945e-06	-1.418849e-08	-2.509727e+01	-9.285500e+02
2.870000e-06	-3.557832e-06	-1.442016e-08	-2.564425e+01	-9.436978e+02
2.880000e-06	-3.632347e-06	-1.464085e-08	-2.618134e+01	-9.580879e+02
2.890000e-06	-3.705514e-06	-1.485323e-08	-2.670871e+01	-9.717728e+02
2.900000e-06	-3.777461e-06	-1.505694e-08	-2.722730e+01	-9.847982e+02
2.910000e-06	-3.848010e-06	-1.525061e-08	-2.773580e+01	-9.972020e+02
2.920000e-06	-3.916944e-06	-1.543432e-08	-2.823267e+01	-1.009015e+03
2.930000e-06	-3.984484e-06	-1.560793e-08	-2.871948e+01	-1.020261e+03
2.940000e-06	-4.050704e-06	-1.577067e-08	-2.919679e+01	-1.030961e+03
