# Temperatura_=_43.9
# Concentracion g/m^3_=_28200.0
# C_Vs_to_Am_M_A/Vsm_=_65563218390.804596
# pendiente_HvsI_1/m_=_3716.3
# ordenada_HvsI_A/m_=_1297.0
# frecuencia_Hz_=_301775.23290974327

Tiempo_(s)	Campo_(V.s)	Magnetizacion_(V.s)	Campo_(kA/m)	Magnetizacion_(A/m)
0.000000e+00	-5.312407e-06	-1.894828e-08	-3.829396e+01	-1.239373e+03
1.000000e-08	-5.310446e-06	-1.894121e-08	-3.827983e+01	-1.239058e+03
2.000000e-08	-5.306655e-06	-1.893146e-08	-3.825250e+01	-1.238639e+03
3.000000e-08	-5.301167e-06	-1.891868e-08	-3.821294e+01	-1.238106e+03
4.000000e-08	-5.294146e-06	-1.890478e-08	-3.816233e+01	-1.237438e+03
5.000000e-08	-5.285459e-06	-1.888980e-08	-3.809971e+01	-1.236606e+03
6.000000e-08	-5.274797e-06	-1.887426e-08	-3.802285e+01	-1.235583e+03
7.000000e-08	-5.262240e-06	-1.885548e-08	-3.793234e+01	-1.234352e+03
8.000000e-08	-5.247785e-06	-1.883889e-08	-3.782814e+01	-1.232914e+03
9.000000e-08	-5.231173e-06	-1.882410e-08	-3.770839e+01	-1.231284e+03
1.000000e-07	-5.212413e-06	-1.880826e-08	-3.757316e+01	-1.229496e+03
1.100000e-07	-5.191689e-06	-1.877325e-08	-3.742378e+01	-1.227591e+03
1.200000e-07	-5.169157e-06	-1.872231e-08	-3.726136e+01	-1.225610e+03
1.300000e-07	-5.145052e-06	-1.867098e-08	-3.708760e+01	-1.223583e+03
1.400000e-07	-5.119440e-06	-1.864714e-08	-3.690298e+01	-1.221523e+03
1.500000e-07	-5.092197e-06	-1.862069e-08	-3.670660e+01	-1.219422e+03
1.600000e-07	-5.063361e-06	-1.857994e-08	-3.649874e+01	-1.217252e+03
1.700000e-07	-5.033102e-06	-1.853088e-08	-3.628062e+01	-1.214969e+03
1.800000e-07	-5.001111e-06	-1.848766e-08	-3.605002e+01	-1.212525e+03
1.900000e-07	-4.967045e-06	-1.846613e-08	-3.580446e+01	-1.209875e+03
2.000000e-07	-4.931278e-06	-1.843316e-08	-3.554664e+01	-1.206985e+03
2.100000e-07	-4.893964e-06	-1.840281e-08	-3.527766e+01	-1.203836e+03
2.200000e-07	-4.854881e-06	-1.835138e-08	-3.499593e+01	-1.200427e+03
2.300000e-07	-4.813993e-06	-1.825762e-08	-3.470119e+01	-1.196771e+03
2.400000e-07	-4.771206e-06	-1.817798e-08	-3.439277e+01	-1.192888e+03
2.500000e-07	-4.726572e-06	-1.812499e-08	-3.407103e+01	-1.188798e+03
2.600000e-07	-4.680205e-06	-1.807528e-08	-3.373680e+01	-1.184518e+03
2.700000e-07	-4.631895e-06	-1.801819e-08	-3.338856e+01	-1.180053e+03
2.800000e-07	-4.581469e-06	-1.791154e-08	-3.302507e+01	-1.175400e+03
2.900000e-07	-4.529076e-06	-1.781377e-08	-3.264740e+01	-1.170547e+03
3.000000e-07	-4.474978e-06	-1.774544e-08	-3.225744e+01	-1.165476e+03
3.100000e-07	-4.419267e-06	-1.768353e-08	-3.185585e+01	-1.160173e+03
3.200000e-07	-4.361850e-06	-1.760922e-08	-3.144197e+01	-1.154625e+03
3.300000e-07	-4.302697e-06	-1.751482e-08	-3.101557e+01	-1.148825e+03
3.400000e-07	-4.242001e-06	-1.742126e-08	-3.057805e+01	-1.142772e+03
3.500000e-07	-4.179884e-06	-1.730628e-08	-3.013028e+01	-1.136470e+03
3.600000e-07	-4.116395e-06	-1.719273e-08	-2.967263e+01	-1.129922e+03
3.700000e-07	-4.051489e-06	-1.711388e-08	-2.920476e+01	-1.123128e+03
3.800000e-07	-3.984943e-06	-1.702667e-08	-2.872507e+01	-1.116086e+03
3.900000e-07	-3.916834e-06	-1.690449e-08	-2.823411e+01	-1.108785e+03
4.000000e-07	-3.847403e-06	-1.677419e-08	-2.773363e+01	-1.101213e+03
4.100000e-07	-3.776786e-06	-1.665218e-08	-2.722459e+01	-1.093354e+03
4.200000e-07	-3.704989e-06	-1.652975e-08	-2.670705e+01	-1.085194e+03
4.300000e-07	-3.631823e-06	-1.639941e-08	-2.617964e+01	-1.076720e+03
4.400000e-07	-3.557097e-06	-1.626925e-08	-2.564098e+01	-1.067923e+03
4.500000e-07	-3.480816e-06	-1.612020e-08	-2.509112e+01	-1.058796e+03
4.600000e-07	-3.403148e-06	-1.596579e-08	-2.453125e+01	-1.049333e+03
4.700000e-07	-3.324116e-06	-1.582252e-08	-2.396157e+01	-1.039526e+03
4.800000e-07	-3.243807e-06	-1.567845e-08	-2.338266e+01	-1.029363e+03
4.900000e-07	-3.162284e-06	-1.552305e-08	-2.279501e+01	-1.018825e+03
5.000000e-07	-3.079658e-06	-1.535082e-08	-2.219941e+01	-1.007891e+03
5.100000e-07	-2.996097e-06	-1.517427e-08	-2.159707e+01	-9.965329e+02
5.200000e-07	-2.911626e-06	-1.498871e-08	-2.098817e+01	-9.847223e+02
5.300000e-07	-2.826261e-06	-1.479669e-08	-2.037282e+01	-9.724313e+02
5.400000e-07	-2.739952e-06	-1.460147e-08	-1.975067e+01	-9.596344e+02
5.500000e-07	-2.652797e-06	-1.439773e-08	-1.912243e+01	-9.463085e+02
5.600000e-07	-2.564755e-06	-1.417916e-08	-1.848778e+01	-9.324323e+02
5.700000e-07	-2.475598e-06	-1.395345e-08	-1.784510e+01	-9.179842e+02
5.800000e-07	-2.385295e-06	-1.373013e-08	-1.719417e+01	-9.029395e+02
5.900000e-07	-2.294022e-06	-1.349822e-08	-1.653623e+01	-8.872687e+02
6.000000e-07	-2.201957e-06	-1.325106e-08	-1.587259e+01	-8.709359e+02
6.100000e-07	-2.109172e-06	-1.298718e-08	-1.520376e+01	-8.538998e+02
6.200000e-07	-2.015648e-06	-1.271007e-08	-1.452960e+01	-8.361146e+02
6.300000e-07	-1.921389e-06	-1.242242e-08	-1.385015e+01	-8.175330e+02
6.400000e-07	-1.826458e-06	-1.212684e-08	-1.316584e+01	-7.981078e+02
6.500000e-07	-1.730931e-06	-1.181834e-08	-1.247725e+01	-7.777941e+02
6.600000e-07	-1.634866e-06	-1.149205e-08	-1.178477e+01	-7.565486e+02
6.700000e-07	-1.538243e-06	-1.114885e-08	-1.108827e+01	-7.343290e+02
6.800000e-07	-1.440930e-06	-1.079086e-08	-1.038680e+01	-7.110914e+02
6.900000e-07	-1.342894e-06	-1.042104e-08	-9.680121e+00	-6.867888e+02
7.000000e-07	-1.244240e-06	-1.003536e-08	-8.968983e+00	-6.613701e+02
7.100000e-07	-1.145082e-06	-9.633284e-09	-8.254207e+00	-6.347824e+02
7.200000e-07	-1.045599e-06	-9.208439e-09	-7.537098e+00	-6.069751e+02
7.300000e-07	-9.458620e-07	-8.758056e-09	-6.818153e+00	-5.779074e+02
7.400000e-07	-8.458691e-07	-8.289835e-09	-6.097365e+00	-5.475574e+02
7.500000e-07	-7.456723e-07	-7.807111e-09	-5.375106e+00	-5.159312e+02
7.600000e-07	-6.452729e-07	-7.307443e-09	-4.651387e+00	-4.830708e+02
7.700000e-07	-5.446653e-07	-6.791083e-09	-3.926166e+00	-4.490574e+02
7.800000e-07	-4.438658e-07	-6.261098e-09	-3.199563e+00	-4.140116e+02
7.900000e-07	-3.428982e-07	-5.715677e-09	-2.471748e+00	-3.780870e+02
8.000000e-07	-2.418291e-07	-5.156499e-09	-1.743202e+00	-3.414592e+02
8.100000e-07	-1.406785e-07	-4.589860e-09	-1.014067e+00	-3.043120e+02
8.200000e-07	-3.942629e-08	-4.019604e-09	-2.842005e-01	-2.668203e+02
8.300000e-07	6.188729e-08	-3.446401e-09	4.461084e-01	-2.291343e+02
8.400000e-07	1.632137e-07	-2.871857e-09	1.176510e+00	-1.913660e+02
8.500000e-07	2.645089e-07	-2.298439e-09	1.906686e+00	-1.535793e+02
8.600000e-07	3.657110e-07	-1.728122e-09	2.636192e+00	-1.157860e+02
8.700000e-07	4.667871e-07	-1.157746e-09	3.364789e+00	-7.794658e+01
8.800000e-07	5.677272e-07	-5.827415e-10	4.092405e+00	-3.997785e+01
8.900000e-07	6.684824e-07	-2.603244e-12	4.818690e+00	-1.764494e+00
9.000000e-07	7.690100e-07	5.856094e-10	5.543333e+00	3.682485e+01
9.100000e-07	8.693083e-07	1.181972e-09	6.266324e+00	7.591917e+01
9.200000e-07	9.693282e-07	1.785794e-09	6.987307e+00	1.156258e+02
9.300000e-07	1.069093e-06	2.400067e-09	7.706455e+00	1.560120e+02
9.400000e-07	1.168644e-06	3.027095e-09	8.424057e+00	1.970895e+02
9.500000e-07	1.267894e-06	3.663699e-09	9.139492e+00	2.388036e+02
9.600000e-07	1.366610e-06	4.305903e-09	9.851076e+00	2.810285e+02
9.700000e-07	1.464581e-06	4.953575e-09	1.055728e+01	3.235697e+02
9.800000e-07	1.561717e-06	5.602479e-09	1.125748e+01	3.661743e+02
9.900000e-07	1.658075e-06	6.248793e-09	1.195207e+01	4.085469e+02
1.000000e-06	1.753808e-06	6.887552e-09	1.264216e+01	4.503721e+02
1.010000e-06	1.849020e-06	7.511337e-09	1.332848e+01	4.913379e+02
1.020000e-06	1.943623e-06	8.114837e-09	1.401041e+01	5.311593e+02
1.030000e-06	2.037531e-06	8.695392e-09	1.468734e+01	5.695982e+02
1.040000e-06	2.130753e-06	9.252036e-09	1.535932e+01	6.064771e+02
1.050000e-06	2.223272e-06	9.782801e-09	1.602624e+01	6.416844e+02
1.060000e-06	2.315150e-06	1.028923e-08	1.668853e+01	6.751728e+02
1.070000e-06	2.406289e-06	1.077097e-08	1.734550e+01	7.069498e+02
1.080000e-06	2.496364e-06	1.122860e-08	1.799479e+01	7.370641e+02
1.090000e-06	2.585209e-06	1.166235e-08	1.863523e+01	7.655895e+02
1.100000e-06	2.673062e-06	1.207526e-08	1.926851e+01	7.926107e+02
1.110000e-06	2.760156e-06	1.246594e-08	1.989631e+01	8.182113e+02
1.120000e-06	2.846335e-06	1.283416e-08	2.051752e+01	8.424670e+02
1.130000e-06	2.931490e-06	1.318123e-08	2.113136e+01	8.654440e+02
1.140000e-06	3.015797e-06	1.350892e-08	2.173907e+01	8.872005e+02
1.150000e-06	3.099305e-06	1.382064e-08	2.234103e+01	9.077912e+02
1.160000e-06	3.181715e-06	1.411703e-08	2.293508e+01	9.272715e+02
1.170000e-06	3.262885e-06	1.439788e-08	2.352019e+01	9.457010e+02
1.180000e-06	3.342892e-06	1.466193e-08	2.409691e+01	9.631442e+02
1.190000e-06	3.421692e-06	1.491196e-08	2.466493e+01	9.796690e+02
1.200000e-06	3.499254e-06	1.514942e-08	2.522403e+01	9.953429e+02
1.210000e-06	3.575665e-06	1.537453e-08	2.577483e+01	1.010229e+03
1.220000e-06	3.650796e-06	1.558751e-08	2.631640e+01	1.024384e+03
1.230000e-06	3.724234e-06	1.579100e-08	2.684577e+01	1.037853e+03
1.240000e-06	3.796060e-06	1.598426e-08	2.736353e+01	1.050674e+03
1.250000e-06	3.866567e-06	1.616753e-08	2.787177e+01	1.062875e+03
1.260000e-06	3.935758e-06	1.634203e-08	2.837052e+01	1.074482e+03
1.270000e-06	4.003676e-06	1.650829e-08	2.886011e+01	1.085520e+03
1.280000e-06	4.070105e-06	1.666716e-08	2.933896e+01	1.096013e+03
1.290000e-06	4.134848e-06	1.681962e-08	2.980564e+01	1.105986e+03
1.300000e-06	4.198100e-06	1.696474e-08	3.026159e+01	1.115466e+03
1.310000e-06	4.259957e-06	1.710167e-08	3.070748e+01	1.124474e+03
1.320000e-06	4.320464e-06	1.723208e-08	3.114364e+01	1.133030e+03
1.330000e-06	4.379557e-06	1.735659e-08	3.156960e+01	1.141144e+03
1.340000e-06	4.436919e-06	1.747434e-08	3.198310e+01	1.148824e+03
1.350000e-06	4.492550e-06	1.758546e-08	3.238410e+01	1.156075e+03
1.360000e-06	4.546613e-06	1.768830e-08	3.277382e+01	1.162904e+03
1.370000e-06	4.598941e-06	1.778331e-08	3.315101e+01	1.169321e+03
1.380000e-06	4.649248e-06	1.787309e-08	3.351365e+01	1.175348e+03
1.390000e-06	4.697586e-06	1.795735e-08	3.386209e+01	1.181016e+03
1.400000e-06	4.744245e-06	1.803778e-08	3.419843e+01	1.186364e+03
1.410000e-06	4.789356e-06	1.811620e-08	3.452360e+01	1.191433e+03
1.420000e-06	4.832902e-06	1.819199e-08	3.483750e+01	1.196262e+03
1.430000e-06	4.874643e-06	1.826218e-08	3.513839e+01	1.200879e+03
1.440000e-06	4.914533e-06	1.832785e-08	3.542593e+01	1.205298e+03
1.450000e-06	4.952748e-06	1.839187e-08	3.570140e+01	1.209516e+03
1.460000e-06	4.989375e-06	1.845282e-08	3.596542e+01	1.213518e+03
1.470000e-06	5.024326e-06	1.850891e-08	3.621736e+01	1.217276e+03
1.480000e-06	5.057401e-06	1.856075e-08	3.645578e+01	1.220764e+03
1.490000e-06	5.088679e-06	1.860895e-08	3.668124e+01	1.223960e+03
1.500000e-06	5.118274e-06	1.865260e-08	3.689457e+01	1.226856e+03
1.510000e-06	5.146189e-06	1.869108e-08	3.709580e+01	1.229457e+03
1.520000e-06	5.172188e-06	1.872535e-08	3.728321e+01	1.231783e+03
1.530000e-06	5.196091e-06	1.875637e-08	3.745551e+01	1.233867e+03
1.540000e-06	5.218112e-06	1.878470e-08	3.761425e+01	1.235739e+03
1.550000e-06	5.238518e-06	1.881054e-08	3.776134e+01	1.237429e+03
1.560000e-06	5.257209e-06	1.883310e-08	3.789608e+01	1.238953e+03
1.570000e-06	5.273906e-06	1.885226e-08	3.801643e+01	1.240316e+03
1.580000e-06	5.288617e-06	1.886837e-08	3.812248e+01	1.241509e+03
1.590000e-06	5.301355e-06	1.888264e-08	3.821430e+01	1.242519e+03
1.600000e-06	5.311925e-06	1.889583e-08	3.829049e+01	1.243328e+03
1.610000e-06	5.320365e-06	1.890682e-08	3.835133e+01	1.243928e+03
1.620000e-06	5.326924e-06	1.891423e-08	3.839861e+01	1.244319e+03
1.630000e-06	5.331696e-06	1.891956e-08	3.843301e+01	1.244514e+03
1.640000e-06	5.334575e-06	1.892335e-08	3.845376e+01	1.244536e+03
1.650000e-06	5.335441e-06	1.892352e-08	3.846000e+01	1.244414e+03
1.660000e-06	5.334437e-06	1.892064e-08	3.845276e+01	1.244171e+03
1.670000e-06	5.331774e-06	1.891544e-08	3.843357e+01	1.243822e+03
1.680000e-06	5.327501e-06	1.890799e-08	3.840277e+01	1.243367e+03
1.690000e-06	5.321461e-06	1.890007e-08	3.835923e+01	1.242793e+03
1.700000e-06	5.313587e-06	1.888982e-08	3.830247e+01	1.242074e+03
1.710000e-06	5.304044e-06	1.887831e-08	3.823368e+01	1.241182e+03
1.720000e-06	5.292884e-06	1.886677e-08	3.815323e+01	1.240092e+03
1.730000e-06	5.279878e-06	1.884767e-08	3.805948e+01	1.238793e+03
1.740000e-06	5.264852e-06	1.881914e-08	3.795117e+01	1.237289e+03
1.750000e-06	5.247726e-06	1.877628e-08	3.782772e+01	1.235604e+03
1.760000e-06	5.228134e-06	1.875024e-08	3.768649e+01	1.233772e+03
1.770000e-06	5.206044e-06	1.874699e-08	3.752725e+01	1.231838e+03
1.780000e-06	5.182166e-06	1.872912e-08	3.735514e+01	1.229839e+03
1.790000e-06	5.157303e-06	1.868279e-08	3.717591e+01	1.227800e+03
1.800000e-06	5.131479e-06	1.863943e-08	3.698976e+01	1.225728e+03
1.810000e-06	5.103848e-06	1.861615e-08	3.679059e+01	1.223607e+03
1.820000e-06	5.074123e-06	1.862044e-08	3.657632e+01	1.221405e+03
1.830000e-06	5.042725e-06	1.859060e-08	3.634999e+01	1.219075e+03
1.840000e-06	5.009544e-06	1.853962e-08	3.611080e+01	1.216568e+03
1.850000e-06	4.974610e-06	1.850662e-08	3.585898e+01	1.213843e+03
1.860000e-06	4.938051e-06	1.842872e-08	3.559545e+01	1.210870e+03
1.870000e-06	4.899618e-06	1.836841e-08	3.531842e+01	1.207636e+03
1.880000e-06	4.859424e-06	1.835711e-08	3.502868e+01	1.204145e+03
1.890000e-06	4.817562e-06	1.831295e-08	3.472692e+01	1.200413e+03
1.900000e-06	4.773969e-06	1.825522e-08	3.441269e+01	1.196460e+03
1.910000e-06	4.728666e-06	1.816657e-08	3.408613e+01	1.192307e+03
1.920000e-06	4.681492e-06	1.809792e-08	3.374608e+01	1.187966e+03
1.930000e-06	4.632522e-06	1.809599e-08	3.339308e+01	1.183440e+03
1.940000e-06	4.581848e-06	1.800753e-08	3.302780e+01	1.178724e+03
1.950000e-06	4.529215e-06	1.791716e-08	3.264840e+01	1.173801e+03
1.960000e-06	4.474634e-06	1.785273e-08	3.225496e+01	1.168657e+03
1.970000e-06	4.418306e-06	1.775386e-08	3.184892e+01	1.163275e+03
1.980000e-06	4.360372e-06	1.766377e-08	3.143131e+01	1.157645e+03
1.990000e-06	4.301010e-06	1.756795e-08	3.100341e+01	1.151763e+03
2.000000e-06	4.240198e-06	1.751656e-08	3.056505e+01	1.145629e+03
2.010000e-06	4.177742e-06	1.742856e-08	3.011485e+01	1.139247e+03
2.020000e-06	4.113639e-06	1.728198e-08	2.965276e+01	1.132619e+03
2.030000e-06	4.048086e-06	1.718133e-08	2.918023e+01	1.125745e+03
2.040000e-06	3.981244e-06	1.707288e-08	2.869841e+01	1.118619e+03
2.050000e-06	3.913018e-06	1.697207e-08	2.820661e+01	1.111232e+03
2.060000e-06	3.843287e-06	1.685787e-08	2.770396e+01	1.103569e+03
2.070000e-06	3.772066e-06	1.673469e-08	2.719057e+01	1.095613e+03
2.080000e-06	3.699541e-06	1.661833e-08	2.666778e+01	1.087353e+03
2.090000e-06	3.625752e-06	1.647672e-08	2.613588e+01	1.078775e+03
2.100000e-06	3.550571e-06	1.636061e-08	2.559395e+01	1.069871e+03
2.110000e-06	3.473903e-06	1.622341e-08	2.504129e+01	1.060636e+03
2.120000e-06	3.395737e-06	1.606907e-08	2.447783e+01	1.051063e+03
2.130000e-06	3.316292e-06	1.591066e-08	2.390516e+01	1.041142e+03
2.140000e-06	3.235713e-06	1.574532e-08	2.332432e+01	1.030860e+03
2.150000e-06	3.154065e-06	1.558841e-08	2.273577e+01	1.020196e+03
2.160000e-06	3.071383e-06	1.541742e-08	2.213976e+01	1.009128e+03
2.170000e-06	2.987698e-06	1.525867e-08	2.153653e+01	9.976265e+02
2.180000e-06	2.902953e-06	1.508607e-08	2.092565e+01	9.856635e+02
2.190000e-06	2.816938e-06	1.489171e-08	2.030562e+01	9.732116e+02
2.200000e-06	2.729692e-06	1.469213e-08	1.967672e+01	9.602461e+02
2.210000e-06	2.641509e-06	1.449190e-08	1.904106e+01	9.467447e+02
2.220000e-06	2.552466e-06	1.428526e-08	1.839920e+01	9.326862e+02
2.230000e-06	2.462512e-06	1.405520e-08	1.775078e+01	9.180482e+02
2.240000e-06	2.371771e-06	1.381808e-08	1.709668e+01	9.028049e+02
2.250000e-06	2.280369e-06	1.357420e-08	1.643782e+01	8.869245e+02
2.260000e-06	2.188233e-06	1.332443e-08	1.577366e+01	8.703695e+02
2.270000e-06	2.095228e-06	1.306370e-08	1.510325e+01	8.530968e+02
2.280000e-06	2.001238e-06	1.279385e-08	1.442573e+01	8.350598e+02
2.290000e-06	1.906327e-06	1.251101e-08	1.374157e+01	8.162112e+02
2.300000e-06	1.810743e-06	1.221080e-08	1.305256e+01	7.965043e+02
2.310000e-06	1.714610e-06	1.189632e-08	1.235960e+01	7.758948e+02
2.320000e-06	1.617995e-06	1.156841e-08	1.166316e+01	7.543399e+02
2.330000e-06	1.520907e-06	1.122860e-08	1.096331e+01	7.317970e+02
2.340000e-06	1.423245e-06	1.086759e-08	1.025932e+01	7.082214e+02
2.350000e-06	1.325021e-06	1.048770e-08	9.551283e+00	6.835648e+02
2.360000e-06	1.226370e-06	1.009254e-08	8.840166e+00	6.577753e+02
2.370000e-06	1.127422e-06	9.686129e-09	8.126912e+00	6.307998e+02
2.380000e-06	1.028243e-06	9.264719e-09	7.411990e+00	6.025901e+02
2.390000e-06	9.288271e-07	8.820529e-09	6.695359e+00	5.731105e+02
2.400000e-06	8.291961e-07	8.352919e-09	5.977178e+00	5.423471e+02
2.410000e-06	7.293423e-07	7.862667e-09	5.257392e+00	5.103169e+02
2.420000e-06	6.292342e-07	7.350265e-09	4.535773e+00	4.770741e+02
2.430000e-06	5.289402e-07	6.819343e-09	3.812814e+00	4.427130e+02
2.440000e-06	4.285170e-07	6.277337e-09	3.088922e+00	4.073657e+02
2.450000e-06	3.278822e-07	5.725441e-09	2.363507e+00	3.711942e+02
2.460000e-06	2.270151e-07	5.164658e-09	1.636416e+00	3.343787e+02
2.470000e-06	1.260290e-07	4.597641e-09	9.084675e-01	2.971015e+02
2.480000e-06	2.497387e-08	4.027117e-09	1.800217e-01	2.595316e+02
2.490000e-06	-7.609172e-08	3.452180e-09	-5.484997e-01	2.218082e+02
2.500000e-06	-1.770875e-07	2.872347e-09	-1.276518e+00	1.840285e+02
2.510000e-06	-2.780089e-07	2.289864e-09	-2.004000e+00	1.462400e+02
2.520000e-06	-3.788098e-07	1.706228e-09	-2.730613e+00	1.084375e+02
2.530000e-06	-4.794424e-07	1.122459e-09	-3.456014e+00	7.056650e+01
2.540000e-06	-5.798775e-07	5.388981e-10	-4.179990e+00	3.253188e+01
2.550000e-06	-6.800846e-07	-4.611115e-11	-4.902323e+00	-5.788676e+00
2.560000e-06	-7.800526e-07	-6.369601e-10	-5.622932e+00	-4.452787e+01
2.570000e-06	-8.798068e-07	-1.236186e-09	-6.342001e+00	-8.380981e+01
2.580000e-06	-9.793587e-07	-1.844828e-09	-7.059611e+00	-1.237309e+02
2.590000e-06	-1.078631e-06	-2.463975e-09	-7.775206e+00	-1.643420e+02
2.600000e-06	-1.177515e-06	-3.093460e-09	-8.487998e+00	-2.056344e+02
2.610000e-06	-1.275979e-06	-3.732726e-09	-9.197767e+00	-2.475308e+02
2.620000e-06	-1.373999e-06	-4.381057e-09	-9.904338e+00	-2.898826e+02
2.630000e-06	-1.471517e-06	-5.034064e-09	-1.060729e+01	-3.324751e+02
2.640000e-06	-1.568481e-06	-5.684842e-09	-1.130624e+01	-3.750397e+02
2.650000e-06	-1.664904e-06	-6.327826e-09	-1.200129e+01	-4.172721e+02
2.660000e-06	-1.760899e-06	-6.960770e-09	-1.269327e+01	-4.588551e+02
2.670000e-06	-1.856521e-06	-7.582192e-09	-1.338255e+01	-4.994832e+02
2.680000e-06	-1.951539e-06	-8.188275e-09	-1.406747e+01	-5.388845e+02
2.690000e-06	-2.045553e-06	-8.771623e-09	-1.474517e+01	-5.768392e+02
2.700000e-06	-2.138425e-06	-9.330770e-09	-1.541463e+01	-6.131907e+02
2.710000e-06	-2.230395e-06	-9.865251e-09	-1.607758e+01	-6.478487e+02
2.720000e-06	-2.321685e-06	-1.037106e-08	-1.673564e+01	-6.807849e+02
2.730000e-06	-2.412235e-06	-1.084969e-08	-1.738836e+01	-7.120215e+02
2.740000e-06	-2.501914e-06	-1.130478e-08	-1.803480e+01	-7.416172e+02
2.750000e-06	-2.590621e-06	-1.173472e-08	-1.867423e+01	-7.696507e+02
2.760000e-06	-2.678550e-06	-1.213967e-08	-1.930806e+01	-7.962074e+02
2.770000e-06	-2.765776e-06	-1.252429e-08	-1.993683e+01	-8.213688e+02
2.780000e-06	-2.851897e-06	-1.288975e-08	-2.055762e+01	-8.452077e+02
2.790000e-06	-2.936694e-06	-1.323528e-08	-2.116887e+01	-8.677873e+02
2.800000e-06	-3.020413e-06	-1.356181e-08	-2.177235e+01	-8.891641e+02
2.810000e-06	-3.103229e-06	-1.387185e-08	-2.236932e+01	-9.093926e+02
2.820000e-06	-3.185086e-06	-1.416653e-08	-2.295938e+01	-9.285293e+02
2.830000e-06	-3.265913e-06	-1.444564e-08	-2.354201e+01	-9.466355e+02
2.840000e-06	-3.345728e-06	-1.470940e-08	-2.411735e+01	-9.637770e+02
2.850000e-06	-3.424263e-06	-1.495810e-08	-2.468346e+01	-9.800220e+02
2.860000e-06	-3.501226e-06	-1.519337e-08	-2.523824e+01	-9.954372e+02
2.870000e-06	-3.576727e-06	-1.541817e-08	-2.578248e+01	-1.010084e+03
2.880000e-06	-3.650840e-06	-1.563360e-08	-2.631672e+01	-1.024015e+03
2.890000e-06	-3.723624e-06	-1.583977e-08	-2.684138e+01	-1.037273e+03
2.900000e-06	-3.795160e-06	-1.603633e-08	-2.735704e+01	-1.049892e+03
2.910000e-06	-3.865274e-06	-1.622315e-08	-2.786245e+01	-1.061900e+03
2.920000e-06	-3.933816e-06	-1.639966e-08	-2.835653e+01	-1.073323e+03
2.930000e-06	-4.000969e-06	-1.656571e-08	-2.884059e+01	-1.084184e+03
2.940000e-06	-4.066763e-06	-1.672209e-08	-2.931486e+01	-1.094508e+03
