# Temperatura_=_42.31
# Concentracion g/m^3_=_28200.0
# C_Vs_to_Am_M_A/Vsm_=_65563218390.804596
# pendiente_HvsI_1/m_=_3716.3
# ordenada_HvsI_A/m_=_1297.0
# frecuencia_Hz_=_301774.2243761862

Tiempo_(s)	Campo_(V.s)	Magnetizacion_(V.s)	Campo_(kA/m)	Magnetizacion_(A/m)
0.000000e+00	-5.310773e-06	-2.036045e-08	-3.829761e+01	-1.331089e+03
1.000000e-08	-5.308798e-06	-2.035922e-08	-3.828337e+01	-1.330767e+03
2.000000e-08	-5.304924e-06	-2.034803e-08	-3.825543e+01	-1.330317e+03
3.000000e-08	-5.299464e-06	-2.033495e-08	-3.821606e+01	-1.329727e+03
4.000000e-08	-5.292386e-06	-2.032270e-08	-3.816501e+01	-1.328979e+03
5.000000e-08	-5.283631e-06	-2.030455e-08	-3.810189e+01	-1.328047e+03
6.000000e-08	-5.272905e-06	-2.028222e-08	-3.802454e+01	-1.326911e+03
7.000000e-08	-5.260252e-06	-2.025172e-08	-3.793329e+01	-1.325559e+03
8.000000e-08	-5.245740e-06	-2.021359e-08	-3.782864e+01	-1.323997e+03
9.000000e-08	-5.228960e-06	-2.026183e-08	-3.770763e+01	-1.322247e+03
1.000000e-07	-5.210009e-06	-2.027774e-08	-3.757097e+01	-1.320345e+03
1.100000e-07	-5.189194e-06	-2.017675e-08	-3.742087e+01	-1.318333e+03
1.200000e-07	-5.166571e-06	-2.013062e-08	-3.725773e+01	-1.316254e+03
1.300000e-07	-5.142373e-06	-2.003586e-08	-3.708322e+01	-1.314136e+03
1.400000e-07	-5.116597e-06	-1.991297e-08	-3.689735e+01	-1.311991e+03
1.500000e-07	-5.089147e-06	-2.009900e-08	-3.669940e+01	-1.309804e+03
1.600000e-07	-5.060209e-06	-2.001156e-08	-3.649072e+01	-1.307544e+03
1.700000e-07	-5.029919e-06	-1.983844e-08	-3.627228e+01	-1.305161e+03
1.800000e-07	-4.997921e-06	-2.002364e-08	-3.604154e+01	-1.302601e+03
1.900000e-07	-4.963745e-06	-1.982402e-08	-3.579509e+01	-1.299814e+03
2.000000e-07	-4.927945e-06	-1.968388e-08	-3.553692e+01	-1.296763e+03
2.100000e-07	-4.890677e-06	-1.982771e-08	-3.526817e+01	-1.293431e+03
2.200000e-07	-4.851617e-06	-1.964118e-08	-3.498650e+01	-1.289816e+03
2.300000e-07	-4.810774e-06	-1.954685e-08	-3.469196e+01	-1.285936e+03
2.400000e-07	-4.767877e-06	-1.956889e-08	-3.438262e+01	-1.281815e+03
2.500000e-07	-4.723080e-06	-1.943486e-08	-3.405958e+01	-1.277477e+03
2.600000e-07	-4.676617e-06	-1.944595e-08	-3.372452e+01	-1.272940e+03
2.700000e-07	-4.628289e-06	-1.936121e-08	-3.337601e+01	-1.268210e+03
2.800000e-07	-4.577878e-06	-1.921837e-08	-3.301248e+01	-1.263279e+03
2.900000e-07	-4.525426e-06	-1.914292e-08	-3.263424e+01	-1.258128e+03
3.000000e-07	-4.471248e-06	-1.907905e-08	-3.224354e+01	-1.252734e+03
3.100000e-07	-4.415583e-06	-1.902516e-08	-3.184212e+01	-1.247074e+03
3.200000e-07	-4.358153e-06	-1.891271e-08	-3.142797e+01	-1.241133e+03
3.300000e-07	-4.298902e-06	-1.882408e-08	-3.100070e+01	-1.234904e+03
3.400000e-07	-4.238206e-06	-1.870871e-08	-3.056301e+01	-1.228392e+03
3.500000e-07	-4.176133e-06	-1.857206e-08	-3.011537e+01	-1.221609e+03
3.600000e-07	-4.112689e-06	-1.848251e-08	-2.965786e+01	-1.214570e+03
3.700000e-07	-4.047750e-06	-1.838660e-08	-2.918957e+01	-1.207286e+03
3.800000e-07	-3.981160e-06	-1.829934e-08	-2.870937e+01	-1.199762e+03
3.900000e-07	-3.913031e-06	-1.815706e-08	-2.821807e+01	-1.191993e+03
4.000000e-07	-3.843579e-06	-1.799251e-08	-2.771723e+01	-1.183964e+03
4.100000e-07	-3.772907e-06	-1.789050e-08	-2.720759e+01	-1.175652e+03
4.200000e-07	-3.701035e-06	-1.776332e-08	-2.668930e+01	-1.167030e+03
4.300000e-07	-3.627814e-06	-1.763205e-08	-2.616128e+01	-1.158072e+03
4.400000e-07	-3.552998e-06	-1.748489e-08	-2.562176e+01	-1.148758e+03
4.500000e-07	-3.476683e-06	-1.733173e-08	-2.507142e+01	-1.139072e+03
4.600000e-07	-3.399100e-06	-1.717177e-08	-2.451196e+01	-1.129004e+03
4.700000e-07	-3.320153e-06	-1.701096e-08	-2.394264e+01	-1.118548e+03
4.800000e-07	-3.239790e-06	-1.686218e-08	-2.336312e+01	-1.107696e+03
4.900000e-07	-3.158209e-06	-1.667777e-08	-2.277481e+01	-1.096441e+03
5.000000e-07	-3.075597e-06	-1.649438e-08	-2.217907e+01	-1.084766e+03
5.100000e-07	-2.992027e-06	-1.630832e-08	-2.157643e+01	-1.072652e+03
5.200000e-07	-2.907594e-06	-1.611485e-08	-2.096755e+01	-1.060070e+03
5.300000e-07	-2.822307e-06	-1.591445e-08	-2.035252e+01	-1.046993e+03
5.400000e-07	-2.736026e-06	-1.570788e-08	-1.973032e+01	-1.033389e+03
5.500000e-07	-2.648828e-06	-1.549334e-08	-1.910151e+01	-1.019227e+03
5.600000e-07	-2.560787e-06	-1.525960e-08	-1.846662e+01	-1.004479e+03
5.700000e-07	-2.471710e-06	-1.502366e-08	-1.782425e+01	-9.891185e+02
5.800000e-07	-2.381413e-06	-1.478072e-08	-1.717310e+01	-9.731163e+02
5.900000e-07	-2.290089e-06	-1.452651e-08	-1.651453e+01	-9.564420e+02
6.000000e-07	-2.198049e-06	-1.425560e-08	-1.585081e+01	-9.390600e+02
6.100000e-07	-2.105312e-06	-1.397311e-08	-1.518205e+01	-9.209287e+02
6.200000e-07	-2.011766e-06	-1.368479e-08	-1.450746e+01	-9.020008e+02
6.300000e-07	-1.917481e-06	-1.338722e-08	-1.382754e+01	-8.822240e+02
6.400000e-07	-1.822601e-06	-1.307658e-08	-1.314333e+01	-8.615430e+02
6.500000e-07	-1.727142e-06	-1.274601e-08	-1.245495e+01	-8.399017e+02
6.600000e-07	-1.631059e-06	-1.239460e-08	-1.176207e+01	-8.172438e+02
6.700000e-07	-1.534382e-06	-1.202477e-08	-1.106490e+01	-7.935141e+02
6.800000e-07	-1.437054e-06	-1.164262e-08	-1.036304e+01	-7.686573e+02
6.900000e-07	-1.339046e-06	-1.124718e-08	-9.656272e+00	-7.426178e+02
7.000000e-07	-1.240455e-06	-1.083635e-08	-8.945298e+00	-7.153396e+02
7.100000e-07	-1.141400e-06	-1.040304e-08	-8.230987e+00	-6.867677e+02
7.200000e-07	-1.041977e-06	-9.943354e-09	-7.514012e+00	-6.568518e+02
7.300000e-07	-9.422233e-07	-9.459364e-09	-6.794661e+00	-6.255528e+02
7.400000e-07	-8.422015e-07	-8.956792e-09	-6.073373e+00	-5.928506e+02
7.500000e-07	-7.419718e-07	-8.440613e-09	-5.350586e+00	-5.587535e+02
7.600000e-07	-6.415396e-07	-7.903831e-09	-4.626338e+00	-5.233063e+02
7.700000e-07	-5.409455e-07	-7.344992e-09	-3.900924e+00	-4.865947e+02
7.800000e-07	-4.401991e-07	-6.769063e-09	-3.174411e+00	-4.487470e+02
7.900000e-07	-3.393048e-07	-6.179179e-09	-2.446831e+00	-4.099284e+02
8.000000e-07	-2.383429e-07	-5.574710e-09	-1.718764e+00	-3.703307e+02
8.100000e-07	-1.373101e-07	-4.961889e-09	-9.901855e-01	-3.301572e+02
8.200000e-07	-3.617633e-08	-4.345909e-09	-2.608786e-01	-2.896039e+02
8.300000e-07	6.500708e-08	-3.726461e-09	4.687859e-01	-2.488411e+02
8.400000e-07	1.662133e-07	-3.105435e-09	1.198615e+00	-2.079959e+02
8.500000e-07	2.673742e-07	-2.485079e-09	1.928117e+00	-1.671403e+02
8.600000e-07	3.684475e-07	-1.864495e-09	2.656988e+00	-1.262846e+02
8.700000e-07	4.694711e-07	-1.240537e-09	3.385500e+00	-8.537900e+01
8.800000e-07	5.703788e-07	-6.152606e-10	4.113176e+00	-4.432179e+01
8.900000e-07	6.711189e-07	1.336579e-11	4.839644e+00	-2.974891e+00
9.000000e-07	7.716795e-07	6.498223e-10	5.564817e+00	3.881629e+01
9.100000e-07	8.720510e-07	1.296556e-09	6.288627e+00	8.119996e+01
9.200000e-07	9.721838e-07	1.951851e-09	7.010716e+00	1.242948e+02
9.300000e-07	1.072039e-06	2.616754e-09	7.730803e+00	1.681689e+02
9.400000e-07	1.171515e-06	3.294876e-09	8.448157e+00	2.128237e+02
9.500000e-07	1.270486e-06	3.984832e-09	9.161864e+00	2.581834e+02
9.600000e-07	1.368881e-06	4.682439e-09	9.871423e+00	3.040929e+02
9.700000e-07	1.466643e-06	5.385254e-09	1.057641e+01	3.503231e+02
9.800000e-07	1.563751e-06	6.090790e-09	1.127669e+01	3.965843e+02
9.900000e-07	1.660205e-06	6.792617e-09	1.197224e+01	4.425460e+02
1.000000e-06	1.755953e-06	7.482453e-09	1.266271e+01	4.878603e+02
1.010000e-06	1.850997e-06	8.153903e-09	1.334811e+01	5.321882e+02
1.020000e-06	1.945441e-06	8.804650e-09	1.402917e+01	5.752228e+02
1.030000e-06	2.039267e-06	9.431154e-09	1.470578e+01	6.167098e+02
1.040000e-06	2.132442e-06	1.002920e-08	1.537769e+01	6.564606e+02
1.050000e-06	2.224928e-06	1.060150e-08	1.604464e+01	6.943579e+02
1.060000e-06	2.316750e-06	1.114743e-08	1.670679e+01	7.303534e+02
1.070000e-06	2.407809e-06	1.166655e-08	1.736345e+01	7.644583e+02
1.080000e-06	2.497851e-06	1.215697e-08	1.801277e+01	7.967291e+02
1.090000e-06	2.586752e-06	1.262101e-08	1.865386e+01	8.272516e+02
1.100000e-06	2.674589e-06	1.305922e-08	1.928728e+01	8.561249e+02
1.110000e-06	2.761540e-06	1.347353e-08	1.991431e+01	8.834485e+02
1.120000e-06	2.847642e-06	1.386607e-08	2.053522e+01	9.093140e+02
1.130000e-06	2.932783e-06	1.423791e-08	2.114920e+01	9.338014e+02
1.140000e-06	3.017001e-06	1.458811e-08	2.175652e+01	9.569799e+02
1.150000e-06	3.100345e-06	1.491750e-08	2.235754e+01	9.789119e+02
1.160000e-06	3.182571e-06	1.523151e-08	2.295049e+01	9.996568e+02
1.170000e-06	3.263586e-06	1.553035e-08	2.353472e+01	1.019276e+03
1.180000e-06	3.343430e-06	1.581402e-08	2.411050e+01	1.037834e+03
1.190000e-06	3.422089e-06	1.608063e-08	2.467773e+01	1.055400e+03
1.200000e-06	3.499597e-06	1.633297e-08	2.523667e+01	1.072044e+03
1.210000e-06	3.575956e-06	1.657049e-08	2.578731e+01	1.087834e+03
1.220000e-06	3.650908e-06	1.679597e-08	2.632781e+01	1.102831e+03
1.230000e-06	3.724240e-06	1.701041e-08	2.685664e+01	1.117091e+03
1.240000e-06	3.796083e-06	1.721388e-08	2.737472e+01	1.130658e+03
1.250000e-06	3.866547e-06	1.740702e-08	2.788285e+01	1.143570e+03
1.260000e-06	3.935690e-06	1.758935e-08	2.838147e+01	1.155858e+03
1.270000e-06	4.003592e-06	1.776259e-08	2.887113e+01	1.167549e+03
1.280000e-06	4.069966e-06	1.792930e-08	2.934977e+01	1.178669e+03
1.290000e-06	4.134642e-06	1.809107e-08	2.981617e+01	1.189244e+03
1.300000e-06	4.197812e-06	1.824769e-08	3.027171e+01	1.199299e+03
1.310000e-06	4.259552e-06	1.839676e-08	3.071693e+01	1.208857e+03
1.320000e-06	4.319946e-06	1.853745e-08	3.115246e+01	1.217936e+03
1.330000e-06	4.378920e-06	1.866948e-08	3.157773e+01	1.226551e+03
1.340000e-06	4.436157e-06	1.879200e-08	3.199049e+01	1.234711e+03
1.350000e-06	4.491678e-06	1.890693e-08	3.239087e+01	1.242423e+03
1.360000e-06	4.545636e-06	1.901389e-08	3.277997e+01	1.249694e+03
1.370000e-06	4.597871e-06	1.911416e-08	3.315666e+01	1.256534e+03
1.380000e-06	4.648175e-06	1.920982e-08	3.351941e+01	1.262962e+03
1.390000e-06	4.696487e-06	1.930162e-08	3.386780e+01	1.269003e+03
1.400000e-06	4.743039e-06	1.939009e-08	3.420351e+01	1.274693e+03
1.410000e-06	4.788053e-06	1.947439e-08	3.452811e+01	1.280071e+03
1.420000e-06	4.831548e-06	1.955388e-08	3.484177e+01	1.285174e+03
1.430000e-06	4.873224e-06	1.962735e-08	3.514231e+01	1.290035e+03
1.440000e-06	4.913030e-06	1.969586e-08	3.542937e+01	1.294676e+03
1.450000e-06	4.951227e-06	1.976151e-08	3.570482e+01	1.299103e+03
1.460000e-06	4.987882e-06	1.982370e-08	3.596915e+01	1.303310e+03
1.470000e-06	5.022884e-06	1.988233e-08	3.622156e+01	1.307278e+03
1.480000e-06	5.055945e-06	1.993789e-08	3.645997e+01	1.310986e+03
1.490000e-06	5.087126e-06	1.998900e-08	3.668482e+01	1.314411e+03
1.500000e-06	5.116613e-06	2.003673e-08	3.689747e+01	1.317541e+03
1.510000e-06	5.144488e-06	2.008072e-08	3.709848e+01	1.320373e+03
1.520000e-06	5.170495e-06	2.011995e-08	3.728602e+01	1.322918e+03
1.530000e-06	5.194399e-06	2.015478e-08	3.745840e+01	1.325195e+03
1.540000e-06	5.216422e-06	2.018398e-08	3.761722e+01	1.327230e+03
1.550000e-06	5.236784e-06	2.020902e-08	3.776405e+01	1.329047e+03
1.560000e-06	5.255426e-06	2.023173e-08	3.789849e+01	1.330665e+03
1.570000e-06	5.272044e-06	2.025243e-08	3.801832e+01	1.332093e+03
1.580000e-06	5.286630e-06	2.027090e-08	3.812351e+01	1.333332e+03
1.590000e-06	5.299277e-06	2.028592e-08	3.821471e+01	1.334375e+03
1.600000e-06	5.309757e-06	2.029928e-08	3.829029e+01	1.335216e+03
1.610000e-06	5.318121e-06	2.031062e-08	3.835060e+01	1.335849e+03
1.620000e-06	5.324644e-06	2.031837e-08	3.839764e+01	1.336278e+03
1.630000e-06	5.329435e-06	2.032304e-08	3.843219e+01	1.336513e+03
1.640000e-06	5.332392e-06	2.032542e-08	3.845351e+01	1.336572e+03
1.650000e-06	5.333292e-06	2.032896e-08	3.846000e+01	1.336475e+03
1.660000e-06	5.332297e-06	2.032631e-08	3.845283e+01	1.336240e+03
1.670000e-06	5.329664e-06	2.031661e-08	3.843384e+01	1.335876e+03
1.680000e-06	5.325440e-06	2.031193e-08	3.840338e+01	1.335382e+03
1.690000e-06	5.319325e-06	2.030461e-08	3.835928e+01	1.334743e+03
1.700000e-06	5.311321e-06	2.029378e-08	3.830156e+01	1.333937e+03
1.710000e-06	5.301793e-06	2.028215e-08	3.823285e+01	1.332941e+03
1.720000e-06	5.290624e-06	2.027459e-08	3.815231e+01	1.331735e+03
1.730000e-06	5.277528e-06	2.028969e-08	3.805787e+01	1.330313e+03
1.740000e-06	5.262443e-06	2.018875e-08	3.794909e+01	1.328687e+03
1.750000e-06	5.245298e-06	2.009614e-08	3.782545e+01	1.326882e+03
1.760000e-06	5.225724e-06	2.013765e-08	3.768430e+01	1.324939e+03
1.770000e-06	5.203552e-06	2.011481e-08	3.752441e+01	1.322901e+03
1.780000e-06	5.179468e-06	2.020934e-08	3.735073e+01	1.320806e+03
1.790000e-06	5.154533e-06	2.017253e-08	3.717091e+01	1.318678e+03
1.800000e-06	5.128800e-06	1.988358e-08	3.698534e+01	1.316521e+03
1.810000e-06	5.101224e-06	2.005576e-08	3.678649e+01	1.314315e+03
1.820000e-06	5.071506e-06	2.001196e-08	3.657218e+01	1.312020e+03
1.830000e-06	5.040097e-06	1.975724e-08	3.634568e+01	1.309585e+03
1.840000e-06	5.006794e-06	2.004148e-08	3.610553e+01	1.306956e+03
1.850000e-06	4.971776e-06	1.991487e-08	3.585300e+01	1.304087e+03
1.860000e-06	4.935286e-06	1.968878e-08	3.558986e+01	1.300946e+03
1.870000e-06	4.896805e-06	1.987988e-08	3.531236e+01	1.297520e+03
1.880000e-06	4.856575e-06	1.968646e-08	3.502225e+01	1.293817e+03
1.890000e-06	4.814705e-06	1.967167e-08	3.472032e+01	1.289856e+03
1.900000e-06	4.771050e-06	1.967388e-08	3.440550e+01	1.285661e+03
1.910000e-06	4.725794e-06	1.938045e-08	3.407915e+01	1.281258e+03
1.920000e-06	4.678593e-06	1.953402e-08	3.373876e+01	1.276658e+03
1.930000e-06	4.629634e-06	1.946050e-08	3.338571e+01	1.271864e+03
1.940000e-06	4.579089e-06	1.930158e-08	3.302122e+01	1.266863e+03
1.950000e-06	4.526520e-06	1.927891e-08	3.264213e+01	1.261636e+03
1.960000e-06	4.471973e-06	1.911292e-08	3.224876e+01	1.256158e+03
1.970000e-06	4.415643e-06	1.912756e-08	3.184256e+01	1.250408e+03
1.980000e-06	4.357710e-06	1.894061e-08	3.142478e+01	1.244373e+03
1.990000e-06	4.298392e-06	1.885026e-08	3.099702e+01	1.238052e+03
2.000000e-06	4.237628e-06	1.888608e-08	3.055883e+01	1.231450e+03
2.010000e-06	4.175201e-06	1.866916e-08	3.010866e+01	1.224582e+03
2.020000e-06	4.111084e-06	1.858033e-08	2.964629e+01	1.217462e+03
2.030000e-06	4.045528e-06	1.842136e-08	2.917354e+01	1.210100e+03
2.040000e-06	3.978651e-06	1.836186e-08	2.869127e+01	1.202498e+03
2.050000e-06	3.910419e-06	1.829306e-08	2.819923e+01	1.194647e+03
2.060000e-06	3.840683e-06	1.808175e-08	2.769634e+01	1.186529e+03
2.070000e-06	3.769380e-06	1.801313e-08	2.718216e+01	1.178119e+03
2.080000e-06	3.696797e-06	1.783850e-08	2.665873e+01	1.169391e+03
2.090000e-06	3.622919e-06	1.771123e-08	2.612598e+01	1.160320e+03
2.100000e-06	3.547682e-06	1.757625e-08	2.558342e+01	1.150886e+03
2.110000e-06	3.471069e-06	1.742103e-08	2.503094e+01	1.141077e+03
2.120000e-06	3.392940e-06	1.729320e-08	2.446753e+01	1.130884e+03
2.130000e-06	3.313512e-06	1.709184e-08	2.389475e+01	1.120301e+03
2.140000e-06	3.232965e-06	1.695012e-08	2.331390e+01	1.109320e+03
2.150000e-06	3.151332e-06	1.676434e-08	2.272522e+01	1.097931e+03
2.160000e-06	3.068592e-06	1.659940e-08	2.212856e+01	1.086116e+03
2.170000e-06	2.984834e-06	1.642636e-08	2.152455e+01	1.073854e+03
2.180000e-06	2.900082e-06	1.621942e-08	2.091338e+01	1.061116e+03
2.190000e-06	2.814028e-06	1.601964e-08	2.029282e+01	1.047871e+03
2.200000e-06	2.726791e-06	1.579843e-08	1.966372e+01	1.034090e+03
2.210000e-06	2.638656e-06	1.559694e-08	1.902816e+01	1.019742e+03
2.220000e-06	2.549627e-06	1.536416e-08	1.838614e+01	1.004799e+03
2.230000e-06	2.459646e-06	1.512922e-08	1.773726e+01	9.892347e+02
2.240000e-06	2.368859e-06	1.488290e-08	1.708257e+01	9.730192e+02
2.250000e-06	2.277415e-06	1.463376e-08	1.642314e+01	9.561206e+02
2.260000e-06	2.185307e-06	1.437218e-08	1.575892e+01	9.385017e+02
2.270000e-06	2.092453e-06	1.408698e-08	1.508932e+01	9.201188e+02
2.280000e-06	1.998626e-06	1.379683e-08	1.441270e+01	9.009230e+02
2.290000e-06	1.903780e-06	1.348674e-08	1.372874e+01	8.808608e+02
2.300000e-06	1.808180e-06	1.316703e-08	1.303934e+01	8.598764e+02
2.310000e-06	1.712056e-06	1.283248e-08	1.234616e+01	8.379135e+02
2.320000e-06	1.615452e-06	1.248754e-08	1.164952e+01	8.149162e+02
2.330000e-06	1.518359e-06	1.212328e-08	1.094935e+01	7.908293e+02
2.340000e-06	1.420692e-06	1.173620e-08	1.024504e+01	7.655975e+02
2.350000e-06	1.322488e-06	1.132871e-08	9.536869e+00	7.391651e+02
2.360000e-06	1.223926e-06	1.090863e-08	8.826108e+00	7.114760e+02
2.370000e-06	1.125082e-06	1.047746e-08	8.113307e+00	6.824763e+02
2.380000e-06	1.025968e-06	1.002286e-08	7.398573e+00	6.521184e+02
2.390000e-06	9.266022e-07	9.538606e-09	6.682012e+00	6.203684e+02
2.400000e-06	8.269879e-07	9.024774e-09	5.963663e+00	5.872145e+02
2.410000e-06	7.271239e-07	8.492886e-09	5.243513e+00	5.526758e+02
2.420000e-06	6.269791e-07	7.942959e-09	4.521338e+00	5.168098e+02
2.430000e-06	5.265791e-07	7.375202e-09	3.797323e+00	4.797162e+02
2.440000e-06	4.260347e-07	6.793479e-09	3.072267e+00	4.415359e+02
2.450000e-06	3.254009e-07	6.199551e-09	2.346565e+00	4.024441e+02
2.460000e-06	2.246295e-07	5.591156e-09	1.619872e+00	3.626383e+02
2.470000e-06	1.236654e-07	4.974011e-09	8.917894e-01	3.223213e+02
2.480000e-06	2.263194e-08	4.354898e-09	1.632058e-01	2.816829e+02
2.490000e-06	-7.839095e-08	3.731606e-09	-5.653012e-01	2.408813e+02
2.500000e-06	-1.794064e-07	3.104926e-09	-1.293755e+00	2.000269e+02
2.510000e-06	-2.803432e-07	2.478131e-09	-2.021641e+00	1.591722e+02
2.520000e-06	-3.811923e-07	1.852827e-09	-2.748895e+00	1.183078e+02
2.530000e-06	-4.819303e-07	1.226742e-09	-3.475347e+00	7.736567e+01
2.540000e-06	-5.824839e-07	5.986929e-10	-4.200470e+00	3.623073e+01
2.550000e-06	-6.828225e-07	-3.543852e-11	-4.924042e+00	-5.242862e+00
2.560000e-06	-7.829539e-07	-6.764294e-10	-5.646120e+00	-4.721020e+01
2.570000e-06	-8.827800e-07	-1.325361e-09	-6.365997e+00	-8.981246e+01
2.580000e-06	-9.822690e-07	-1.986273e-09	-7.083443e+00	-1.331542e+02
2.590000e-06	-1.081424e-06	-2.660376e-09	-7.798477e+00	-1.772836e+02
2.600000e-06	-1.180263e-06	-3.349169e-09	-8.511241e+00	-2.221780e+02
2.610000e-06	-1.278825e-06	-4.047987e-09	-9.222001e+00	-2.677360e+02
2.620000e-06	-1.376949e-06	-4.752676e-09	-9.929600e+00	-3.137777e+02
2.630000e-06	-1.474474e-06	-5.461434e-09	-1.063288e+01	-3.600528e+02
2.640000e-06	-1.571396e-06	-6.168056e-09	-1.133181e+01	-4.062560e+02
2.650000e-06	-1.667813e-06	-6.868176e-09	-1.202711e+01	-4.520485e+02
2.660000e-06	-1.763852e-06	-7.558186e-09	-1.271968e+01	-4.970826e+02
2.670000e-06	-1.859376e-06	-8.231793e-09	-1.340853e+01	-5.410270e+02
2.680000e-06	-1.954061e-06	-8.883588e-09	-1.409133e+01	-5.835898e+02
2.690000e-06	-2.047763e-06	-9.511128e-09	-1.476705e+01	-6.245368e+02
2.700000e-06	-2.140609e-06	-1.011321e-08	-1.543658e+01	-6.637022e+02
2.710000e-06	-2.232683e-06	-1.068820e-08	-1.610056e+01	-7.009913e+02
2.720000e-06	-2.323917e-06	-1.123516e-08	-1.675848e+01	-7.363763e+02
2.730000e-06	-2.414351e-06	-1.175165e-08	-1.741062e+01	-7.698846e+02
2.740000e-06	-2.503919e-06	-1.223723e-08	-1.805653e+01	-8.015841e+02
2.750000e-06	-2.592608e-06	-1.269464e-08	-1.869609e+01	-8.315664e+02
2.760000e-06	-2.680562e-06	-1.312662e-08	-1.933036e+01	-8.599319e+02
2.770000e-06	-2.767668e-06	-1.353587e-08	-1.995850e+01	-8.867782e+02
2.780000e-06	-2.853667e-06	-1.392604e-08	-2.057867e+01	-9.121935e+02
2.790000e-06	-2.938534e-06	-1.429756e-08	-2.119067e+01	-9.362540e+02
2.800000e-06	-3.022362e-06	-1.464807e-08	-2.179518e+01	-9.590262e+02
2.810000e-06	-3.105179e-06	-1.497759e-08	-2.239240e+01	-9.805710e+02
2.820000e-06	-3.186930e-06	-1.528817e-08	-2.298193e+01	-1.000948e+03
2.830000e-06	-3.267655e-06	-1.558326e-08	-2.356406e+01	-1.020220e+03
2.840000e-06	-3.347412e-06	-1.586532e-08	-2.413921e+01	-1.038453e+03
2.850000e-06	-3.425885e-06	-1.613225e-08	-2.470511e+01	-1.055716e+03
2.860000e-06	-3.502783e-06	-1.638340e-08	-2.525964e+01	-1.072078e+03
2.870000e-06	-3.578194e-06	-1.662185e-08	-2.580345e+01	-1.087608e+03
2.880000e-06	-3.652274e-06	-1.684890e-08	-2.633767e+01	-1.102364e+03
2.890000e-06	-3.725053e-06	-1.706511e-08	-2.686250e+01	-1.116397e+03
2.900000e-06	-3.796572e-06	-1.727141e-08	-2.737825e+01	-1.129751e+03
2.910000e-06	-3.866607e-06	-1.746951e-08	-2.788328e+01	-1.142460e+03
2.920000e-06	-3.935030e-06	-1.765937e-08	-2.837671e+01	-1.154554e+03
2.930000e-06	-4.002109e-06	-1.783807e-08	-2.886044e+01	-1.166060e+03
2.940000e-06	-4.067862e-06	-1.800689e-08	-2.933460e+01	-1.177003e+03
