# Temperatura_=_51.64
# Concentracion g/m^3_=_28200.0
# C_Vs_to_Am_M_A/Vsm_=_65563218390.804596
# pendiente_HvsI_1/m_=_3716.3
# ordenada_HvsI_A/m_=_1297.0
# frecuencia_Hz_=_301775.24108849646

Tiempo_(s)	Campo_(V.s)	Magnetizacion_(V.s)	Campo_(kA/m)	Magnetizacion_(A/m)
0.000000e+00	-5.328937e-06	-2.055087e-08	-3.829580e+01	-1.344297e+03
1.000000e-08	-5.327158e-06	-2.054622e-08	-3.828302e+01	-1.343976e+03
2.000000e-08	-5.323533e-06	-2.053759e-08	-3.825697e+01	-1.343515e+03
3.000000e-08	-5.318270e-06	-2.052489e-08	-3.821915e+01	-1.342910e+03
4.000000e-08	-5.311398e-06	-2.051244e-08	-3.816976e+01	-1.342151e+03
5.000000e-08	-5.302864e-06	-2.049842e-08	-3.810843e+01	-1.341219e+03
6.000000e-08	-5.292342e-06	-2.047986e-08	-3.803282e+01	-1.340098e+03
7.000000e-08	-5.279851e-06	-2.045562e-08	-3.794305e+01	-1.338774e+03
8.000000e-08	-5.265487e-06	-2.042990e-08	-3.783982e+01	-1.337243e+03
9.000000e-08	-5.248915e-06	-2.043630e-08	-3.772073e+01	-1.335517e+03
1.000000e-07	-5.230148e-06	-2.043459e-08	-3.758586e+01	-1.333618e+03
1.100000e-07	-5.209461e-06	-2.037382e-08	-3.743720e+01	-1.331578e+03
1.200000e-07	-5.186962e-06	-2.031952e-08	-3.727551e+01	-1.329432e+03
1.300000e-07	-5.162851e-06	-2.025453e-08	-3.710224e+01	-1.327212e+03
1.400000e-07	-5.137203e-06	-2.018468e-08	-3.691793e+01	-1.324935e+03
1.500000e-07	-5.109925e-06	-2.022611e-08	-3.672190e+01	-1.322604e+03
1.600000e-07	-5.081106e-06	-2.018962e-08	-3.651479e+01	-1.320203e+03
1.700000e-07	-5.050874e-06	-2.008822e-08	-3.629753e+01	-1.317697e+03
1.800000e-07	-5.018880e-06	-2.011453e-08	-3.606761e+01	-1.315042e+03
1.900000e-07	-4.984793e-06	-2.004131e-08	-3.582265e+01	-1.312191e+03
2.000000e-07	-4.949063e-06	-1.995763e-08	-3.556588e+01	-1.309101e+03
2.100000e-07	-4.911828e-06	-1.998648e-08	-3.529829e+01	-1.305742e+03
2.200000e-07	-4.872825e-06	-1.988721e-08	-3.501800e+01	-1.302099e+03
2.300000e-07	-4.831973e-06	-1.976621e-08	-3.472442e+01	-1.298175e+03
2.400000e-07	-4.789149e-06	-1.971704e-08	-3.441667e+01	-1.293985e+03
2.500000e-07	-4.744482e-06	-1.965005e-08	-3.409568e+01	-1.289551e+03
2.600000e-07	-4.698091e-06	-1.962446e-08	-3.376230e+01	-1.284895e+03
2.700000e-07	-4.649751e-06	-1.955770e-08	-3.341491e+01	-1.280033e+03
2.800000e-07	-4.599278e-06	-1.942926e-08	-3.305219e+01	-1.274973e+03
2.900000e-07	-4.546784e-06	-1.932804e-08	-3.267494e+01	-1.269710e+03
3.000000e-07	-4.492604e-06	-1.926074e-08	-3.228559e+01	-1.264228e+03
3.100000e-07	-4.436920e-06	-1.920331e-08	-3.188542e+01	-1.258510e+03
3.200000e-07	-4.379476e-06	-1.910834e-08	-3.147261e+01	-1.252535e+03
3.300000e-07	-4.320265e-06	-1.900915e-08	-3.104709e+01	-1.246288e+03
3.400000e-07	-4.259567e-06	-1.890148e-08	-3.061089e+01	-1.239761e+03
3.500000e-07	-4.197418e-06	-1.876600e-08	-3.016427e+01	-1.232954e+03
3.600000e-07	-4.133875e-06	-1.865935e-08	-2.970762e+01	-1.225874e+03
3.700000e-07	-4.068823e-06	-1.857960e-08	-2.924014e+01	-1.218527e+03
3.800000e-07	-4.002135e-06	-1.848475e-08	-2.876089e+01	-1.210922e+03
3.900000e-07	-3.933919e-06	-1.834345e-08	-2.827066e+01	-1.203059e+03
4.000000e-07	-3.864369e-06	-1.819163e-08	-2.777085e+01	-1.194931e+03
4.100000e-07	-3.793683e-06	-1.807014e-08	-2.726287e+01	-1.186523e+03
4.200000e-07	-3.721820e-06	-1.794395e-08	-2.674644e+01	-1.177812e+03
4.300000e-07	-3.648440e-06	-1.780879e-08	-2.621910e+01	-1.168774e+03
4.400000e-07	-3.573414e-06	-1.766463e-08	-2.567993e+01	-1.159382e+03
4.500000e-07	-3.496968e-06	-1.750526e-08	-2.513056e+01	-1.149616e+03
4.600000e-07	-3.419210e-06	-1.734220e-08	-2.457176e+01	-1.139461e+03
4.700000e-07	-3.340064e-06	-1.718803e-08	-2.400299e+01	-1.128905e+03
4.800000e-07	-3.259548e-06	-1.703413e-08	-2.342437e+01	-1.117943e+03
4.900000e-07	-3.177814e-06	-1.685401e-08	-2.283700e+01	-1.106570e+03
5.000000e-07	-3.095013e-06	-1.666251e-08	-2.224196e+01	-1.094779e+03
5.100000e-07	-3.011301e-06	-1.647173e-08	-2.164037e+01	-1.082558e+03
5.200000e-07	-2.926708e-06	-1.627419e-08	-2.103245e+01	-1.069889e+03
5.300000e-07	-2.841188e-06	-1.607220e-08	-2.041787e+01	-1.056745e+03
5.400000e-07	-2.754683e-06	-1.586776e-08	-1.979621e+01	-1.043094e+03
5.500000e-07	-2.667324e-06	-1.565219e-08	-1.916842e+01	-1.028899e+03
5.600000e-07	-2.579110e-06	-1.541857e-08	-1.853448e+01	-1.014122e+03
5.700000e-07	-2.489670e-06	-1.518037e-08	-1.789173e+01	-9.987233e+02
5.800000e-07	-2.399026e-06	-1.494046e-08	-1.724032e+01	-9.826662e+02
5.900000e-07	-2.307530e-06	-1.468836e-08	-1.658280e+01	-9.659145e+02
6.000000e-07	-2.215282e-06	-1.441920e-08	-1.591987e+01	-9.484331e+02
6.100000e-07	-2.122271e-06	-1.413361e-08	-1.525146e+01	-9.301865e+02
6.200000e-07	-2.028463e-06	-1.383873e-08	-1.457732e+01	-9.111370e+02
6.300000e-07	-1.933897e-06	-1.353576e-08	-1.389773e+01	-8.912434e+02
6.400000e-07	-1.838737e-06	-1.322320e-08	-1.321387e+01	-8.704599e+02
6.500000e-07	-1.743076e-06	-1.289501e-08	-1.252642e+01	-8.487359e+02
6.600000e-07	-1.646791e-06	-1.254498e-08	-1.183448e+01	-8.260156e+02
6.700000e-07	-1.549721e-06	-1.217450e-08	-1.113690e+01	-8.022392e+02
6.800000e-07	-1.451867e-06	-1.178894e-08	-1.043368e+01	-7.773434e+02
6.900000e-07	-1.353367e-06	-1.139159e-08	-9.725820e+00	-7.512628e+02
7.000000e-07	-1.254395e-06	-1.097900e-08	-9.014565e+00	-7.239322e+02
7.100000e-07	-1.155072e-06	-1.054558e-08	-8.300795e+00	-6.952896e+02
7.200000e-07	-1.055465e-06	-1.008417e-08	-7.584981e+00	-6.652803e+02
7.300000e-07	-9.555559e-07	-9.597368e-09	-6.866994e+00	-6.338628e+02
7.400000e-07	-8.553986e-07	-9.092846e-09	-6.147225e+00	-6.010152e+02
7.500000e-07	-7.549936e-07	-8.573053e-09	-5.425676e+00	-5.667429e+02
7.600000e-07	-6.543167e-07	-8.034434e-09	-4.702173e+00	-5.310849e+02
7.700000e-07	-5.534166e-07	-7.474019e-09	-3.977065e+00	-4.941187e+02
7.800000e-07	-4.523500e-07	-6.894533e-09	-3.250762e+00	-4.559615e+02
7.900000e-07	-3.511529e-07	-6.298054e-09	-2.523520e+00	-4.167671e+02
8.000000e-07	-2.498196e-07	-5.687426e-09	-1.795300e+00	-3.767180e+02
8.100000e-07	-1.483517e-07	-5.067792e-09	-1.066113e+00	-3.360122e+02
8.200000e-07	-4.676122e-08	-4.442307e-09	-3.360442e-01	-2.948468e+02
8.300000e-07	5.490643e-08	-3.811396e-09	3.945788e-01	-2.533990e+02
8.400000e-07	1.565463e-07	-3.176826e-09	1.125002e+00	-2.118080e+02
8.500000e-07	2.581115e-07	-2.542562e-09	1.854889e+00	-1.701607e+02
8.600000e-07	3.596132e-07	-1.908983e-09	2.584319e+00	-1.284819e+02
8.700000e-07	4.610218e-07	-1.272717e-09	3.313081e+00	-8.673312e+01
8.800000e-07	5.622780e-07	-6.332591e-10	4.040747e+00	-4.481906e+01
8.900000e-07	6.633346e-07	9.461537e-12	4.766979e+00	-2.602588e+00
9.000000e-07	7.642181e-07	6.598152e-10	5.491966e+00	4.007398e+01
9.100000e-07	8.648950e-07	1.320086e-09	6.215469e+00	8.336339e+01
9.200000e-07	9.652434e-07	1.988920e-09	6.936612e+00	1.273870e+02
9.300000e-07	1.065343e-06	2.668778e-09	7.655967e+00	1.722109e+02
9.400000e-07	1.165206e-06	3.362307e-09	8.373622e+00	2.178276e+02
9.500000e-07	1.264672e-06	4.066333e-09	9.088420e+00	2.641453e+02
9.600000e-07	1.363601e-06	4.776737e-09	9.799366e+00	3.109873e+02
9.700000e-07	1.461871e-06	5.492398e-09	1.050557e+01	3.581005e+02
9.800000e-07	1.559357e-06	6.209277e-09	1.120614e+01	4.051719e+02
9.900000e-07	1.656118e-06	6.922322e-09	1.190150e+01	4.518525e+02
1.000000e-06	1.752266e-06	7.624660e-09	1.259246e+01	4.977833e+02
1.010000e-06	1.847725e-06	8.307333e-09	1.327847e+01	5.426225e+02
1.020000e-06	1.942516e-06	8.965338e-09	1.395967e+01	5.860684e+02
1.030000e-06	2.036700e-06	9.595959e-09	1.463652e+01	6.278777e+02
1.040000e-06	2.130186e-06	1.019779e-08	1.530834e+01	6.678760e+02
1.050000e-06	2.222907e-06	1.077101e-08	1.597467e+01	7.059603e+02
1.060000e-06	2.314960e-06	1.131761e-08	1.663620e+01	7.420943e+02
1.070000e-06	2.406335e-06	1.183758e-08	1.729285e+01	7.762982e+02
1.080000e-06	2.496797e-06	1.233073e-08	1.794295e+01	8.086341e+02
1.090000e-06	2.586094e-06	1.279686e-08	1.858467e+01	8.391908e+02
1.100000e-06	2.674323e-06	1.323671e-08	1.921872e+01	8.680701e+02
1.110000e-06	2.761694e-06	1.365091e-08	1.984660e+01	8.953746e+02
1.120000e-06	2.848162e-06	1.404115e-08	2.046799e+01	9.212011e+02
1.130000e-06	2.933683e-06	1.440921e-08	2.108258e+01	9.456366e+02
1.140000e-06	3.018337e-06	1.475704e-08	2.169093e+01	9.687585e+02
1.150000e-06	3.102131e-06	1.508939e-08	2.229311e+01	9.906368e+02
1.160000e-06	3.184905e-06	1.540676e-08	2.288796e+01	1.011337e+03
1.170000e-06	3.266426e-06	1.570666e-08	2.347380e+01	1.030924e+03
1.180000e-06	3.346715e-06	1.598726e-08	2.405078e+01	1.049463e+03
1.190000e-06	3.425820e-06	1.625084e-08	2.461927e+01	1.067019e+03
1.200000e-06	3.503738e-06	1.650147e-08	2.517921e+01	1.083659e+03
1.210000e-06	3.580471e-06	1.674039e-08	2.573065e+01	1.099444e+03
1.220000e-06	3.655897e-06	1.696723e-08	2.627269e+01	1.114433e+03
1.230000e-06	3.729773e-06	1.718163e-08	2.680359e+01	1.128681e+03
1.240000e-06	3.802002e-06	1.738448e-08	2.732265e+01	1.142231e+03
1.250000e-06	3.872834e-06	1.757707e-08	2.783168e+01	1.155126e+03
1.260000e-06	3.942353e-06	1.776094e-08	2.833127e+01	1.167400e+03
1.270000e-06	4.010544e-06	1.793708e-08	2.882132e+01	1.179086e+03
1.280000e-06	4.077299e-06	1.810477e-08	2.930105e+01	1.190211e+03
1.290000e-06	4.142426e-06	1.826534e-08	2.976908e+01	1.200805e+03
1.300000e-06	4.205981e-06	1.842035e-08	3.022580e+01	1.210890e+03
1.310000e-06	4.268080e-06	1.856948e-08	3.067207e+01	1.220490e+03
1.320000e-06	4.328806e-06	1.871046e-08	3.110847e+01	1.229621e+03
1.330000e-06	4.388218e-06	1.884272e-08	3.153543e+01	1.238296e+03
1.340000e-06	4.446016e-06	1.896661e-08	3.195079e+01	1.246522e+03
1.350000e-06	4.501988e-06	1.908290e-08	3.235303e+01	1.254307e+03
1.360000e-06	4.556278e-06	1.919226e-08	3.274317e+01	1.261656e+03
1.370000e-06	4.608866e-06	1.929504e-08	3.312109e+01	1.268579e+03
1.380000e-06	4.659527e-06	1.939277e-08	3.348516e+01	1.275090e+03
1.390000e-06	4.708182e-06	1.948549e-08	3.383482e+01	1.281214e+03
1.400000e-06	4.755090e-06	1.957396e-08	3.417191e+01	1.286978e+03
1.410000e-06	4.800438e-06	1.965804e-08	3.449780e+01	1.292418e+03
1.420000e-06	4.844245e-06	1.973717e-08	3.481262e+01	1.297569e+03
1.430000e-06	4.886284e-06	1.981091e-08	3.511473e+01	1.302462e+03
1.440000e-06	4.926462e-06	1.988029e-08	3.540346e+01	1.307120e+03
1.450000e-06	4.964929e-06	1.994710e-08	3.567990e+01	1.311555e+03
1.460000e-06	5.001815e-06	2.001139e-08	3.594498e+01	1.315767e+03
1.470000e-06	5.037099e-06	2.007129e-08	3.619854e+01	1.319747e+03
1.480000e-06	5.070473e-06	2.012635e-08	3.643838e+01	1.323478e+03
1.490000e-06	5.101958e-06	2.017840e-08	3.666464e+01	1.326943e+03
1.500000e-06	5.131749e-06	2.022664e-08	3.687873e+01	1.330127e+03
1.510000e-06	5.159891e-06	2.027006e-08	3.708097e+01	1.333025e+03
1.520000e-06	5.186111e-06	2.030916e-08	3.726940e+01	1.335641e+03
1.530000e-06	5.210218e-06	2.034394e-08	3.744264e+01	1.337986e+03
1.540000e-06	5.232477e-06	2.037489e-08	3.760260e+01	1.340080e+03
1.550000e-06	5.253067e-06	2.040281e-08	3.775057e+01	1.341943e+03
1.560000e-06	5.271955e-06	2.042788e-08	3.788631e+01	1.343595e+03
1.570000e-06	5.288898e-06	2.044891e-08	3.800806e+01	1.345049e+03
1.580000e-06	5.303818e-06	2.046740e-08	3.811528e+01	1.346311e+03
1.590000e-06	5.316756e-06	2.048423e-08	3.820826e+01	1.347381e+03
1.600000e-06	5.327478e-06	2.049727e-08	3.828532e+01	1.348256e+03
1.610000e-06	5.336028e-06	2.050628e-08	3.834676e+01	1.348931e+03
1.620000e-06	5.342680e-06	2.051327e-08	3.839456e+01	1.349408e+03
1.630000e-06	5.347571e-06	2.051940e-08	3.842971e+01	1.349691e+03
1.640000e-06	5.350668e-06	2.052425e-08	3.845197e+01	1.349790e+03
1.650000e-06	5.351786e-06	2.052714e-08	3.846000e+01	1.349721e+03
1.660000e-06	5.350998e-06	2.052540e-08	3.845434e+01	1.349497e+03
1.670000e-06	5.348520e-06	2.051954e-08	3.843653e+01	1.349130e+03
1.680000e-06	5.344431e-06	2.051300e-08	3.840714e+01	1.348623e+03
1.690000e-06	5.338574e-06	2.050373e-08	3.836506e+01	1.347969e+03
1.700000e-06	5.330837e-06	2.049040e-08	3.830945e+01	1.347155e+03
1.710000e-06	5.321434e-06	2.047533e-08	3.824188e+01	1.346164e+03
1.720000e-06	5.310389e-06	2.046182e-08	3.816251e+01	1.344978e+03
1.730000e-06	5.297431e-06	2.045292e-08	3.806939e+01	1.343586e+03
1.740000e-06	5.282515e-06	2.039990e-08	3.796219e+01	1.341990e+03
1.750000e-06	5.265522e-06	2.033764e-08	3.784008e+01	1.340205e+03
1.760000e-06	5.246051e-06	2.033662e-08	3.770015e+01	1.338255e+03
1.770000e-06	5.224031e-06	2.032795e-08	3.754190e+01	1.336177e+03
1.780000e-06	5.200123e-06	2.034448e-08	3.737009e+01	1.334003e+03
1.790000e-06	5.175217e-06	2.030839e-08	3.719111e+01	1.331762e+03
1.800000e-06	5.149389e-06	2.016608e-08	3.700550e+01	1.329468e+03
1.810000e-06	5.121809e-06	2.018296e-08	3.680730e+01	1.327117e+03
1.820000e-06	5.092105e-06	2.018071e-08	3.659383e+01	1.324685e+03
1.830000e-06	5.060703e-06	2.007631e-08	3.636817e+01	1.322136e+03
1.840000e-06	5.027512e-06	2.014032e-08	3.612964e+01	1.319422e+03
1.850000e-06	4.992527e-06	2.008882e-08	3.587823e+01	1.316497e+03
1.860000e-06	4.956002e-06	1.994600e-08	3.561574e+01	1.313322e+03
1.870000e-06	4.917616e-06	1.997463e-08	3.533989e+01	1.309872e+03
1.880000e-06	4.877442e-06	1.992200e-08	3.505118e+01	1.306137e+03
1.890000e-06	4.835594e-06	1.987119e-08	3.475045e+01	1.302125e+03
1.900000e-06	4.791949e-06	1.982009e-08	3.443680e+01	1.297852e+03
1.910000e-06	4.746612e-06	1.965413e-08	3.411099e+01	1.293344e+03
1.920000e-06	4.699413e-06	1.964780e-08	3.377180e+01	1.288619e+03
1.930000e-06	4.650449e-06	1.962756e-08	3.341993e+01	1.283693e+03
1.940000e-06	4.599875e-06	1.952115e-08	3.305648e+01	1.278568e+03
1.950000e-06	4.547306e-06	1.944458e-08	3.267870e+01	1.273235e+03
1.960000e-06	4.492697e-06	1.933655e-08	3.228626e+01	1.267679e+03
1.970000e-06	4.436289e-06	1.927286e-08	3.188089e+01	1.261879e+03
1.980000e-06	4.378284e-06	1.913657e-08	3.146404e+01	1.255818e+03
1.990000e-06	4.318882e-06	1.903776e-08	3.103715e+01	1.249480e+03
2.000000e-06	4.258025e-06	1.902412e-08	3.059981e+01	1.242862e+03
2.010000e-06	4.195591e-06	1.888151e-08	3.015113e+01	1.235966e+03
2.020000e-06	4.131515e-06	1.873784e-08	2.969066e+01	1.228798e+03
2.030000e-06	4.065904e-06	1.861510e-08	2.921916e+01	1.221367e+03
2.040000e-06	3.998957e-06	1.852482e-08	2.873805e+01	1.213678e+03
2.050000e-06	3.930621e-06	1.843272e-08	2.824696e+01	1.205731e+03
2.060000e-06	3.860701e-06	1.828049e-08	2.774449e+01	1.197514e+03
2.070000e-06	3.789330e-06	1.816691e-08	2.723159e+01	1.189010e+03
2.080000e-06	3.716727e-06	1.801976e-08	2.670984e+01	1.180196e+03
2.090000e-06	3.642791e-06	1.787194e-08	2.617851e+01	1.171045e+03
2.100000e-06	3.567472e-06	1.774086e-08	2.563723e+01	1.161535e+03
2.110000e-06	3.490658e-06	1.759276e-08	2.508521e+01	1.151644e+03
2.120000e-06	3.412314e-06	1.743990e-08	2.452220e+01	1.141360e+03
2.130000e-06	3.332728e-06	1.726248e-08	2.395027e+01	1.130673e+03
2.140000e-06	3.252024e-06	1.710281e-08	2.337030e+01	1.119578e+03
2.150000e-06	3.170161e-06	1.692777e-08	2.278200e+01	1.108071e+03
2.160000e-06	3.087246e-06	1.674959e-08	2.218614e+01	1.096143e+03
2.170000e-06	3.003419e-06	1.657668e-08	2.158373e+01	1.083780e+03
2.180000e-06	2.918477e-06	1.637967e-08	2.097330e+01	1.070960e+03
2.190000e-06	2.832200e-06	1.617065e-08	2.035328e+01	1.057656e+03
2.200000e-06	2.744786e-06	1.595734e-08	1.972509e+01	1.043833e+03
2.210000e-06	2.656439e-06	1.575011e-08	1.909020e+01	1.029455e+03
2.220000e-06	2.567219e-06	1.552416e-08	1.844903e+01	1.014481e+03
2.230000e-06	2.477094e-06	1.528228e-08	1.780135e+01	9.988743e+02
2.240000e-06	2.386116e-06	1.503213e-08	1.714755e+01	9.825969e+02
2.250000e-06	2.294497e-06	1.477778e-08	1.648914e+01	9.656136e+02
2.260000e-06	2.202224e-06	1.451451e-08	1.582603e+01	9.478893e+02
2.270000e-06	2.109013e-06	1.423257e-08	1.515618e+01	9.293880e+02
2.280000e-06	2.014759e-06	1.393847e-08	1.447884e+01	9.100710e+02
2.290000e-06	1.919648e-06	1.362925e-08	1.379533e+01	8.898958e+02
2.300000e-06	1.823857e-06	1.330777e-08	1.310694e+01	8.688148e+02
2.310000e-06	1.727489e-06	1.297282e-08	1.241440e+01	8.467760e+02
2.320000e-06	1.630591e-06	1.262497e-08	1.171806e+01	8.237221e+02
2.330000e-06	1.533189e-06	1.226251e-08	1.101809e+01	7.995920e+02
2.340000e-06	1.435277e-06	1.187663e-08	1.031445e+01	7.743217e+02
2.350000e-06	1.336883e-06	1.146740e-08	9.607355e+00	7.478455e+02
2.360000e-06	1.238070e-06	1.104434e-08	8.897251e+00	7.200988e+02
2.370000e-06	1.138939e-06	1.061002e-08	8.184857e+00	6.910215e+02
2.380000e-06	1.039589e-06	1.015449e-08	7.470887e+00	6.605624e+02
2.390000e-06	9.399895e-07	9.669574e-09	6.755127e+00	6.286856e+02
2.400000e-06	8.401319e-07	9.156516e-09	6.037512e+00	5.953771e+02
2.410000e-06	7.400298e-07	8.622389e-09	5.318140e+00	5.606525e+02
2.420000e-06	6.396418e-07	8.068494e-09	4.596713e+00	5.245628e+02
2.430000e-06	5.389931e-07	7.495879e-09	3.873413e+00	4.871982e+02
2.440000e-06	4.381349e-07	6.908678e-09	3.148607e+00	4.486884e+02
2.450000e-06	3.371141e-07	6.307144e-09	2.422632e+00	4.091974e+02
2.460000e-06	2.359396e-07	5.691079e-09	1.695553e+00	3.689145e+02
2.470000e-06	1.346222e-07	5.065217e-09	9.674470e-01	3.280392e+02
2.480000e-06	3.319028e-08	4.434990e-09	2.385182e-01	2.867643e+02
2.490000e-06	-6.827882e-08	3.801496e-09	-4.906780e-01	2.452567e+02
2.500000e-06	-1.697204e-07	3.164815e-09	-1.219676e+00	2.036401e+02
2.510000e-06	-2.711133e-07	2.528117e-09	-1.948325e+00	1.619822e+02
2.520000e-06	-3.723507e-07	1.892598e-09	-2.675856e+00	1.202872e+02
2.530000e-06	-4.734306e-07	1.256148e-09	-3.402255e+00	7.849716e+01
2.540000e-06	-5.743771e-07	6.164994e-10	-4.127696e+00	3.650145e+01
2.550000e-06	-6.751223e-07	-3.001986e-11	-4.851690e+00	-5.846288e+00
2.560000e-06	-7.756046e-07	-6.855308e-10	-5.573794e+00	-4.870504e+01
2.570000e-06	-8.757788e-07	-1.351206e-09	-6.293685e+00	-9.222028e+01
2.580000e-06	-9.756420e-07	-2.028512e-09	-7.011340e+00	-1.364980e+02
2.590000e-06	-1.075179e-06	-2.718881e-09	-7.726653e+00	-1.815824e+02
2.600000e-06	-1.174378e-06	-3.420905e-09	-8.439537e+00	-2.274394e+02
2.610000e-06	-1.273200e-06	-4.131908e-09	-9.149704e+00	-2.739497e+02
2.620000e-06	-1.371569e-06	-4.850380e-09	-9.856626e+00	-3.209107e+02
2.630000e-06	-1.469421e-06	-5.572417e-09	-1.055983e+01	-3.680476e+02
2.640000e-06	-1.566673e-06	-6.289846e-09	-1.125872e+01	-4.150334e+02
2.650000e-06	-1.663387e-06	-6.997906e-09	-1.195374e+01	-4.615127e+02
2.660000e-06	-1.759660e-06	-7.696092e-09	-1.264560e+01	-5.071293e+02
2.670000e-06	-1.855489e-06	-8.380109e-09	-1.333426e+01	-5.515519e+02
2.680000e-06	-1.950703e-06	-9.041735e-09	-1.401851e+01	-5.944959e+02
2.690000e-06	-2.044973e-06	-9.674647e-09	-1.469596e+01	-6.357396e+02
2.700000e-06	-2.138229e-06	-1.027842e-08	-1.536614e+01	-6.751314e+02
2.710000e-06	-2.230671e-06	-1.085402e-08	-1.603046e+01	-7.125907e+02
2.720000e-06	-2.322318e-06	-1.140094e-08	-1.668907e+01	-7.481007e+02
2.730000e-06	-2.413138e-06	-1.191715e-08	-1.734174e+01	-7.816967e+02
2.740000e-06	-2.503064e-06	-1.240256e-08	-1.798798e+01	-8.134510e+02
2.750000e-06	-2.592095e-06	-1.286172e-08	-1.862780e+01	-8.434581e+02
2.760000e-06	-2.680385e-06	-1.329607e-08	-1.926228e+01	-8.718210e+02
2.770000e-06	-2.767909e-06	-1.370658e-08	-1.989126e+01	-8.986412e+02
2.780000e-06	-2.854399e-06	-1.409674e-08	-2.051282e+01	-9.240125e+02
2.790000e-06	-2.939671e-06	-1.446698e-08	-2.112561e+01	-9.480186e+02
2.800000e-06	-3.023834e-06	-1.481558e-08	-2.173044e+01	-9.707342e+02
2.810000e-06	-3.106994e-06	-1.514262e-08	-2.232806e+01	-9.922277e+02
2.820000e-06	-3.189189e-06	-1.545067e-08	-2.291874e+01	-1.012564e+03
2.830000e-06	-3.270358e-06	-1.574385e-08	-2.350205e+01	-1.031808e+03
2.840000e-06	-3.350459e-06	-1.602391e-08	-2.407769e+01	-1.050025e+03
2.850000e-06	-3.429278e-06	-1.629056e-08	-2.464412e+01	-1.067280e+03
2.860000e-06	-3.506603e-06	-1.654407e-08	-2.519980e+01	-1.083639e+03
2.870000e-06	-3.582519e-06	-1.678511e-08	-2.574537e+01	-1.099163e+03
2.880000e-06	-3.657031e-06	-1.701480e-08	-2.628083e+01	-1.113910e+03
2.890000e-06	-3.730162e-06	-1.723184e-08	-2.680639e+01	-1.127929e+03
2.900000e-06	-3.802037e-06	-1.743644e-08	-2.732291e+01	-1.141266e+03
2.910000e-06	-3.872522e-06	-1.762967e-08	-2.782944e+01	-1.153958e+03
2.920000e-06	-3.941415e-06	-1.781544e-08	-2.832453e+01	-1.166041e+03
2.930000e-06	-4.008851e-06	-1.799289e-08	-2.880915e+01	-1.177544e+03
2.940000e-06	-4.074945e-06	-1.816016e-08	-2.928413e+01	-1.188496e+03
