# Temperatura_=_28.68
# Concentracion g/m^3_=_28200.0
# C_Vs_to_Am_M_A/Vsm_=_65563218390.804596
# pendiente_HvsI_1/m_=_3716.3
# ordenada_HvsI_A/m_=_1297.0
# frecuencia_Hz_=_301774.1285023263

Tiempo_(s)	Campo_(V.s)	Magnetizacion_(V.s)	Campo_(kA/m)	Magnetizacion_(A/m)
0.000000e+00	-5.310313e-06	-1.808976e-08	-3.829574e+01	-1.182641e+03
1.000000e-08	-5.308600e-06	-1.809012e-08	-3.828338e+01	-1.182373e+03
2.000000e-08	-5.304981e-06	-1.808047e-08	-3.825729e+01	-1.181996e+03
3.000000e-08	-5.299765e-06	-1.806793e-08	-3.821967e+01	-1.181506e+03
4.000000e-08	-5.292979e-06	-1.805686e-08	-3.817073e+01	-1.180887e+03
5.000000e-08	-5.284550e-06	-1.804231e-08	-3.810995e+01	-1.180115e+03
6.000000e-08	-5.274136e-06	-1.802296e-08	-3.803484e+01	-1.179164e+03
7.000000e-08	-5.261751e-06	-1.799865e-08	-3.794553e+01	-1.178017e+03
8.000000e-08	-5.247529e-06	-1.795683e-08	-3.784296e+01	-1.176671e+03
9.000000e-08	-5.231145e-06	-1.798809e-08	-3.772481e+01	-1.175137e+03
1.000000e-07	-5.212550e-06	-1.803171e-08	-3.759071e+01	-1.173446e+03
1.100000e-07	-5.192020e-06	-1.794739e-08	-3.744266e+01	-1.171639e+03
1.200000e-07	-5.169640e-06	-1.789219e-08	-3.728126e+01	-1.169761e+03
1.300000e-07	-5.145700e-06	-1.783908e-08	-3.710862e+01	-1.167849e+03
1.400000e-07	-5.120273e-06	-1.767690e-08	-3.692525e+01	-1.165924e+03
1.500000e-07	-5.093191e-06	-1.783189e-08	-3.672994e+01	-1.163986e+03
1.600000e-07	-5.064479e-06	-1.784020e-08	-3.652289e+01	-1.162011e+03
1.700000e-07	-5.034357e-06	-1.758710e-08	-3.630566e+01	-1.159953e+03
1.800000e-07	-5.002708e-06	-1.776300e-08	-3.607742e+01	-1.157758e+03
1.900000e-07	-4.968918e-06	-1.767067e-08	-3.583374e+01	-1.155368e+03
2.000000e-07	-4.933347e-06	-1.745996e-08	-3.557722e+01	-1.152733e+03
2.100000e-07	-4.896287e-06	-1.764003e-08	-3.530995e+01	-1.149821e+03
2.200000e-07	-4.857408e-06	-1.751060e-08	-3.502958e+01	-1.146621e+03
2.300000e-07	-4.816789e-06	-1.736894e-08	-3.473665e+01	-1.143141e+03
2.400000e-07	-4.774192e-06	-1.741407e-08	-3.442946e+01	-1.139404e+03
2.500000e-07	-4.729683e-06	-1.726058e-08	-3.410848e+01	-1.135438e+03
2.600000e-07	-4.683525e-06	-1.725947e-08	-3.377561e+01	-1.131273e+03
2.700000e-07	-4.635483e-06	-1.723679e-08	-3.342915e+01	-1.126928e+03
2.800000e-07	-4.585375e-06	-1.708216e-08	-3.306779e+01	-1.122412e+03
2.900000e-07	-4.533226e-06	-1.700045e-08	-3.269171e+01	-1.117719e+03
3.000000e-07	-4.479284e-06	-1.693819e-08	-3.230271e+01	-1.112835e+03
3.100000e-07	-4.423803e-06	-1.688766e-08	-3.190260e+01	-1.107741e+03
3.200000e-07	-4.366640e-06	-1.680525e-08	-3.149037e+01	-1.102418e+03
3.300000e-07	-4.307648e-06	-1.673184e-08	-3.106494e+01	-1.096853e+03
3.400000e-07	-4.247111e-06	-1.663294e-08	-3.062837e+01	-1.091040e+03
3.500000e-07	-4.185197e-06	-1.649784e-08	-3.018188e+01	-1.084979e+03
3.600000e-07	-4.121880e-06	-1.641613e-08	-2.972526e+01	-1.078675e+03
3.700000e-07	-4.057175e-06	-1.631923e-08	-2.925863e+01	-1.072133e+03
3.800000e-07	-3.990882e-06	-1.624752e-08	-2.878056e+01	-1.065354e+03
3.900000e-07	-3.922992e-06	-1.614888e-08	-2.829096e+01	-1.058333e+03
4.000000e-07	-3.853759e-06	-1.598482e-08	-2.779169e+01	-1.051059e+03
4.100000e-07	-3.783337e-06	-1.588609e-08	-2.728383e+01	-1.043515e+03
4.200000e-07	-3.711743e-06	-1.577207e-08	-2.676752e+01	-1.035682e+03
4.300000e-07	-3.638793e-06	-1.565049e-08	-2.624144e+01	-1.027542e+03
4.400000e-07	-3.564246e-06	-1.551975e-08	-2.570384e+01	-1.019082e+03
4.500000e-07	-3.488159e-06	-1.537991e-08	-2.515513e+01	-1.010291e+03
4.600000e-07	-3.410722e-06	-1.523004e-08	-2.459669e+01	-1.001165e+03
4.700000e-07	-3.331917e-06	-1.507772e-08	-2.402838e+01	-9.916993e+02
4.800000e-07	-3.251775e-06	-1.495077e-08	-2.345043e+01	-9.818875e+02
4.900000e-07	-3.170383e-06	-1.479289e-08	-2.286347e+01	-9.717194e+02
5.000000e-07	-3.087912e-06	-1.462656e-08	-2.226872e+01	-9.611779e+02
5.100000e-07	-3.004478e-06	-1.445689e-08	-2.166703e+01	-9.502393e+02
5.200000e-07	-2.920187e-06	-1.427979e-08	-2.105916e+01	-9.388749e+02
5.300000e-07	-2.835043e-06	-1.409547e-08	-2.044513e+01	-9.270538e+02
5.400000e-07	-2.748923e-06	-1.390590e-08	-1.982408e+01	-9.147460e+02
5.500000e-07	-2.661921e-06	-1.371108e-08	-1.919665e+01	-9.019245e+02
5.600000e-07	-2.574021e-06	-1.350129e-08	-1.856275e+01	-8.885667e+02
5.700000e-07	-2.485080e-06	-1.328331e-08	-1.792135e+01	-8.746529e+02
5.800000e-07	-2.395011e-06	-1.306243e-08	-1.727181e+01	-8.601646e+02
5.900000e-07	-2.303842e-06	-1.283758e-08	-1.661433e+01	-8.450803e+02
6.000000e-07	-2.211834e-06	-1.259917e-08	-1.595081e+01	-8.293735e+02
6.100000e-07	-2.119154e-06	-1.234535e-08	-1.528245e+01	-8.130099e+02
6.200000e-07	-2.025776e-06	-1.208131e-08	-1.460904e+01	-7.959478e+02
6.300000e-07	-1.931648e-06	-1.180905e-08	-1.393023e+01	-7.781393e+02
6.400000e-07	-1.836820e-06	-1.152700e-08	-1.324637e+01	-7.595335e+02
6.500000e-07	-1.741379e-06	-1.123334e-08	-1.255809e+01	-7.400794e+02
6.600000e-07	-1.645349e-06	-1.091975e-08	-1.186556e+01	-7.197293e+02
6.700000e-07	-1.548726e-06	-1.058802e-08	-1.116876e+01	-6.984400e+02
6.800000e-07	-1.451433e-06	-1.024532e-08	-1.046713e+01	-6.761726e+02
6.900000e-07	-1.353443e-06	-9.890561e-09	-9.760459e+00	-6.528916e+02
7.000000e-07	-1.254852e-06	-9.522488e-09	-9.049462e+00	-6.285634e+02
7.100000e-07	-1.155810e-06	-9.137120e-09	-8.335218e+00	-6.031551e+02
7.200000e-07	-1.056382e-06	-8.731118e-09	-7.618181e+00	-5.766358e+02
7.300000e-07	-9.566412e-07	-8.302993e-09	-6.898893e+00	-5.489804e+02
7.400000e-07	-8.566799e-07	-7.859215e-09	-6.178014e+00	-5.201753e+02
7.500000e-07	-7.565242e-07	-7.405110e-09	-5.455733e+00	-4.902264e+02
7.600000e-07	-6.561894e-07	-6.935702e-09	-4.732161e+00	-4.591671e+02
7.700000e-07	-5.556529e-07	-6.446891e-09	-4.007134e+00	-4.270635e+02
7.800000e-07	-4.549301e-07	-5.943673e-09	-3.280764e+00	-3.940176e+02
7.900000e-07	-3.540810e-07	-5.429580e-09	-2.553483e+00	-3.601643e+02
8.000000e-07	-2.531418e-07	-4.901699e-09	-1.825552e+00	-3.256635e+02
8.100000e-07	-1.521007e-07	-4.367250e-09	-1.096886e+00	-2.906874e+02
8.200000e-07	-5.092707e-08	-3.832103e-09	-3.672645e-01	-2.554050e+02
8.300000e-07	5.033884e-08	-3.296253e-09	3.630225e-01	-2.199653e+02
8.400000e-07	1.516042e-07	-2.756522e-09	1.093306e+00	-1.844822e+02
8.500000e-07	2.528492e-07	-2.217664e-09	1.823442e+00	-1.490234e+02
8.600000e-07	3.539944e-07	-1.683905e-09	2.552858e+00	-1.136047e+02
8.700000e-07	4.550386e-07	-1.149292e-09	3.281546e+00	-7.819070e+01
8.800000e-07	5.559688e-07	-6.109406e-10	4.009413e+00	-4.270156e+01
8.900000e-07	6.566650e-07	-6.700662e-11	4.735591e+00	-7.025394e+00
9.000000e-07	7.571787e-07	4.824946e-10	5.460453e+00	2.896598e+01
9.100000e-07	8.575360e-07	1.039156e-09	6.184188e+00	6.539912e+01
9.200000e-07	9.576338e-07	1.601872e-09	6.906051e+00	1.023811e+02
9.300000e-07	1.057447e-06	2.172228e-09	7.625865e+00	1.399834e+02
9.400000e-07	1.156962e-06	2.752027e-09	8.343521e+00	1.782284e+02
9.500000e-07	1.256116e-06	3.340641e-09	9.058580e+00	2.170813e+02
9.600000e-07	1.354769e-06	3.936010e-09	9.770024e+00	2.564453e+02
9.700000e-07	1.452765e-06	4.538178e-09	1.047673e+01	2.961639e+02
9.800000e-07	1.549989e-06	5.145181e-09	1.117787e+01	3.360279e+02
9.900000e-07	1.646390e-06	5.750294e-09	1.187307e+01	3.757875e+02
1.000000e-06	1.742141e-06	6.348278e-09	1.256359e+01	4.151683e+02
1.010000e-06	1.837338e-06	6.934772e-09	1.325011e+01	4.538909e+02
1.020000e-06	1.931922e-06	7.507033e-09	1.393221e+01	4.916899e+02
1.030000e-06	2.025848e-06	8.060729e-09	1.460956e+01	5.283323e+02
1.040000e-06	2.119060e-06	8.594095e-09	1.528177e+01	5.636318e+02
1.050000e-06	2.211545e-06	9.105672e-09	1.594873e+01	5.974574e+02
1.060000e-06	2.303354e-06	9.595464e-09	1.661082e+01	6.297362e+02
1.070000e-06	2.394465e-06	1.006336e-08	1.726787e+01	6.604492e+02
1.080000e-06	2.484582e-06	1.050609e-08	1.791776e+01	6.896215e+02
1.090000e-06	2.573513e-06	1.092669e-08	1.855909e+01	7.173096e+02
1.100000e-06	2.661436e-06	1.132495e-08	1.919316e+01	7.435870e+02
1.110000e-06	2.748537e-06	1.170589e-08	1.982129e+01	7.685312e+02
1.120000e-06	2.834794e-06	1.206731e-08	2.044334e+01	7.922143e+02
1.130000e-06	2.920095e-06	1.240973e-08	2.105849e+01	8.146979e+02
1.140000e-06	3.004433e-06	1.273338e-08	2.166671e+01	8.360328e+02
1.150000e-06	3.087904e-06	1.303993e-08	2.226866e+01	8.562618e+02
1.160000e-06	3.170357e-06	1.333122e-08	2.286328e+01	8.754255e+02
1.170000e-06	3.251537e-06	1.360570e-08	2.344872e+01	8.935673e+02
1.180000e-06	3.331588e-06	1.386775e-08	2.402601e+01	9.107374e+02
1.190000e-06	3.410518e-06	1.411570e-08	2.459522e+01	9.269939e+02
1.200000e-06	3.488215e-06	1.434857e-08	2.515553e+01	9.424007e+02
1.210000e-06	3.564741e-06	1.456824e-08	2.570741e+01	9.570240e+02
1.220000e-06	3.639935e-06	1.477713e-08	2.624968e+01	9.709264e+02
1.230000e-06	3.713499e-06	1.497576e-08	2.678019e+01	9.841627e+02
1.240000e-06	3.785503e-06	1.516637e-08	2.729945e+01	9.967761e+02
1.250000e-06	3.856179e-06	1.534762e-08	2.780914e+01	1.008798e+03
1.260000e-06	3.925528e-06	1.552162e-08	2.830926e+01	1.020249e+03
1.270000e-06	3.993605e-06	1.568708e-08	2.880020e+01	1.031144e+03
1.280000e-06	4.060283e-06	1.584300e-08	2.928105e+01	1.041493e+03
1.290000e-06	4.125245e-06	1.599251e-08	2.974952e+01	1.051311e+03
1.300000e-06	4.188587e-06	1.613495e-08	3.020633e+01	1.060612e+03
1.310000e-06	4.250542e-06	1.627013e-08	3.065312e+01	1.069418e+03
1.320000e-06	4.311117e-06	1.639879e-08	3.108996e+01	1.077753e+03
1.330000e-06	4.370366e-06	1.651935e-08	3.151724e+01	1.085640e+03
1.340000e-06	4.427928e-06	1.663266e-08	3.193235e+01	1.093103e+03
1.350000e-06	4.483677e-06	1.673978e-08	3.233438e+01	1.100162e+03
1.360000e-06	4.537879e-06	1.683902e-08	3.272527e+01	1.106833e+03
1.370000e-06	4.590414e-06	1.693036e-08	3.310413e+01	1.113133e+03
1.380000e-06	4.640940e-06	1.701872e-08	3.346850e+01	1.119076e+03
1.390000e-06	4.689395e-06	1.710520e-08	3.381794e+01	1.124680e+03
1.400000e-06	4.736155e-06	1.718785e-08	3.415515e+01	1.129967e+03
1.410000e-06	4.781368e-06	1.726534e-08	3.448121e+01	1.134961e+03
1.420000e-06	4.825125e-06	1.733853e-08	3.479676e+01	1.139688e+03
1.430000e-06	4.867139e-06	1.740654e-08	3.509975e+01	1.144173e+03
1.440000e-06	4.907263e-06	1.746961e-08	3.538911e+01	1.148434e+03
1.450000e-06	4.945774e-06	1.753039e-08	3.566684e+01	1.152481e+03
1.460000e-06	4.982696e-06	1.758931e-08	3.593310e+01	1.156315e+03
1.470000e-06	5.017953e-06	1.764515e-08	3.618736e+01	1.159925e+03
1.480000e-06	5.051238e-06	1.769566e-08	3.642740e+01	1.163298e+03
1.490000e-06	5.082625e-06	1.774132e-08	3.665375e+01	1.166419e+03
1.500000e-06	5.112373e-06	1.778385e-08	3.686828e+01	1.169276e+03
1.510000e-06	5.140519e-06	1.782326e-08	3.707125e+01	1.171868e+03
1.520000e-06	5.166772e-06	1.785888e-08	3.726058e+01	1.174200e+03
1.530000e-06	5.190904e-06	1.789034e-08	3.743461e+01	1.176289e+03
1.540000e-06	5.213172e-06	1.791684e-08	3.759520e+01	1.178157e+03
1.550000e-06	5.233736e-06	1.793937e-08	3.774350e+01	1.179826e+03
1.560000e-06	5.252568e-06	1.796048e-08	3.787931e+01	1.181315e+03
1.570000e-06	5.269473e-06	1.798091e-08	3.800122e+01	1.182636e+03
1.580000e-06	5.284396e-06	1.799948e-08	3.810884e+01	1.183790e+03
1.590000e-06	5.297400e-06	1.801483e-08	3.820262e+01	1.184774e+03
1.600000e-06	5.308243e-06	1.802675e-08	3.828081e+01	1.185578e+03
1.610000e-06	5.316913e-06	1.803493e-08	3.834333e+01	1.186197e+03
1.620000e-06	5.323705e-06	1.804089e-08	3.839231e+01	1.186627e+03
1.630000e-06	5.328712e-06	1.804644e-08	3.842842e+01	1.186876e+03
1.640000e-06	5.331926e-06	1.805114e-08	3.845160e+01	1.186960e+03
1.650000e-06	5.333091e-06	1.805611e-08	3.846000e+01	1.186897e+03
1.660000e-06	5.332299e-06	1.805569e-08	3.845429e+01	1.186708e+03
1.670000e-06	5.329821e-06	1.804626e-08	3.843642e+01	1.186408e+03
1.680000e-06	5.325763e-06	1.804141e-08	3.840716e+01	1.185999e+03
1.690000e-06	5.319918e-06	1.803433e-08	3.836500e+01	1.185474e+03
1.700000e-06	5.312199e-06	1.802473e-08	3.830934e+01	1.184813e+03
1.710000e-06	5.302947e-06	1.801404e-08	3.824261e+01	1.183992e+03
1.720000e-06	5.292048e-06	1.800517e-08	3.816402e+01	1.182986e+03
1.730000e-06	5.279235e-06	1.802444e-08	3.807162e+01	1.181781e+03
1.740000e-06	5.264477e-06	1.795658e-08	3.796519e+01	1.180378e+03
1.750000e-06	5.247648e-06	1.783838e-08	3.784382e+01	1.178795e+03
1.760000e-06	5.228364e-06	1.787259e-08	3.770476e+01	1.177065e+03
1.770000e-06	5.206446e-06	1.786445e-08	3.754669e+01	1.175233e+03
1.780000e-06	5.182575e-06	1.792041e-08	3.737455e+01	1.173341e+03
1.790000e-06	5.157825e-06	1.796607e-08	3.719606e+01	1.171424e+03
1.800000e-06	5.132336e-06	1.764672e-08	3.701224e+01	1.169496e+03
1.810000e-06	5.105073e-06	1.776399e-08	3.681564e+01	1.167550e+03
1.820000e-06	5.075575e-06	1.786694e-08	3.660291e+01	1.165556e+03
1.830000e-06	5.044441e-06	1.754725e-08	3.637838e+01	1.163464e+03
1.840000e-06	5.011497e-06	1.779055e-08	3.614080e+01	1.161218e+03
1.850000e-06	4.976732e-06	1.779501e-08	3.589009e+01	1.158761e+03
1.860000e-06	4.940526e-06	1.746297e-08	3.562899e+01	1.156049e+03
1.870000e-06	4.902368e-06	1.764968e-08	3.535381e+01	1.153055e+03
1.880000e-06	4.862335e-06	1.751490e-08	3.506511e+01	1.149773e+03
1.890000e-06	4.820667e-06	1.744460e-08	3.476462e+01	1.146216e+03
1.900000e-06	4.777213e-06	1.756578e-08	3.445124e+01	1.142409e+03
1.910000e-06	4.732167e-06	1.722039e-08	3.412639e+01	1.138383e+03
1.920000e-06	4.685228e-06	1.730685e-08	3.378789e+01	1.134165e+03
1.930000e-06	4.636459e-06	1.734419e-08	3.343619e+01	1.129770e+03
1.940000e-06	4.586124e-06	1.713633e-08	3.307319e+01	1.125203e+03
1.950000e-06	4.533763e-06	1.714680e-08	3.269559e+01	1.120457e+03
1.960000e-06	4.479409e-06	1.699265e-08	3.230361e+01	1.115514e+03
1.970000e-06	4.423352e-06	1.698537e-08	3.189935e+01	1.110356e+03
1.980000e-06	4.365675e-06	1.685412e-08	3.148340e+01	1.104964e+03
1.990000e-06	4.306531e-06	1.670603e-08	3.105689e+01	1.099328e+03
2.000000e-06	4.245943e-06	1.678583e-08	3.061995e+01	1.093443e+03
2.010000e-06	4.183802e-06	1.661188e-08	3.017181e+01	1.087312e+03
2.020000e-06	4.119990e-06	1.652498e-08	2.971163e+01	1.080939e+03
2.030000e-06	4.054689e-06	1.637474e-08	2.924070e+01	1.074329e+03
2.040000e-06	3.988046e-06	1.626793e-08	2.876011e+01	1.067481e+03
2.050000e-06	3.920004e-06	1.625506e-08	2.826942e+01	1.060388e+03
2.060000e-06	3.850469e-06	1.604921e-08	2.776796e+01	1.053038e+03
2.070000e-06	3.779346e-06	1.598709e-08	2.725505e+01	1.045413e+03
2.080000e-06	3.706927e-06	1.584999e-08	2.673280e+01	1.037493e+03
2.090000e-06	3.633281e-06	1.571361e-08	2.620169e+01	1.029262e+03
2.100000e-06	3.558294e-06	1.560800e-08	2.566091e+01	1.020708e+03
2.110000e-06	3.481910e-06	1.545471e-08	2.511007e+01	1.011821e+03
2.120000e-06	3.403958e-06	1.535524e-08	2.454791e+01	1.002598e+03
2.130000e-06	3.324654e-06	1.516826e-08	2.397600e+01	9.930332e+02
2.140000e-06	3.244251e-06	1.502838e-08	2.339617e+01	9.831203e+02
2.150000e-06	3.162785e-06	1.486368e-08	2.280867e+01	9.728469e+02
2.160000e-06	3.080261e-06	1.470306e-08	2.221354e+01	9.621940e+02
2.170000e-06	2.996708e-06	1.455789e-08	2.161100e+01	9.511361e+02
2.180000e-06	2.912117e-06	1.437401e-08	2.100096e+01	9.396438e+02
2.190000e-06	2.826342e-06	1.420214e-08	2.038239e+01	9.276859e+02
2.200000e-06	2.739360e-06	1.399810e-08	1.975511e+01	9.152332e+02
2.210000e-06	2.651313e-06	1.381359e-08	1.912015e+01	9.022600e+02
2.220000e-06	2.562373e-06	1.361151e-08	1.847875e+01	8.887446e+02
2.230000e-06	2.472565e-06	1.339752e-08	1.783110e+01	8.746680e+02
2.240000e-06	2.381934e-06	1.316901e-08	1.717750e+01	8.600110e+02
2.250000e-06	2.290584e-06	1.293452e-08	1.651872e+01	8.447513e+02
2.260000e-06	2.198510e-06	1.270147e-08	1.585473e+01	8.288600e+02
2.270000e-06	2.105673e-06	1.244550e-08	1.518523e+01	8.123007e+02
2.280000e-06	2.012006e-06	1.218697e-08	1.450974e+01	7.950298e+02
2.290000e-06	1.917429e-06	1.191150e-08	1.382769e+01	7.769981e+02
2.300000e-06	1.821936e-06	1.162473e-08	1.313904e+01	7.581543e+02
2.310000e-06	1.725793e-06	1.132238e-08	1.244569e+01	7.384483e+02
2.320000e-06	1.629240e-06	1.100992e-08	1.174939e+01	7.178334e+02
2.330000e-06	1.532212e-06	1.068778e-08	1.104966e+01	6.962678e+02
2.340000e-06	1.434614e-06	1.034505e-08	1.034583e+01	6.737136e+02
2.350000e-06	1.336502e-06	9.980451e-09	9.638292e+00	6.501362e+02
2.360000e-06	1.237975e-06	9.600591e-09	8.927751e+00	6.255020e+02
2.370000e-06	1.139134e-06	9.214020e-09	8.214951e+00	5.997786e+02
2.380000e-06	1.040041e-06	8.812877e-09	7.500337e+00	5.729363e+02
2.390000e-06	9.407186e-07	8.389609e-09	6.784066e+00	5.449524e+02
2.400000e-06	8.411508e-07	7.941877e-09	6.066025e+00	5.158182e+02
2.410000e-06	7.412683e-07	7.477627e-09	5.345714e+00	4.855467e+02
2.420000e-06	6.410976e-07	6.996985e-09	4.623325e+00	4.541800e+02
2.430000e-06	5.407228e-07	6.499294e-09	3.899465e+00	4.217946e+02
2.440000e-06	4.401981e-07	5.989987e-09	3.174523e+00	3.885023e+02
2.450000e-06	3.395213e-07	5.473965e-09	2.448484e+00	3.544462e+02
2.460000e-06	2.386878e-07	4.946306e-09	1.721316e+00	3.197912e+02
2.470000e-06	1.377820e-07	4.406563e-09	9.936257e-01	2.847102e+02
2.480000e-06	3.684615e-08	3.864306e-09	2.657189e-01	2.493683e+02
2.490000e-06	-6.412983e-08	3.322091e-09	-4.624773e-01	2.139058e+02
2.500000e-06	-1.651052e-07	2.778233e-09	-1.190669e+00	1.784243e+02
2.510000e-06	-2.660352e-07	2.232742e-09	-1.918533e+00	1.429770e+02
2.520000e-06	-3.668642e-07	1.689229e-09	-2.645670e+00	1.075647e+02
2.530000e-06	-4.675678e-07	1.146568e-09	-3.371902e+00	7.213840e+01
2.540000e-06	-5.681006e-07	6.023407e-10	-4.096902e+00	3.660762e+01
2.550000e-06	-6.684213e-07	5.394744e-11	-4.820372e+00	8.540912e-01
2.560000e-06	-7.685298e-07	-4.998896e-10	-5.542313e+00	-3.525176e+01
2.570000e-06	-8.683771e-07	-1.059070e-09	-6.262369e+00	-7.183273e+01
2.580000e-06	-9.679065e-07	-1.625838e-09	-6.980133e+00	-1.089872e+02
2.590000e-06	-1.067113e-06	-2.200651e-09	-7.695572e+00	-1.467739e+02
2.600000e-06	-1.165995e-06	-2.787664e-09	-8.408666e+00	-1.851995e+02
2.610000e-06	-1.264486e-06	-3.387716e-09	-9.118943e+00	-2.242116e+02
2.620000e-06	-1.362539e-06	-3.995301e-09	-9.826055e+00	-2.636960e+02
2.630000e-06	-1.460098e-06	-4.607624e-09	-1.052961e+01	-3.034803e+02
2.640000e-06	-1.557104e-06	-5.219822e-09	-1.122918e+01	-3.433420e+02
2.650000e-06	-1.653611e-06	-5.828372e-09	-1.192515e+01	-3.830226e+02
2.660000e-06	-1.749701e-06	-6.429059e-09	-1.261811e+01	-4.222442e+02
2.670000e-06	-1.845282e-06	-7.017698e-09	-1.330740e+01	-4.607296e+02
2.680000e-06	-1.940109e-06	-7.593607e-09	-1.399125e+01	-4.982208e+02
2.690000e-06	-2.033992e-06	-8.151954e-09	-1.466829e+01	-5.344969e+02
2.700000e-06	-2.126911e-06	-8.690194e-09	-1.533839e+01	-5.693867e+02
2.710000e-06	-2.218977e-06	-9.204514e-09	-1.600232e+01	-6.027760e+02
2.720000e-06	-2.310318e-06	-9.692237e-09	-1.666104e+01	-6.346079e+02
2.730000e-06	-2.400867e-06	-1.015518e-08	-1.731404e+01	-6.648771e+02
2.740000e-06	-2.490502e-06	-1.059444e-08	-1.796045e+01	-6.936192e+02
2.750000e-06	-2.579269e-06	-1.101078e-08	-1.860060e+01	-7.208971e+02
2.760000e-06	-2.667285e-06	-1.140632e-08	-1.923533e+01	-7.467864e+02
2.770000e-06	-2.754530e-06	-1.178270e-08	-1.986451e+01	-7.713639e+02
2.780000e-06	-2.840743e-06	-1.213961e-08	-2.048624e+01	-7.946992e+02
2.790000e-06	-2.925708e-06	-1.247847e-08	-2.109897e+01	-8.168505e+02
2.800000e-06	-3.009588e-06	-1.279888e-08	-2.170388e+01	-8.378659e+02
2.810000e-06	-3.092548e-06	-1.310445e-08	-2.230215e+01	-8.577870e+02
2.820000e-06	-3.174495e-06	-1.339544e-08	-2.289312e+01	-8.766547e+02
2.830000e-06	-3.255353e-06	-1.366864e-08	-2.347623e+01	-8.945141e+02
2.840000e-06	-3.335206e-06	-1.392603e-08	-2.405210e+01	-9.114176e+02
2.850000e-06	-3.413837e-06	-1.417006e-08	-2.461916e+01	-9.274253e+02
2.860000e-06	-3.490896e-06	-1.440221e-08	-2.517487e+01	-9.426022e+02
2.870000e-06	-3.566525e-06	-1.462415e-08	-2.572027e+01	-9.570140e+02
2.880000e-06	-3.640811e-06	-1.483723e-08	-2.625599e+01	-9.707217e+02
2.890000e-06	-3.713725e-06	-1.504214e-08	-2.678182e+01	-9.837767e+02
2.900000e-06	-3.785441e-06	-1.523605e-08	-2.729901e+01	-9.962191e+02
2.910000e-06	-3.855742e-06	-1.541847e-08	-2.780598e+01	-1.008077e+03
2.920000e-06	-3.924420e-06	-1.559079e-08	-2.830126e+01	-1.019368e+03
2.930000e-06	-3.991743e-06	-1.575451e-08	-2.878676e+01	-1.030107e+03
2.940000e-06	-4.057731e-06	-1.590954e-08	-2.926265e+01	-1.040303e+03
