# Temperatura_=_40.14
# Concentracion g/m^3_=_28200.0
# C_Vs_to_Am_M_A/Vsm_=_65563218390.804596
# pendiente_HvsI_1/m_=_3716.3
# ordenada_HvsI_A/m_=_1297.0
# frecuencia_Hz_=_301773.1601425715

Tiempo_(s)	Campo_(V.s)	Magnetizacion_(V.s)	Campo_(kA/m)	Magnetizacion_(A/m)
0.000000e+00	-5.314491e-06	-1.937329e-08	-3.829851e+01	-1.267198e+03
1.000000e-08	-5.312856e-06	-1.937166e-08	-3.828672e+01	-1.266928e+03
2.000000e-08	-5.309309e-06	-1.936401e-08	-3.826116e+01	-1.266538e+03
3.000000e-08	-5.304038e-06	-1.935241e-08	-3.822318e+01	-1.266019e+03
4.000000e-08	-5.297145e-06	-1.934046e-08	-3.817350e+01	-1.265352e+03
5.000000e-08	-5.288629e-06	-1.932587e-08	-3.811213e+01	-1.264510e+03
6.000000e-08	-5.278166e-06	-1.930707e-08	-3.803673e+01	-1.263471e+03
7.000000e-08	-5.265779e-06	-1.928353e-08	-3.794746e+01	-1.262221e+03
8.000000e-08	-5.251555e-06	-1.925200e-08	-3.784496e+01	-1.260759e+03
9.000000e-08	-5.235126e-06	-1.926307e-08	-3.772657e+01	-1.259106e+03
1.000000e-07	-5.216499e-06	-1.928196e-08	-3.759233e+01	-1.257293e+03
1.100000e-07	-5.195955e-06	-1.921614e-08	-3.744428e+01	-1.255364e+03
1.200000e-07	-5.173561e-06	-1.915787e-08	-3.728290e+01	-1.253360e+03
1.300000e-07	-5.149483e-06	-1.910127e-08	-3.710939e+01	-1.251313e+03
1.400000e-07	-5.123857e-06	-1.899706e-08	-3.692471e+01	-1.249239e+03
1.500000e-07	-5.096638e-06	-1.907416e-08	-3.672856e+01	-1.247129e+03
1.600000e-07	-5.067893e-06	-1.906903e-08	-3.652141e+01	-1.244955e+03
1.700000e-07	-5.037823e-06	-1.890221e-08	-3.630472e+01	-1.242671e+03
1.800000e-07	-5.006126e-06	-1.898029e-08	-3.607629e+01	-1.240225e+03
1.900000e-07	-4.972295e-06	-1.891233e-08	-3.583249e+01	-1.237565e+03
2.000000e-07	-4.936686e-06	-1.876086e-08	-3.557588e+01	-1.234652e+03
2.100000e-07	-4.899523e-06	-1.884887e-08	-3.530807e+01	-1.231464e+03
2.200000e-07	-4.860602e-06	-1.875562e-08	-3.502759e+01	-1.227995e+03
2.300000e-07	-4.819887e-06	-1.863241e-08	-3.473418e+01	-1.224259e+03
2.400000e-07	-4.777236e-06	-1.863107e-08	-3.442681e+01	-1.220277e+03
2.500000e-07	-4.732739e-06	-1.851769e-08	-3.410615e+01	-1.216075e+03
2.600000e-07	-4.686509e-06	-1.848349e-08	-3.377299e+01	-1.211674e+03
2.700000e-07	-4.638361e-06	-1.845306e-08	-3.342602e+01	-1.207084e+03
2.800000e-07	-4.588197e-06	-1.831026e-08	-3.306452e+01	-1.202307e+03
2.900000e-07	-4.536019e-06	-1.821215e-08	-3.268850e+01	-1.197332e+03
3.000000e-07	-4.482038e-06	-1.815512e-08	-3.229949e+01	-1.192142e+03
3.100000e-07	-4.426474e-06	-1.809580e-08	-3.189907e+01	-1.186719e+03
3.200000e-07	-4.369187e-06	-1.800653e-08	-3.148624e+01	-1.181048e+03
3.300000e-07	-4.310112e-06	-1.792134e-08	-3.106052e+01	-1.175120e+03
3.400000e-07	-4.249545e-06	-1.781965e-08	-3.062405e+01	-1.168935e+03
3.500000e-07	-4.187612e-06	-1.768784e-08	-3.017773e+01	-1.162496e+03
3.600000e-07	-4.124243e-06	-1.759450e-08	-2.972107e+01	-1.155810e+03
3.700000e-07	-4.059420e-06	-1.750067e-08	-2.925393e+01	-1.148882e+03
3.800000e-07	-3.993009e-06	-1.741264e-08	-2.877534e+01	-1.141713e+03
3.900000e-07	-3.925051e-06	-1.730039e-08	-2.828560e+01	-1.134295e+03
4.000000e-07	-3.855765e-06	-1.714294e-08	-2.778630e+01	-1.126617e+03
4.100000e-07	-3.785281e-06	-1.702501e-08	-2.727836e+01	-1.118660e+03
4.200000e-07	-3.713564e-06	-1.690905e-08	-2.676154e+01	-1.110407e+03
4.300000e-07	-3.640501e-06	-1.678199e-08	-2.623502e+01	-1.101838e+03
4.400000e-07	-3.565882e-06	-1.664783e-08	-2.569728e+01	-1.092938e+03
4.500000e-07	-3.489713e-06	-1.650061e-08	-2.514837e+01	-1.083695e+03
4.600000e-07	-3.412155e-06	-1.634328e-08	-2.458946e+01	-1.074102e+03
4.700000e-07	-3.333231e-06	-1.618749e-08	-2.402069e+01	-1.064149e+03
4.800000e-07	-3.252973e-06	-1.604493e-08	-2.344232e+01	-1.053827e+03
4.900000e-07	-3.171493e-06	-1.588160e-08	-2.285514e+01	-1.043124e+03
5.000000e-07	-3.089008e-06	-1.570614e-08	-2.226072e+01	-1.032022e+03
5.100000e-07	-3.005594e-06	-1.552784e-08	-2.165960e+01	-1.020500e+03
5.200000e-07	-2.921268e-06	-1.534011e-08	-2.105191e+01	-1.008531e+03
5.300000e-07	-2.836016e-06	-1.514807e-08	-2.043755e+01	-9.960907e+02
5.400000e-07	-2.749803e-06	-1.495218e-08	-1.981626e+01	-9.831508e+02
5.500000e-07	-2.662716e-06	-1.474766e-08	-1.918867e+01	-9.696858e+02
5.600000e-07	-2.574735e-06	-1.452791e-08	-1.855465e+01	-9.556701e+02
5.700000e-07	-2.485692e-06	-1.429859e-08	-1.791296e+01	-9.410775e+02
5.800000e-07	-2.395503e-06	-1.406729e-08	-1.726302e+01	-9.258794e+02
5.900000e-07	-2.304264e-06	-1.383012e-08	-1.660551e+01	-9.100428e+02
6.000000e-07	-2.212237e-06	-1.357989e-08	-1.594233e+01	-8.935300e+02
6.100000e-07	-2.119537e-06	-1.331256e-08	-1.527429e+01	-8.762981e+02
6.200000e-07	-2.026018e-06	-1.303324e-08	-1.460035e+01	-8.583005e+02
6.300000e-07	-1.931725e-06	-1.274476e-08	-1.392084e+01	-8.394887e+02
6.400000e-07	-1.836829e-06	-1.244566e-08	-1.323698e+01	-8.198146e+02
6.500000e-07	-1.741390e-06	-1.213344e-08	-1.254920e+01	-7.992313e+02
6.600000e-07	-1.645357e-06	-1.180271e-08	-1.185715e+01	-7.776936e+02
6.700000e-07	-1.548607e-06	-1.145384e-08	-1.115993e+01	-7.551569e+02
6.800000e-07	-1.451196e-06	-1.109117e-08	-1.045794e+01	-7.315752e+02
6.900000e-07	-1.353206e-06	-1.071594e-08	-9.751787e+00	-7.068995e+02
7.000000e-07	-1.254667e-06	-1.032454e-08	-9.041670e+00	-6.810770e+02
7.100000e-07	-1.155651e-06	-9.914307e-09	-8.328120e+00	-6.540525e+02
7.200000e-07	-1.056250e-06	-9.480864e-09	-7.611791e+00	-6.257730e+02
7.300000e-07	-9.565276e-07	-9.023833e-09	-6.893149e+00	-5.961949e+02
7.400000e-07	-8.565521e-07	-8.548532e-09	-6.172683e+00	-5.652925e+02
7.500000e-07	-7.563616e-07	-8.058661e-09	-5.450666e+00	-5.330681e+02
7.600000e-07	-6.559092e-07	-7.551054e-09	-4.726763e+00	-4.995598e+02
7.700000e-07	-5.552175e-07	-7.022352e-09	-4.001135e+00	-4.648465e+02
7.800000e-07	-4.543278e-07	-6.477660e-09	-3.274081e+00	-4.290477e+02
7.900000e-07	-3.533237e-07	-5.919258e-09	-2.546202e+00	-3.923182e+02
8.000000e-07	-2.522689e-07	-5.348761e-09	-1.817958e+00	-3.548376e+02
8.100000e-07	-1.510732e-07	-4.771005e-09	-1.088698e+00	-3.167952e+02
8.200000e-07	-4.975819e-08	-4.188003e-09	-3.585789e-01	-2.783733e+02
8.300000e-07	5.155665e-08	-3.601106e-09	3.715394e-01	-2.397300e+02
8.400000e-07	1.528637e-07	-3.010864e-09	1.101602e+00	-2.009844e+02
8.500000e-07	2.541590e-07	-2.421208e-09	1.831579e+00	-1.622060e+02
8.600000e-07	3.553886e-07	-1.834185e-09	2.561083e+00	-1.234102e+02
8.700000e-07	4.565109e-07	-1.248669e-09	3.289814e+00	-8.455882e+01
8.800000e-07	5.574787e-07	-6.612981e-10	4.017431e+00	-4.556807e+01
8.900000e-07	6.582749e-07	-6.703588e-11	4.743812e+00	-6.320572e+00
9.000000e-07	7.588682e-07	5.366451e-10	5.468730e+00	3.331777e+01
9.100000e-07	8.592416e-07	1.150678e-09	6.192064e+00	7.347869e+01
9.200000e-07	9.593401e-07	1.773230e-09	6.913417e+00	1.142718e+02
9.300000e-07	1.059127e-06	2.404872e-09	7.632524e+00	1.557657e+02
9.400000e-07	1.158642e-06	3.047615e-09	8.349674e+00	1.979725e+02
9.500000e-07	1.257851e-06	3.699543e-09	9.064618e+00	2.408368e+02
9.600000e-07	1.356601e-06	4.357537e-09	9.776248e+00	2.842306e+02
9.700000e-07	1.454658e-06	5.021058e-09	1.048289e+01	3.279561e+02
9.800000e-07	1.551938e-06	5.686265e-09	1.118393e+01	3.717546e+02
9.900000e-07	1.648493e-06	6.350104e-09	1.187975e+01	4.153234e+02
1.000000e-06	1.744354e-06	7.006535e-09	1.257057e+01	4.583369e+02
1.010000e-06	1.839572e-06	7.647940e-09	1.325675e+01	5.004715e+02
1.020000e-06	1.934159e-06	8.269357e-09	1.393838e+01	5.414287e+02
1.030000e-06	2.028063e-06	8.867222e-09	1.461509e+01	5.809572e+02
1.040000e-06	2.121243e-06	9.440530e-09	1.528659e+01	6.188673e+02
1.050000e-06	2.213791e-06	9.988747e-09	1.595353e+01	6.550382e+02
1.060000e-06	2.305759e-06	1.051163e-08	1.661629e+01	6.894176e+02
1.070000e-06	2.397017e-06	1.100772e-08	1.727393e+01	7.220127e+02
1.080000e-06	2.487308e-06	1.147573e-08	1.792461e+01	7.528766e+02
1.090000e-06	2.576360e-06	1.191892e-08	1.856636e+01	7.820911e+02
1.100000e-06	2.664316e-06	1.233964e-08	1.920021e+01	8.097509e+02
1.110000e-06	2.751467e-06	1.273948e-08	1.982825e+01	8.359493e+02
1.120000e-06	2.837795e-06	1.311732e-08	2.045037e+01	8.607702e+02
1.130000e-06	2.923136e-06	1.347422e-08	2.106537e+01	8.842843e+02
1.140000e-06	3.007567e-06	1.381153e-08	2.167382e+01	9.065510e+02
1.150000e-06	3.091215e-06	1.413079e-08	2.227662e+01	9.276224e+02
1.160000e-06	3.173838e-06	1.443323e-08	2.287204e+01	9.475501e+02
1.170000e-06	3.255142e-06	1.471949e-08	2.345795e+01	9.663893e+02
1.180000e-06	3.335193e-06	1.499006e-08	2.403484e+01	9.842018e+02
1.190000e-06	3.414108e-06	1.524544e-08	2.460353e+01	1.001056e+03
1.200000e-06	3.491830e-06	1.548781e-08	2.516363e+01	1.017023e+03
1.210000e-06	3.568352e-06	1.571774e-08	2.571508e+01	1.032172e+03
1.220000e-06	3.643558e-06	1.593596e-08	2.625704e+01	1.046569e+03
1.230000e-06	3.717190e-06	1.614183e-08	2.678767e+01	1.060267e+03
1.240000e-06	3.789217e-06	1.633746e-08	2.730672e+01	1.073310e+03
1.250000e-06	3.859831e-06	1.652384e-08	2.781560e+01	1.085731e+03
1.260000e-06	3.929153e-06	1.670075e-08	2.831516e+01	1.097555e+03
1.270000e-06	3.997251e-06	1.686960e-08	2.880591e+01	1.108804e+03
1.280000e-06	4.063942e-06	1.703151e-08	2.928651e+01	1.119498e+03
1.290000e-06	4.128929e-06	1.718678e-08	2.975483e+01	1.129658e+03
1.300000e-06	4.192337e-06	1.733606e-08	3.021178e+01	1.139307e+03
1.310000e-06	4.254319e-06	1.747790e-08	3.065845e+01	1.148466e+03
1.320000e-06	4.314944e-06	1.761153e-08	3.109534e+01	1.157157e+03
1.330000e-06	4.374290e-06	1.773758e-08	3.152301e+01	1.165396e+03
1.340000e-06	4.431971e-06	1.785706e-08	3.193869e+01	1.173195e+03
1.350000e-06	4.487816e-06	1.796871e-08	3.234113e+01	1.180566e+03
1.360000e-06	4.542030e-06	1.807165e-08	3.273182e+01	1.187517e+03
1.370000e-06	4.594526e-06	1.816701e-08	3.311013e+01	1.194059e+03
1.380000e-06	4.645041e-06	1.825763e-08	3.347416e+01	1.200212e+03
1.390000e-06	4.693544e-06	1.834655e-08	3.382369e+01	1.206000e+03
1.400000e-06	4.740326e-06	1.843173e-08	3.416082e+01	1.211457e+03
1.410000e-06	4.785569e-06	1.851234e-08	3.448687e+01	1.216622e+03
1.420000e-06	4.829331e-06	1.858931e-08	3.480224e+01	1.221531e+03
1.430000e-06	4.871286e-06	1.866069e-08	3.510458e+01	1.226217e+03
1.440000e-06	4.911363e-06	1.872721e-08	3.539339e+01	1.230698e+03
1.450000e-06	4.949836e-06	1.879030e-08	3.567064e+01	1.234982e+03
1.460000e-06	4.986687e-06	1.885147e-08	3.593621e+01	1.239059e+03
1.470000e-06	5.021904e-06	1.891074e-08	3.619000e+01	1.242911e+03
1.480000e-06	5.055250e-06	1.896530e-08	3.643031e+01	1.246513e+03
1.490000e-06	5.086683e-06	1.901557e-08	3.665682e+01	1.249841e+03
1.500000e-06	5.116404e-06	1.906192e-08	3.687100e+01	1.252882e+03
1.510000e-06	5.144482e-06	1.910256e-08	3.707335e+01	1.255632e+03
1.520000e-06	5.170722e-06	1.913812e-08	3.726245e+01	1.258102e+03
1.530000e-06	5.194888e-06	1.917049e-08	3.743659e+01	1.260315e+03
1.540000e-06	5.217148e-06	1.919991e-08	3.759701e+01	1.262296e+03
1.550000e-06	5.237746e-06	1.922659e-08	3.774545e+01	1.264072e+03
1.560000e-06	5.256637e-06	1.925090e-08	3.788158e+01	1.265664e+03
1.570000e-06	5.273577e-06	1.927297e-08	3.800366e+01	1.267082e+03
1.580000e-06	5.288461e-06	1.929264e-08	3.811092e+01	1.268327e+03
1.590000e-06	5.301376e-06	1.930869e-08	3.820399e+01	1.269389e+03
1.600000e-06	5.312226e-06	1.932086e-08	3.828218e+01	1.270260e+03
1.610000e-06	5.320879e-06	1.933016e-08	3.834454e+01	1.270932e+03
1.620000e-06	5.327577e-06	1.933793e-08	3.839281e+01	1.271402e+03
1.630000e-06	5.332554e-06	1.934427e-08	3.842868e+01	1.271682e+03
1.640000e-06	5.335729e-06	1.934809e-08	3.845156e+01	1.271787e+03
1.650000e-06	5.336901e-06	1.935134e-08	3.846000e+01	1.271738e+03
1.660000e-06	5.336196e-06	1.935123e-08	3.845492e+01	1.271555e+03
1.670000e-06	5.333813e-06	1.934417e-08	3.843775e+01	1.271251e+03
1.680000e-06	5.329801e-06	1.933838e-08	3.840884e+01	1.270825e+03
1.690000e-06	5.323967e-06	1.933091e-08	3.836679e+01	1.270265e+03
1.700000e-06	5.316234e-06	1.932034e-08	3.831107e+01	1.269550e+03
1.710000e-06	5.306891e-06	1.930793e-08	3.824374e+01	1.268653e+03
1.720000e-06	5.295970e-06	1.929652e-08	3.816503e+01	1.267554e+03
1.730000e-06	5.283227e-06	1.929771e-08	3.807320e+01	1.266242e+03
1.740000e-06	5.268495e-06	1.924590e-08	3.796704e+01	1.264722e+03
1.750000e-06	5.251658e-06	1.915495e-08	3.784570e+01	1.263019e+03
1.760000e-06	5.232360e-06	1.915996e-08	3.770663e+01	1.261168e+03
1.770000e-06	5.210513e-06	1.915510e-08	3.754920e+01	1.259212e+03
1.780000e-06	5.186737e-06	1.918281e-08	3.737786e+01	1.257193e+03
1.790000e-06	5.161895e-06	1.919692e-08	3.719883e+01	1.255137e+03
1.800000e-06	5.136235e-06	1.899302e-08	3.701391e+01	1.253054e+03
1.810000e-06	5.108889e-06	1.903325e-08	3.681685e+01	1.250929e+03
1.820000e-06	5.079432e-06	1.909418e-08	3.660457e+01	1.248728e+03
1.830000e-06	5.048297e-06	1.889617e-08	3.638020e+01	1.246402e+03
1.840000e-06	5.015320e-06	1.900648e-08	3.614255e+01	1.243899e+03
1.850000e-06	4.980547e-06	1.900731e-08	3.589196e+01	1.241170e+03
1.860000e-06	4.944296e-06	1.878374e-08	3.563072e+01	1.238180e+03
1.870000e-06	4.906135e-06	1.885792e-08	3.535571e+01	1.234910e+03
1.880000e-06	4.866101e-06	1.876838e-08	3.506722e+01	1.231363e+03
1.890000e-06	4.824387e-06	1.868891e-08	3.476661e+01	1.227553e+03
1.900000e-06	4.780907e-06	1.874034e-08	3.445327e+01	1.223505e+03
1.910000e-06	4.735843e-06	1.850787e-08	3.412852e+01	1.219244e+03
1.920000e-06	4.688900e-06	1.851471e-08	3.379022e+01	1.214787e+03
1.930000e-06	4.640118e-06	1.855048e-08	3.343869e+01	1.210144e+03
1.940000e-06	4.589721e-06	1.838282e-08	3.307550e+01	1.205311e+03
1.950000e-06	4.537320e-06	1.833268e-08	3.269788e+01	1.200276e+03
1.960000e-06	4.482901e-06	1.822598e-08	3.230571e+01	1.195020e+03
1.970000e-06	4.426720e-06	1.817435e-08	3.190085e+01	1.189527e+03
1.980000e-06	4.368901e-06	1.805857e-08	3.148418e+01	1.183782e+03
1.990000e-06	4.309620e-06	1.793050e-08	3.105697e+01	1.177780e+03
2.000000e-06	4.248949e-06	1.794327e-08	3.061975e+01	1.171521e+03
2.010000e-06	4.186753e-06	1.780089e-08	3.017154e+01	1.165011e+03
2.020000e-06	4.122869e-06	1.768300e-08	2.971116e+01	1.158255e+03
2.030000e-06	4.057452e-06	1.755621e-08	2.923974e+01	1.151258e+03
2.040000e-06	3.990682e-06	1.744860e-08	2.875857e+01	1.144017e+03
2.050000e-06	3.922512e-06	1.739971e-08	2.826731e+01	1.136526e+03
2.060000e-06	3.852901e-06	1.722863e-08	2.776566e+01	1.128770e+03
2.070000e-06	3.781803e-06	1.712631e-08	2.725330e+01	1.120730e+03
2.080000e-06	3.709358e-06	1.699403e-08	2.673123e+01	1.112387e+03
2.090000e-06	3.635635e-06	1.684549e-08	2.619995e+01	1.103724e+03
2.100000e-06	3.560593e-06	1.672956e-08	2.565916e+01	1.094727e+03
2.110000e-06	3.484139e-06	1.658359e-08	2.510821e+01	1.085384e+03
2.120000e-06	3.406195e-06	1.645998e-08	2.454650e+01	1.075688e+03
2.130000e-06	3.326919e-06	1.628493e-08	2.397521e+01	1.065630e+03
2.140000e-06	3.246445e-06	1.612676e-08	2.339528e+01	1.055201e+03
2.150000e-06	3.164850e-06	1.595951e-08	2.280727e+01	1.044385e+03
2.160000e-06	3.082230e-06	1.578616e-08	2.221187e+01	1.033165e+03
2.170000e-06	2.998623e-06	1.562689e-08	2.160937e+01	1.021517e+03
2.180000e-06	2.913950e-06	1.543839e-08	2.099917e+01	1.009416e+03
2.190000e-06	2.828043e-06	1.524964e-08	2.038010e+01	9.968343e+02
2.200000e-06	2.740887e-06	1.504338e-08	1.975201e+01	9.837463e+02
2.210000e-06	2.652691e-06	1.484375e-08	1.911643e+01	9.701259e+02
2.220000e-06	2.563672e-06	1.463447e-08	1.847492e+01	9.559476e+02
2.230000e-06	2.473808e-06	1.440845e-08	1.782732e+01	9.411844e+02
2.240000e-06	2.383078e-06	1.417116e-08	1.717348e+01	9.258068e+02
2.250000e-06	2.291679e-06	1.392581e-08	1.651483e+01	9.097805e+02
2.260000e-06	2.199630e-06	1.367645e-08	1.585148e+01	8.930661e+02
2.270000e-06	2.106742e-06	1.340791e-08	1.518209e+01	8.756197e+02
2.280000e-06	2.012884e-06	1.313424e-08	1.450571e+01	8.573938e+02
2.290000e-06	1.918065e-06	1.284652e-08	1.382240e+01	8.383399e+02
2.300000e-06	1.822460e-06	1.254311e-08	1.313343e+01	8.184101e+02
2.310000e-06	1.726272e-06	1.222500e-08	1.244026e+01	7.975580e+02
2.320000e-06	1.629618e-06	1.189375e-08	1.174373e+01	7.757388e+02
2.330000e-06	1.532484e-06	1.155004e-08	1.104374e+01	7.529077e+02
2.340000e-06	1.434796e-06	1.118506e-08	1.033975e+01	7.290180e+02
2.350000e-06	1.336586e-06	1.079987e-08	9.632011e+00	7.040195e+02
2.360000e-06	1.237956e-06	1.039948e-08	8.921240e+00	6.778586e+02
2.370000e-06	1.139027e-06	9.986376e-09	8.208317e+00	6.504800e+02
2.380000e-06	1.039878e-06	9.555624e-09	7.493804e+00	6.218327e+02
2.390000e-06	9.404995e-07	9.102829e-09	6.777644e+00	5.918771e+02
2.400000e-06	8.408524e-07	8.624090e-09	6.059544e+00	5.605947e+02
2.410000e-06	7.409411e-07	8.123554e-09	5.339540e+00	5.279973e+02
2.420000e-06	6.407965e-07	7.604397e-09	4.617855e+00	4.941343e+02
2.430000e-06	5.403982e-07	7.067016e-09	3.894341e+00	4.590963e+02
2.440000e-06	4.398186e-07	6.516835e-09	3.169522e+00	4.230138e+02
2.450000e-06	3.391250e-07	5.954805e-09	2.443881e+00	3.860500e+02
2.460000e-06	2.382538e-07	5.378269e-09	1.716959e+00	3.483889e+02
2.470000e-06	1.372145e-07	4.790337e-09	9.888267e-01	3.102196e+02
2.480000e-06	3.611809e-08	4.199692e-09	2.602825e-01	2.717191e+02
2.490000e-06	-6.499126e-08	3.610012e-09	-4.683549e-01	2.330358e+02
2.500000e-06	-1.661068e-07	3.017901e-09	-1.197037e+00	1.942754e+02
2.510000e-06	-2.671425e-07	2.421482e-09	-1.925143e+00	1.554923e+02
2.520000e-06	-3.680539e-07	1.824145e-09	-2.652355e+00	1.166860e+02
2.530000e-06	-4.688218e-07	1.226384e-09	-3.378532e+00	7.780451e+01
2.540000e-06	-5.694305e-07	6.264256e-10	-4.103561e+00	3.875282e+01
2.550000e-06	-6.698004e-07	2.172000e-11	-4.826870e+00	-5.930357e-01
2.560000e-06	-7.698836e-07	-5.880349e-10	-5.548112e+00	-4.036848e+01
2.570000e-06	-8.697255e-07	-1.203794e-09	-6.267616e+00	-8.070092e+01
2.580000e-06	-9.693080e-07	-1.827597e-09	-6.985250e+00	-1.216901e+02
2.590000e-06	-1.068623e-06	-2.462274e-09	-7.700959e+00	-1.633899e+02
2.600000e-06	-1.167603e-06	-3.110470e-09	-8.414246e+00	-2.057940e+02
2.610000e-06	-1.266198e-06	-3.768996e-09	-9.124766e+00	-2.488264e+02
2.620000e-06	-1.364358e-06	-4.435492e-09	-9.832151e+00	-2.923387e+02
2.630000e-06	-1.461992e-06	-5.107436e-09	-1.053574e+01	-3.361144e+02
2.640000e-06	-1.559129e-06	-5.778772e-09	-1.123575e+01	-3.798802e+02
2.650000e-06	-1.655794e-06	-6.443372e-09	-1.193236e+01	-4.233246e+02
2.660000e-06	-1.751972e-06	-7.096997e-09	-1.262547e+01	-4.661200e+02
2.670000e-06	-1.847661e-06	-7.736738e-09	-1.331504e+01	-5.079475e+02
2.680000e-06	-1.942712e-06	-8.360200e-09	-1.400002e+01	-5.485204e+02
2.690000e-06	-2.036849e-06	-8.960208e-09	-1.467841e+01	-5.876035e+02
2.700000e-06	-2.129938e-06	-9.533180e-09	-1.534925e+01	-6.250266e+02
2.710000e-06	-2.222078e-06	-1.008140e-08	-1.601325e+01	-6.606888e+02
2.720000e-06	-2.313485e-06	-1.060214e-08	-1.667197e+01	-6.945560e+02
2.730000e-06	-2.404171e-06	-1.109151e-08	-1.732549e+01	-7.266501e+02
2.740000e-06	-2.493914e-06	-1.155524e-08	-1.797222e+01	-7.570341e+02
2.750000e-06	-2.582774e-06	-1.199657e-08	-1.861258e+01	-7.857953e+02
2.760000e-06	-2.670910e-06	-1.241354e-08	-1.924773e+01	-8.130289e+02
2.770000e-06	-2.758280e-06	-1.280775e-08	-1.987735e+01	-8.388264e+02
2.780000e-06	-2.844571e-06	-1.318179e-08	-2.049920e+01	-8.632679e+02
2.790000e-06	-2.929577e-06	-1.353797e-08	-2.111179e+01	-8.864206e+02
2.800000e-06	-3.013485e-06	-1.387440e-08	-2.171647e+01	-9.083412e+02
2.810000e-06	-3.096421e-06	-1.419040e-08	-2.231414e+01	-9.290812e+02
2.820000e-06	-3.178410e-06	-1.448947e-08	-2.290499e+01	-9.486926e+02
2.830000e-06	-3.259409e-06	-1.477354e-08	-2.348870e+01	-9.672324e+02
2.840000e-06	-3.339360e-06	-1.504261e-08	-2.406486e+01	-9.847645e+02
2.850000e-06	-3.418035e-06	-1.529664e-08	-2.463183e+01	-1.001358e+03
2.860000e-06	-3.495180e-06	-1.553715e-08	-2.518777e+01	-1.017085e+03
2.870000e-06	-3.570890e-06	-1.576804e-08	-2.573336e+01	-1.032014e+03
2.880000e-06	-3.645213e-06	-1.598902e-08	-2.626897e+01	-1.046207e+03
2.890000e-06	-3.718161e-06	-1.619873e-08	-2.679466e+01	-1.059715e+03
2.900000e-06	-3.789892e-06	-1.639745e-08	-2.731159e+01	-1.072578e+03
2.910000e-06	-3.860216e-06	-1.658508e-08	-2.781837e+01	-1.084826e+03
2.920000e-06	-3.928950e-06	-1.676438e-08	-2.831370e+01	-1.096485e+03
2.930000e-06	-3.996297e-06	-1.693552e-08	-2.879903e+01	-1.107574e+03
2.940000e-06	-4.062296e-06	-1.709676e-08	-2.927465e+01	-1.118114e+03
