# Temperatura_=_45.52
# Concentracion g/m^3_=_28200.0
# C_Vs_to_Am_M_A/Vsm_=_65563218390.804596
# pendiente_HvsI_1/m_=_3716.3
# ordenada_HvsI_A/m_=_1297.0
# frecuencia_Hz_=_301776.25546383334

Tiempo_(s)	Campo_(V.s)	Magnetizacion_(V.s)	Campo_(kA/m)	Magnetizacion_(A/m)
0.000000e+00	-5.343664e-06	-2.051777e-08	-3.828957e+01	-1.342043e+03
1.000000e-08	-5.341829e-06	-2.051348e-08	-3.827643e+01	-1.341725e+03
2.000000e-08	-5.338088e-06	-2.050349e-08	-3.824962e+01	-1.341288e+03
3.000000e-08	-5.332669e-06	-2.049000e-08	-3.821078e+01	-1.340729e+03
4.000000e-08	-5.325651e-06	-2.047699e-08	-3.816050e+01	-1.340035e+03
5.000000e-08	-5.316976e-06	-2.046237e-08	-3.809834e+01	-1.339181e+03
6.000000e-08	-5.306359e-06	-2.044589e-08	-3.802227e+01	-1.338137e+03
7.000000e-08	-5.293778e-06	-2.042708e-08	-3.793212e+01	-1.336879e+03
8.000000e-08	-5.279261e-06	-2.040178e-08	-3.782810e+01	-1.335396e+03
9.000000e-08	-5.262541e-06	-2.039680e-08	-3.770829e+01	-1.333693e+03
1.000000e-07	-5.243701e-06	-2.039884e-08	-3.757329e+01	-1.331794e+03
1.100000e-07	-5.222947e-06	-2.034442e-08	-3.742458e+01	-1.329739e+03
1.200000e-07	-5.200345e-06	-2.028597e-08	-3.726263e+01	-1.327574e+03
1.300000e-07	-5.176122e-06	-2.024004e-08	-3.708906e+01	-1.325341e+03
1.400000e-07	-5.150361e-06	-2.015868e-08	-3.690447e+01	-1.323070e+03
1.500000e-07	-5.122983e-06	-2.017528e-08	-3.670830e+01	-1.320770e+03
1.600000e-07	-5.094065e-06	-2.017739e-08	-3.650109e+01	-1.318428e+03
1.700000e-07	-5.063698e-06	-2.004953e-08	-3.628350e+01	-1.316005e+03
1.800000e-07	-5.031629e-06	-2.006287e-08	-3.605371e+01	-1.313450e+03
1.900000e-07	-4.997500e-06	-2.003433e-08	-3.580916e+01	-1.310702e+03
2.000000e-07	-4.961612e-06	-1.993461e-08	-3.555201e+01	-1.307708e+03
2.100000e-07	-4.924155e-06	-1.997166e-08	-3.528362e+01	-1.304428e+03
2.200000e-07	-4.885003e-06	-1.987597e-08	-3.500307e+01	-1.300838e+03
2.300000e-07	-4.844090e-06	-1.973658e-08	-3.470991e+01	-1.296940e+03
2.400000e-07	-4.801153e-06	-1.969856e-08	-3.440225e+01	-1.292751e+03
2.500000e-07	-4.756290e-06	-1.962011e-08	-3.408079e+01	-1.288297e+03
2.600000e-07	-4.709745e-06	-1.959937e-08	-3.374728e+01	-1.283610e+03
2.700000e-07	-4.661287e-06	-1.955951e-08	-3.340006e+01	-1.278714e+03
2.800000e-07	-4.610681e-06	-1.940080e-08	-3.303744e+01	-1.273623e+03
2.900000e-07	-4.558096e-06	-1.928745e-08	-3.266065e+01	-1.268339e+03
3.000000e-07	-4.503802e-06	-1.923308e-08	-3.227161e+01	-1.262850e+03
3.100000e-07	-4.447909e-06	-1.917618e-08	-3.187112e+01	-1.257136e+03
3.200000e-07	-4.390260e-06	-1.909072e-08	-3.145804e+01	-1.251176e+03
3.300000e-07	-4.330853e-06	-1.899523e-08	-3.103236e+01	-1.244952e+03
3.400000e-07	-4.269930e-06	-1.887803e-08	-3.059582e+01	-1.238450e+03
3.500000e-07	-4.207575e-06	-1.873308e-08	-3.014902e+01	-1.231666e+03
3.600000e-07	-4.143825e-06	-1.863280e-08	-2.969223e+01	-1.224605e+03
3.700000e-07	-4.078581e-06	-1.855221e-08	-2.922472e+01	-1.217271e+03
3.800000e-07	-4.011680e-06	-1.846448e-08	-2.874536e+01	-1.209673e+03
3.900000e-07	-3.943277e-06	-1.833565e-08	-2.825522e+01	-1.201811e+03
4.000000e-07	-3.873590e-06	-1.816956e-08	-2.775588e+01	-1.193683e+03
4.100000e-07	-3.802688e-06	-1.804205e-08	-2.724784e+01	-1.185277e+03
4.200000e-07	-3.730533e-06	-1.792089e-08	-2.673082e+01	-1.176575e+03
4.300000e-07	-3.656925e-06	-1.778767e-08	-2.620339e+01	-1.167557e+03
4.400000e-07	-3.581705e-06	-1.764577e-08	-2.566440e+01	-1.158200e+03
4.500000e-07	-3.505021e-06	-1.748652e-08	-2.511493e+01	-1.148484e+03
4.600000e-07	-3.427009e-06	-1.732137e-08	-2.455594e+01	-1.138391e+03
4.700000e-07	-3.347549e-06	-1.716709e-08	-2.398658e+01	-1.127909e+03
4.800000e-07	-3.266736e-06	-1.701792e-08	-2.340752e+01	-1.117025e+03
4.900000e-07	-3.184808e-06	-1.684201e-08	-2.282047e+01	-1.105728e+03
5.000000e-07	-3.101870e-06	-1.665346e-08	-2.222619e+01	-1.094004e+03
5.100000e-07	-3.017987e-06	-1.646531e-08	-2.162513e+01	-1.081836e+03
5.200000e-07	-2.933208e-06	-1.626807e-08	-2.101765e+01	-1.069204e+03
5.300000e-07	-2.847471e-06	-1.606607e-08	-2.040331e+01	-1.056081e+03
5.400000e-07	-2.760772e-06	-1.585939e-08	-1.978208e+01	-1.042439e+03
5.500000e-07	-2.673201e-06	-1.564130e-08	-1.915459e+01	-1.028249e+03
5.600000e-07	-2.584653e-06	-1.540730e-08	-1.852011e+01	-1.013477e+03
5.700000e-07	-2.494915e-06	-1.516794e-08	-1.787711e+01	-9.980935e+02
5.800000e-07	-2.404069e-06	-1.493283e-08	-1.722615e+01	-9.820646e+02
5.900000e-07	-2.312389e-06	-1.468675e-08	-1.656923e+01	-9.653567e+02
6.000000e-07	-2.219936e-06	-1.441758e-08	-1.590676e+01	-9.479328e+02
6.100000e-07	-2.126692e-06	-1.412794e-08	-1.523863e+01	-9.297524e+02
6.200000e-07	-2.032655e-06	-1.383050e-08	-1.456482e+01	-9.107709e+02
6.300000e-07	-1.937887e-06	-1.352943e-08	-1.388576e+01	-8.909392e+02
6.400000e-07	-1.842568e-06	-1.321853e-08	-1.320277e+01	-8.702047e+02
6.500000e-07	-1.746678e-06	-1.289175e-08	-1.251567e+01	-8.485120e+02
6.600000e-07	-1.650006e-06	-1.254094e-08	-1.182298e+01	-8.258034e+02
6.700000e-07	-1.552535e-06	-1.216947e-08	-1.112456e+01	-8.020201e+02
6.800000e-07	-1.454363e-06	-1.178382e-08	-1.042112e+01	-7.771021e+02
6.900000e-07	-1.355597e-06	-1.138709e-08	-9.713417e+00	-7.509889e+02
7.000000e-07	-1.256419e-06	-1.097608e-08	-9.002765e+00	-7.236203e+02
7.100000e-07	-1.156948e-06	-1.054210e-08	-8.290015e+00	-6.949390e+02
7.200000e-07	-1.057144e-06	-1.007977e-08	-7.574878e+00	-6.648939e+02
7.300000e-07	-9.569974e-07	-9.591942e-09	-6.857284e+00	-6.334463e+02
7.400000e-07	-8.565573e-07	-9.087318e-09	-6.137589e+00	-6.005766e+02
7.500000e-07	-7.557776e-07	-8.568716e-09	-5.415461e+00	-5.662928e+02
7.600000e-07	-6.546873e-07	-8.031569e-09	-4.691106e+00	-5.306368e+02
7.700000e-07	-5.534021e-07	-7.472262e-09	-3.965356e+00	-4.936899e+02
7.800000e-07	-4.519721e-07	-6.892909e-09	-3.238568e+00	-4.555739e+02
7.900000e-07	-3.503955e-07	-6.296335e-09	-2.510729e+00	-4.164471e+02
8.000000e-07	-2.487218e-07	-5.684877e-09	-1.782195e+00	-3.764958e+02
8.100000e-07	-1.469832e-07	-5.064266e-09	-1.053196e+00	-3.359200e+02
8.200000e-07	-4.517118e-08	-4.439612e-09	-3.236703e-01	-2.949172e+02
8.300000e-07	5.672846e-08	-3.812138e-09	4.064830e-01	-2.536629e+02
8.400000e-07	1.586783e-07	-3.182300e-09	1.136996e+00	-2.122936e+02
8.500000e-07	2.605622e-07	-2.552868e-09	1.867036e+00	-1.708929e+02
8.600000e-07	3.623221e-07	-1.926537e-09	2.596188e+00	-1.294831e+02
8.700000e-07	4.639375e-07	-1.298639e-09	3.324305e+00	-8.802463e+01
8.800000e-07	5.654230e-07	-6.640615e-10	4.051490e+00	-4.642272e+01
8.900000e-07	6.667831e-07	-2.363972e-11	4.777778e+00	-4.541871e+00
9.000000e-07	7.679970e-07	6.233749e-10	5.503017e+00	3.777400e+01
9.100000e-07	8.689655e-07	1.278519e-09	6.226498e+00	8.067761e+01
9.200000e-07	9.695794e-07	1.942016e-09	6.947439e+00	1.242934e+02
9.300000e-07	1.069837e-06	2.614667e-09	7.665823e+00	1.686948e+02
9.400000e-07	1.169739e-06	3.299667e-09	8.381666e+00	2.138858e+02
9.500000e-07	1.269294e-06	3.996166e-09	9.095018e+00	2.597903e+02
9.600000e-07	1.368472e-06	4.700178e-09	9.805671e+00	3.062492e+02
9.700000e-07	1.467162e-06	5.410253e-09	1.051282e+01	3.530266e+02
9.800000e-07	1.565185e-06	6.122046e-09	1.121520e+01	3.998245e+02
9.900000e-07	1.662379e-06	6.831940e-09	1.191164e+01	4.463040e+02
1.000000e-06	1.758759e-06	7.531719e-09	1.260224e+01	4.921106e+02
1.010000e-06	1.854419e-06	8.212478e-09	1.328769e+01	5.369003e+02
1.020000e-06	1.949472e-06	8.871441e-09	1.396877e+01	5.803648e+02
1.030000e-06	2.043889e-06	9.504990e-09	1.464531e+01	6.222502e+02
1.040000e-06	2.137539e-06	1.010955e-08	1.531635e+01	6.623700e+02
1.050000e-06	2.230466e-06	1.068492e-08	1.598221e+01	7.006096e+02
1.060000e-06	2.322691e-06	1.123423e-08	1.664305e+01	7.369228e+02
1.070000e-06	2.414214e-06	1.175752e-08	1.729884e+01	7.713222e+02
1.080000e-06	2.504979e-06	1.225259e-08	1.794921e+01	8.038647e+02
1.090000e-06	2.594715e-06	1.272029e-08	1.859221e+01	8.346355e+02
1.100000e-06	2.683239e-06	1.316337e-08	1.922652e+01	8.637328e+02
1.110000e-06	2.770718e-06	1.358217e-08	1.985334e+01	8.912559e+02
1.120000e-06	2.857355e-06	1.397782e-08	2.047414e+01	9.172968e+02
1.130000e-06	2.943099e-06	1.435135e-08	2.108853e+01	9.419377e+02
1.140000e-06	3.027913e-06	1.470213e-08	2.169625e+01	9.652510e+02
1.150000e-06	3.111856e-06	1.503444e-08	2.229774e+01	9.873029e+02
1.160000e-06	3.194818e-06	1.535054e-08	2.289219e+01	1.008157e+03
1.170000e-06	3.276604e-06	1.565064e-08	2.347823e+01	1.027879e+03
1.180000e-06	3.357093e-06	1.593446e-08	2.405497e+01	1.046536e+03
1.190000e-06	3.436393e-06	1.620197e-08	2.462318e+01	1.064198e+03
1.200000e-06	3.514541e-06	1.645458e-08	2.518315e+01	1.080935e+03
1.210000e-06	3.591481e-06	1.669333e-08	2.573446e+01	1.096815e+03
1.220000e-06	3.667109e-06	1.692093e-08	2.627636e+01	1.111897e+03
1.230000e-06	3.741126e-06	1.713906e-08	2.680672e+01	1.126234e+03
1.240000e-06	3.813535e-06	1.734588e-08	2.732556e+01	1.139869e+03
1.250000e-06	3.884539e-06	1.754074e-08	2.783434e+01	1.152839e+03
1.260000e-06	3.954179e-06	1.772457e-08	2.833333e+01	1.165175e+03
1.270000e-06	4.022521e-06	1.789948e-08	2.882303e+01	1.176905e+03
1.280000e-06	4.089551e-06	1.806673e-08	2.930333e+01	1.188059e+03
1.290000e-06	4.154953e-06	1.822836e-08	2.977197e+01	1.198665e+03
1.300000e-06	4.218682e-06	1.838506e-08	3.022861e+01	1.208753e+03
1.310000e-06	4.280954e-06	1.853269e-08	3.067481e+01	1.218349e+03
1.320000e-06	4.341813e-06	1.867210e-08	3.111089e+01	1.227474e+03
1.330000e-06	4.401267e-06	1.880533e-08	3.153690e+01	1.236146e+03
1.340000e-06	4.459088e-06	1.893162e-08	3.195122e+01	1.244373e+03
1.350000e-06	4.515131e-06	1.905060e-08	3.235279e+01	1.252158e+03
1.360000e-06	4.569579e-06	1.915999e-08	3.274293e+01	1.259506e+03
1.370000e-06	4.622370e-06	1.926105e-08	3.312120e+01	1.266421e+03
1.380000e-06	4.673235e-06	1.935676e-08	3.348567e+01	1.272915e+03
1.390000e-06	4.722099e-06	1.944857e-08	3.383580e+01	1.279012e+03
1.400000e-06	4.769148e-06	1.953664e-08	3.417293e+01	1.284743e+03
1.410000e-06	4.814567e-06	1.962089e-08	3.449837e+01	1.290147e+03
1.420000e-06	4.858465e-06	1.970140e-08	3.481292e+01	1.295265e+03
1.430000e-06	4.900626e-06	1.977637e-08	3.511502e+01	1.300134e+03
1.440000e-06	4.940886e-06	1.984718e-08	3.540350e+01	1.304783e+03
1.450000e-06	4.979441e-06	1.991501e-08	3.567976e+01	1.309225e+03
1.460000e-06	5.016414e-06	1.997889e-08	3.594469e+01	1.313457e+03
1.470000e-06	5.051788e-06	2.003854e-08	3.619816e+01	1.317465e+03
1.480000e-06	5.085266e-06	2.009440e-08	3.643804e+01	1.321225e+03
1.490000e-06	5.116815e-06	2.014665e-08	3.666410e+01	1.324712e+03
1.500000e-06	5.146657e-06	2.019612e-08	3.687793e+01	1.327907e+03
1.510000e-06	5.174846e-06	2.024073e-08	3.707992e+01	1.330803e+03
1.520000e-06	5.201173e-06	2.027973e-08	3.726857e+01	1.333405e+03
1.530000e-06	5.225394e-06	2.031393e-08	3.744212e+01	1.335729e+03
1.540000e-06	5.247695e-06	2.034269e-08	3.760191e+01	1.337803e+03
1.550000e-06	5.268321e-06	2.036892e-08	3.774971e+01	1.339652e+03
1.560000e-06	5.287226e-06	2.039419e-08	3.788517e+01	1.341302e+03
1.570000e-06	5.304180e-06	2.041820e-08	3.800665e+01	1.342766e+03
1.580000e-06	5.319132e-06	2.043896e-08	3.811379e+01	1.344047e+03
1.590000e-06	5.332136e-06	2.045390e-08	3.820697e+01	1.345142e+03
1.600000e-06	5.342966e-06	2.046576e-08	3.828457e+01	1.346038e+03
1.610000e-06	5.351562e-06	2.047601e-08	3.834616e+01	1.346727e+03
1.620000e-06	5.358229e-06	2.048342e-08	3.839394e+01	1.347205e+03
1.630000e-06	5.363183e-06	2.048817e-08	3.842943e+01	1.347476e+03
1.640000e-06	5.366338e-06	2.049140e-08	3.845204e+01	1.347557e+03
1.650000e-06	5.367449e-06	2.049317e-08	3.846000e+01	1.347469e+03
1.660000e-06	5.366626e-06	2.049153e-08	3.845411e+01	1.347237e+03
1.670000e-06	5.364135e-06	2.048517e-08	3.843625e+01	1.346879e+03
1.680000e-06	5.359977e-06	2.048026e-08	3.840646e+01	1.346402e+03
1.690000e-06	5.353918e-06	2.047356e-08	3.836305e+01	1.345802e+03
1.700000e-06	5.346037e-06	2.046147e-08	3.830658e+01	1.345059e+03
1.710000e-06	5.336612e-06	2.044648e-08	3.823904e+01	1.344145e+03
1.720000e-06	5.325544e-06	2.043214e-08	3.815973e+01	1.343034e+03
1.730000e-06	5.312589e-06	2.042227e-08	3.806690e+01	1.341703e+03
1.740000e-06	5.297643e-06	2.038357e-08	3.795981e+01	1.340147e+03
1.750000e-06	5.280574e-06	2.031336e-08	3.783751e+01	1.338377e+03
1.760000e-06	5.261009e-06	2.030618e-08	3.769731e+01	1.336422e+03
1.770000e-06	5.238818e-06	2.030039e-08	3.753831e+01	1.334326e+03
1.780000e-06	5.214749e-06	2.029572e-08	3.736584e+01	1.332133e+03
1.790000e-06	5.189745e-06	2.030389e-08	3.718668e+01	1.329885e+03
1.800000e-06	5.163884e-06	2.016369e-08	3.700137e+01	1.327604e+03
1.810000e-06	5.136290e-06	2.014185e-08	3.680365e+01	1.325292e+03
1.820000e-06	5.106486e-06	2.018979e-08	3.659009e+01	1.322928e+03
1.830000e-06	5.074953e-06	2.006522e-08	3.636414e+01	1.320468e+03
1.840000e-06	5.041629e-06	2.009267e-08	3.612537e+01	1.317856e+03
1.850000e-06	5.006536e-06	2.008091e-08	3.587391e+01	1.315034e+03
1.860000e-06	4.969903e-06	1.991755e-08	3.561142e+01	1.311951e+03
1.870000e-06	4.931367e-06	1.995403e-08	3.533529e+01	1.308571e+03
1.880000e-06	4.891041e-06	1.991518e-08	3.504634e+01	1.304881e+03
1.890000e-06	4.849084e-06	1.984315e-08	3.474570e+01	1.300886e+03
1.900000e-06	4.805379e-06	1.983254e-08	3.443253e+01	1.296607e+03
1.910000e-06	4.759919e-06	1.962547e-08	3.410680e+01	1.292074e+03
1.920000e-06	4.712524e-06	1.960147e-08	3.376719e+01	1.287317e+03
1.930000e-06	4.663352e-06	1.964305e-08	3.341485e+01	1.282356e+03
1.940000e-06	4.612550e-06	1.950124e-08	3.305084e+01	1.277203e+03
1.950000e-06	4.559747e-06	1.942790e-08	3.267248e+01	1.271854e+03
1.960000e-06	4.504960e-06	1.932701e-08	3.227991e+01	1.266294e+03
1.970000e-06	4.448481e-06	1.924176e-08	3.187521e+01	1.260503e+03
1.980000e-06	4.390380e-06	1.912863e-08	3.145890e+01	1.254459e+03
1.990000e-06	4.330826e-06	1.902200e-08	3.103216e+01	1.248145e+03
2.000000e-06	4.269742e-06	1.901885e-08	3.059448e+01	1.241552e+03
2.010000e-06	4.207012e-06	1.887880e-08	3.014499e+01	1.234677e+03
2.020000e-06	4.142647e-06	1.872513e-08	2.968379e+01	1.227527e+03
2.030000e-06	4.076785e-06	1.859403e-08	2.921186e+01	1.220106e+03
2.040000e-06	4.009591e-06	1.848860e-08	2.873039e+01	1.212422e+03
2.050000e-06	3.941006e-06	1.842428e-08	2.823895e+01	1.204475e+03
2.060000e-06	3.870897e-06	1.827235e-08	2.773658e+01	1.196259e+03
2.070000e-06	3.799279e-06	1.815596e-08	2.722341e+01	1.187759e+03
2.080000e-06	3.726420e-06	1.801165e-08	2.670135e+01	1.178957e+03
2.090000e-06	3.652281e-06	1.785656e-08	2.617011e+01	1.169831e+03
2.100000e-06	3.576658e-06	1.773653e-08	2.562824e+01	1.160360e+03
2.110000e-06	3.499461e-06	1.758148e-08	2.507509e+01	1.150523e+03
2.120000e-06	3.420784e-06	1.742871e-08	2.451134e+01	1.140306e+03
2.130000e-06	3.340983e-06	1.725119e-08	2.393953e+01	1.129695e+03
2.140000e-06	3.260066e-06	1.709058e-08	2.335973e+01	1.118678e+03
2.150000e-06	3.178039e-06	1.691916e-08	2.277197e+01	1.107245e+03
2.160000e-06	3.095023e-06	1.674098e-08	2.217712e+01	1.095379e+03
2.170000e-06	3.011005e-06	1.657483e-08	2.157510e+01	1.083064e+03
2.180000e-06	2.925798e-06	1.637734e-08	2.096456e+01	1.070276e+03
2.190000e-06	2.839245e-06	1.616684e-08	2.034437e+01	1.056989e+03
2.200000e-06	2.751639e-06	1.594859e-08	1.971664e+01	1.043173e+03
2.210000e-06	2.663110e-06	1.574174e-08	1.908229e+01	1.028798e+03
2.220000e-06	2.573658e-06	1.551919e-08	1.844133e+01	1.013833e+03
2.230000e-06	2.483329e-06	1.527141e-08	1.779408e+01	9.982441e+02
2.240000e-06	2.392189e-06	1.501943e-08	1.714103e+01	9.819999e+02
2.250000e-06	2.300413e-06	1.476894e-08	1.648341e+01	9.650651e+02
2.260000e-06	2.207805e-06	1.451087e-08	1.581984e+01	9.474017e+02
2.270000e-06	2.114138e-06	1.422966e-08	1.514868e+01	9.289680e+02
2.280000e-06	2.019517e-06	1.393669e-08	1.447068e+01	9.097179e+02
2.290000e-06	1.924159e-06	1.362742e-08	1.378740e+01	8.896010e+02
2.300000e-06	1.828196e-06	1.330323e-08	1.309978e+01	8.685638e+02
2.310000e-06	1.731641e-06	1.296678e-08	1.240792e+01	8.465499e+02
2.320000e-06	1.634535e-06	1.262145e-08	1.171212e+01	8.235015e+02
2.330000e-06	1.536878e-06	1.226208e-08	1.101237e+01	7.993591e+02
2.340000e-06	1.438658e-06	1.187523e-08	1.030858e+01	7.740627e+02
2.350000e-06	1.339905e-06	1.146435e-08	9.600975e+00	7.475515e+02
2.360000e-06	1.240759e-06	1.103958e-08	8.890555e+00	7.197662e+02
2.370000e-06	1.141406e-06	1.060593e-08	8.178647e+00	6.906507e+02
2.380000e-06	1.041887e-06	1.015186e-08	7.465551e+00	6.601573e+02
2.390000e-06	9.421521e-07	9.666552e-09	6.750911e+00	6.282527e+02
2.400000e-06	8.421536e-07	9.149955e-09	6.034380e+00	5.949252e+02
2.410000e-06	7.418051e-07	8.611079e-09	5.315342e+00	5.601929e+02
2.420000e-06	6.410666e-07	8.055049e-09	4.593509e+00	5.241103e+02
2.430000e-06	5.399770e-07	7.483587e-09	3.869160e+00	4.867716e+02
2.440000e-06	4.386294e-07	6.900386e-09	3.142962e+00	4.483109e+02
2.450000e-06	3.370647e-07	6.303460e-09	2.415208e+00	4.088969e+02
2.460000e-06	2.352753e-07	5.691289e-09	1.685845e+00	3.687219e+02
2.470000e-06	1.333167e-07	5.068726e-09	9.552693e-01	3.279871e+02
2.480000e-06	3.124564e-08	4.441149e-09	2.238880e-01	2.868849e+02
2.490000e-06	-7.085953e-08	3.810221e-09	-5.077379e-01	2.455802e+02
2.500000e-06	-1.728977e-07	3.175627e-09	-1.238884e+00	2.041936e+02
2.510000e-06	-2.748718e-07	2.540055e-09	-1.969570e+00	1.627897e+02
2.520000e-06	-3.767415e-07	1.906368e-09	-2.699509e+00	1.213705e+02
2.530000e-06	-4.783832e-07	1.274162e-09	-3.427814e+00	7.987765e+01
2.540000e-06	-5.797520e-07	6.401052e-10	-4.154164e+00	3.820139e+01
2.550000e-06	-6.808217e-07	-4.575462e-13	-4.878370e+00	-3.802834e+00
2.560000e-06	-7.815051e-07	-6.498459e-10	-5.599809e+00	-4.629274e+01
2.570000e-06	-8.818013e-07	-1.308790e-09	-6.318473e+00	-8.941463e+01
2.580000e-06	-9.817677e-07	-1.978296e-09	-7.034773e+00	-1.332788e+02
2.590000e-06	-1.081438e-06	-2.661224e-09	-7.748949e+00	-1.779382e+02
2.600000e-06	-1.180854e-06	-3.357800e-09	-8.461313e+00	-2.233718e+02
2.610000e-06	-1.280012e-06	-4.064816e-09	-9.171815e+00	-2.694767e+02
2.620000e-06	-1.378724e-06	-4.779467e-09	-9.879130e+00	-3.160679e+02
2.630000e-06	-1.476802e-06	-5.498369e-09	-1.058190e+01	-3.628878e+02
2.640000e-06	-1.574322e-06	-6.213755e-09	-1.128067e+01	-4.096225e+02
2.650000e-06	-1.671342e-06	-6.920238e-09	-1.197586e+01	-4.559253e+02
2.660000e-06	-1.767833e-06	-7.615698e-09	-1.266726e+01	-5.014421e+02
2.670000e-06	-1.863763e-06	-8.295781e-09	-1.335464e+01	-5.458382e+02
2.680000e-06	-1.959097e-06	-8.955767e-09	-1.403774e+01	-5.888207e+02
2.690000e-06	-2.053714e-06	-9.589001e-09	-1.471572e+01	-6.301563e+02
2.700000e-06	-2.147457e-06	-1.019498e-08	-1.538742e+01	-6.696818e+02
2.710000e-06	-2.240205e-06	-1.077437e-08	-1.605200e+01	-7.073050e+02
2.720000e-06	-2.331999e-06	-1.132477e-08	-1.670974e+01	-7.430001e+02
2.730000e-06	-2.423027e-06	-1.184658e-08	-1.736200e+01	-7.767957e+02
2.740000e-06	-2.513214e-06	-1.233791e-08	-1.800822e+01	-8.087595e+02
2.750000e-06	-2.602505e-06	-1.279958e-08	-1.864803e+01	-8.389823e+02
2.760000e-06	-2.690970e-06	-1.323452e-08	-1.928192e+01	-8.675639e+02
2.770000e-06	-2.778614e-06	-1.364541e-08	-1.990992e+01	-8.946019e+02
2.780000e-06	-2.865352e-06	-1.403731e-08	-2.053143e+01	-9.201853e+02
2.790000e-06	-2.950881e-06	-1.441130e-08	-2.114428e+01	-9.443929e+02
2.800000e-06	-3.035186e-06	-1.476357e-08	-2.174837e+01	-9.672946e+02
2.810000e-06	-3.118511e-06	-1.509517e-08	-2.234543e+01	-9.889555e+02
2.820000e-06	-3.200856e-06	-1.540914e-08	-2.293546e+01	-1.009439e+03
2.830000e-06	-3.282128e-06	-1.570757e-08	-2.351781e+01	-1.028812e+03
2.840000e-06	-3.362347e-06	-1.599123e-08	-2.409261e+01	-1.047142e+03
2.850000e-06	-3.441390e-06	-1.625951e-08	-2.465899e+01	-1.064501e+03
2.860000e-06	-3.518884e-06	-1.651158e-08	-2.521426e+01	-1.080956e+03
2.870000e-06	-3.594860e-06	-1.675006e-08	-2.575866e+01	-1.096574e+03
2.880000e-06	-3.669489e-06	-1.697824e-08	-2.629341e+01	-1.111412e+03
2.890000e-06	-3.742771e-06	-1.719662e-08	-2.681851e+01	-1.125521e+03
2.900000e-06	-3.814786e-06	-1.740525e-08	-2.733452e+01	-1.138939e+03
2.910000e-06	-3.885428e-06	-1.760336e-08	-2.784070e+01	-1.151703e+03
2.920000e-06	-3.954465e-06	-1.779185e-08	-2.833538e+01	-1.163842e+03
2.930000e-06	-4.022006e-06	-1.796984e-08	-2.881934e+01	-1.175384e+03
2.940000e-06	-4.088194e-06	-1.813742e-08	-2.929361e+01	-1.186360e+03
